{
  "AcquisitionMatrixPE": 82,
  "AcquisitionNumber": 1,
  "AcquisitionTime": "11:22:30.097500",
  "BandwidthPerPixelPhaseEncode": 24.888,
  "BaseResolution": 82,
  "BodyPartExamined": "BRAIN",
  "ConsistencyInfo": "N4_VE11E_LATEST_20181129",
  "ConversionSoftware": "dcm2niix",
  "ConversionSoftwareVersion": "v1.0.20201102",
  "DerivedVendorReportedEchoSpacing": 0.00049,
  "DeviceSerialNumber": "66112",
  "DwellTime": 2e-06,
  "EchoTime": 0.0272,
  "EchoTrainLength": 82,
  "EffectiveEchoSpacing": 0.00049,
  "FlipAngle": 44,
  "ImageComments": "Unaliased MB8/PE3",
  "ImageOrientationPatientDICOM": [0.989919, 0.0900123, -0.109358, -0.0995051, 0.991427, -0.0846888],
  "ImageType": [
    "ORIGINAL",
    "PRIMARY",
    "M",
    "MB",
    "ND",
    "NORM",
    "MOSAIC"
],
  "ImagingFrequency": 123.259,
  "InPlanePhaseEncodingDirectionDICOM": "COL",
  "InstitutionAddress": "Maynard 3,Hanover,NH,US,03755",
  "InstitutionName": "Dartmouth College - PBS",
  "InstitutionalDepartmentName": "Department",
  "MRAcquisitionType": "2D",
  "MagneticFieldStrength": 3,
  "Manufacturer": "Siemens",
  "ManufacturersModelName": "Prisma",
  "Modality": "MR",
  "MultibandAccelerationFactor": 8,
  "PartialFourier": 1,
  "PatientPosition": "HFS",
  "PercentPhaseFOV": 100,
  "PercentSampling": 100,
  "PhaseEncodingDirection": "j-",
  "PhaseEncodingSteps": 82,
  "PhaseResolution": 1,
  "PixelBandwidth": 3050,
  "ProcedureStepDescription": "Wager_Wager^1076_spacetop",
  "ProtocolName": "func_run-01_task-social_acq-ap-mb8",
  "PulseSequenceDetails": "%CustomerSeq%\\cmrr_mbep2d_bold",
  "ReceiveCoilActiveElements": "HEA;HEP",
  "ReceiveCoilName": "Head_32",
  "ReconMatrixPE": 82,
  "RepetitionTime": 0.46,
  "SAR": 0.0849589,
  "ScanOptions": "FS",
  "ScanningSequence": "EP",
  "SequenceName": "epfid2d1_82",
  "SequenceVariant": "SK\\SS",
  "SeriesDescription": "func_run-01_task-social_acq-ap-mb8",
  "SeriesNumber": 8,
  "ShimSetting": [4171, -7740, -7261, 243, -188, 136, -71, 130],
  "SliceThickness": 2.7,
  "SliceTiming": [0, 0.2525, 0.0625, 0.315, 0.125, 0.3775, 0.19, 0, 0.2525, 0.0625, 0.315, 0.125, 0.3775, 0.19, 0, 0.2525, 0.0625, 0.315, 0.125, 0.3775, 0.19, 0, 0.2525, 0.0625, 0.315, 0.125, 0.3775, 0.19, 0, 0.2525, 0.0625, 0.315, 0.125, 0.3775, 0.19, 0, 0.2525, 0.0625, 0.315, 0.125, 0.3775, 0.19, 0, 0.2525, 0.0625, 0.315, 0.125, 0.3775, 0.19, 0, 0.2525, 0.0625, 0.315, 0.125, 0.3775, 0.19],
  "SoftwareVersions": "syngo MR E11",
  "SpacingBetweenSlices": 2.7,
  "StationName": "AWP66112",
  "TaskName": "social",
  "TotalReadoutTime": 0.03969,
  "TxRefAmp": 245.916,
  "WipMemBlock": "65fc4721-fabf-46e6-accf-2b2a3e37d2e9||Sequence: R016 ve11e/master r/434b28f1; Aug  7 2019 18:53:46 by eja",
  "dcmmeta_affine": [
    [-2.655879020690918, -0.26696479320526123, -0.27215173840522766, 130.47056579589844],
    [-0.24149630963802338, 2.6599249839782715, -0.2557348906993866, -85.80413818359375],
    [-0.29339829087257385, 0.2272137999534607, 2.6740481853485107, -84.47953033447266],
    [0.0, 0.0, 0.0, 1.0]
],
  "dcmmeta_reorient_transform": [
    [0.0, -1.0, 0.0, 81.0],
    [1.0, 0.0, 0.0, 0.0],
    [0.0, 0.0, 1.0, 0.0],
    [0.0, 0.0, 0.0, 1.0]
],
  "dcmmeta_shape": [82, 82, 56, 872],
  "dcmmeta_slice_dim": 2,
  "dcmmeta_version": 0.6,
  "global": {
    "const": {
      "AccessionNumber": "A004872",
      "AcquisitionMatrix": [82, 0, 0, 82],
      "AngioFlag": "N",
      "BitsAllocated": 16,
      "BitsStored": 16,
      "BodyPartExamined": "BRAIN",
      "Columns": 656,
      "EchoNumbers": 1,
      "EchoTime": 27.2,
      "EchoTrainLength": 82,
      "FlipAngle": 44.0,
      "HighBit": 15,
      "ImageOrientationPatient": [0.98991854262923, 0.09001226111914, -0.1093575411531, -0.0995050558102, 0.99142652510092, -0.0846887784451],
      "ImagePositionPatient": [-794.46481748705, -962.35766285629, 83.340454343544],
      "ImageType": [
        "ORIGINAL",
        "PRIMARY",
        "M",
        "MB",
        "ND",
        "NORM",
        "MOSAIC"
],
      "ImagedNucleus": "1H",
      "ImagingFrequency": 123.259065,
      "InPlanePhaseEncodingDirection": "COL",
      "MRAcquisitionType": "2D",
      "MagneticFieldStrength": 3.0,
      "Manufacturer": "SIEMENS",
      "ManufacturerModelName": "Prisma",
      "Modality": "MR",
      "NumberOfAverages": 1.0,
      "NumberOfPhaseEncodingSteps": 82,
      "PercentPhaseFieldOfView": 100.0,
      "PercentSampling": 100.0,
      "PerformedProcedureStepStartTime": "110919.426000",
      "PhotometricInterpretation": "MONOCHROME2",
      "PixelBandwidth": 3050.0,
      "PixelRepresentation": 0,
      "PixelSpacing": [2.6829268932343, 2.6829268932343],
      "ProtocolName": "func_run-01_task-social_acq-ap-mb8",
      "RepetitionTime": 460.0,
      "Rows": 656,
      "SAR": 0.08495892494288,
      "SamplesPerPixel": 1,
      "ScanOptions": "FS",
      "ScanningSequence": "EP",
      "SequenceName": "epfid2d1_82",
      "SequenceVariant": [
        "SK",
        "SS"
],
      "SeriesDescription": "func_run-01_task-social_acq-ap-mb8",
      "SeriesNumber": 8,
      "SeriesTime": "112248.384000",
      "SliceLocation": -88.691486268513,
      "SliceThickness": 2.7000000476837,
      "SmallestImagePixelValue": 0,
      "SoftwareVersions": "syngo MR E11",
      "SpacingBetweenSlices": 2.7000000507925,
      "SpecificCharacterSet": "ISO_IR 100",
      "StudyID": "2",
      "StudyTime": "110919.367000",
      "TransmitCoilName": "Body",
      "VariableFlipAngleFlag": "N",
      "WindowCenterWidthExplanation": "Algo1"
    },
    "slices": {}
  },
  "time": {
    "samples": {
      "AcquisitionNumber": [1, 2, 3, 4, 5, 6, 7, 8, 9, 10, 11, 12, 13, 14, 15, 16, 17, 18, 19, 20, 21, 22, 23, 24, 25, 26, 27, 28, 29, 30, 31, 32, 33, 34, 35, 36, 37, 38, 39, 40, 41, 42, 43, 44, 45, 46, 47, 48, 49, 50, 51, 52, 53, 54, 55, 56, 57, 58, 59, 60, 61, 62, 63, 64, 65, 66, 67, 68, 69, 70, 71, 72, 73, 74, 75, 76, 77, 78, 79, 80, 81, 82, 83, 84, 85, 86, 87, 88, 89, 90, 91, 92, 93, 94, 95, 96, 97, 98, 99, 100, 101, 102, 103, 104, 105, 106, 107, 108, 109, 110, 111, 112, 113, 114, 115, 116, 117, 118, 119, 120, 121, 122, 123, 124, 125, 126, 127, 128, 129, 130, 131, 132, 133, 134, 135, 136, 137, 138, 139, 140, 141, 142, 143, 144, 145, 146, 147, 148, 149, 150, 151, 152, 153, 154, 155, 156, 157, 158, 159, 160, 161, 162, 163, 164, 165, 166, 167, 168, 169, 170, 171, 172, 173, 174, 175, 176, 177, 178, 179, 180, 181, 182, 183, 184, 185, 186, 187, 188, 189, 190, 191, 192, 193, 194, 195, 196, 197, 198, 199, 200, 201, 202, 203, 204, 205, 206, 207, 208, 209, 210, 211, 212, 213, 214, 215, 216, 217, 218, 219, 220, 221, 222, 223, 224, 225, 226, 227, 228, 229, 230, 231, 232, 233, 234, 235, 236, 237, 238, 239, 240, 241, 242, 243, 244, 245, 246, 247, 248, 249, 250, 251, 252, 253, 254, 255, 256, 257, 258, 259, 260, 261, 262, 263, 264, 265, 266, 267, 268, 269, 270, 271, 272, 273, 274, 275, 276, 277, 278, 279, 280, 281, 282, 283, 284, 285, 286, 287, 288, 289, 290, 291, 292, 293, 294, 295, 296, 297, 298, 299, 300, 301, 302, 303, 304, 305, 306, 307, 308, 309, 310, 311, 312, 313, 314, 315, 316, 317, 318, 319, 320, 321, 322, 323, 324, 325, 326, 327, 328, 329, 330, 331, 332, 333, 334, 335, 336, 337, 338, 339, 340, 341, 342, 343, 344, 345, 346, 347, 348, 349, 350, 351, 352, 353, 354, 355, 356, 357, 358, 359, 360, 361, 362, 363, 364, 365, 366, 367, 368, 369, 370, 371, 372, 373, 374, 375, 376, 377, 378, 379, 380, 381, 382, 383, 384, 385, 386, 387, 388, 389, 390, 391, 392, 393, 394, 395, 396, 397, 398, 399, 400, 401, 402, 403, 404, 405, 406, 407, 408, 409, 410, 411, 412, 413, 414, 415, 416, 417, 418, 419, 420, 421, 422, 423, 424, 425, 426, 427, 428, 429, 430, 431, 432, 433, 434, 435, 436, 437, 438, 439, 440, 441, 442, 443, 444, 445, 446, 447, 448, 449, 450, 451, 452, 453, 454, 455, 456, 457, 458, 459, 460, 461, 462, 463, 464, 465, 466, 467, 468, 469, 470, 471, 472, 473, 474, 475, 476, 477, 478, 479, 480, 481, 482, 483, 484, 485, 486, 487, 488, 489, 490, 491, 492, 493, 494, 495, 496, 497, 498, 499, 500, 501, 502, 503, 504, 505, 506, 507, 508, 509, 510, 511, 512, 513, 514, 515, 516, 517, 518, 519, 520, 521, 522, 523, 524, 525, 526, 527, 528, 529, 530, 531, 532, 533, 534, 535, 536, 537, 538, 539, 540, 541, 542, 543, 544, 545, 546, 547, 548, 549, 550, 551, 552, 553, 554, 555, 556, 557, 558, 559, 560, 561, 562, 563, 564, 565, 566, 567, 568, 569, 570, 571, 572, 573, 574, 575, 576, 577, 578, 579, 580, 581, 582, 583, 584, 585, 586, 587, 588, 589, 590, 591, 592, 593, 594, 595, 596, 597, 598, 599, 600, 601, 602, 603, 604, 605, 606, 607, 608, 609, 610, 611, 612, 613, 614, 615, 616, 617, 618, 619, 620, 621, 622, 623, 624, 625, 626, 627, 628, 629, 630, 631, 632, 633, 634, 635, 636, 637, 638, 639, 640, 641, 642, 643, 644, 645, 646, 647, 648, 649, 650, 651, 652, 653, 654, 655, 656, 657, 658, 659, 660, 661, 662, 663, 664, 665, 666, 667, 668, 669, 670, 671, 672, 673, 674, 675, 676, 677, 678, 679, 680, 681, 682, 683, 684, 685, 686, 687, 688, 689, 690, 691, 692, 693, 694, 695, 696, 697, 698, 699, 700, 701, 702, 703, 704, 705, 706, 707, 708, 709, 710, 711, 712, 713, 714, 715, 716, 717, 718, 719, 720, 721, 722, 723, 724, 725, 726, 727, 728, 729, 730, 731, 732, 733, 734, 735, 736, 737, 738, 739, 740, 741, 742, 743, 744, 745, 746, 747, 748, 749, 750, 751, 752, 753, 754, 755, 756, 757, 758, 759, 760, 761, 762, 763, 764, 765, 766, 767, 768, 769, 770, 771, 772, 773, 774, 775, 776, 777, 778, 779, 780, 781, 782, 783, 784, 785, 786, 787, 788, 789, 790, 791, 792, 793, 794, 795, 796, 797, 798, 799, 800, 801, 802, 803, 804, 805, 806, 807, 808, 809, 810, 811, 812, 813, 814, 815, 816, 817, 818, 819, 820, 821, 822, 823, 824, 825, 826, 827, 828, 829, 830, 831, 832, 833, 834, 835, 836, 837, 838, 839, 840, 841, 842, 843, 844, 845, 846, 847, 848, 849, 850, 851, 852, 853, 854, 855, 856, 857, 858, 859, 860, 861, 862, 863, 864, 865, 866, 867, 868, 869, 870, 871, 872],
      "AcquisitionTime": ["112230.097500", "112230.557500", "112231.017500", "112231.477500", "112231.937500", "112232.397500", "112232.857500", "112233.317500", "112233.777500", "112234.237500", "112234.697500", "112235.157500", "112235.617500", "112236.077500", "112236.537500", "112236.997500", "112237.457500", "112237.917500", "112238.377500", "112238.837500", "112239.297500", "112239.757500", "112240.217500", "112240.677500", "112241.137500", "112241.597500", "112242.057500", "112242.517500", "112242.977500", "112243.437500", "112243.897500", "112244.357500", "112244.817500", "112245.277500", "112245.737500", "112246.197500", "112246.657500", "112247.117500", "112247.577500", "112248.037500", "112248.497500", "112248.957500", "112249.417500", "112249.877500", "112250.337500", "112250.797500", "112251.257500", "112251.717500", "112252.177500", "112252.637500", "112253.097500", "112253.557500", "112254.017500", "112254.477500", "112254.937500", "112255.397500", "112255.857500", "112256.317500", "112256.777500", "112257.237500", "112257.697500", "112258.157500", "112258.617500", "112259.077500", "112259.537500", "112259.997500", "112300.457500", "112300.917500", "112301.377500", "112301.837500", "112302.297500", "112302.757500", "112303.217500", "112303.677500", "112304.137500", "112304.597500", "112305.057500", "112305.517500", "112305.977500", "112306.437500", "112306.897500", "112307.357500", "112307.817500", "112308.277500", "112308.737500", "112309.197500", "112309.657500", "112310.117500", "112310.577500", "112311.037500", "112311.497500", "112311.957500", "112312.417500", "112312.877500", "112313.337500", "112313.797500", "112314.257500", "112314.717500", "112315.177500", "112315.637500", "112316.097500", "112316.557500", "112317.017500", "112317.477500", "112317.937500", "112318.397500", "112318.857500", "112319.317500", "112319.777500", "112320.237500", "112320.697500", "112321.157500", "112321.617500", "112322.077500", "112322.537500", "112322.997500", "112323.457500", "112323.917500", "112324.377500", "112324.837500", "112325.297500", "112325.757500", "112326.217500", "112326.677500", "112327.137500", "112327.597500", "112328.057500", "112328.517500", "112328.977500", "112329.437500", "112329.897500", "112330.357500", "112330.817500", "112331.277500", "112331.737500", "112332.197500", "112332.657500", "112333.117500", "112333.577500", "112334.037500", "112334.497500", "112334.957500", "112335.417500", "112335.877500", "112336.337500", "112336.797500", "112337.257500", "112337.717500", "112338.177500", "112338.637500", "112339.097500", "112339.557500", "112340.017500", "112340.477500", "112340.937500", "112341.397500", "112341.857500", "112342.317500", "112342.777500", "112343.237500", "112343.697500", "112344.157500", "112344.617500", "112345.077500", "112345.537500", "112345.997500", "112346.457500", "112346.917500", "112347.377500", "112347.837500", "112348.297500", "112348.757500", "112349.217500", "112349.677500", "112350.137500", "112350.597500", "112351.057500", "112351.517500", "112351.977500", "112352.437500", "112352.897500", "112353.357500", "112353.817500", "112354.277500", "112354.737500", "112355.197500", "112355.657500", "112356.117500", "112356.577500", "112357.037500", "112357.497500", "112357.957500", "112358.417500", "112358.877500", "112359.337500", "112359.797500", "112400.257500", "112400.717500", "112401.177500", "112401.637500", "112402.097500", "112402.557500", "112403.017500", "112403.477500", "112403.937500", "112404.397500", "112404.857500", "112405.317500", "112405.777500", "112406.237500", "112406.697500", "112407.157500", "112407.617500", "112408.077500", "112408.537500", "112408.997500", "112409.457500", "112409.917500", "112410.377500", "112410.837500", "112411.297500", "112411.757500", "112412.217500", "112412.677500", "112413.137500", "112413.597500", "112414.057500", "112414.517500", "112414.977500", "112415.437500", "112415.897500", "112416.357500", "112416.817500", "112417.277500", "112417.737500", "112418.197500", "112418.657500", "112419.117500", "112419.577500", "112420.037500", "112420.497500", "112420.957500", "112421.417500", "112421.877500", "112422.337500", "112422.797500", "112423.257500", "112423.717500", "112424.177500", "112424.637500", "112425.097500", "112425.557500", "112426.017500", "112426.477500", "112426.937500", "112427.397500", "112427.857500", "112428.317500", "112428.777500", "112429.237500", "112429.697500", "112430.157500", "112430.617500", "112431.077500", "112431.537500", "112431.997500", "112432.457500", "112432.917500", "112433.377500", "112433.837500", "112434.297500", "112434.757500", "112435.217500", "112435.677500", "112436.137500", "112436.597500", "112437.057500", "112437.517500", "112437.977500", "112438.437500", "112438.897500", "112439.357500", "112439.817500", "112440.277500", "112440.737500", "112441.197500", "112441.657500", "112442.117500", "112442.577500", "112443.037500", "112443.497500", "112443.957500", "112444.417500", "112444.877500", "112445.337500", "112445.797500", "112446.257500", "112446.717500", "112447.177500", "112447.637500", "112448.097500", "112448.557500", "112449.017500", "112449.477500", "112449.937500", "112450.397500", "112450.857500", "112451.317500", "112451.777500", "112452.237500", "112452.697500", "112453.157500", "112453.617500", "112454.077500", "112454.537500", "112454.997500", "112455.457500", "112455.917500", "112456.377500", "112456.837500", "112457.297500", "112457.757500", "112458.217500", "112458.677500", "112459.137500", "112459.597500", "112500.057500", "112500.517500", "112500.977500", "112501.437500", "112501.897500", "112502.357500", "112502.817500", "112503.277500", "112503.737500", "112504.197500", "112504.657500", "112505.117500", "112505.577500", "112506.037500", "112506.497500", "112506.957500", "112507.417500", "112507.877500", "112508.337500", "112508.797500", "112509.257500", "112509.717500", "112510.177500", "112510.637500", "112511.097500", "112511.557500", "112512.017500", "112512.477500", "112512.937500", "112513.397500", "112513.857500", "112514.317500", "112514.777500", "112515.237500", "112515.697500", "112516.157500", "112516.617500", "112517.077500", "112517.537500", "112517.997500", "112518.457500", "112518.917500", "112519.377500", "112519.837500", "112520.297500", "112520.757500", "112521.217500", "112521.677500", "112522.137500", "112522.597500", "112523.057500", "112523.517500", "112523.977500", "112524.437500", "112524.897500", "112525.357500", "112525.817500", "112526.277500", "112526.737500", "112527.197500", "112527.657500", "112528.117500", "112528.577500", "112529.037500", "112529.497500", "112529.957500", "112530.417500", "112530.877500", "112531.337500", "112531.797500", "112532.257500", "112532.717500", "112533.177500", "112533.637500", "112534.097500", "112534.557500", "112535.017500", "112535.477500", "112535.937500", "112536.397500", "112536.857500", "112537.317500", "112537.777500", "112538.237500", "112538.697500", "112539.157500", "112539.617500", "112540.077500", "112540.537500", "112540.997500", "112541.457500", "112541.917500", "112542.377500", "112542.837500", "112543.297500", "112543.757500", "112544.217500", "112544.677500", "112545.137500", "112545.597500", "112546.057500", "112546.517500", "112546.977500", "112547.437500", "112547.897500", "112548.357500", "112548.817500", "112549.277500", "112549.737500", "112550.197500", "112550.657500", "112551.117500", "112551.577500", "112552.037500", "112552.497500", "112552.957500", "112553.417500", "112553.877500", "112554.337500", "112554.797500", "112555.257500", "112555.717500", "112556.177500", "112556.637500", "112557.097500", "112557.557500", "112558.017500", "112558.477500", "112558.937500", "112559.397500", "112559.857500", "112600.317500", "112600.777500", "112601.237500", "112601.697500", "112602.157500", "112602.617500", "112603.077500", "112603.537500", "112603.997500", "112604.457500", "112604.917500", "112605.377500", "112605.837500", "112606.297500", "112606.757500", "112607.217500", "112607.677500", "112608.137500", "112608.597500", "112609.057500", "112609.517500", "112609.977500", "112610.437500", "112610.897500", "112611.357500", "112611.817500", "112612.277500", "112612.737500", "112613.197500", "112613.657500", "112614.117500", "112614.577500", "112615.037500", "112615.497500", "112615.957500", "112616.417500", "112616.877500", "112617.337500", "112617.797500", "112618.257500", "112618.717500", "112619.177500", "112619.637500", "112620.097500", "112620.557500", "112621.017500", "112621.477500", "112621.937500", "112622.397500", "112622.857500", "112623.317500", "112623.777500", "112624.237500", "112624.697500", "112625.157500", "112625.617500", "112626.077500", "112626.537500", "112626.997500", "112627.457500", "112627.917500", "112628.377500", "112628.837500", "112629.297500", "112629.757500", "112630.217500", "112630.677500", "112631.137500", "112631.597500", "112632.057500", "112632.517500", "112632.977500", "112633.437500", "112633.897500", "112634.357500", "112634.817500", "112635.277500", "112635.737500", "112636.197500", "112636.657500", "112637.117500", "112637.577500", "112638.037500", "112638.497500", "112638.957500", "112639.417500", "112639.877500", "112640.337500", "112640.797500", "112641.257500", "112641.717500", "112642.177500", "112642.637500", "112643.097500", "112643.557500", "112644.017500", "112644.477500", "112644.937500", "112645.397500", "112645.857500", "112646.317500", "112646.777500", "112647.237500", "112647.697500", "112648.157500", "112648.617500", "112649.077500", "112649.537500", "112649.997500", "112650.457500", "112650.917500", "112651.377500", "112651.837500", "112652.297500", "112652.757500", "112653.217500", "112653.677500", "112654.137500", "112654.597500", "112655.057500", "112655.517500", "112655.977500", "112656.437500", "112656.897500", "112657.357500", "112657.817500", "112658.277500", "112658.737500", "112659.197500", "112659.657500", "112700.117500", "112700.577500", "112701.037500", "112701.497500", "112701.957500", "112702.417500", "112702.877500", "112703.337500", "112703.797500", "112704.257500", "112704.717500", "112705.177500", "112705.637500", "112706.097500", "112706.557500", "112707.017500", "112707.477500", "112707.937500", "112708.397500", "112708.857500", "112709.317500", "112709.777500", "112710.237500", "112710.697500", "112711.157500", "112711.617500", "112712.077500", "112712.537500", "112712.997500", "112713.457500", "112713.917500", "112714.377500", "112714.837500", "112715.297500", "112715.757500", "112716.217500", "112716.677500", "112717.137500", "112717.597500", "112718.057500", "112718.517500", "112718.977500", "112719.437500", "112719.897500", "112720.357500", "112720.817500", "112721.277500", "112721.737500", "112722.197500", "112722.657500", "112723.117500", "112723.577500", "112724.037500", "112724.497500", "112724.957500", "112725.417500", "112725.877500", "112726.337500", "112726.797500", "112727.257500", "112727.717500", "112728.177500", "112728.637500", "112729.097500", "112729.557500", "112730.017500", "112730.477500", "112730.937500", "112731.397500", "112731.857500", "112732.317500", "112732.777500", "112733.237500", "112733.697500", "112734.157500", "112734.617500", "112735.077500", "112735.537500", "112735.997500", "112736.457500", "112736.917500", "112737.377500", "112737.837500", "112738.297500", "112738.757500", "112739.217500", "112739.677500", "112740.137500", "112740.597500", "112741.057500", "112741.517500", "112741.977500", "112742.437500", "112742.897500", "112743.357500", "112743.817500", "112744.277500", "112744.737500", "112745.197500", "112745.657500", "112746.117500", "112746.577500", "112747.037500", "112747.497500", "112747.957500", "112748.417500", "112748.877500", "112749.337500", "112749.797500", "112750.257500", "112750.717500", "112751.177500", "112751.637500", "112752.097500", "112752.557500", "112753.017500", "112753.477500", "112753.937500", "112754.397500", "112754.857500", "112755.317500", "112755.777500", "112756.237500", "112756.697500", "112757.157500", "112757.617500", "112758.077500", "112758.537500", "112758.997500", "112759.457500", "112759.917500", "112800.377500", "112800.837500", "112801.297500", "112801.757500", "112802.217500", "112802.677500", "112803.137500", "112803.597500", "112804.057500", "112804.517500", "112804.977500", "112805.437500", "112805.897500", "112806.357500", "112806.817500", "112807.277500", "112807.737500", "112808.197500", "112808.657500", "112809.117500", "112809.577500", "112810.037500", "112810.497500", "112810.957500", "112811.417500", "112811.877500", "112812.337500", "112812.797500", "112813.257500", "112813.717500", "112814.177500", "112814.637500", "112815.097500", "112815.557500", "112816.017500", "112816.477500", "112816.937500", "112817.397500", "112817.857500", "112818.317500", "112818.777500", "112819.237500", "112819.697500", "112820.157500", "112820.617500", "112821.077500", "112821.537500", "112821.997500", "112822.457500", "112822.917500", "112823.377500", "112823.837500", "112824.297500", "112824.757500", "112825.217500", "112825.677500", "112826.137500", "112826.597500", "112827.057500", "112827.517500", "112827.977500", "112828.437500", "112828.897500", "112829.357500", "112829.817500", "112830.277500", "112830.737500", "112831.197500", "112831.657500", "112832.117500", "112832.577500", "112833.037500", "112833.497500", "112833.957500", "112834.417500", "112834.877500", "112835.337500", "112835.797500", "112836.257500", "112836.717500", "112837.177500", "112837.637500", "112838.097500", "112838.557500", "112839.017500", "112839.477500", "112839.937500", "112840.397500", "112840.857500", "112841.317500", "112841.777500", "112842.237500", "112842.697500", "112843.157500", "112843.617500", "112844.077500", "112844.537500", "112844.997500", "112845.457500", "112845.917500", "112846.377500", "112846.837500", "112847.297500", "112847.757500", "112848.217500", "112848.677500", "112849.137500", "112849.597500", "112850.057500", "112850.517500", "112850.977500", "112851.437500", "112851.897500", "112852.357500", "112852.817500", "112853.277500", "112853.737500", "112854.197500", "112854.657500", "112855.117500", "112855.577500", "112856.037500", "112856.497500", "112856.957500", "112857.417500", "112857.877500", "112858.337500", "112858.797500", "112859.257500", "112859.717500", "112900.177500", "112900.637500", "112901.097500", "112901.557500", "112902.017500", "112902.477500", "112902.937500", "112903.397500", "112903.857500", "112904.317500", "112904.777500", "112905.237500", "112905.697500", "112906.157500", "112906.617500", "112907.077500", "112907.537500", "112907.997500", "112908.457500", "112908.917500", "112909.377500", "112909.837500", "112910.297500", "112910.757500"],
