{
  "AcquisitionMatrixPE": 82,
  "AcquisitionNumber": 1,
  "AcquisitionTime": "11:53:7.617500",
  "BandwidthPerPixelPhaseEncode": 24.888,
  "BaseResolution": 82,
  "BodyPartExamined": "BRAIN",
  "ConsistencyInfo": "N4_VE11E_LATEST_20181129",
  "ConversionSoftware": "dcm2niix",
  "ConversionSoftwareVersion": "v1.0.20201102",
  "DerivedVendorReportedEchoSpacing": 0.00049,
  "DeviceSerialNumber": "66112",
  "DwellTime": 2e-06,
  "EchoTime": 0.0272,
  "EchoTrainLength": 82,
  "EffectiveEchoSpacing": 0.00049,
  "FlipAngle": 44,
  "ImageComments": "Unaliased MB8/PE3",
  "ImageOrientationPatientDICOM": [0.989919, 0.0900123, -0.109358, -0.0995051, 0.991427, -0.0846888],
  "ImageType": [
    "ORIGINAL",
    "PRIMARY",
    "M",
    "MB",
    "ND",
    "NORM",
    "MOSAIC"
],
  "ImagingFrequency": 123.259,
  "InPlanePhaseEncodingDirectionDICOM": "COL",
  "InstitutionAddress": "Maynard 3,Hanover,NH,US,03755",
  "InstitutionName": "Dartmouth College - PBS",
  "InstitutionalDepartmentName": "Department",
  "MRAcquisitionType": "2D",
  "MagneticFieldStrength": 3,
  "Manufacturer": "Siemens",
  "ManufacturersModelName": "Prisma",
  "Modality": "MR",
  "MultibandAccelerationFactor": 8,
  "PartialFourier": 1,
  "PatientPosition": "HFS",
  "PercentPhaseFOV": 100,
  "PercentSampling": 100,
  "PhaseEncodingDirection": "j-",
  "PhaseEncodingSteps": 82,
  "PhaseResolution": 1,
  "PixelBandwidth": 3050,
  "ProcedureStepDescription": "Wager_Wager^1076_spacetop",
  "ProtocolName": "func_run-05_task-social_acq-ap-mb8",
  "PulseSequenceDetails": "%CustomerSeq%\\cmrr_mbep2d_bold",
  "ReceiveCoilActiveElements": "HEA;HEP",
  "ReceiveCoilName": "Head_32",
  "ReconMatrixPE": 82,
  "RepetitionTime": 0.46,
  "SAR": 0.0849589,
  "ScanOptions": "FS",
  "ScanningSequence": "EP",
  "SequenceName": "epfid2d1_82",
  "SequenceVariant": "SK\\SS",
  "SeriesDescription": "func_run-05_task-social_acq-ap-mb8",
  "SeriesNumber": 16,
  "ShimSetting": [4171, -7740, -7261, 243, -188, 136, -71, 130],
  "SliceThickness": 2.7,
  "SliceTiming": [0, 0.2525, 0.0625, 0.315, 0.125, 0.3775, 0.19, 0, 0.2525, 0.0625, 0.315, 0.125, 0.3775, 0.19, 0, 0.2525, 0.0625, 0.315, 0.125, 0.3775, 0.19, 0, 0.2525, 0.0625, 0.315, 0.125, 0.3775, 0.19, 0, 0.2525, 0.0625, 0.315, 0.125, 0.3775, 0.19, 0, 0.2525, 0.0625, 0.315, 0.125, 0.3775, 0.19, 0, 0.2525, 0.0625, 0.315, 0.125, 0.3775, 0.19, 0, 0.2525, 0.0625, 0.315, 0.125, 0.3775, 0.19],
  "SoftwareVersions": "syngo MR E11",
  "SpacingBetweenSlices": 2.7,
  "StationName": "AWP66112",
  "TaskName": "social",
  "TotalReadoutTime": 0.03969,
  "TxRefAmp": 245.916,
  "WipMemBlock": "295dc9e0-baf9-466c-aff7-a7790aa2d160||Sequence: R016 ve11e/master r/434b28f1; Aug  7 2019 18:53:46 by eja",
  "dcmmeta_affine": [
    [-2.655879020690918, -0.26696479320526123, -0.27215173840522766, 130.47056579589844],
    [-0.24149630963802338, 2.6599249839782715, -0.2557348906993866, -85.80413818359375],
    [-0.29339829087257385, 0.2272137999534607, 2.6740481853485107, -84.47953033447266],
    [0.0, 0.0, 0.0, 1.0]
],
  "dcmmeta_reorient_transform": [
    [0.0, -1.0, 0.0, 81.0],
    [1.0, 0.0, 0.0, 0.0],
    [0.0, 0.0, 1.0, 0.0],
    [0.0, 0.0, 0.0, 1.0]
],
  "dcmmeta_shape": [82, 82, 56, 872],
  "dcmmeta_slice_dim": 2,
  "dcmmeta_version": 0.6,
  "global": {
    "const": {
      "AccessionNumber": "A004872",
      "AcquisitionMatrix": [82, 0, 0, 82],
      "AngioFlag": "N",
      "BitsAllocated": 16,
      "BitsStored": 16,
      "BodyPartExamined": "BRAIN",
      "Columns": 656,
      "EchoNumbers": 1,
      "EchoTime": 27.2,
      "EchoTrainLength": 82,
      "FlipAngle": 44.0,
      "HighBit": 15,
      "ImageOrientationPatient": [0.98991854262923, 0.09001226111914, -0.1093575411531, -0.0995050558102, 0.99142652510092, -0.0846887784451],
      "ImagePositionPatient": [-794.46481748705, -962.35766285629, 83.340454343544],
      "ImageType": [
        "ORIGINAL",
        "PRIMARY",
        "M",
        "MB",
        "ND",
        "NORM",
        "MOSAIC"
],
      "ImagedNucleus": "1H",
      "ImagingFrequency": 123.259099,
      "InPlanePhaseEncodingDirection": "COL",
      "MRAcquisitionType": "2D",
      "MagneticFieldStrength": 3.0,
      "Manufacturer": "SIEMENS",
      "ManufacturerModelName": "Prisma",
      "Modality": "MR",
      "NumberOfAverages": 1.0,
      "NumberOfPhaseEncodingSteps": 82,
      "PercentPhaseFieldOfView": 100.0,
      "PercentSampling": 100.0,
      "PerformedProcedureStepStartTime": "110919.426000",
      "PhotometricInterpretation": "MONOCHROME2",
      "PixelBandwidth": 3050.0,
      "PixelRepresentation": 0,
      "PixelSpacing": [2.6829268932343, 2.6829268932343],
      "ProtocolName": "func_run-05_task-social_acq-ap-mb8",
      "RepetitionTime": 460.0,
      "Rows": 656,
      "SAR": 0.08495892494288,
      "SamplesPerPixel": 1,
      "ScanOptions": "FS",
      "ScanningSequence": "EP",
      "SequenceName": "epfid2d1_82",
      "SequenceVariant": [
        "SK",
        "SS"
],
      "SeriesDescription": "func_run-05_task-social_acq-ap-mb8",
      "SeriesNumber": 16,
      "SeriesTime": "115328.470000",
      "SliceLocation": -88.691486268513,
      "SliceThickness": 2.7000000476837,
      "SmallestImagePixelValue": 0,
      "SoftwareVersions": "syngo MR E11",
      "SpacingBetweenSlices": 2.7000000507925,
      "SpecificCharacterSet": "ISO_IR 100",
      "StudyID": "2",
      "StudyTime": "110919.367000",
      "TransmitCoilName": "Body",
      "VariableFlipAngleFlag": "N",
      "WindowCenterWidthExplanation": "Algo1"
    },
    "slices": {}
  },
  "time": {
    "samples": {
      "AcquisitionNumber": [1, 2, 3, 4, 5, 6, 7, 8, 9, 10, 11, 12, 13, 14, 15, 16, 17, 18, 19, 20, 21, 22, 23, 24, 25, 26, 27, 28, 29, 30, 31, 32, 33, 34, 35, 36, 37, 38, 39, 40, 41, 42, 43, 44, 45, 46, 47, 48, 49, 50, 51, 52, 53, 54, 55, 56, 57, 58, 59, 60, 61, 62, 63, 64, 65, 66, 67, 68, 69, 70, 71, 72, 73, 74, 75, 76, 77, 78, 79, 80, 81, 82, 83, 84, 85, 86, 87, 88, 89, 90, 91, 92, 93, 94, 95, 96, 97, 98, 99, 100, 101, 102, 103, 104, 105, 106, 107, 108, 109, 110, 111, 112, 113, 114, 115, 116, 117, 118, 119, 120, 121, 122, 123, 124, 125, 126, 127, 128, 129, 130, 131, 132, 133, 134, 135, 136, 137, 138, 139, 140, 141, 142, 143, 144, 145, 146, 147, 148, 149, 150, 151, 152, 153, 154, 155, 156, 157, 158, 159, 160, 161, 162, 163, 164, 165, 166, 167, 168, 169, 170, 171, 172, 173, 174, 175, 176, 177, 178, 179, 180, 181, 182, 183, 184, 185, 186, 187, 188, 189, 190, 191, 192, 193, 194, 195, 196, 197, 198, 199, 200, 201, 202, 203, 204, 205, 206, 207, 208, 209, 210, 211, 212, 213, 214, 215, 216, 217, 218, 219, 220, 221, 222, 223, 224, 225, 226, 227, 228, 229, 230, 231, 232, 233, 234, 235, 236, 237, 238, 239, 240, 241, 242, 243, 244, 245, 246, 247, 248, 249, 250, 251, 252, 253, 254, 255, 256, 257, 258, 259, 260, 261, 262, 263, 264, 265, 266, 267, 268, 269, 270, 271, 272, 273, 274, 275, 276, 277, 278, 279, 280, 281, 282, 283, 284, 285, 286, 287, 288, 289, 290, 291, 292, 293, 294, 295, 296, 297, 298, 299, 300, 301, 302, 303, 304, 305, 306, 307, 308, 309, 310, 311, 312, 313, 314, 315, 316, 317, 318, 319, 320, 321, 322, 323, 324, 325, 326, 327, 328, 329, 330, 331, 332, 333, 334, 335, 336, 337, 338, 339, 340, 341, 342, 343, 344, 345, 346, 347, 348, 349, 350, 351, 352, 353, 354, 355, 356, 357, 358, 359, 360, 361, 362, 363, 364, 365, 366, 367, 368, 369, 370, 371, 372, 373, 374, 375, 376, 377, 378, 379, 380, 381, 382, 383, 384, 385, 386, 387, 388, 389, 390, 391, 392, 393, 394, 395, 396, 397, 398, 399, 400, 401, 402, 403, 404, 405, 406, 407, 408, 409, 410, 411, 412, 413, 414, 415, 416, 417, 418, 419, 420, 421, 422, 423, 424, 425, 426, 427, 428, 429, 430, 431, 432, 433, 434, 435, 436, 437, 438, 439, 440, 441, 442, 443, 444, 445, 446, 447, 448, 449, 450, 451, 452, 453, 454, 455, 456, 457, 458, 459, 460, 461, 462, 463, 464, 465, 466, 467, 468, 469, 470, 471, 472, 473, 474, 475, 476, 477, 478, 479, 480, 481, 482, 483, 484, 485, 486, 487, 488, 489, 490, 491, 492, 493, 494, 495, 496, 497, 498, 499, 500, 501, 502, 503, 504, 505, 506, 507, 508, 509, 510, 511, 512, 513, 514, 515, 516, 517, 518, 519, 520, 521, 522, 523, 524, 525, 526, 527, 528, 529, 530, 531, 532, 533, 534, 535, 536, 537, 538, 539, 540, 541, 542, 543, 544, 545, 546, 547, 548, 549, 550, 551, 552, 553, 554, 555, 556, 557, 558, 559, 560, 561, 562, 563, 564, 565, 566, 567, 568, 569, 570, 571, 572, 573, 574, 575, 576, 577, 578, 579, 580, 581, 582, 583, 584, 585, 586, 587, 588, 589, 590, 591, 592, 593, 594, 595, 596, 597, 598, 599, 600, 601, 602, 603, 604, 605, 606, 607, 608, 609, 610, 611, 612, 613, 614, 615, 616, 617, 618, 619, 620, 621, 622, 623, 624, 625, 626, 627, 628, 629, 630, 631, 632, 633, 634, 635, 636, 637, 638, 639, 640, 641, 642, 643, 644, 645, 646, 647, 648, 649, 650, 651, 652, 653, 654, 655, 656, 657, 658, 659, 660, 661, 662, 663, 664, 665, 666, 667, 668, 669, 670, 671, 672, 673, 674, 675, 676, 677, 678, 679, 680, 681, 682, 683, 684, 685, 686, 687, 688, 689, 690, 691, 692, 693, 694, 695, 696, 697, 698, 699, 700, 701, 702, 703, 704, 705, 706, 707, 708, 709, 710, 711, 712, 713, 714, 715, 716, 717, 718, 719, 720, 721, 722, 723, 724, 725, 726, 727, 728, 729, 730, 731, 732, 733, 734, 735, 736, 737, 738, 739, 740, 741, 742, 743, 744, 745, 746, 747, 748, 749, 750, 751, 752, 753, 754, 755, 756, 757, 758, 759, 760, 761, 762, 763, 764, 765, 766, 767, 768, 769, 770, 771, 772, 773, 774, 775, 776, 777, 778, 779, 780, 781, 782, 783, 784, 785, 786, 787, 788, 789, 790, 791, 792, 793, 794, 795, 796, 797, 798, 799, 800, 801, 802, 803, 804, 805, 806, 807, 808, 809, 810, 811, 812, 813, 814, 815, 816, 817, 818, 819, 820, 821, 822, 823, 824, 825, 826, 827, 828, 829, 830, 831, 832, 833, 834, 835, 836, 837, 838, 839, 840, 841, 842, 843, 844, 845, 846, 847, 848, 849, 850, 851, 852, 853, 854, 855, 856, 857, 858, 859, 860, 861, 862, 863, 864, 865, 866, 867, 868, 869, 870, 871, 872],
      "AcquisitionTime": ["115307.617500", "115308.077500", "115308.537500", "115308.997500", "115309.457500", "115309.917500", "115310.377500", "115310.837500", "115311.297500", "115311.757500", "115312.217500", "115312.677500", "115313.137500", "115313.597500", "115314.057500", "115314.517500", "115314.977500", "115315.437500", "115315.897500", "115316.357500", "115316.817500", "115317.277500", "115317.737500", "115318.197500", "115318.657500", "115319.117500", "115319.577500", "115320.037500", "115320.497500", "115320.957500", "115321.417500", "115321.877500", "115322.337500", "115322.797500", "115323.257500", "115323.717500", "115324.177500", "115324.637500", "115325.097500", "115325.557500", "115326.017500", "115326.477500", "115326.937500", "115327.397500", "115327.857500", "115328.317500", "115328.777500", "115329.237500", "115329.697500", "115330.157500", "115330.617500", "115331.077500", "115331.537500", "115331.997500", "115332.457500", "115332.917500", "115333.377500", "115333.837500", "115334.297500", "115334.757500", "115335.217500", "115335.677500", "115336.137500", "115336.597500", "115337.057500", "115337.517500", "115337.977500", "115338.437500", "115338.897500", "115339.357500", "115339.817500", "115340.277500", "115340.737500", "115341.197500", "115341.657500", "115342.117500", "115342.577500", "115343.037500", "115343.497500", "115343.957500", "115344.417500", "115344.877500", "115345.337500", "115345.797500", "115346.257500", "115346.717500", "115347.177500", "115347.637500", "115348.097500", "115348.557500", "115349.017500", "115349.477500", "115349.937500", "115350.397500", "115350.857500", "115351.317500", "115351.777500", "115352.237500", "115352.697500", "115353.157500", "115353.617500", "115354.077500", "115354.537500", "115354.997500", "115355.457500", "115355.917500", "115356.377500", "115356.837500", "115357.297500", "115357.757500", "115358.217500", "115358.677500", "115359.137500", "115359.597500", "115400.057500", "115400.517500", "115400.977500", "115401.437500", "115401.897500", "115402.357500", "115402.817500", "115403.277500", "115403.737500", "115404.197500", "115404.657500", "115405.117500", "115405.577500", "115406.037500", "115406.497500", "115406.957500", "115407.417500", "115407.877500", "115408.337500", "115408.797500", "115409.257500", "115409.717500", "115410.177500", "115410.637500", "115411.097500", "115411.557500", "115412.017500", "115412.477500", "115412.937500", "115413.397500", "115413.857500", "115414.317500", "115414.777500", "115415.237500", "115415.697500", "115416.157500", "115416.617500", "115417.077500", "115417.537500", "115417.997500", "115418.457500", "115418.917500", "115419.377500", "115419.837500", "115420.297500", "115420.757500", "115421.217500", "115421.677500", "115422.137500", "115422.597500", "115423.057500", "115423.517500", "115423.977500", "115424.437500", "115424.897500", "115425.357500", "115425.817500", "115426.277500", "115426.737500", "115427.197500", "115427.657500", "115428.117500", "115428.577500", "115429.037500", "115429.497500", "115429.957500", "115430.417500", "115430.877500", "115431.337500", "115431.797500", "115432.257500", "115432.717500", "115433.177500", "115433.637500", "115434.097500", "115434.557500", "115435.017500", "115435.477500", "115435.937500", "115436.397500", "115436.857500", "115437.317500", "115437.777500", "115438.237500", "115438.697500", "115439.157500", "115439.617500", "115440.077500", "115440.537500", "115440.997500", "115441.457500", "115441.917500", "115442.377500", "115442.837500", "115443.297500", "115443.757500", "115444.217500", "115444.677500", "115445.137500", "115445.597500", "115446.057500", "115446.517500", "115446.977500", "115447.437500", "115447.897500", "115448.357500", "115448.817500", "115449.277500", "115449.737500", "115450.197500", "115450.657500", "115451.117500", "115451.577500", "115452.037500", "115452.497500", "115452.957500", "115453.417500", "115453.877500", "115454.337500", "115454.797500", "115455.257500", "115455.717500", "115456.177500", "115456.637500", "115457.097500", "115457.557500", "115458.017500", "115458.477500", "115458.937500", "115459.397500", "115459.857500", "115500.317500", "115500.777500", "115501.237500", "115501.697500", "115502.157500", "115502.617500", "115503.077500", "115503.537500", "115503.997500", "115504.457500", "115504.917500", "115505.377500", "115505.837500", "115506.297500", "115506.757500", "115507.217500", "115507.677500", "115508.137500", "115508.597500", "115509.057500", "115509.517500", "115509.977500", "115510.437500", "115510.897500", "115511.357500", "115511.817500", "115512.277500", "115512.737500", "115513.197500", "115513.657500", "115514.117500", "115514.577500", "115515.037500", "115515.497500", "115515.957500", "115516.417500", "115516.877500", "115517.337500", "115517.797500", "115518.257500", "115518.717500", "115519.177500", "115519.637500", "115520.097500", "115520.557500", "115521.017500", "115521.477500", "115521.937500", "115522.397500", "115522.857500", "115523.317500", "115523.777500", "115524.237500", "115524.697500", "115525.157500", "115525.617500", "115526.077500", "115526.537500", "115526.997500", "115527.457500", "115527.917500", "115528.377500", "115528.837500", "115529.297500", "115529.757500", "115530.217500", "115530.677500", "115531.137500", "115531.597500", "115532.057500", "115532.517500", "115532.977500", "115533.437500", "115533.897500", "115534.357500", "115534.817500", "115535.277500", "115535.737500", "115536.197500", "115536.657500", "115537.117500", "115537.577500", "115538.037500", "115538.497500", "115538.957500", "115539.417500", "115539.877500", "115540.337500", "115540.797500", "115541.257500", "115541.717500", "115542.177500", "115542.637500", "115543.097500", "115543.557500", "115544.017500", "115544.477500", "115544.937500", "115545.397500", "115545.857500", "115546.317500", "115546.777500", "115547.237500", "115547.697500", "115548.157500", "115548.617500", "115549.077500", "115549.537500", "115549.997500", "115550.457500", "115550.917500", "115551.377500", "115551.837500", "115552.297500", "115552.757500", "115553.217500", "115553.677500", "115554.137500", "115554.597500", "115555.057500", "115555.517500", "115555.977500", "115556.437500", "115556.897500", "115557.357500", "115557.817500", "115558.277500", "115558.737500", "115559.197500", "115559.657500", "115600.117500", "115600.577500", "115601.037500", "115601.497500", "115601.957500", "115602.417500", "115602.877500", "115603.337500", "115603.797500", "115604.257500", "115604.717500", "115605.177500", "115605.637500", "115606.097500", "115606.557500", "115607.017500", "115607.477500", "115607.937500", "115608.397500", "115608.857500", "115609.317500", "115609.777500", "115610.237500", "115610.697500", "115611.157500", "115611.617500", "115612.077500", "115612.537500", "115612.997500", "115613.457500", "115613.917500", "115614.377500", "115614.837500", "115615.297500", "115615.757500", "115616.217500", "115616.677500", "115617.137500", "115617.597500", "115618.057500", "115618.517500", "115618.977500", "115619.437500", "115619.897500", "115620.357500", "115620.817500", "115621.277500", "115621.737500", "115622.197500", "115622.657500", "115623.117500", "115623.577500", "115624.037500", "115624.497500", "115624.957500", "115625.417500", "115625.877500", "115626.337500", "115626.797500", "115627.257500", "115627.717500", "115628.177500", "115628.637500", "115629.097500", "115629.557500", "115630.017500", "115630.477500", "115630.937500", "115631.397500", "115631.857500", "115632.317500", "115632.777500", "115633.237500", "115633.697500", "115634.157500", "115634.617500", "115635.077500", "115635.537500", "115635.997500", "115636.457500", "115636.917500", "115637.377500", "115637.837500", "115638.297500", "115638.757500", "115639.217500", "115639.677500", "115640.137500", "115640.597500", "115641.057500", "115641.517500", "115641.977500", "115642.437500", "115642.897500", "115643.357500", "115643.817500", "115644.277500", "115644.737500", "115645.197500", "115645.657500", "115646.117500", "115646.577500", "115647.037500", "115647.497500", "115647.957500", "115648.417500", "115648.877500", "115649.337500", "115649.797500", "115650.257500", "115650.717500", "115651.177500", "115651.637500", "115652.097500", "115652.557500", "115653.017500", "115653.477500", "115653.937500", "115654.397500", "115654.857500", "115655.317500", "115655.777500", "115656.237500", "115656.697500", "115657.157500", "115657.617500", "115658.077500", "115658.537500", "115658.997500", "115659.457500", "115659.917500", "115700.377500", "115700.837500", "115701.297500", "115701.757500", "115702.217500", "115702.677500", "115703.137500", "115703.597500", "115704.057500", "115704.517500", "115704.977500", "115705.437500", "115705.897500", "115706.357500", "115706.817500", "115707.277500", "115707.737500", "115708.197500", "115708.657500", "115709.117500", "115709.577500", "115710.037500", "115710.497500", "115710.957500", "115711.417500", "115711.877500", "115712.337500", "115712.797500", "115713.257500", "115713.717500", "115714.177500", "115714.637500", "115715.097500", "115715.557500", "115716.017500", "115716.477500", "115716.937500", "115717.397500", "115717.857500", "115718.317500", "115718.777500", "115719.237500", "115719.697500", "115720.157500", "115720.617500", "115721.077500", "115721.537500", "115721.997500", "115722.457500", "115722.917500", "115723.377500", "115723.837500", "115724.297500", "115724.757500", "115725.217500", "115725.677500", "115726.137500", "115726.597500", "115727.057500", "115727.517500", "115727.977500", "115728.437500", "115728.897500", "115729.357500", "115729.817500", "115730.277500", "115730.737500", "115731.197500", "115731.657500", "115732.117500", "115732.577500", "115733.037500", "115733.497500", "115733.957500", "115734.417500", "115734.877500", "115735.337500", "115735.797500", "115736.257500", "115736.717500", "115737.177500", "115737.637500", "115738.097500", "115738.557500", "115739.017500", "115739.477500", "115739.937500", "115740.397500", "115740.857500", "115741.317500", "115741.777500", "115742.237500", "115742.697500", "115743.157500", "115743.617500", "115744.077500", "115744.537500", "115744.997500", "115745.457500", "115745.917500", "115746.377500", "115746.837500", "115747.297500", "115747.757500", "115748.217500", "115748.677500", "115749.137500", "115749.597500", "115750.057500", "115750.517500", "115750.977500", "115751.437500", "115751.897500", "115752.357500", "115752.817500", "115753.277500", "115753.737500", "115754.197500", "115754.657500", "115755.117500", "115755.577500", "115756.037500", "115756.497500", "115756.957500", "115757.417500", "115757.877500", "115758.337500", "115758.797500", "115759.257500", "115759.717500", "115800.177500", "115800.637500", "115801.097500", "115801.557500", "115802.017500", "115802.477500", "115802.937500", "115803.397500", "115803.857500", "115804.317500", "115804.777500", "115805.237500", "115805.697500", "115806.157500", "115806.617500", "115807.077500", "115807.537500", "115807.997500", "115808.457500", "115808.917500", "115809.377500", "115809.837500", "115810.297500", "115810.757500", "115811.217500", "115811.677500", "115812.137500", "115812.597500", "115813.057500", "115813.517500", "115813.977500", "115814.437500", "115814.897500", "115815.357500", "115815.817500", "115816.277500", "115816.737500", "115817.197500", "115817.657500", "115818.117500", "115818.577500", "115819.037500", "115819.497500", "115819.957500", "115820.417500", "115820.877500", "115821.337500", "115821.797500", "115822.257500", "115822.717500", "115823.177500", "115823.637500", "115824.097500", "115824.557500", "115825.017500", "115825.477500", "115825.937500", "115826.397500", "115826.857500", "115827.317500", "115827.777500", "115828.237500", "115828.697500", "115829.157500", "115829.617500", "115830.077500", "115830.537500", "115830.997500", "115831.457500", "115831.917500", "115832.377500", "115832.837500", "115833.297500", "115833.757500", "115834.217500", "115834.677500", "115835.137500", "115835.597500", "115836.057500", "115836.517500", "115836.977500", "115837.437500", "115837.897500", "115838.357500", "115838.817500", "115839.277500", "115839.737500", "115840.197500", "115840.657500", "115841.117500", "115841.577500", "115842.037500", "115842.497500", "115842.957500", "115843.417500", "115843.877500", "115844.337500", "115844.797500", "115845.257500", "115845.717500", "115846.177500", "115846.637500", "115847.097500", "115847.557500", "115848.017500", "115848.477500", "115848.937500", "115849.397500", "115849.857500", "115850.317500", "115850.777500", "115851.237500", "115851.697500", "115852.157500", "115852.617500", "115853.077500", "115853.537500", "115853.997500", "115854.457500", "115854.917500", "115855.377500", "115855.837500", "115856.297500", "115856.757500", "115857.217500", "115857.677500", "115858.137500", "115858.597500", "115859.057500", "115859.517500", "115859.977500", "115900.437500", "115900.897500", "115901.357500", "115901.817500", "115902.277500", "115902.737500", "115903.197500", "115903.657500", "115904.117500", "115904.577500", "115905.037500", "115905.497500", "115905.957500", "115906.417500", "115906.877500", "115907.337500", "115907.797500", "115908.257500", "115908.717500", "115909.177500", "115909.637500", "115910.097500", "115910.557500", "115911.017500", "115911.477500", "115911.937500", "115912.397500", "115912.857500", "115913.317500", "115913.777500", "115914.237500", "115914.697500", "115915.157500", "115915.617500", "115916.077500", "115916.537500", "115916.997500", "115917.457500", "115917.917500", "115918.377500", "115918.837500", "115919.297500", "115919.757500", "115920.217500", "115920.677500", "115921.137500", "115921.597500", "115922.057500", "115922.517500", "115922.977500", "115923.437500", "115923.897500", "115924.357500", "115924.817500", "115925.277500", "115925.737500", "115926.197500", "115926.657500", "115927.117500", "115927.577500", "115928.037500", "115928.497500", "115928.957500", "115929.417500", "115929.877500", "115930.337500", "115930.797500", "115931.257500", "115931.717500", "115932.177500", "115932.637500", "115933.097500", "115933.557500", "115934.017500", "115934.477500", "115934.937500", "115935.397500", "115935.857500", "115936.317500", "115936.777500", "115937.237500", "115937.697500", "115938.157500", "115938.617500", "115939.077500", "115939.537500", "115939.997500", "115940.457500", "115940.917500", "115941.377500", "115941.837500", "115942.297500", "115942.757500", "115943.217500", "115943.677500", "115944.137500", "115944.597500", "115945.057500", "115945.517500", "115945.977500", "115946.437500", "115946.897500", "115947.357500", "115947.817500", "115948.277500"],
