{
  "AcquisitionMatrixPE": 82,
  "AcquisitionNumber": 1,
  "AcquisitionTime": "12:58:30.330000",
  "BandwidthPerPixelPhaseEncode": 24.888,
  "BaseResolution": 82,
  "BodyPartExamined": "BRAIN",
  "ConsistencyInfo": "N4_VE11C_LATEST_20160120",
  "ConversionSoftware": "dcm2niix",
  "ConversionSoftwareVersion": "v1.0.20201102",
  "DerivedVendorReportedEchoSpacing": 0.00049,
  "DeviceSerialNumber": "66112",
  "DwellTime": 2e-06,
  "EchoTime": 0.0272,
  "EchoTrainLength": 82,
  "EffectiveEchoSpacing": 0.00049,
  "FlipAngle": 44,
  "ImageComments": "Unaliased MB8/PE3",
  "ImageOrientationPatientDICOM": [0.99723, -0.0743837, -0.000490923, 0.073232, 0.982905, -0.168925],
  "ImageType": [
    "ORIGINAL",
    "PRIMARY",
    "M",
    "MB",
    "ND",
    "NORM",
    "MOSAIC"
],
  "ImagingFrequency": 123.252,
  "InPlanePhaseEncodingDirectionDICOM": "COL",
  "InstitutionAddress": "Maynard 3,Hanover,NH,US,03755",
  "InstitutionName": "dartmouth_brain_imaging_center",
  "InstitutionalDepartmentName": "Department",
  "MRAcquisitionType": "2D",
  "MagneticFieldStrength": 3,
  "Manufacturer": "Siemens",
  "ManufacturersModelName": "Prisma",
  "Modality": "MR",
  "MultibandAccelerationFactor": 8,
  "PartialFourier": 1,
  "PatientPosition": "HFS",
  "PercentPhaseFOV": 100,
  "PercentSampling": 100,
  "PhaseEncodingDirection": "j-",
  "PhaseEncodingSteps": 82,
  "PhaseResolution": 1,
  "PixelBandwidth": 3050,
  "ProcedureStepDescription": "Wager_Wager^1076_spacetop",
  "ProtocolName": "func_run-05_task-social_acq-ap-mb8",
  "PulseSequenceDetails": "%CustomerSeq%\\cmrr_mbep2d_bold",
  "ReceiveCoilActiveElements": "HEA;HEP",
  "ReceiveCoilName": "Head_32",
  "ReconMatrixPE": 82,
  "RepetitionTime": 0.46,
  "SAR": 0.0980817,
  "ScanOptions": "FS",
  "ScanningSequence": "EP",
  "SequenceName": "epfid2d1_82",
  "SequenceVariant": "SK\\SS",
  "SeriesDescription": "func_run-05_task-social_acq-ap-mb8",
  "SeriesNumber": 16,
  "ShimSetting": [4169, -7713, -7247, 566, 31, -158, -40, 91],
  "SliceThickness": 2.7,
  "SliceTiming": [0, 0.25, 0.0625, 0.3125, 0.125, 0.375, 0.1875, 0, 0.25, 0.0625, 0.3125, 0.125, 0.375, 0.1875, 0, 0.25, 0.0625, 0.3125, 0.125, 0.375, 0.1875, 0, 0.25, 0.0625, 0.3125, 0.125, 0.375, 0.1875, 0, 0.25, 0.0625, 0.3125, 0.125, 0.375, 0.1875, 0, 0.25, 0.0625, 0.3125, 0.125, 0.375, 0.1875, 0, 0.25, 0.0625, 0.3125, 0.125, 0.375, 0.1875, 0, 0.25, 0.0625, 0.3125, 0.125, 0.375, 0.1875],
  "SoftwareVersions": "syngo MR E11",
  "SpacingBetweenSlices": 2.7,
  "StationName": "AWP66112",
  "TaskName": "social",
  "TotalReadoutTime": 0.03969,
  "TxRefAmp": 260.928,
  "WipMemBlock": "283e4a3a-b474-448c-906d-af900d2ca2e0||Sequence: R016 ve11c/master r/e634e98; Dec 19 2017 11:00:25 by eja",
  "dcmmeta_affine": [
    [-2.6754939556121826, 0.19647616147994995, -0.03522911295294762, 101.49172973632812],
    [0.19956600666046143, 2.6370608806610107, -0.45473769307136536, -79.65892028808594],
    [-0.0013171114260330796, 0.45321425795555115, 2.6611976623535156, -88.13886260986328],
    [0.0, 0.0, 0.0, 1.0]
],
  "dcmmeta_reorient_transform": [
    [0.0, -1.0, 0.0, 81.0],
    [1.0, 0.0, 0.0, 0.0],
    [0.0, 0.0, 1.0, 0.0],
    [0.0, 0.0, 0.0, 1.0]
],
  "dcmmeta_shape": [82, 82, 56, 872],
  "dcmmeta_slice_dim": 2,
  "dcmmeta_version": 0.6,
  "global": {
    "const": {
      "AccessionNumber": "A003498",
      "AcquisitionMatrix": [82, 0, 0, 82],
      "AngioFlag": "N",
      "BitsAllocated": 16,
      "BitsStored": 16,
      "BodyPartExamined": "BRAIN",
      "Columns": 656,
      "EchoNumbers": 1,
      "EchoTime": 27.2,
      "EchoTrainLength": 82,
      "FlipAngle": 44.0,
      "HighBit": 15,
      "ImageOrientationPatient": [0.99722957515089, -0.0743836906763, -0.0004909233509, 0.07323202076054, 0.98290452740482, -0.1689253123201],
      "ImagePositionPatient": [-941.66174327707, -833.50407742848, 79.021998037267],
      "ImageType": [
        "ORIGINAL",
        "PRIMARY",
        "M",
        "MB",
        "ND",
        "NORM",
        "MOSAIC"
],
      "ImagedNucleus": "1H",
      "ImagingFrequency": 123.252163,
      "InPlanePhaseEncodingDirection": "COL",
      "MRAcquisitionType": "2D",
      "MagneticFieldStrength": 3.0,
      "Manufacturer": "SIEMENS",
      "ManufacturerModelName": "Prisma",
      "Modality": "MR",
      "NumberOfAverages": 1.0,
      "NumberOfPhaseEncodingSteps": 82,
      "PercentPhaseFieldOfView": 100.0,
      "PercentSampling": 100.0,
      "PerformedProcedureStepStartTime": "121214.183000",
      "PhotometricInterpretation": "MONOCHROME2",
      "PixelBandwidth": 3050.0,
      "PixelRepresentation": 0,
      "PixelSpacing": [2.6829268932343, 2.6829268932343],
      "ProtocolName": "func_run-05_task-social_acq-ap-mb8",
      "RepetitionTime": 460.0,
      "Rows": 656,
      "SAR": 0.0980816880317,
      "SamplesPerPixel": 1,
      "ScanOptions": "FS",
      "ScanningSequence": "EP",
      "SequenceName": "epfid2d1_82",
      "SequenceVariant": [
        "SK",
        "SS"
],
      "SeriesDescription": "func_run-05_task-social_acq-ap-mb8",
      "SeriesNumber": 16,
      "SeriesTime": "125842.964000",
      "SliceLocation": -74.780175598862,
      "SliceThickness": 2.7000000476837,
      "SmallestImagePixelValue": 0,
      "SoftwareVersions": "syngo MR E11",
      "SpacingBetweenSlices": 2.7000000112451,
      "SpecificCharacterSet": "ISO_IR 100",
      "StudyID": "1",
      "StudyTime": "121214.003000",
      "TransmitCoilName": "Body",
      "VariableFlipAngleFlag": "N",
      "WindowCenterWidthExplanation": "Algo1",
      "dBdt": 0.0},
    "slices": {}
  },
  "time": {
    "samples": {
      "AcquisitionNumber": [1, 2, 3, 4, 5, 6, 7, 8, 9, 10, 11, 12, 13, 14, 15, 16, 17, 18, 19, 20, 21, 22, 23, 24, 25, 26, 27, 28, 29, 30, 31, 32, 33, 34, 35, 36, 37, 38, 39, 40, 41, 42, 43, 44, 45, 46, 47, 48, 49, 50, 51, 52, 53, 54, 55, 56, 57, 58, 59, 60, 61, 62, 63, 64, 65, 66, 67, 68, 69, 70, 71, 72, 73, 74, 75, 76, 77, 78, 79, 80, 81, 82, 83, 84, 85, 86, 87, 88, 89, 90, 91, 92, 93, 94, 95, 96, 97, 98, 99, 100, 101, 102, 103, 104, 105, 106, 107, 108, 109, 110, 111, 112, 113, 114, 115, 116, 117, 118, 119, 120, 121, 122, 123, 124, 125, 126, 127, 128, 129, 130, 131, 132, 133, 134, 135, 136, 137, 138, 139, 140, 141, 142, 143, 144, 145, 146, 147, 148, 149, 150, 151, 152, 153, 154, 155, 156, 157, 158, 159, 160, 161, 162, 163, 164, 165, 166, 167, 168, 169, 170, 171, 172, 173, 174, 175, 176, 177, 178, 179, 180, 181, 182, 183, 184, 185, 186, 187, 188, 189, 190, 191, 192, 193, 194, 195, 196, 197, 198, 199, 200, 201, 202, 203, 204, 205, 206, 207, 208, 209, 210, 211, 212, 213, 214, 215, 216, 217, 218, 219, 220, 221, 222, 223, 224, 225, 226, 227, 228, 229, 230, 231, 232, 233, 234, 235, 236, 237, 238, 239, 240, 241, 242, 243, 244, 245, 246, 247, 248, 249, 250, 251, 252, 253, 254, 255, 256, 257, 258, 259, 260, 261, 262, 263, 264, 265, 266, 267, 268, 269, 270, 271, 272, 273, 274, 275, 276, 277, 278, 279, 280, 281, 282, 283, 284, 285, 286, 287, 288, 289, 290, 291, 292, 293, 294, 295, 296, 297, 298, 299, 300, 301, 302, 303, 304, 305, 306, 307, 308, 309, 310, 311, 312, 313, 314, 315, 316, 317, 318, 319, 320, 321, 322, 323, 324, 325, 326, 327, 328, 329, 330, 331, 332, 333, 334, 335, 336, 337, 338, 339, 340, 341, 342, 343, 344, 345, 346, 347, 348, 349, 350, 351, 352, 353, 354, 355, 356, 357, 358, 359, 360, 361, 362, 363, 364, 365, 366, 367, 368, 369, 370, 371, 372, 373, 374, 375, 376, 377, 378, 379, 380, 381, 382, 383, 384, 385, 386, 387, 388, 389, 390, 391, 392, 393, 394, 395, 396, 397, 398, 399, 400, 401, 402, 403, 404, 405, 406, 407, 408, 409, 410, 411, 412, 413, 414, 415, 416, 417, 418, 419, 420, 421, 422, 423, 424, 425, 426, 427, 428, 429, 430, 431, 432, 433, 434, 435, 436, 437, 438, 439, 440, 441, 442, 443, 444, 445, 446, 447, 448, 449, 450, 451, 452, 453, 454, 455, 456, 457, 458, 459, 460, 461, 462, 463, 464, 465, 466, 467, 468, 469, 470, 471, 472, 473, 474, 475, 476, 477, 478, 479, 480, 481, 482, 483, 484, 485, 486, 487, 488, 489, 490, 491, 492, 493, 494, 495, 496, 497, 498, 499, 500, 501, 502, 503, 504, 505, 506, 507, 508, 509, 510, 511, 512, 513, 514, 515, 516, 517, 518, 519, 520, 521, 522, 523, 524, 525, 526, 527, 528, 529, 530, 531, 532, 533, 534, 535, 536, 537, 538, 539, 540, 541, 542, 543, 544, 545, 546, 547, 548, 549, 550, 551, 552, 553, 554, 555, 556, 557, 558, 559, 560, 561, 562, 563, 564, 565, 566, 567, 568, 569, 570, 571, 572, 573, 574, 575, 576, 577, 578, 579, 580, 581, 582, 583, 584, 585, 586, 587, 588, 589, 590, 591, 592, 593, 594, 595, 596, 597, 598, 599, 600, 601, 602, 603, 604, 605, 606, 607, 608, 609, 610, 611, 612, 613, 614, 615, 616, 617, 618, 619, 620, 621, 622, 623, 624, 625, 626, 627, 628, 629, 630, 631, 632, 633, 634, 635, 636, 637, 638, 639, 640, 641, 642, 643, 644, 645, 646, 647, 648, 649, 650, 651, 652, 653, 654, 655, 656, 657, 658, 659, 660, 661, 662, 663, 664, 665, 666, 667, 668, 669, 670, 671, 672, 673, 674, 675, 676, 677, 678, 679, 680, 681, 682, 683, 684, 685, 686, 687, 688, 689, 690, 691, 692, 693, 694, 695, 696, 697, 698, 699, 700, 701, 702, 703, 704, 705, 706, 707, 708, 709, 710, 711, 712, 713, 714, 715, 716, 717, 718, 719, 720, 721, 722, 723, 724, 725, 726, 727, 728, 729, 730, 731, 732, 733, 734, 735, 736, 737, 738, 739, 740, 741, 742, 743, 744, 745, 746, 747, 748, 749, 750, 751, 752, 753, 754, 755, 756, 757, 758, 759, 760, 761, 762, 763, 764, 765, 766, 767, 768, 769, 770, 771, 772, 773, 774, 775, 776, 777, 778, 779, 780, 781, 782, 783, 784, 785, 786, 787, 788, 789, 790, 791, 792, 793, 794, 795, 796, 797, 798, 799, 800, 801, 802, 803, 804, 805, 806, 807, 808, 809, 810, 811, 812, 813, 814, 815, 816, 817, 818, 819, 820, 821, 822, 823, 824, 825, 826, 827, 828, 829, 830, 831, 832, 833, 834, 835, 836, 837, 838, 839, 840, 841, 842, 843, 844, 845, 846, 847, 848, 849, 850, 851, 852, 853, 854, 855, 856, 857, 858, 859, 860, 861, 862, 863, 864, 865, 866, 867, 868, 869, 870, 871, 872],
      "AcquisitionTime": ["125830.330000", "125830.790000", "125831.250000", "125831.710000", "125832.170000", "125832.630000", "125833.090000", "125833.550000", "125834.010000", "125834.470000", "125834.930000", "125835.390000", "125835.850000", "125836.310000", "125836.770000", "125837.230000", "125837.690000", "125838.150000", "125838.610000", "125839.070000", "125839.530000", "125839.990000", "125840.450000", "125840.910000", "125841.370000", "125841.830000", "125842.290000", "125842.750000", "125843.210000", "125843.670000", "125844.130000", "125844.590000", "125845.050000", "125845.510000", "125845.970000", "125846.430000", "125846.890000", "125847.350000", "125847.810000", "125848.270000", "125848.730000", "125849.190000", "125849.650000", "125850.110000", "125850.570000", "125851.030000", "125851.490000", "125851.950000", "125852.410000", "125852.870000", "125853.330000", "125853.790000", "125854.250000", "125854.710000", "125855.170000", "125855.630000", "125856.090000", "125856.550000", "125857.010000", "125857.470000", "125857.930000", "125858.390000", "125858.850000", "125859.310000", "125859.770000", "125900.230000", "125900.690000", "125901.150000", "125901.610000", "125902.070000", "125902.530000", "125902.990000", "125903.450000", "125903.910000", "125904.370000", "125904.830000", "125905.290000", "125905.750000", "125906.210000", "125906.670000", "125907.130000", "125907.590000", "125908.050000", "125908.510000", "125908.970000", "125909.430000", "125909.890000", "125910.350000", "125910.810000", "125911.270000", "125911.730000", "125912.190000", "125912.650000", "125913.110000", "125913.570000", "125914.030000", "125914.490000", "125914.950000", "125915.410000", "125915.870000", "125916.330000", "125916.790000", "125917.250000", "125917.710000", "125918.170000", "125918.630000", "125919.090000", "125919.550000", "125920.010000", "125920.470000", "125920.930000", "125921.390000", "125921.850000", "125922.310000", "125922.770000", "125923.230000", "125923.690000", "125924.150000", "125924.610000", "125925.070000", "125925.530000", "125925.990000", "125926.450000", "125926.910000", "125927.370000", "125927.830000", "125928.290000", "125928.750000", "125929.210000", "125929.670000", "125930.130000", "125930.590000", "125931.050000", "125931.510000", "125931.970000", "125932.430000", "125932.890000", "125933.350000", "125933.810000", "125934.270000", "125934.730000", "125935.190000", "125935.650000", "125936.110000", "125936.570000", "125937.030000", "125937.490000", "125937.950000", "125938.410000", "125938.870000", "125939.330000", "125939.790000", "125940.250000", "125940.710000", "125941.170000", "125941.630000", "125942.090000", "125942.550000", "125943.010000", "125943.470000", "125943.930000", "125944.390000", "125944.850000", "125945.310000", "125945.770000", "125946.230000", "125946.690000", "125947.150000", "125947.610000", "125948.070000", "125948.530000", "125948.990000", "125949.450000", "125949.910000", "125950.370000", "125950.830000", "125951.290000", "125951.750000", "125952.210000", "125952.670000", "125953.130000", "125953.590000", "125954.050000", "125954.510000", "125954.970000", "125955.430000", "125955.890000", "125956.350000", "125956.810000", "125957.270000", "125957.730000", "125958.190000", "125958.650000", "125959.110000", "125959.570000", "130000.030000", "130000.490000", "130000.950000", "130001.410000", "130001.870000", "130002.330000", "130002.790000", "130003.250000", "130003.710000", "130004.170000", "130004.630000", "130005.090000", "130005.550000", "130006.010000", "130006.470000", "130006.930000", "130007.390000", "130007.850000", "130008.310000", "130008.770000", "130009.230000", "130009.690000", "130010.150000", "130010.610000", "130011.070000", "130011.530000", "130011.990000", "130012.450000", "130012.910000", "130013.370000", "130013.830000", "130014.290000", "130014.750000", "130015.210000", "130015.670000", "130016.130000", "130016.590000", "130017.050000", "130017.510000", "130017.970000", "130018.430000", "130018.890000", "130019.350000", "130019.810000", "130020.270000", "130020.730000", "130021.190000", "130021.650000", "130022.110000", "130022.570000", "130023.030000", "130023.490000", "130023.950000", "130024.410000", "130024.870000", "130025.330000", "130025.790000", "130026.250000", "130026.710000", "130027.170000", "130027.630000", "130028.090000", "130028.550000", "130029.010000", "130029.470000", "130029.930000", "130030.390000", "130030.850000", "130031.310000", "130031.770000", "130032.230000", "130032.690000", "130033.150000", "130033.610000", "130034.070000", "130034.530000", "130034.990000", "130035.450000", "130035.910000", "130036.370000", "130036.830000", "130037.290000", "130037.750000", "130038.210000", "130038.670000", "130039.130000", "130039.590000", "130040.050000", "130040.510000", "130040.970000", "130041.430000", "130041.890000", "130042.350000", "130042.810000", "130043.270000", "130043.730000", "130044.190000", "130044.650000", "130045.110000", "130045.570000", "130046.030000", "130046.490000", "130046.950000", "130047.410000", "130047.870000", "130048.330000", "130048.790000", "130049.250000", "130049.710000", "130050.170000", "130050.630000", "130051.090000", "130051.550000", "130052.010000", "130052.470000", "130052.930000", "130053.390000", "130053.850000", "130054.310000", "130054.770000", "130055.230000", "130055.690000", "130056.150000", "130056.610000", "130057.070000", "130057.530000", "130057.990000", "130058.450000", "130058.910000", "130059.370000", "130059.830000", "130100.290000", "130100.750000", "130101.210000", "130101.670000", "130102.130000", "130102.590000", "130103.050000", "130103.510000", "130103.970000", "130104.430000", "130104.890000", "130105.350000", "130105.810000", "130106.270000", "130106.730000", "130107.190000", "130107.650000", "130108.110000", "130108.570000", "130109.030000", "130109.490000", "130109.950000", "130110.410000", "130110.870000", "130111.330000", "130111.790000", "130112.250000", "130112.710000", "130113.170000", "130113.630000", "130114.090000", "130114.550000", "130115.010000", "130115.470000", "130115.930000", "130116.390000", "130116.850000", "130117.310000", "130117.770000", "130118.230000", "130118.690000", "130119.150000", "130119.610000", "130120.070000", "130120.530000", "130120.990000", "130121.450000", "130121.910000", "130122.370000", "130122.830000", "130123.290000", "130123.750000", "130124.210000", "130124.670000", "130125.130000", "130125.590000", "130126.050000", "130126.510000", "130126.970000", "130127.430000", "130127.890000", "130128.350000", "130128.810000", "130129.270000", "130129.730000", "130130.190000", "130130.650000", "130131.110000", "130131.570000", "130132.030000", "130132.490000", "130132.950000", "130133.410000", "130133.870000", "130134.330000", "130134.790000", "130135.250000", "130135.710000", "130136.170000", "130136.630000", "130137.090000", "130137.550000", "130138.010000", "130138.470000", "130138.930000", "130139.390000", "130139.850000", "130140.310000", "130140.770000", "130141.230000", "130141.690000", "130142.150000", "130142.610000", "130143.070000", "130143.530000", "130143.990000", "130144.450000", "130144.910000", "130145.370000", "130145.830000", "130146.290000", "130146.750000", "130147.210000", "130147.670000", "130148.130000", "130148.590000", "130149.050000", "130149.510000", "130149.970000", "130150.430000", "130150.890000", "130151.350000", "130151.810000", "130152.270000", "130152.730000", "130153.190000", "130153.650000", "130154.110000", "130154.570000", "130155.030000", "130155.490000", "130155.950000", "130156.410000", "130156.870000", "130157.330000", "130157.790000", "130158.250000", "130158.710000", "130159.170000", "130159.630000", "130200.090000", "130200.550000", "130201.010000", "130201.470000", "130201.930000", "130202.390000", "130202.850000", "130203.310000", "130203.770000", "130204.230000", "130204.690000", "130205.150000", "130205.610000", "130206.070000", "130206.530000", "130206.990000", "130207.450000", "130207.910000", "130208.370000", "130208.830000", "130209.290000", "130209.750000", "130210.210000", "130210.670000", "130211.130000", "130211.590000", "130212.050000", "130212.510000", "130212.970000", "130213.430000", "130213.890000", "130214.350000", "130214.810000", "130215.270000", "130215.730000", "130216.190000", "130216.650000", "130217.110000", "130217.570000", "130218.030000", "130218.490000", "130218.950000", "130219.410000", "130219.870000", "130220.330000", "130220.790000", "130221.250000", "130221.710000", "130222.170000", "130222.630000", "130223.090000", "130223.550000", "130224.010000", "130224.470000", "130224.930000", "130225.390000", "130225.850000", "130226.310000", "130226.770000", "130227.230000", "130227.690000", "130228.150000", "130228.610000", "130229.070000", "130229.530000", "130229.990000", "130230.450000", "130230.910000", "130231.370000", "130231.830000", "130232.290000", "130232.750000", "130233.210000", "130233.670000", "130234.130000", "130234.590000", "130235.050000", "130235.510000", "130235.970000", "130236.430000", "130236.890000", "130237.350000", "130237.810000", "130238.270000", "130238.730000", "130239.190000", "130239.650000", "130240.110000", "130240.570000", "130241.030000", "130241.490000", "130241.950000", "130242.410000", "130242.870000", "130243.330000", "130243.790000", "130244.250000", "130244.710000", "130245.170000", "130245.630000", "130246.090000", "130246.550000", "130247.010000", "130247.470000", "130247.930000", "130248.390000", "130248.850000", "130249.310000", "130249.770000", "130250.230000", "130250.690000", "130251.150000", "130251.610000", "130252.070000", "130252.530000", "130252.990000", "130253.450000", "130253.910000", "130254.370000", "130254.830000", "130255.290000", "130255.750000", "130256.210000", "130256.670000", "130257.130000", "130257.590000", "130258.050000", "130258.510000", "130258.970000", "130259.430000", "130259.890000", "130300.350000", "130300.810000", "130301.270000", "130301.730000", "130302.190000", "130302.650000", "130303.110000", "130303.570000", "130304.030000", "130304.490000", "130304.950000", "130305.410000", "130305.870000", "130306.330000", "130306.790000", "130307.250000", "130307.710000", "130308.170000", "130308.630000", "130309.090000", "130309.550000", "130310.010000", "130310.470000", "130310.930000", "130311.390000", "130311.850000", "130312.310000", "130312.770000", "130313.230000", "130313.690000", "130314.150000", "130314.610000", "130315.070000", "130315.530000", "130315.990000", "130316.450000", "130316.910000", "130317.370000", "130317.830000", "130318.290000", "130318.750000", "130319.210000", "130319.670000", "130320.130000", "130320.590000", "130321.050000", "130321.510000", "130321.970000", "130322.430000", "130322.890000", "130323.350000", "130323.810000", "130324.270000", "130324.730000", "130325.190000", "130325.650000", "130326.110000", "130326.570000", "130327.030000", "130327.490000", "130327.950000", "130328.410000", "130328.870000", "130329.330000", "130329.790000", "130330.250000", "130330.710000", "130331.170000", "130331.630000", "130332.090000", "130332.550000", "130333.010000", "130333.470000", "130333.930000", "130334.390000", "130334.850000", "130335.310000", "130335.770000", "130336.230000", "130336.690000", "130337.150000", "130337.610000", "130338.070000", "130338.530000", "130338.990000", "130339.450000", "130339.910000", "130340.370000", "130340.830000", "130341.290000", "130341.750000", "130342.210000", "130342.670000", "130343.130000", "130343.590000", "130344.050000", "130344.510000", "130344.970000", "130345.430000", "130345.890000", "130346.350000", "130346.810000", "130347.270000", "130347.730000", "130348.190000", "130348.650000", "130349.110000", "130349.570000", "130350.030000", "130350.490000", "130350.950000", "130351.410000", "130351.870000", "130352.330000", "130352.790000", "130353.250000", "130353.710000", "130354.170000", "130354.630000", "130355.090000", "130355.550000", "130356.010000", "130356.470000", "130356.930000", "130357.390000", "130357.850000", "130358.310000", "130358.770000", "130359.230000", "130359.690000", "130400.150000", "130400.610000", "130401.070000", "130401.530000", "130401.990000", "130402.450000", "130402.910000", "130403.370000", "130403.830000", "130404.290000", "130404.750000", "130405.210000", "130405.670000", "130406.130000", "130406.590000", "130407.050000", "130407.510000", "130407.970000", "130408.430000", "130408.890000", "130409.350000", "130409.810000", "130410.270000", "130410.730000", "130411.190000", "130411.650000", "130412.110000", "130412.570000", "130413.030000", "130413.490000", "130413.950000", "130414.410000", "130414.870000", "130415.330000", "130415.790000", "130416.250000", "130416.710000", "130417.170000", "130417.630000", "130418.090000", "130418.550000", "130419.010000", "130419.470000", "130419.930000", "130420.390000", "130420.850000", "130421.310000", "130421.770000", "130422.230000", "130422.690000", "130423.150000", "130423.610000", "130424.070000", "130424.530000", "130424.990000", "130425.450000", "130425.910000", "130426.370000", "130426.830000", "130427.290000", "130427.750000", "130428.210000", "130428.670000", "130429.130000", "130429.590000", "130430.050000", "130430.510000", "130430.970000", "130431.430000", "130431.890000", "130432.350000", "130432.810000", "130433.270000", "130433.730000", "130434.190000", "130434.650000", "130435.110000", "130435.570000", "130436.030000", "130436.490000", "130436.950000", "130437.410000", "130437.870000", "130438.330000", "130438.790000", "130439.250000", "130439.710000", "130440.170000", "130440.630000", "130441.090000", "130441.550000", "130442.010000", "130442.470000", "130442.930000", "130443.390000", "130443.850000", "130444.310000", "130444.770000", "130445.230000", "130445.690000", "130446.150000", "130446.610000", "130447.070000", "130447.530000", "130447.990000", "130448.450000", "130448.910000", "130449.370000", "130449.830000", "130450.290000", "130450.750000", "130451.210000", "130451.670000", "130452.130000", "130452.590000", "130453.050000", "130453.510000", "130453.970000", "130454.430000", "130454.890000", "130455.350000", "130455.810000", "130456.270000", "130456.730000", "130457.190000", "130457.650000", "130458.110000", "130458.570000", "130459.030000", "130459.490000", "130459.950000", "130500.410000", "130500.870000", "130501.330000", "130501.790000", "130502.250000", "130502.710000", "130503.170000", "130503.630000", "130504.090000", "130504.550000", "130505.010000", "130505.470000", "130505.930000", "130506.390000", "130506.850000", "130507.310000", "130507.770000", "130508.230000", "130508.690000", "130509.150000", "130509.610000", "130510.070000", "130510.530000", "130510.990000"],
