{
  "AcquisitionMatrixPE": 82,
  "AcquisitionNumber": 1,
  "AcquisitionTime": "18:07:38.347500",
  "BandwidthPerPixelPhaseEncode": 24.888,
  "BaseResolution": 82,
  "BodyPartExamined": "BRAIN",
  "ConsistencyInfo": "N4_VE11E_LATEST_20181129",
  "ConversionSoftware": "dcm2niix",
  "ConversionSoftwareVersion": "v1.0.20201102",
  "DerivedVendorReportedEchoSpacing": 0.00049,
  "DeviceSerialNumber": "66112",
  "DwellTime": 2e-06,
  "EchoTime": 0.0272,
  "EchoTrainLength": 82,
  "EffectiveEchoSpacing": 0.00049,
  "FlipAngle": 44,
  "ImageComments": "Unaliased MB8/PE3",
  "ImageOrientationPatientDICOM": [0.995708, -0.0166834, 0.0910373, 0.0298998, 0.988861, -0.145807],
  "ImageType": [
    "ORIGINAL",
    "PRIMARY",
    "M",
    "MB",
    "ND",
    "NORM",
    "MOSAIC"
],
  "ImagingFrequency": 123.252,
  "InPlanePhaseEncodingDirectionDICOM": "COL",
  "InstitutionAddress": "Maynard 3,Hanover,NH,US,03755",
  "InstitutionName": "Dartmouth College - PBS",
  "InstitutionalDepartmentName": "Department",
  "MRAcquisitionType": "2D",
  "MagneticFieldStrength": 3,
  "Manufacturer": "Siemens",
  "ManufacturersModelName": "Prisma",
  "Modality": "MR",
  "MultibandAccelerationFactor": 8,
  "PartialFourier": 1,
  "PatientPosition": "HFS",
  "PercentPhaseFOV": 100,
  "PercentSampling": 100,
  "PhaseEncodingDirection": "j-",
  "PhaseEncodingSteps": 82,
  "PhaseResolution": 1,
  "PixelBandwidth": 3050,
  "ProcedureStepDescription": "Wager_Wager^1076_spacetop",
  "ProtocolName": "func_run-01_task-social_acq-ap-mb8",
  "PulseSequenceDetails": "%CustomerSeq%\\cmrr_mbep2d_bold",
  "ReceiveCoilActiveElements": "HEA;HEP",
  "ReceiveCoilName": "Head_32",
  "ReconMatrixPE": 82,
  "RepetitionTime": 0.46,
  "SAR": 0.102539,
  "ScanOptions": "FS",
  "ScanningSequence": "EP",
  "SequenceName": "epfid2d1_82",
  "SequenceVariant": "SK\\SS",
  "SeriesDescription": "func_run-01_task-social_acq-ap-mb8",
  "SeriesNumber": 12,
  "ShimSetting": [4163, -7705, -7256, 437, -117, -310, -112, 101],
  "SliceThickness": 2.7,
  "SliceTiming": [0, 0.2525, 0.0625, 0.315, 0.1275, 0.3775, 0.19, 0, 0.2525, 0.0625, 0.315, 0.1275, 0.3775, 0.19, 0, 0.2525, 0.0625, 0.315, 0.1275, 0.3775, 0.19, 0, 0.2525, 0.0625, 0.315, 0.1275, 0.3775, 0.19, 0, 0.2525, 0.0625, 0.315, 0.1275, 0.3775, 0.19, 0, 0.2525, 0.0625, 0.315, 0.1275, 0.3775, 0.19, 0, 0.2525, 0.0625, 0.315, 0.1275, 0.3775, 0.19, 0, 0.2525, 0.0625, 0.315, 0.1275, 0.3775, 0.19],
  "SoftwareVersions": "syngo MR E11",
  "SpacingBetweenSlices": 2.7,
  "StationName": "AWP66112",
  "TaskName": "social",
  "TotalReadoutTime": 0.03969,
  "TxRefAmp": 255.309,
  "WipMemBlock": "6a305966-e535-46cf-a287-1ad3bba138e6||Sequence: R016 ve11e/master r/434b28f1; Aug  7 2019 18:53:46 by eja",
  "dcmmeta_affine": [
    [-2.6714110374450684, 0.08021902292966843, 0.23649485409259796, 103.17628479003906],
    [0.0447603315114975, 2.6530418395996094, -0.3993397355079651, -89.08854675292969],
    [0.2442464381456375, 0.3911907374858856, 2.6598117351531982, -114.89617919921875],
    [0.0, 0.0, 0.0, 1.0]
],
  "dcmmeta_reorient_transform": [
    [0.0, -1.0, 0.0, 81.0],
    [1.0, 0.0, 0.0, 0.0],
    [0.0, 0.0, 1.0, 0.0],
    [0.0, 0.0, 0.0, 1.0]
],
  "dcmmeta_shape": [82, 82, 56, 872],
  "dcmmeta_slice_dim": 2,
  "dcmmeta_version": 0.6,
  "global": {
    "const": {
      "AccessionNumber": "A003887",
      "AcquisitionMatrix": [82, 0, 0, 82],
      "AngioFlag": "N",
      "BitsAllocated": 16,
      "BitsStored": 16,
      "BodyPartExamined": "BRAIN",
      "Columns": 656,
      "EchoNumbers": 1,
      "EchoTime": 27.2,
      "EchoTrainLength": 82,
      "FlipAngle": 44.0,
      "HighBit": 15,
      "ImageOrientationPatient": [0.99570772473126, -0.0166833964124, 0.09103730660909, 0.02989981657397, 0.98886105654249, -0.1458074477608],
      "ImagePositionPatient": [-899.39184942936, -874.38466842525, -41.036718301929],
      "ImageType": [
        "ORIGINAL",
        "PRIMARY",
        "M",
        "MB",
        "ND",
        "NORM",
        "MOSAIC"
],
      "ImagedNucleus": "1H",
      "ImagingFrequency": 123.252224,
      "InPlanePhaseEncodingDirection": "COL",
      "MRAcquisitionType": "2D",
      "MagneticFieldStrength": 3.0,
      "Manufacturer": "SIEMENS",
      "ManufacturerModelName": "Prisma",
      "Modality": "MR",
      "NumberOfAverages": 1.0,
      "NumberOfPhaseEncodingSteps": 82,
      "PercentPhaseFieldOfView": 100.0,
      "PercentSampling": 100.0,
      "PerformedProcedureStepStartTime": "174248.157000",
      "PhotometricInterpretation": "MONOCHROME2",
      "PixelBandwidth": 3050.0,
      "PixelRepresentation": 0,
      "PixelSpacing": [2.6829268932343, 2.6829268932343],
      "ProtocolName": "func_run-01_task-social_acq-ap-mb8",
      "RepetitionTime": 460.0,
      "Rows": 656,
      "SAR": 0.10253908989524,
      "SamplesPerPixel": 1,
      "ScanOptions": "FS",
      "ScanningSequence": "EP",
      "SequenceName": "epfid2d1_82",
      "SequenceVariant": [
        "SK",
        "SS"
],
      "SeriesDescription": "func_run-01_task-social_acq-ap-mb8",
      "SeriesNumber": 12,
      "SeriesTime": "180753.620000",
      "SliceLocation": -90.97219803619,
      "SliceThickness": 2.7000000476837,
      "SmallestImagePixelValue": 0,
      "SoftwareVersions": "syngo MR E11",
      "SpacingBetweenSlices": 2.7000000337067,
      "SpecificCharacterSet": "ISO_IR 100",
      "StudyID": "1",
      "StudyTime": "174248.032000",
      "TransmitCoilName": "Body",
      "VariableFlipAngleFlag": "N",
      "WindowCenterWidthExplanation": "Algo1"
    },
    "slices": {}
  },
  "time": {
    "samples": {
      "AcquisitionNumber": [1, 2, 3, 4, 5, 6, 7, 8, 9, 10, 11, 12, 13, 14, 15, 16, 17, 18, 19, 20, 21, 22, 23, 24, 25, 26, 27, 28, 29, 30, 31, 32, 33, 34, 35, 36, 37, 38, 39, 40, 41, 42, 43, 44, 45, 46, 47, 48, 49, 50, 51, 52, 53, 54, 55, 56, 57, 58, 59, 60, 61, 62, 63, 64, 65, 66, 67, 68, 69, 70, 71, 72, 73, 74, 75, 76, 77, 78, 79, 80, 81, 82, 83, 84, 85, 86, 87, 88, 89, 90, 91, 92, 93, 94, 95, 96, 97, 98, 99, 100, 101, 102, 103, 104, 105, 106, 107, 108, 109, 110, 111, 112, 113, 114, 115, 116, 117, 118, 119, 120, 121, 122, 123, 124, 125, 126, 127, 128, 129, 130, 131, 132, 133, 134, 135, 136, 137, 138, 139, 140, 141, 142, 143, 144, 145, 146, 147, 148, 149, 150, 151, 152, 153, 154, 155, 156, 157, 158, 159, 160, 161, 162, 163, 164, 165, 166, 167, 168, 169, 170, 171, 172, 173, 174, 175, 176, 177, 178, 179, 180, 181, 182, 183, 184, 185, 186, 187, 188, 189, 190, 191, 192, 193, 194, 195, 196, 197, 198, 199, 200, 201, 202, 203, 204, 205, 206, 207, 208, 209, 210, 211, 212, 213, 214, 215, 216, 217, 218, 219, 220, 221, 222, 223, 224, 225, 226, 227, 228, 229, 230, 231, 232, 233, 234, 235, 236, 237, 238, 239, 240, 241, 242, 243, 244, 245, 246, 247, 248, 249, 250, 251, 252, 253, 254, 255, 256, 257, 258, 259, 260, 261, 262, 263, 264, 265, 266, 267, 268, 269, 270, 271, 272, 273, 274, 275, 276, 277, 278, 279, 280, 281, 282, 283, 284, 285, 286, 287, 288, 289, 290, 291, 292, 293, 294, 295, 296, 297, 298, 299, 300, 301, 302, 303, 304, 305, 306, 307, 308, 309, 310, 311, 312, 313, 314, 315, 316, 317, 318, 319, 320, 321, 322, 323, 324, 325, 326, 327, 328, 329, 330, 331, 332, 333, 334, 335, 336, 337, 338, 339, 340, 341, 342, 343, 344, 345, 346, 347, 348, 349, 350, 351, 352, 353, 354, 355, 356, 357, 358, 359, 360, 361, 362, 363, 364, 365, 366, 367, 368, 369, 370, 371, 372, 373, 374, 375, 376, 377, 378, 379, 380, 381, 382, 383, 384, 385, 386, 387, 388, 389, 390, 391, 392, 393, 394, 395, 396, 397, 398, 399, 400, 401, 402, 403, 404, 405, 406, 407, 408, 409, 410, 411, 412, 413, 414, 415, 416, 417, 418, 419, 420, 421, 422, 423, 424, 425, 426, 427, 428, 429, 430, 431, 432, 433, 434, 435, 436, 437, 438, 439, 440, 441, 442, 443, 444, 445, 446, 447, 448, 449, 450, 451, 452, 453, 454, 455, 456, 457, 458, 459, 460, 461, 462, 463, 464, 465, 466, 467, 468, 469, 470, 471, 472, 473, 474, 475, 476, 477, 478, 479, 480, 481, 482, 483, 484, 485, 486, 487, 488, 489, 490, 491, 492, 493, 494, 495, 496, 497, 498, 499, 500, 501, 502, 503, 504, 505, 506, 507, 508, 509, 510, 511, 512, 513, 514, 515, 516, 517, 518, 519, 520, 521, 522, 523, 524, 525, 526, 527, 528, 529, 530, 531, 532, 533, 534, 535, 536, 537, 538, 539, 540, 541, 542, 543, 544, 545, 546, 547, 548, 549, 550, 551, 552, 553, 554, 555, 556, 557, 558, 559, 560, 561, 562, 563, 564, 565, 566, 567, 568, 569, 570, 571, 572, 573, 574, 575, 576, 577, 578, 579, 580, 581, 582, 583, 584, 585, 586, 587, 588, 589, 590, 591, 592, 593, 594, 595, 596, 597, 598, 599, 600, 601, 602, 603, 604, 605, 606, 607, 608, 609, 610, 611, 612, 613, 614, 615, 616, 617, 618, 619, 620, 621, 622, 623, 624, 625, 626, 627, 628, 629, 630, 631, 632, 633, 634, 635, 636, 637, 638, 639, 640, 641, 642, 643, 644, 645, 646, 647, 648, 649, 650, 651, 652, 653, 654, 655, 656, 657, 658, 659, 660, 661, 662, 663, 664, 665, 666, 667, 668, 669, 670, 671, 672, 673, 674, 675, 676, 677, 678, 679, 680, 681, 682, 683, 684, 685, 686, 687, 688, 689, 690, 691, 692, 693, 694, 695, 696, 697, 698, 699, 700, 701, 702, 703, 704, 705, 706, 707, 708, 709, 710, 711, 712, 713, 714, 715, 716, 717, 718, 719, 720, 721, 722, 723, 724, 725, 726, 727, 728, 729, 730, 731, 732, 733, 734, 735, 736, 737, 738, 739, 740, 741, 742, 743, 744, 745, 746, 747, 748, 749, 750, 751, 752, 753, 754, 755, 756, 757, 758, 759, 760, 761, 762, 763, 764, 765, 766, 767, 768, 769, 770, 771, 772, 773, 774, 775, 776, 777, 778, 779, 780, 781, 782, 783, 784, 785, 786, 787, 788, 789, 790, 791, 792, 793, 794, 795, 796, 797, 798, 799, 800, 801, 802, 803, 804, 805, 806, 807, 808, 809, 810, 811, 812, 813, 814, 815, 816, 817, 818, 819, 820, 821, 822, 823, 824, 825, 826, 827, 828, 829, 830, 831, 832, 833, 834, 835, 836, 837, 838, 839, 840, 841, 842, 843, 844, 845, 846, 847, 848, 849, 850, 851, 852, 853, 854, 855, 856, 857, 858, 859, 860, 861, 862, 863, 864, 865, 866, 867, 868, 869, 870, 871, 872],
      "AcquisitionTime": ["180738.347500", "180738.807500", "180739.267500", "180739.727500", "180740.187500", "180740.647500", "180741.107500", "180741.567500", "180742.027500", "180742.487500", "180742.947500", "180743.407500", "180743.867500", "180744.327500", "180744.787500", "180745.247500", "180745.707500", "180746.167500", "180746.627500", "180747.087500", "180747.547500", "180748.007500", "180748.467500", "180748.927500", "180749.387500", "180749.847500", "180750.307500", "180750.767500", "180751.227500", "180751.687500", "180752.147500", "180752.607500", "180753.067500", "180753.527500", "180753.987500", "180754.447500", "180754.907500", "180755.367500", "180755.827500", "180756.287500", "180756.747500", "180757.207500", "180757.667500", "180758.127500", "180758.587500", "180759.047500", "180759.507500", "180759.967500", "180800.427500", "180800.887500", "180801.347500", "180801.807500", "180802.267500", "180802.727500", "180803.187500", "180803.647500", "180804.107500", "180804.567500", "180805.027500", "180805.487500", "180805.947500", "180806.407500", "180806.867500", "180807.327500", "180807.787500", "180808.247500", "180808.707500", "180809.167500", "180809.627500", "180810.087500", "180810.547500", "180811.007500", "180811.467500", "180811.927500", "180812.387500", "180812.847500", "180813.307500", "180813.767500", "180814.227500", "180814.687500", "180815.147500", "180815.607500", "180816.067500", "180816.527500", "180816.987500", "180817.447500", "180817.907500", "180818.367500", "180818.827500", "180819.287500", "180819.747500", "180820.207500", "180820.667500", "180821.127500", "180821.587500", "180822.047500", "180822.507500", "180822.967500", "180823.427500", "180823.887500", "180824.347500", "180824.807500", "180825.267500", "180825.727500", "180826.187500", "180826.647500", "180827.107500", "180827.567500", "180828.027500", "180828.487500", "180828.947500", "180829.407500", "180829.867500", "180830.327500", "180830.787500", "180831.247500", "180831.707500", "180832.167500", "180832.627500", "180833.087500", "180833.547500", "180834.007500", "180834.467500", "180834.927500", "180835.387500", "180835.847500", "180836.307500", "180836.767500", "180837.227500", "180837.687500", "180838.147500", "180838.607500", "180839.067500", "180839.527500", "180839.987500", "180840.447500", "180840.907500", "180841.367500", "180841.827500", "180842.287500", "180842.747500", "180843.207500", "180843.667500", "180844.127500", "180844.587500", "180845.047500", "180845.507500", "180845.967500", "180846.427500", "180846.887500", "180847.347500", "180847.807500", "180848.267500", "180848.727500", "180849.187500", "180849.647500", "180850.107500", "180850.567500", "180851.027500", "180851.487500", "180851.947500", "180852.407500", "180852.867500", "180853.327500", "180853.787500", "180854.247500", "180854.707500", "180855.167500", "180855.627500", "180856.087500", "180856.547500", "180857.007500", "180857.467500", "180857.927500", "180858.387500", "180858.847500", "180859.307500", "180859.767500", "180900.227500", "180900.687500", "180901.147500", "180901.607500", "180902.067500", "180902.527500", "180902.987500", "180903.447500", "180903.907500", "180904.367500", "180904.827500", "180905.287500", "180905.747500", "180906.207500", "180906.667500", "180907.127500", "180907.587500", "180908.047500", "180908.507500", "180908.967500", "180909.427500", "180909.887500", "180910.347500", "180910.807500", "180911.267500", "180911.727500", "180912.187500", "180912.647500", "180913.107500", "180913.567500", "180914.027500", "180914.487500", "180914.947500", "180915.407500", "180915.867500", "180916.327500", "180916.787500", "180917.247500", "180917.707500", "180918.167500", "180918.627500", "180919.087500", "180919.547500", "180920.007500", "180920.467500", "180920.927500", "180921.387500", "180921.847500", "180922.307500", "180922.767500", "180923.227500", "180923.687500", "180924.147500", "180924.607500", "180925.067500", "180925.527500", "180925.987500", "180926.447500", "180926.907500", "180927.367500", "180927.827500", "180928.287500", "180928.747500", "180929.207500", "180929.667500", "180930.127500", "180930.587500", "180931.047500", "180931.507500", "180931.967500", "180932.427500", "180932.887500", "180933.347500", "180933.807500", "180934.267500", "180934.727500", "180935.187500", "180935.647500", "180936.107500", "180936.567500", "180937.027500", "180937.487500", "180937.947500", "180938.407500", "180938.867500", "180939.327500", "180939.787500", "180940.247500", "180940.707500", "180941.167500", "180941.627500", "180942.087500", "180942.547500", "180943.007500", "180943.467500", "180943.927500", "180944.387500", "180944.847500", "180945.307500", "180945.767500", "180946.227500", "180946.687500", "180947.147500", "180947.607500", "180948.067500", "180948.527500", "180948.987500", "180949.447500", "180949.907500", "180950.367500", "180950.827500", "180951.287500", "180951.747500", "180952.207500", "180952.667500", "180953.127500", "180953.587500", "180954.047500", "180954.507500", "180954.967500", "180955.427500", "180955.887500", "180956.347500", "180956.807500", "180957.267500", "180957.727500", "180958.187500", "180958.647500", "180959.107500", "180959.567500", "181000.027500", "181000.487500", "181000.947500", "181001.407500", "181001.867500", "181002.327500", "181002.787500", "181003.247500", "181003.707500", "181004.167500", "181004.627500", "181005.087500", "181005.547500", "181006.007500", "181006.467500", "181006.927500", "181007.387500", "181007.847500", "181008.307500", "181008.767500", "181009.227500", "181009.687500", "181010.147500", "181010.607500", "181011.067500", "181011.527500", "181011.987500", "181012.447500", "181012.907500", "181013.367500", "181013.827500", "181014.287500", "181014.747500", "181015.207500", "181015.667500", "181016.127500", "181016.587500", "181017.047500", "181017.507500", "181017.967500", "181018.427500", "181018.887500", "181019.347500", "181019.807500", "181020.267500", "181020.727500", "181021.187500", "181021.647500", "181022.107500", "181022.567500", "181023.027500", "181023.487500", "181023.947500", "181024.407500", "181024.867500", "181025.327500", "181025.787500", "181026.247500", "181026.707500", "181027.167500", "181027.627500", "181028.087500", "181028.547500", "181029.007500", "181029.467500", "181029.927500", "181030.387500", "181030.847500", "181031.307500", "181031.767500", "181032.227500", "181032.687500", "181033.147500", "181033.607500", "181034.067500", "181034.527500", "181034.987500", "181035.447500", "181035.907500", "181036.367500", "181036.827500", "181037.287500", "181037.747500", "181038.207500", "181038.667500", "181039.127500", "181039.587500", "181040.047500", "181040.507500", "181040.967500", "181041.427500", "181041.887500", "181042.347500", "181042.807500", "181043.267500", "181043.727500", "181044.187500", "181044.647500", "181045.107500", "181045.567500", "181046.027500", "181046.487500", "181046.947500", "181047.407500", "181047.867500", "181048.327500", "181048.787500", "181049.247500", "181049.707500", "181050.167500", "181050.627500", "181051.087500", "181051.547500", "181052.007500", "181052.467500", "181052.927500", "181053.387500", "181053.847500", "181054.307500", "181054.767500", "181055.227500", "181055.687500", "181056.147500", "181056.607500", "181057.067500", "181057.527500", "181057.987500", "181058.447500", "181058.907500", "181059.367500", "181059.827500", "181100.287500", "181100.747500", "181101.207500", "181101.667500", "181102.127500", "181102.587500", "181103.047500", "181103.507500", "181103.967500", "181104.427500", "181104.887500", "181105.347500", "181105.807500", "181106.267500", "181106.727500", "181107.187500", "181107.647500", "181108.107500", "181108.567500", "181109.027500", "181109.487500", "181109.947500", "181110.407500", "181110.867500", "181111.327500", "181111.787500", "181112.247500", "181112.707500", "181113.167500", "181113.627500", "181114.087500", "181114.547500", "181115.007500", "181115.467500", "181115.927500", "181116.387500", "181116.847500", "181117.307500", "181117.767500", "181118.227500", "181118.687500", "181119.147500", "181119.607500", "181120.067500", "181120.527500", "181120.987500", "181121.447500", "181121.907500", "181122.367500", "181122.827500", "181123.287500", "181123.747500", "181124.207500", "181124.667500", "181125.127500", "181125.587500", "181126.047500", "181126.507500", "181126.967500", "181127.427500", "181127.887500", "181128.347500", "181128.807500", "181129.267500", "181129.727500", "181130.187500", "181130.647500", "181131.107500", "181131.567500", "181132.027500", "181132.487500", "181132.947500", "181133.407500", "181133.867500", "181134.327500", "181134.787500", "181135.247500", "181135.707500", "181136.167500", "181136.627500", "181137.087500", "181137.547500", "181138.007500", "181138.467500", "181138.927500", "181139.387500", "181139.847500", "181140.307500", "181140.767500", "181141.227500", "181141.687500", "181142.147500", "181142.607500", "181143.067500", "181143.527500", "181143.987500", "181144.447500", "181144.907500", "181145.367500", "181145.827500", "181146.287500", "181146.747500", "181147.207500", "181147.667500", "181148.127500", "181148.587500", "181149.047500", "181149.507500", "181149.967500", "181150.427500", "181150.887500", "181151.347500", "181151.807500", "181152.267500", "181152.727500", "181153.187500", "181153.647500", "181154.107500", "181154.567500", "181155.027500", "181155.487500", "181155.947500", "181156.407500", "181156.867500", "181157.327500", "181157.787500", "181158.247500", "181158.707500", "181159.167500", "181159.627500", "181200.087500", "181200.547500", "181201.007500", "181201.467500", "181201.927500", "181202.387500", "181202.847500", "181203.307500", "181203.767500", "181204.227500", "181204.687500", "181205.147500", "181205.607500", "181206.067500", "181206.527500", "181206.987500", "181207.447500", "181207.907500", "181208.367500", "181208.827500", "181209.287500", "181209.747500", "181210.207500", "181210.667500", "181211.127500", "181211.587500", "181212.047500", "181212.507500", "181212.967500", "181213.427500", "181213.887500", "181214.347500", "181214.807500", "181215.267500", "181215.727500", "181216.187500", "181216.647500", "181217.107500", "181217.567500", "181218.027500", "181218.487500", "181218.947500", "181219.407500", "181219.867500", "181220.327500", "181220.787500", "181221.247500", "181221.707500", "181222.167500", "181222.627500", "181223.087500", "181223.547500", "181224.007500", "181224.467500", "181224.927500", "181225.387500", "181225.847500", "181226.307500", "181226.767500", "181227.227500", "181227.687500", "181228.147500", "181228.607500", "181229.067500", "181229.527500", "181229.987500", "181230.447500", "181230.907500", "181231.367500", "181231.827500", "181232.287500", "181232.747500", "181233.207500", "181233.667500", "181234.127500", "181234.587500", "181235.047500", "181235.507500", "181235.967500", "181236.427500", "181236.887500", "181237.347500", "181237.807500", "181238.267500", "181238.727500", "181239.187500", "181239.647500", "181240.107500", "181240.567500", "181241.027500", "181241.487500", "181241.947500", "181242.407500", "181242.867500", "181243.327500", "181243.787500", "181244.247500", "181244.707500", "181245.167500", "181245.627500", "181246.087500", "181246.547500", "181247.007500", "181247.467500", "181247.927500", "181248.387500", "181248.847500", "181249.307500", "181249.767500", "181250.227500", "181250.687500", "181251.147500", "181251.607500", "181252.067500", "181252.527500", "181252.987500", "181253.447500", "181253.907500", "181254.367500", "181254.827500", "181255.287500", "181255.747500", "181256.207500", "181256.667500", "181257.127500", "181257.587500", "181258.047500", "181258.507500", "181258.967500", "181259.427500", "181259.887500", "181300.347500", "181300.807500", "181301.267500", "181301.727500", "181302.187500", "181302.647500", "181303.107500", "181303.567500", "181304.027500", "181304.487500", "181304.947500", "181305.407500", "181305.867500", "181306.327500", "181306.787500", "181307.247500", "181307.707500", "181308.167500", "181308.627500", "181309.087500", "181309.547500", "181310.007500", "181310.467500", "181310.927500", "181311.387500", "181311.847500", "181312.307500", "181312.767500", "181313.227500", "181313.687500", "181314.147500", "181314.607500", "181315.067500", "181315.527500", "181315.987500", "181316.447500", "181316.907500", "181317.367500", "181317.827500", "181318.287500", "181318.747500", "181319.207500", "181319.667500", "181320.127500", "181320.587500", "181321.047500", "181321.507500", "181321.967500", "181322.427500", "181322.887500", "181323.347500", "181323.807500", "181324.267500", "181324.727500", "181325.187500", "181325.647500", "181326.107500", "181326.567500", "181327.027500", "181327.487500", "181327.947500", "181328.407500", "181328.867500", "181329.327500", "181329.787500", "181330.247500", "181330.707500", "181331.167500", "181331.627500", "181332.087500", "181332.547500", "181333.007500", "181333.467500", "181333.927500", "181334.387500", "181334.847500", "181335.307500", "181335.767500", "181336.227500", "181336.687500", "181337.147500", "181337.607500", "181338.067500", "181338.527500", "181338.987500", "181339.447500", "181339.907500", "181340.367500", "181340.827500", "181341.287500", "181341.747500", "181342.207500", "181342.667500", "181343.127500", "181343.587500", "181344.047500", "181344.507500", "181344.967500", "181345.427500", "181345.887500", "181346.347500", "181346.807500", "181347.267500", "181347.727500", "181348.187500", "181348.647500", "181349.107500", "181349.567500", "181350.027500", "181350.487500", "181350.947500", "181351.407500", "181351.867500", "181352.327500", "181352.787500", "181353.247500", "181353.707500", "181354.167500", "181354.627500", "181355.087500", "181355.547500", "181356.007500", "181356.467500", "181356.927500", "181357.387500", "181357.847500", "181358.307500", "181358.767500", "181359.227500", "181359.687500", "181400.147500", "181400.607500", "181401.067500", "181401.527500", "181401.987500", "181402.447500", "181402.907500", "181403.367500", "181403.827500", "181404.287500", "181404.747500", "181405.207500", "181405.667500", "181406.127500", "181406.587500", "181407.047500", "181407.507500", "181407.967500", "181408.427500", "181408.887500", "181409.347500", "181409.807500", "181410.267500", "181410.727500", "181411.187500", "181411.647500", "181412.107500", "181412.567500", "181413.027500", "181413.487500", "181413.947500", "181414.407500", "181414.867500", "181415.327500", "181415.787500", "181416.247500", "181416.707500", "181417.167500", "181417.627500", "181418.087500", "181418.547500", "181419.007500"],
