{
  "AcquisitionMatrixPE": 82,
  "AcquisitionNumber": 1,
  "AcquisitionTime": "18:14:47.202500",
  "BandwidthPerPixelPhaseEncode": 24.888,
  "BaseResolution": 82,
  "BodyPartExamined": "BRAIN",
  "ConsistencyInfo": "N4_VE11E_LATEST_20181129",
  "ConversionSoftware": "dcm2niix",
  "ConversionSoftwareVersion": "v1.0.20201102",
  "DerivedVendorReportedEchoSpacing": 0.00049,
  "DeviceSerialNumber": "66112",
  "DwellTime": 2e-06,
  "EchoTime": 0.0272,
  "EchoTrainLength": 82,
  "EffectiveEchoSpacing": 0.00049,
  "FlipAngle": 44,
  "ImageComments": "Unaliased MB8/PE3",
  "ImageOrientationPatientDICOM": [0.995708, -0.0166834, 0.0910373, 0.0298998, 0.988861, -0.145807],
  "ImageType": [
    "ORIGINAL",
    "PRIMARY",
    "M",
    "MB",
    "ND",
    "NORM",
    "MOSAIC"
],
  "ImagingFrequency": 123.252,
  "InPlanePhaseEncodingDirectionDICOM": "COL",
  "InstitutionAddress": "Maynard 3,Hanover,NH,US,03755",
  "InstitutionName": "Dartmouth College - PBS",
  "InstitutionalDepartmentName": "Department",
  "MRAcquisitionType": "2D",
  "MagneticFieldStrength": 3,
  "Manufacturer": "Siemens",
  "ManufacturersModelName": "Prisma",
  "Modality": "MR",
  "MultibandAccelerationFactor": 8,
  "PartialFourier": 1,
  "PatientPosition": "HFS",
  "PercentPhaseFOV": 100,
  "PercentSampling": 100,
  "PhaseEncodingDirection": "j-",
  "PhaseEncodingSteps": 82,
  "PhaseResolution": 1,
  "PixelBandwidth": 3050,
  "ProcedureStepDescription": "Wager_Wager^1076_spacetop",
  "ProtocolName": "func_run-02_task-social_acq-ap-mb8",
  "PulseSequenceDetails": "%CustomerSeq%\\cmrr_mbep2d_bold",
  "ReceiveCoilActiveElements": "HEA;HEP",
  "ReceiveCoilName": "Head_32",
  "ReconMatrixPE": 82,
  "RepetitionTime": 0.46,
  "SAR": 0.102539,
  "ScanOptions": "FS",
  "ScanningSequence": "EP",
  "SequenceName": "epfid2d1_82",
  "SequenceVariant": "SK\\SS",
  "SeriesDescription": "func_run-02_task-social_acq-ap-mb8",
  "SeriesNumber": 14,
  "ShimSetting": [4163, -7705, -7256, 437, -117, -310, -112, 101],
  "SliceThickness": 2.7,
  "SliceTiming": [0, 0.2525, 0.065, 0.315, 0.1275, 0.3775, 0.19, 0, 0.2525, 0.065, 0.315, 0.1275, 0.3775, 0.19, 0, 0.2525, 0.065, 0.315, 0.1275, 0.3775, 0.19, 0, 0.2525, 0.065, 0.315, 0.1275, 0.3775, 0.19, 0, 0.2525, 0.065, 0.315, 0.1275, 0.3775, 0.19, 0, 0.2525, 0.065, 0.315, 0.1275, 0.3775, 0.19, 0, 0.2525, 0.065, 0.315, 0.1275, 0.3775, 0.19, 0, 0.2525, 0.065, 0.315, 0.1275, 0.3775, 0.19],
  "SoftwareVersions": "syngo MR E11",
  "SpacingBetweenSlices": 2.7,
  "StationName": "AWP66112",
  "TaskName": "social",
  "TotalReadoutTime": 0.03969,
  "TxRefAmp": 255.309,
  "WipMemBlock": "36b7c850-075e-48d7-b7ff-27663b9bd4ac||Sequence: R016 ve11e/master r/434b28f1; Aug  7 2019 18:53:46 by eja",
  "dcmmeta_affine": [
    [-2.6714110374450684, 0.08021902292966843, 0.23649485409259796, 103.17628479003906],
    [0.0447603315114975, 2.6530418395996094, -0.3993397355079651, -89.08854675292969],
    [0.2442464381456375, 0.3911907374858856, 2.6598117351531982, -114.89617919921875],
    [0.0, 0.0, 0.0, 1.0]
],
  "dcmmeta_reorient_transform": [
    [0.0, -1.0, 0.0, 81.0],
    [1.0, 0.0, 0.0, 0.0],
    [0.0, 0.0, 1.0, 0.0],
    [0.0, 0.0, 0.0, 1.0]
],
  "dcmmeta_shape": [82, 82, 56, 872],
  "dcmmeta_slice_dim": 2,
  "dcmmeta_version": 0.6,
  "global": {
    "const": {
      "AccessionNumber": "A003887",
      "AcquisitionMatrix": [82, 0, 0, 82],
      "AngioFlag": "N",
      "BitsAllocated": 16,
      "BitsStored": 16,
      "BodyPartExamined": "BRAIN",
      "Columns": 656,
      "EchoNumbers": 1,
      "EchoTime": 27.2,
      "EchoTrainLength": 82,
      "FlipAngle": 44.0,
      "HighBit": 15,
      "ImageOrientationPatient": [0.99570772473126, -0.0166833964124, 0.09103730660909, 0.02989981657397, 0.98886105654249, -0.1458074477608],
      "ImagePositionPatient": [-899.39184942936, -874.38466842525, -41.036718301929],
      "ImageType": [
        "ORIGINAL",
        "PRIMARY",
        "M",
        "MB",
        "ND",
        "NORM",
        "MOSAIC"
],
      "ImagedNucleus": "1H",
      "ImagingFrequency": 123.252231,
      "InPlanePhaseEncodingDirection": "COL",
      "MRAcquisitionType": "2D",
      "MagneticFieldStrength": 3.0,
      "Manufacturer": "SIEMENS",
      "ManufacturerModelName": "Prisma",
      "Modality": "MR",
      "NumberOfAverages": 1.0,
      "NumberOfPhaseEncodingSteps": 82,
      "PercentPhaseFieldOfView": 100.0,
      "PercentSampling": 100.0,
      "PerformedProcedureStepStartTime": "174248.157000",
      "PhotometricInterpretation": "MONOCHROME2",
      "PixelBandwidth": 3050.0,
      "PixelRepresentation": 0,
      "PixelSpacing": [2.6829268932343, 2.6829268932343],
      "ProtocolName": "func_run-02_task-social_acq-ap-mb8",
      "RepetitionTime": 460.0,
      "Rows": 656,
      "SAR": 0.10253908989524,
      "SamplesPerPixel": 1,
      "ScanOptions": "FS",
      "ScanningSequence": "EP",
      "SequenceName": "epfid2d1_82",
      "SequenceVariant": [
        "SK",
        "SS"
],
      "SeriesDescription": "func_run-02_task-social_acq-ap-mb8",
      "SeriesNumber": 14,
      "SeriesTime": "181513.437000",
      "SliceLocation": -90.97219803619,
      "SliceThickness": 2.7000000476837,
      "SmallestImagePixelValue": 0,
      "SoftwareVersions": "syngo MR E11",
      "SpacingBetweenSlices": 2.7000000337067,
      "SpecificCharacterSet": "ISO_IR 100",
      "StudyID": "1",
      "StudyTime": "174248.032000",
      "TransmitCoilName": "Body",
      "VariableFlipAngleFlag": "N",
      "WindowCenterWidthExplanation": "Algo1"
    },
    "slices": {}
  },
  "time": {
    "samples": {
      "AcquisitionNumber": [1, 2, 3, 4, 5, 6, 7, 8, 9, 10, 11, 12, 13, 14, 15, 16, 17, 18, 19, 20, 21, 22, 23, 24, 25, 26, 27, 28, 29, 30, 31, 32, 33, 34, 35, 36, 37, 38, 39, 40, 41, 42, 43, 44, 45, 46, 47, 48, 49, 50, 51, 52, 53, 54, 55, 56, 57, 58, 59, 60, 61, 62, 63, 64, 65, 66, 67, 68, 69, 70, 71, 72, 73, 74, 75, 76, 77, 78, 79, 80, 81, 82, 83, 84, 85, 86, 87, 88, 89, 90, 91, 92, 93, 94, 95, 96, 97, 98, 99, 100, 101, 102, 103, 104, 105, 106, 107, 108, 109, 110, 111, 112, 113, 114, 115, 116, 117, 118, 119, 120, 121, 122, 123, 124, 125, 126, 127, 128, 129, 130, 131, 132, 133, 134, 135, 136, 137, 138, 139, 140, 141, 142, 143, 144, 145, 146, 147, 148, 149, 150, 151, 152, 153, 154, 155, 156, 157, 158, 159, 160, 161, 162, 163, 164, 165, 166, 167, 168, 169, 170, 171, 172, 173, 174, 175, 176, 177, 178, 179, 180, 181, 182, 183, 184, 185, 186, 187, 188, 189, 190, 191, 192, 193, 194, 195, 196, 197, 198, 199, 200, 201, 202, 203, 204, 205, 206, 207, 208, 209, 210, 211, 212, 213, 214, 215, 216, 217, 218, 219, 220, 221, 222, 223, 224, 225, 226, 227, 228, 229, 230, 231, 232, 233, 234, 235, 236, 237, 238, 239, 240, 241, 242, 243, 244, 245, 246, 247, 248, 249, 250, 251, 252, 253, 254, 255, 256, 257, 258, 259, 260, 261, 262, 263, 264, 265, 266, 267, 268, 269, 270, 271, 272, 273, 274, 275, 276, 277, 278, 279, 280, 281, 282, 283, 284, 285, 286, 287, 288, 289, 290, 291, 292, 293, 294, 295, 296, 297, 298, 299, 300, 301, 302, 303, 304, 305, 306, 307, 308, 309, 310, 311, 312, 313, 314, 315, 316, 317, 318, 319, 320, 321, 322, 323, 324, 325, 326, 327, 328, 329, 330, 331, 332, 333, 334, 335, 336, 337, 338, 339, 340, 341, 342, 343, 344, 345, 346, 347, 348, 349, 350, 351, 352, 353, 354, 355, 356, 357, 358, 359, 360, 361, 362, 363, 364, 365, 366, 367, 368, 369, 370, 371, 372, 373, 374, 375, 376, 377, 378, 379, 380, 381, 382, 383, 384, 385, 386, 387, 388, 389, 390, 391, 392, 393, 394, 395, 396, 397, 398, 399, 400, 401, 402, 403, 404, 405, 406, 407, 408, 409, 410, 411, 412, 413, 414, 415, 416, 417, 418, 419, 420, 421, 422, 423, 424, 425, 426, 427, 428, 429, 430, 431, 432, 433, 434, 435, 436, 437, 438, 439, 440, 441, 442, 443, 444, 445, 446, 447, 448, 449, 450, 451, 452, 453, 454, 455, 456, 457, 458, 459, 460, 461, 462, 463, 464, 465, 466, 467, 468, 469, 470, 471, 472, 473, 474, 475, 476, 477, 478, 479, 480, 481, 482, 483, 484, 485, 486, 487, 488, 489, 490, 491, 492, 493, 494, 495, 496, 497, 498, 499, 500, 501, 502, 503, 504, 505, 506, 507, 508, 509, 510, 511, 512, 513, 514, 515, 516, 517, 518, 519, 520, 521, 522, 523, 524, 525, 526, 527, 528, 529, 530, 531, 532, 533, 534, 535, 536, 537, 538, 539, 540, 541, 542, 543, 544, 545, 546, 547, 548, 549, 550, 551, 552, 553, 554, 555, 556, 557, 558, 559, 560, 561, 562, 563, 564, 565, 566, 567, 568, 569, 570, 571, 572, 573, 574, 575, 576, 577, 578, 579, 580, 581, 582, 583, 584, 585, 586, 587, 588, 589, 590, 591, 592, 593, 594, 595, 596, 597, 598, 599, 600, 601, 602, 603, 604, 605, 606, 607, 608, 609, 610, 611, 612, 613, 614, 615, 616, 617, 618, 619, 620, 621, 622, 623, 624, 625, 626, 627, 628, 629, 630, 631, 632, 633, 634, 635, 636, 637, 638, 639, 640, 641, 642, 643, 644, 645, 646, 647, 648, 649, 650, 651, 652, 653, 654, 655, 656, 657, 658, 659, 660, 661, 662, 663, 664, 665, 666, 667, 668, 669, 670, 671, 672, 673, 674, 675, 676, 677, 678, 679, 680, 681, 682, 683, 684, 685, 686, 687, 688, 689, 690, 691, 692, 693, 694, 695, 696, 697, 698, 699, 700, 701, 702, 703, 704, 705, 706, 707, 708, 709, 710, 711, 712, 713, 714, 715, 716, 717, 718, 719, 720, 721, 722, 723, 724, 725, 726, 727, 728, 729, 730, 731, 732, 733, 734, 735, 736, 737, 738, 739, 740, 741, 742, 743, 744, 745, 746, 747, 748, 749, 750, 751, 752, 753, 754, 755, 756, 757, 758, 759, 760, 761, 762, 763, 764, 765, 766, 767, 768, 769, 770, 771, 772, 773, 774, 775, 776, 777, 778, 779, 780, 781, 782, 783, 784, 785, 786, 787, 788, 789, 790, 791, 792, 793, 794, 795, 796, 797, 798, 799, 800, 801, 802, 803, 804, 805, 806, 807, 808, 809, 810, 811, 812, 813, 814, 815, 816, 817, 818, 819, 820, 821, 822, 823, 824, 825, 826, 827, 828, 829, 830, 831, 832, 833, 834, 835, 836, 837, 838, 839, 840, 841, 842, 843, 844, 845, 846, 847, 848, 849, 850, 851, 852, 853, 854, 855, 856, 857, 858, 859, 860, 861, 862, 863, 864, 865, 866, 867, 868, 869, 870, 871, 872],
      "AcquisitionTime": ["181447.202500", "181447.662500", "181448.122500", "181448.582500", "181449.042500", "181449.502500", "181449.962500", "181450.422500", "181450.882500", "181451.342500", "181451.802500", "181452.262500", "181452.722500", "181453.182500", "181453.642500", "181454.102500", "181454.562500", "181455.022500", "181455.482500", "181455.942500", "181456.402500", "181456.862500", "181457.322500", "181457.782500", "181458.242500", "181458.702500", "181459.162500", "181459.622500", "181500.082500", "181500.542500", "181501.002500", "181501.462500", "181501.922500", "181502.382500", "181502.842500", "181503.302500", "181503.762500", "181504.222500", "181504.682500", "181505.142500", "181505.602500", "181506.062500", "181506.522500", "181506.982500", "181507.442500", "181507.902500", "181508.362500", "181508.822500", "181509.282500", "181509.742500", "181510.202500", "181510.662500", "181511.122500", "181511.582500", "181512.042500", "181512.502500", "181512.962500", "181513.422500", "181513.882500", "181514.342500", "181514.802500", "181515.262500", "181515.722500", "181516.182500", "181516.642500", "181517.102500", "181517.562500", "181518.022500", "181518.482500", "181518.942500", "181519.402500", "181519.862500", "181520.322500", "181520.782500", "181521.242500", "181521.702500", "181522.162500", "181522.622500", "181523.082500", "181523.542500", "181524.002500", "181524.462500", "181524.922500", "181525.382500", "181525.842500", "181526.302500", "181526.762500", "181527.222500", "181527.682500", "181528.142500", "181528.602500", "181529.062500", "181529.522500", "181529.982500", "181530.442500", "181530.902500", "181531.362500", "181531.822500", "181532.282500", "181532.742500", "181533.202500", "181533.662500", "181534.122500", "181534.582500", "181535.042500", "181535.502500", "181535.962500", "181536.422500", "181536.882500", "181537.342500", "181537.802500", "181538.262500", "181538.722500", "181539.182500", "181539.642500", "181540.102500", "181540.562500", "181541.022500", "181541.482500", "181541.942500", "181542.402500", "181542.862500", "181543.322500", "181543.782500", "181544.242500", "181544.702500", "181545.162500", "181545.622500", "181546.082500", "181546.542500", "181547.002500", "181547.462500", "181547.922500", "181548.382500", "181548.842500", "181549.302500", "181549.762500", "181550.222500", "181550.682500", "181551.142500", "181551.602500", "181552.062500", "181552.522500", "181552.982500", "181553.442500", "181553.902500", "181554.362500", "181554.822500", "181555.282500", "181555.742500", "181556.202500", "181556.662500", "181557.122500", "181557.582500", "181558.042500", "181558.502500", "181558.962500", "181559.422500", "181559.882500", "181600.342500", "181600.802500", "181601.262500", "181601.722500", "181602.182500", "181602.642500", "181603.102500", "181603.562500", "181604.022500", "181604.482500", "181604.942500", "181605.402500", "181605.862500", "181606.322500", "181606.782500", "181607.242500", "181607.702500", "181608.162500", "181608.622500", "181609.082500", "181609.542500", "181610.002500", "181610.462500", "181610.922500", "181611.382500", "181611.842500", "181612.302500", "181612.762500", "181613.222500", "181613.682500", "181614.142500", "181614.602500", "181615.062500", "181615.522500", "181615.982500", "181616.442500", "181616.902500", "181617.362500", "181617.822500", "181618.282500", "181618.742500", "181619.202500", "181619.662500", "181620.122500", "181620.582500", "181621.042500", "181621.502500", "181621.962500", "181622.422500", "181622.882500", "181623.342500", "181623.802500", "181624.262500", "181624.722500", "181625.182500", "181625.642500", "181626.102500", "181626.562500", "181627.022500", "181627.482500", "181627.942500", "181628.402500", "181628.862500", "181629.322500", "181629.782500", "181630.242500", "181630.702500", "181631.162500", "181631.622500", "181632.082500", "181632.542500", "181633.002500", "181633.462500", "181633.922500", "181634.382500", "181634.842500", "181635.302500", "181635.762500", "181636.222500", "181636.682500", "181637.142500", "181637.602500", "181638.062500", "181638.522500", "181638.982500", "181639.442500", "181639.902500", "181640.362500", "181640.822500", "181641.282500", "181641.742500", "181642.202500", "181642.662500", "181643.122500", "181643.582500", "181644.042500", "181644.502500", "181644.962500", "181645.422500", "181645.882500", "181646.342500", "181646.802500", "181647.262500", "181647.722500", "181648.182500", "181648.642500", "181649.102500", "181649.562500", "181650.022500", "181650.482500", "181650.942500", "181651.402500", "181651.862500", "181652.322500", "181652.782500", "181653.242500", "181653.702500", "181654.162500", "181654.622500", "181655.082500", "181655.542500", "181656.002500", "181656.462500", "181656.922500", "181657.382500", "181657.842500", "181658.302500", "181658.762500", "181659.222500", "181659.682500", "181700.142500", "181700.602500", "181701.062500", "181701.522500", "181701.982500", "181702.442500", "181702.902500", "181703.362500", "181703.822500", "181704.282500", "181704.742500", "181705.202500", "181705.662500", "181706.122500", "181706.582500", "181707.042500", "181707.502500", "181707.962500", "181708.422500", "181708.882500", "181709.342500", "181709.802500", "181710.262500", "181710.722500", "181711.182500", "181711.642500", "181712.102500", "181712.562500", "181713.022500", "181713.482500", "181713.942500", "181714.402500", "181714.862500", "181715.322500", "181715.782500", "181716.242500", "181716.702500", "181717.162500", "181717.622500", "181718.082500", "181718.542500", "181719.002500", "181719.462500", "181719.922500", "181720.382500", "181720.842500", "181721.302500", "181721.762500", "181722.222500", "181722.682500", "181723.142500", "181723.602500", "181724.062500", "181724.522500", "181724.982500", "181725.442500", "181725.902500", "181726.362500", "181726.822500", "181727.282500", "181727.742500", "181728.202500", "181728.662500", "181729.122500", "181729.582500", "181730.042500", "181730.502500", "181730.962500", "181731.422500", "181731.882500", "181732.342500", "181732.802500", "181733.262500", "181733.722500", "181734.182500", "181734.642500", "181735.102500", "181735.562500", "181736.022500", "181736.482500", "181736.942500", "181737.402500", "181737.862500", "181738.322500", "181738.782500", "181739.242500", "181739.702500", "181740.162500", "181740.622500", "181741.082500", "181741.542500", "181742.002500", "181742.462500", "181742.922500", "181743.382500", "181743.842500", "181744.302500", "181744.762500", "181745.222500", "181745.682500", "181746.142500", "181746.602500", "181747.062500", "181747.522500", "181747.982500", "181748.442500", "181748.902500", "181749.362500", "181749.822500", "181750.282500", "181750.742500", "181751.202500", "181751.662500", "181752.122500", "181752.582500", "181753.042500", "181753.502500", "181753.962500", "181754.422500", "181754.882500", "181755.342500", "181755.802500", "181756.262500", "181756.722500", "181757.182500", "181757.642500", "181758.102500", "181758.562500", "181759.022500", "181759.482500", "181759.942500", "181800.402500", "181800.862500", "181801.322500", "181801.782500", "181802.242500", "181802.702500", "181803.162500", "181803.622500", "181804.082500", "181804.542500", "181805.002500", "181805.462500", "181805.922500", "181806.382500", "181806.842500", "181807.302500", "181807.762500", "181808.222500", "181808.682500", "181809.142500", "181809.602500", "181810.062500", "181810.522500", "181810.982500", "181811.442500", "181811.902500", "181812.362500", "181812.822500", "181813.282500", "181813.742500", "181814.202500", "181814.662500", "181815.122500", "181815.582500", "181816.042500", "181816.502500", "181816.962500", "181817.422500", "181817.882500", "181818.342500", "181818.802500", "181819.262500", "181819.722500", "181820.182500", "181820.642500", "181821.102500", "181821.562500", "181822.022500", "181822.482500", "181822.942500", "181823.402500", "181823.862500", "181824.322500", "181824.782500", "181825.242500", "181825.702500", "181826.162500", "181826.622500", "181827.082500", "181827.542500", "181828.002500", "181828.462500", "181828.922500", "181829.382500", "181829.842500", "181830.302500", "181830.762500", "181831.222500", "181831.682500", "181832.142500", "181832.602500", "181833.062500", "181833.522500", "181833.982500", "181834.442500", "181834.902500", "181835.362500", "181835.822500", "181836.282500", "181836.742500", "181837.202500", "181837.662500", "181838.122500", "181838.582500", "181839.042500", "181839.502500", "181839.962500", "181840.422500", "181840.882500", "181841.342500", "181841.802500", "181842.262500", "181842.722500", "181843.182500", "181843.642500", "181844.102500", "181844.562500", "181845.022500", "181845.482500", "181845.942500", "181846.402500", "181846.862500", "181847.322500", "181847.782500", "181848.242500", "181848.702500", "181849.162500", "181849.622500", "181850.082500", "181850.542500", "181851.002500", "181851.462500", "181851.922500", "181852.382500", "181852.842500", "181853.302500", "181853.762500", "181854.222500", "181854.682500", "181855.142500", "181855.602500", "181856.062500", "181856.522500", "181856.982500", "181857.442500", "181857.902500", "181858.362500", "181858.822500", "181859.282500", "181859.742500", "181900.202500", "181900.662500", "181901.122500", "181901.582500", "181902.042500", "181902.502500", "181902.962500", "181903.422500", "181903.882500", "181904.342500", "181904.802500", "181905.262500", "181905.722500", "181906.182500", "181906.642500", "181907.102500", "181907.562500", "181908.022500", "181908.482500", "181908.942500", "181909.402500", "181909.862500", "181910.322500", "181910.782500", "181911.242500", "181911.702500", "181912.162500", "181912.622500", "181913.082500", "181913.542500", "181914.002500", "181914.462500", "181914.922500", "181915.382500", "181915.842500", "181916.302500", "181916.762500", "181917.222500", "181917.682500", "181918.142500", "181918.602500", "181919.062500", "181919.522500", "181919.982500", "181920.442500", "181920.902500", "181921.362500", "181921.822500", "181922.282500", "181922.742500", "181923.202500", "181923.662500", "181924.122500", "181924.582500", "181925.042500", "181925.502500", "181925.962500", "181926.422500", "181926.882500", "181927.342500", "181927.802500", "181928.262500", "181928.722500", "181929.182500", "181929.642500", "181930.102500", "181930.562500", "181931.022500", "181931.482500", "181931.942500", "181932.402500", "181932.862500", "181933.322500", "181933.782500", "181934.242500", "181934.702500", "181935.162500", "181935.622500", "181936.082500", "181936.542500", "181937.002500", "181937.462500", "181937.922500", "181938.382500", "181938.842500", "181939.302500", "181939.762500", "181940.222500", "181940.682500", "181941.142500", "181941.602500", "181942.062500", "181942.522500", "181942.982500", "181943.442500", "181943.902500", "181944.362500", "181944.822500", "181945.282500", "181945.742500", "181946.202500", "181946.662500", "181947.122500", "181947.582500", "181948.042500", "181948.502500", "181948.962500", "181949.422500", "181949.882500", "181950.342500", "181950.802500", "181951.262500", "181951.722500", "181952.182500", "181952.642500", "181953.102500", "181953.562500", "181954.022500", "181954.482500", "181954.942500", "181955.402500", "181955.862500", "181956.322500", "181956.782500", "181957.242500", "181957.702500", "181958.162500", "181958.622500", "181959.082500", "181959.542500", "182000.002500", "182000.462500", "182000.922500", "182001.382500", "182001.842500", "182002.302500", "182002.762500", "182003.222500", "182003.682500", "182004.142500", "182004.602500", "182005.062500", "182005.522500", "182005.982500", "182006.442500", "182006.902500", "182007.362500", "182007.822500", "182008.282500", "182008.742500", "182009.202500", "182009.662500", "182010.122500", "182010.582500", "182011.042500", "182011.502500", "182011.962500", "182012.422500", "182012.882500", "182013.342500", "182013.802500", "182014.262500", "182014.722500", "182015.182500", "182015.642500", "182016.102500", "182016.562500", "182017.022500", "182017.482500", "182017.942500", "182018.402500", "182018.862500", "182019.322500", "182019.782500", "182020.242500", "182020.702500", "182021.162500", "182021.622500", "182022.082500", "182022.542500", "182023.002500", "182023.462500", "182023.922500", "182024.382500", "182024.842500", "182025.302500", "182025.762500", "182026.222500", "182026.682500", "182027.142500", "182027.602500", "182028.062500", "182028.522500", "182028.982500", "182029.442500", "182029.902500", "182030.362500", "182030.822500", "182031.282500", "182031.742500", "182032.202500", "182032.662500", "182033.122500", "182033.582500", "182034.042500", "182034.502500", "182034.962500", "182035.422500", "182035.882500", "182036.342500", "182036.802500", "182037.262500", "182037.722500", "182038.182500", "182038.642500", "182039.102500", "182039.562500", "182040.022500", "182040.482500", "182040.942500", "182041.402500", "182041.862500", "182042.322500", "182042.782500", "182043.242500", "182043.702500", "182044.162500", "182044.622500", "182045.082500", "182045.542500", "182046.002500", "182046.462500", "182046.922500", "182047.382500", "182047.842500", "182048.302500", "182048.762500", "182049.222500", "182049.682500", "182050.142500", "182050.602500", "182051.062500", "182051.522500", "182051.982500", "182052.442500", "182052.902500", "182053.362500", "182053.822500", "182054.282500", "182054.742500", "182055.202500", "182055.662500", "182056.122500", "182056.582500", "182057.042500", "182057.502500", "182057.962500", "182058.422500", "182058.882500", "182059.342500", "182059.802500", "182100.262500", "182100.722500", "182101.182500", "182101.642500", "182102.102500", "182102.562500", "182103.022500", "182103.482500", "182103.942500", "182104.402500", "182104.862500", "182105.322500", "182105.782500", "182106.242500", "182106.702500", "182107.162500", "182107.622500", "182108.082500", "182108.542500", "182109.002500", "182109.462500", "182109.922500", "182110.382500", "182110.842500", "182111.302500", "182111.762500", "182112.222500", "182112.682500", "182113.142500", "182113.602500", "182114.062500", "182114.522500", "182114.982500", "182115.442500", "182115.902500", "182116.362500", "182116.822500", "182117.282500", "182117.742500", "182118.202500", "182118.662500", "182119.122500", "182119.582500", "182120.042500", "182120.502500", "182120.962500", "182121.422500", "182121.882500", "182122.342500", "182122.802500", "182123.262500", "182123.722500", "182124.182500", "182124.642500", "182125.102500", "182125.562500", "182126.022500", "182126.482500", "182126.942500", "182127.402500", "182127.862500"],
