{
  "AcquisitionMatrixPE": 82,
  "AcquisitionNumber": 1,
  "AcquisitionTime": "12:37:31.257500",
  "BandwidthPerPixelPhaseEncode": 24.888,
  "BaseResolution": 82,
  "BodyPartExamined": "BRAIN",
  "ConsistencyInfo": "N4_VE11C_LATEST_20160120",
  "ConversionSoftware": "dcm2niix",
  "ConversionSoftwareVersion": "v1.0.20201102",
  "DerivedVendorReportedEchoSpacing": 0.00049,
  "DeviceSerialNumber": "66112",
  "DwellTime": 2e-06,
  "EchoTime": 0.0272,
  "EchoTrainLength": 82,
  "EffectiveEchoSpacing": 0.00049,
  "FlipAngle": 44,
  "ImageComments": "Unaliased MB8/PE3",
  "ImageOrientationPatientDICOM": [0.999655, 0.0241552, -0.0103306, -0.0258277, 0.975576, -0.218139],
  "ImageType": [
    "ORIGINAL",
    "PRIMARY",
    "M",
    "MB",
    "ND",
    "NORM",
    "MOSAIC"
],
  "ImagingFrequency": 123.252,
  "InPlanePhaseEncodingDirectionDICOM": "COL",
  "InstitutionAddress": "Maynard 3,Hanover,NH,US,03755",
  "InstitutionName": "Dartmouth College - PBS",
  "InstitutionalDepartmentName": "Department",
  "MRAcquisitionType": "2D",
  "MagneticFieldStrength": 3,
  "Manufacturer": "Siemens",
  "ManufacturersModelName": "Prisma",
  "Modality": "MR",
  "MultibandAccelerationFactor": 8,
  "PartialFourier": 1,
  "PatientPosition": "HFS",
  "PercentPhaseFOV": 100,
  "PercentSampling": 100,
  "PhaseEncodingDirection": "j-",
  "PhaseEncodingSteps": 82,
  "PhaseResolution": 1,
  "PixelBandwidth": 3050,
  "ProcedureStepDescription": "Wager_Wager^1076_spacetop",
  "ProtocolName": "func_run-01_task-social_acq-ap-mb8",
  "PulseSequenceDetails": "%CustomerSeq%\\cmrr_mbep2d_bold",
  "ReceiveCoilActiveElements": "HEA;HEP",
  "ReceiveCoilName": "Head_32",
  "ReconMatrixPE": 82,
  "RepetitionTime": 0.46,
  "SAR": 0.10312,
  "ScanOptions": "FS",
  "ScanningSequence": "EP",
  "SequenceName": "epfid2d1_82",
  "SequenceVariant": "SK\\SS",
  "SeriesDescription": "func_run-01_task-social_acq-ap-mb8",
  "SeriesNumber": 12,
  "ShimSetting": [4152, -7729, -7265, 507, 10, -120, -56, 56],
  "SliceThickness": 2.7,
  "SliceTiming": [0, 0.25, 0.0625, 0.315, 0.125, 0.3775, 0.1875, 0, 0.25, 0.0625, 0.315, 0.125, 0.3775, 0.1875, 0, 0.25, 0.0625, 0.315, 0.125, 0.3775, 0.1875, 0, 0.25, 0.0625, 0.315, 0.125, 0.3775, 0.1875, 0, 0.25, 0.0625, 0.315, 0.125, 0.3775, 0.1875, 0, 0.25, 0.0625, 0.315, 0.125, 0.3775, 0.1875, 0, 0.25, 0.0625, 0.315, 0.125, 0.3775, 0.1875, 0, 0.25, 0.0625, 0.315, 0.125, 0.3775, 0.1875],
  "SoftwareVersions": "syngo MR E11",
  "SpacingBetweenSlices": 2.7,
  "StationName": "AWP66112",
  "TaskName": "social",
  "TotalReadoutTime": 0.03969,
  "TxRefAmp": 270.675,
  "WipMemBlock": "7068254a-446a-46e5-934b-105ec95c605f||Sequence: R016 ve11c/master r/e634e98; Dec 19 2017 11:00:25 by eja",
  "dcmmeta_affine": [
    [-2.6820008754730225, -0.0692937821149826, -0.012984544970095158, 122.16265106201172],
    [-0.06480672955513, 2.617398977279663, -0.5894911289215088, -68.40421295166016],
    [-0.027716223150491714, 0.585249662399292, 2.6348304748535156, -88.13460540771484],
    [0.0, 0.0, 0.0, 1.0]
],
  "dcmmeta_reorient_transform": [
    [0.0, -1.0, 0.0, 81.0],
    [1.0, 0.0, 0.0, 0.0],
    [0.0, 0.0, 1.0, 0.0],
    [0.0, 0.0, 0.0, 1.0]
],
  "dcmmeta_shape": [82, 82, 56, 872],
  "dcmmeta_slice_dim": 2,
  "dcmmeta_version": 0.6,
  "global": {
    "const": {
      "AccessionNumber": "A003660",
      "AcquisitionMatrix": [82, 0, 0, 82],
      "AngioFlag": "N",
      "BitsAllocated": 16,
      "BitsStored": 16,
      "BodyPartExamined": "BRAIN",
      "Columns": 656,
      "EchoNumbers": 1,
      "EchoTime": 27.2,
      "EchoTrainLength": 82,
      "FlipAngle": 44.0,
      "HighBit": 15,
      "ImageOrientationPatient": [0.99965484218762, 0.02415523451518, -0.0103305922557, -0.0258276815973, 0.97557599322513, -0.2181385163288],
      "ImagePositionPatient": [-866.39679004498, -913.39817164423, 135.19183554555],
      "ImageType": [
        "ORIGINAL",
        "PRIMARY",
        "M",
        "MB",
        "ND",
        "NORM",
        "MOSAIC"
],
      "ImagedNucleus": "1H",
      "ImagingFrequency": 123.252161,
      "InPlanePhaseEncodingDirection": "COL",
      "MRAcquisitionType": "2D",
      "MagneticFieldStrength": 3.0,
      "Manufacturer": "SIEMENS",
      "ManufacturerModelName": "Prisma",
      "Modality": "MR",
      "NumberOfAverages": 1.0,
      "NumberOfPhaseEncodingSteps": 82,
      "PercentPhaseFieldOfView": 100.0,
      "PercentSampling": 100.0,
      "PerformedProcedureStepStartTime": "114533.207000",
      "PhotometricInterpretation": "MONOCHROME2",
      "PixelBandwidth": 3050.0,
      "PixelRepresentation": 0,
      "PixelSpacing": [2.6829268932343, 2.6829268932343],
      "ProtocolName": "func_run-01_task-social_acq-ap-mb8",
      "RepetitionTime": 460.0,
      "Rows": 656,
      "SAR": 0.10311980093655,
      "SamplesPerPixel": 1,
      "ScanOptions": "FS",
      "ScanningSequence": "EP",
      "SequenceName": "epfid2d1_82",
      "SequenceVariant": [
        "SK",
        "SS"
],
      "SeriesDescription": "func_run-01_task-social_acq-ap-mb8",
      "SeriesNumber": 12,
      "SeriesTime": "123752.213000",
      "SliceLocation": -71.660110548472,
      "SliceThickness": 2.7000000476837,
      "SmallestImagePixelValue": 0,
      "SoftwareVersions": "syngo MR E11",
      "SpacingBetweenSlices": 2.7000000625664,
      "SpecificCharacterSet": "ISO_IR 100",
      "StudyID": "1",
      "StudyTime": "114533.166000",
      "TransmitCoilName": "Body",
      "VariableFlipAngleFlag": "N",
      "WindowCenterWidthExplanation": "Algo1",
      "dBdt": 0.0},
    "slices": {}
  },
  "time": {
    "samples": {
      "AcquisitionNumber": [1, 2, 3, 4, 5, 6, 7, 8, 9, 10, 11, 12, 13, 14, 15, 16, 17, 18, 19, 20, 21, 22, 23, 24, 25, 26, 27, 28, 29, 30, 31, 32, 33, 34, 35, 36, 37, 38, 39, 40, 41, 42, 43, 44, 45, 46, 47, 48, 49, 50, 51, 52, 53, 54, 55, 56, 57, 58, 59, 60, 61, 62, 63, 64, 65, 66, 67, 68, 69, 70, 71, 72, 73, 74, 75, 76, 77, 78, 79, 80, 81, 82, 83, 84, 85, 86, 87, 88, 89, 90, 91, 92, 93, 94, 95, 96, 97, 98, 99, 100, 101, 102, 103, 104, 105, 106, 107, 108, 109, 110, 111, 112, 113, 114, 115, 116, 117, 118, 119, 120, 121, 122, 123, 124, 125, 126, 127, 128, 129, 130, 131, 132, 133, 134, 135, 136, 137, 138, 139, 140, 141, 142, 143, 144, 145, 146, 147, 148, 149, 150, 151, 152, 153, 154, 155, 156, 157, 158, 159, 160, 161, 162, 163, 164, 165, 166, 167, 168, 169, 170, 171, 172, 173, 174, 175, 176, 177, 178, 179, 180, 181, 182, 183, 184, 185, 186, 187, 188, 189, 190, 191, 192, 193, 194, 195, 196, 197, 198, 199, 200, 201, 202, 203, 204, 205, 206, 207, 208, 209, 210, 211, 212, 213, 214, 215, 216, 217, 218, 219, 220, 221, 222, 223, 224, 225, 226, 227, 228, 229, 230, 231, 232, 233, 234, 235, 236, 237, 238, 239, 240, 241, 242, 243, 244, 245, 246, 247, 248, 249, 250, 251, 252, 253, 254, 255, 256, 257, 258, 259, 260, 261, 262, 263, 264, 265, 266, 267, 268, 269, 270, 271, 272, 273, 274, 275, 276, 277, 278, 279, 280, 281, 282, 283, 284, 285, 286, 287, 288, 289, 290, 291, 292, 293, 294, 295, 296, 297, 298, 299, 300, 301, 302, 303, 304, 305, 306, 307, 308, 309, 310, 311, 312, 313, 314, 315, 316, 317, 318, 319, 320, 321, 322, 323, 324, 325, 326, 327, 328, 329, 330, 331, 332, 333, 334, 335, 336, 337, 338, 339, 340, 341, 342, 343, 344, 345, 346, 347, 348, 349, 350, 351, 352, 353, 354, 355, 356, 357, 358, 359, 360, 361, 362, 363, 364, 365, 366, 367, 368, 369, 370, 371, 372, 373, 374, 375, 376, 377, 378, 379, 380, 381, 382, 383, 384, 385, 386, 387, 388, 389, 390, 391, 392, 393, 394, 395, 396, 397, 398, 399, 400, 401, 402, 403, 404, 405, 406, 407, 408, 409, 410, 411, 412, 413, 414, 415, 416, 417, 418, 419, 420, 421, 422, 423, 424, 425, 426, 427, 428, 429, 430, 431, 432, 433, 434, 435, 436, 437, 438, 439, 440, 441, 442, 443, 444, 445, 446, 447, 448, 449, 450, 451, 452, 453, 454, 455, 456, 457, 458, 459, 460, 461, 462, 463, 464, 465, 466, 467, 468, 469, 470, 471, 472, 473, 474, 475, 476, 477, 478, 479, 480, 481, 482, 483, 484, 485, 486, 487, 488, 489, 490, 491, 492, 493, 494, 495, 496, 497, 498, 499, 500, 501, 502, 503, 504, 505, 506, 507, 508, 509, 510, 511, 512, 513, 514, 515, 516, 517, 518, 519, 520, 521, 522, 523, 524, 525, 526, 527, 528, 529, 530, 531, 532, 533, 534, 535, 536, 537, 538, 539, 540, 541, 542, 543, 544, 545, 546, 547, 548, 549, 550, 551, 552, 553, 554, 555, 556, 557, 558, 559, 560, 561, 562, 563, 564, 565, 566, 567, 568, 569, 570, 571, 572, 573, 574, 575, 576, 577, 578, 579, 580, 581, 582, 583, 584, 585, 586, 587, 588, 589, 590, 591, 592, 593, 594, 595, 596, 597, 598, 599, 600, 601, 602, 603, 604, 605, 606, 607, 608, 609, 610, 611, 612, 613, 614, 615, 616, 617, 618, 619, 620, 621, 622, 623, 624, 625, 626, 627, 628, 629, 630, 631, 632, 633, 634, 635, 636, 637, 638, 639, 640, 641, 642, 643, 644, 645, 646, 647, 648, 649, 650, 651, 652, 653, 654, 655, 656, 657, 658, 659, 660, 661, 662, 663, 664, 665, 666, 667, 668, 669, 670, 671, 672, 673, 674, 675, 676, 677, 678, 679, 680, 681, 682, 683, 684, 685, 686, 687, 688, 689, 690, 691, 692, 693, 694, 695, 696, 697, 698, 699, 700, 701, 702, 703, 704, 705, 706, 707, 708, 709, 710, 711, 712, 713, 714, 715, 716, 717, 718, 719, 720, 721, 722, 723, 724, 725, 726, 727, 728, 729, 730, 731, 732, 733, 734, 735, 736, 737, 738, 739, 740, 741, 742, 743, 744, 745, 746, 747, 748, 749, 750, 751, 752, 753, 754, 755, 756, 757, 758, 759, 760, 761, 762, 763, 764, 765, 766, 767, 768, 769, 770, 771, 772, 773, 774, 775, 776, 777, 778, 779, 780, 781, 782, 783, 784, 785, 786, 787, 788, 789, 790, 791, 792, 793, 794, 795, 796, 797, 798, 799, 800, 801, 802, 803, 804, 805, 806, 807, 808, 809, 810, 811, 812, 813, 814, 815, 816, 817, 818, 819, 820, 821, 822, 823, 824, 825, 826, 827, 828, 829, 830, 831, 832, 833, 834, 835, 836, 837, 838, 839, 840, 841, 842, 843, 844, 845, 846, 847, 848, 849, 850, 851, 852, 853, 854, 855, 856, 857, 858, 859, 860, 861, 862, 863, 864, 865, 866, 867, 868, 869, 870, 871, 872],
      "AcquisitionTime": ["123731.257500", "123731.717500", "123732.177500", "123732.637500", "123733.097500", "123733.557500", "123734.017500", "123734.477500", "123734.937500", "123735.397500", "123735.857500", "123736.317500", "123736.777500", "123737.237500", "123737.697500", "123738.157500", "123738.617500", "123739.077500", "123739.537500", "123739.997500", "123740.457500", "123740.917500", "123741.377500", "123741.837500", "123742.297500", "123742.757500", "123743.217500", "123743.677500", "123744.137500", "123744.597500", "123745.057500", "123745.517500", "123745.977500", "123746.437500", "123746.897500", "123747.357500", "123747.817500", "123748.277500", "123748.737500", "123749.197500", "123749.657500", "123750.117500", "123750.577500", "123751.037500", "123751.497500", "123751.957500", "123752.417500", "123752.877500", "123753.337500", "123753.797500", "123754.257500", "123754.717500", "123755.177500", "123755.637500", "123756.097500", "123756.557500", "123757.017500", "123757.477500", "123757.937500", "123758.397500", "123758.857500", "123759.317500", "123759.777500", "123800.237500", "123800.697500", "123801.157500", "123801.617500", "123802.077500", "123802.537500", "123802.997500", "123803.457500", "123803.917500", "123804.377500", "123804.837500", "123805.297500", "123805.757500", "123806.217500", "123806.677500", "123807.137500", "123807.597500", "123808.057500", "123808.517500", "123808.977500", "123809.437500", "123809.897500", "123810.357500", "123810.817500", "123811.277500", "123811.737500", "123812.197500", "123812.657500", "123813.117500", "123813.577500", "123814.037500", "123814.497500", "123814.957500", "123815.417500", "123815.877500", "123816.337500", "123816.797500", "123817.257500", "123817.717500", "123818.177500", "123818.637500", "123819.097500", "123819.557500", "123820.017500", "123820.477500", "123820.937500", "123821.397500", "123821.857500", "123822.317500", "123822.777500", "123823.237500", "123823.697500", "123824.157500", "123824.617500", "123825.077500", "123825.537500", "123825.997500", "123826.457500", "123826.917500", "123827.377500", "123827.837500", "123828.297500", "123828.757500", "123829.217500", "123829.677500", "123830.137500", "123830.597500", "123831.057500", "123831.517500", "123831.977500", "123832.437500", "123832.897500", "123833.357500", "123833.817500", "123834.277500", "123834.737500", "123835.197500", "123835.657500", "123836.117500", "123836.577500", "123837.037500", "123837.497500", "123837.957500", "123838.417500", "123838.877500", "123839.337500", "123839.797500", "123840.257500", "123840.717500", "123841.177500", "123841.637500", "123842.097500", "123842.557500", "123843.017500", "123843.477500", "123843.937500", "123844.397500", "123844.857500", "123845.317500", "123845.777500", "123846.237500", "123846.697500", "123847.157500", "123847.617500", "123848.077500", "123848.537500", "123848.997500", "123849.457500", "123849.917500", "123850.377500", "123850.837500", "123851.297500", "123851.757500", "123852.217500", "123852.677500", "123853.137500", "123853.597500", "123854.057500", "123854.517500", "123854.977500", "123855.437500", "123855.897500", "123856.357500", "123856.817500", "123857.277500", "123857.737500", "123858.197500", "123858.657500", "123859.117500", "123859.577500", "123900.037500", "123900.497500", "123900.957500", "123901.417500", "123901.877500", "123902.337500", "123902.797500", "123903.257500", "123903.717500", "123904.177500", "123904.637500", "123905.097500", "123905.557500", "123906.017500", "123906.477500", "123906.937500", "123907.397500", "123907.857500", "123908.317500", "123908.777500", "123909.237500", "123909.697500", "123910.157500", "123910.617500", "123911.077500", "123911.537500", "123911.997500", "123912.457500", "123912.917500", "123913.377500", "123913.837500", "123914.297500", "123914.757500", "123915.217500", "123915.677500", "123916.137500", "123916.597500", "123917.057500", "123917.517500", "123917.977500", "123918.437500", "123918.897500", "123919.357500", "123919.817500", "123920.277500", "123920.737500", "123921.197500", "123921.657500", "123922.117500", "123922.577500", "123923.037500", "123923.497500", "123923.957500", "123924.417500", "123924.877500", "123925.337500", "123925.797500", "123926.257500", "123926.717500", "123927.177500", "123927.637500", "123928.097500", "123928.557500", "123929.017500", "123929.477500", "123929.937500", "123930.397500", "123930.857500", "123931.317500", "123931.777500", "123932.237500", "123932.697500", "123933.157500", "123933.617500", "123934.077500", "123934.537500", "123934.997500", "123935.457500", "123935.917500", "123936.377500", "123936.837500", "123937.297500", "123937.757500", "123938.217500", "123938.677500", "123939.137500", "123939.597500", "123940.057500", "123940.517500", "123940.977500", "123941.437500", "123941.897500", "123942.357500", "123942.817500", "123943.277500", "123943.737500", "123944.197500", "123944.657500", "123945.117500", "123945.577500", "123946.037500", "123946.497500", "123946.957500", "123947.417500", "123947.877500", "123948.337500", "123948.797500", "123949.257500", "123949.717500", "123950.177500", "123950.637500", "123951.097500", "123951.557500", "123952.017500", "123952.477500", "123952.937500", "123953.397500", "123953.857500", "123954.317500", "123954.777500", "123955.237500", "123955.697500", "123956.157500", "123956.617500", "123957.077500", "123957.537500", "123957.997500", "123958.457500", "123958.917500", "123959.377500", "123959.837500", "124000.297500", "124000.757500", "124001.217500", "124001.677500", "124002.137500", "124002.597500", "124003.057500", "124003.517500", "124003.977500", "124004.437500", "124004.897500", "124005.357500", "124005.817500", "124006.277500", "124006.737500", "124007.197500", "124007.657500", "124008.117500", "124008.577500", "124009.037500", "124009.497500", "124009.957500", "124010.417500", "124010.877500", "124011.337500", "124011.797500", "124012.257500", "124012.717500", "124013.177500", "124013.637500", "124014.097500", "124014.557500", "124015.017500", "124015.477500", "124015.937500", "124016.397500", "124016.857500", "124017.317500", "124017.777500", "124018.237500", "124018.697500", "124019.157500", "124019.617500", "124020.077500", "124020.537500", "124020.997500", "124021.457500", "124021.917500", "124022.377500", "124022.837500", "124023.297500", "124023.757500", "124024.217500", "124024.677500", "124025.137500", "124025.597500", "124026.057500", "124026.517500", "124026.977500", "124027.437500", "124027.897500", "124028.357500", "124028.817500", "124029.277500", "124029.737500", "124030.197500", "124030.657500", "124031.117500", "124031.577500", "124032.037500", "124032.497500", "124032.957500", "124033.417500", "124033.877500", "124034.337500", "124034.797500", "124035.257500", "124035.717500", "124036.177500", "124036.637500", "124037.097500", "124037.557500", "124038.017500", "124038.477500", "124038.937500", "124039.397500", "124039.857500", "124040.317500", "124040.777500", "124041.237500", "124041.697500", "124042.157500", "124042.617500", "124043.077500", "124043.537500", "124043.997500", "124044.457500", "124044.917500", "124045.377500", "124045.837500", "124046.297500", "124046.757500", "124047.217500", "124047.677500", "124048.137500", "124048.597500", "124049.057500", "124049.517500", "124049.977500", "124050.437500", "124050.897500", "124051.357500", "124051.817500", "124052.277500", "124052.737500", "124053.197500", "124053.657500", "124054.117500", "124054.577500", "124055.037500", "124055.497500", "124055.957500", "124056.417500", "124056.877500", "124057.337500", "124057.797500", "124058.257500", "124058.717500", "124059.177500", "124059.637500", "124100.097500", "124100.557500", "124101.017500", "124101.477500", "124101.937500", "124102.397500", "124102.857500", "124103.317500", "124103.777500", "124104.237500", "124104.697500", "124105.157500", "124105.617500", "124106.077500", "124106.537500", "124106.997500", "124107.457500", "124107.917500", "124108.377500", "124108.837500", "124109.297500", "124109.757500", "124110.217500", "124110.677500", "124111.137500", "124111.597500", "124112.057500", "124112.517500", "124112.977500", "124113.437500", "124113.897500", "124114.357500", "124114.817500", "124115.277500", "124115.737500", "124116.197500", "124116.657500", "124117.117500", "124117.577500", "124118.037500", "124118.497500", "124118.957500", "124119.417500", "124119.877500", "124120.337500", "124120.797500", "124121.257500", "124121.717500", "124122.177500", "124122.637500", "124123.097500", "124123.557500", "124124.017500", "124124.477500", "124124.937500", "124125.397500", "124125.857500", "124126.317500", "124126.777500", "124127.237500", "124127.697500", "124128.157500", "124128.617500", "124129.077500", "124129.537500", "124129.997500", "124130.457500", "124130.917500", "124131.377500", "124131.837500", "124132.297500", "124132.757500", "124133.217500", "124133.677500", "124134.137500", "124134.597500", "124135.057500", "124135.517500", "124135.977500", "124136.437500", "124136.897500", "124137.357500", "124137.817500", "124138.277500", "124138.737500", "124139.197500", "124139.657500", "124140.117500", "124140.577500", "124141.037500", "124141.497500", "124141.957500", "124142.417500", "124142.877500", "124143.337500", "124143.797500", "124144.257500", "124144.717500", "124145.177500", "124145.637500", "124146.097500", "124146.557500", "124147.017500", "124147.477500", "124147.937500", "124148.397500", "124148.857500", "124149.317500", "124149.777500", "124150.237500", "124150.697500", "124151.157500", "124151.617500", "124152.077500", "124152.537500", "124152.997500", "124153.457500", "124153.917500", "124154.377500", "124154.837500", "124155.297500", "124155.757500", "124156.217500", "124156.677500", "124157.137500", "124157.597500", "124158.057500", "124158.517500", "124158.977500", "124159.437500", "124159.897500", "124200.357500", "124200.817500", "124201.277500", "124201.737500", "124202.197500", "124202.657500", "124203.117500", "124203.577500", "124204.037500", "124204.497500", "124204.957500", "124205.417500", "124205.877500", "124206.337500", "124206.797500", "124207.257500", "124207.717500", "124208.177500", "124208.637500", "124209.097500", "124209.557500", "124210.017500", "124210.477500", "124210.937500", "124211.397500", "124211.857500", "124212.317500", "124212.777500", "124213.237500", "124213.697500", "124214.157500", "124214.617500", "124215.077500", "124215.537500", "124215.997500", "124216.457500", "124216.917500", "124217.377500", "124217.837500", "124218.297500", "124218.757500", "124219.217500", "124219.677500", "124220.137500", "124220.597500", "124221.057500", "124221.517500", "124221.977500", "124222.437500", "124222.897500", "124223.357500", "124223.817500", "124224.277500", "124224.737500", "124225.197500", "124225.657500", "124226.117500", "124226.577500", "124227.037500", "124227.497500", "124227.957500", "124228.417500", "124228.877500", "124229.337500", "124229.797500", "124230.257500", "124230.717500", "124231.177500", "124231.637500", "124232.097500", "124232.557500", "124233.017500", "124233.477500", "124233.937500", "124234.397500", "124234.857500", "124235.317500", "124235.777500", "124236.237500", "124236.697500", "124237.157500", "124237.617500", "124238.077500", "124238.537500", "124238.997500", "124239.457500", "124239.917500", "124240.377500", "124240.837500", "124241.297500", "124241.757500", "124242.217500", "124242.677500", "124243.137500", "124243.597500", "124244.057500", "124244.517500", "124244.977500", "124245.437500", "124245.897500", "124246.357500", "124246.817500", "124247.277500", "124247.737500", "124248.197500", "124248.657500", "124249.117500", "124249.577500", "124250.037500", "124250.497500", "124250.957500", "124251.417500", "124251.877500", "124252.337500", "124252.797500", "124253.257500", "124253.717500", "124254.177500", "124254.637500", "124255.097500", "124255.557500", "124256.017500", "124256.477500", "124256.937500", "124257.397500", "124257.857500", "124258.317500", "124258.777500", "124259.237500", "124259.697500", "124300.157500", "124300.617500", "124301.077500", "124301.537500", "124301.997500", "124302.457500", "124302.917500", "124303.377500", "124303.837500", "124304.297500", "124304.757500", "124305.217500", "124305.677500", "124306.137500", "124306.597500", "124307.057500", "124307.517500", "124307.977500", "124308.437500", "124308.897500", "124309.357500", "124309.817500", "124310.277500", "124310.737500", "124311.197500", "124311.657500", "124312.117500", "124312.577500", "124313.037500", "124313.497500", "124313.957500", "124314.417500", "124314.877500", "124315.337500", "124315.797500", "124316.257500", "124316.717500", "124317.177500", "124317.637500", "124318.097500", "124318.557500", "124319.017500", "124319.477500", "124319.937500", "124320.397500", "124320.857500", "124321.317500", "124321.777500", "124322.237500", "124322.697500", "124323.157500", "124323.617500", "124324.077500", "124324.537500", "124324.997500", "124325.457500", "124325.917500", "124326.377500", "124326.837500", "124327.297500", "124327.757500", "124328.217500", "124328.677500", "124329.137500", "124329.597500", "124330.057500", "124330.517500", "124330.977500", "124331.437500", "124331.897500", "124332.357500", "124332.817500", "124333.277500", "124333.737500", "124334.197500", "124334.657500", "124335.117500", "124335.577500", "124336.037500", "124336.497500", "124336.957500", "124337.417500", "124337.877500", "124338.337500", "124338.797500", "124339.257500", "124339.717500", "124340.177500", "124340.637500", "124341.097500", "124341.557500", "124342.017500", "124342.477500", "124342.937500", "124343.397500", "124343.857500", "124344.317500", "124344.777500", "124345.237500", "124345.697500", "124346.157500", "124346.617500", "124347.077500", "124347.537500", "124347.997500", "124348.457500", "124348.917500", "124349.377500", "124349.837500", "124350.297500", "124350.757500", "124351.217500", "124351.677500", "124352.137500", "124352.597500", "124353.057500", "124353.517500", "124353.977500", "124354.437500", "124354.897500", "124355.357500", "124355.817500", "124356.277500", "124356.737500", "124357.197500", "124357.657500", "124358.117500", "124358.577500", "124359.037500", "124359.497500", "124359.957500", "124400.417500", "124400.877500", "124401.337500", "124401.797500", "124402.257500", "124402.717500", "124403.177500", "124403.637500", "124404.097500", "124404.557500", "124405.017500", "124405.477500", "124405.937500", "124406.397500", "124406.857500", "124407.317500", "124407.777500", "124408.237500", "124408.697500", "124409.157500", "124409.617500", "124410.077500", "124410.537500", "124410.997500", "124411.457500", "124411.917500"],
