{
  "AcquisitionMatrixPE": 82,
  "AcquisitionNumber": 1,
  "AcquisitionTime": "12:48:45.330000",
  "BandwidthPerPixelPhaseEncode": 24.888,
  "BaseResolution": 82,
  "BodyPartExamined": "BRAIN",
  "ConsistencyInfo": "N4_VE11C_LATEST_20160120",
  "ConversionSoftware": "dcm2niix",
  "ConversionSoftwareVersion": "v1.0.20201102",
  "DerivedVendorReportedEchoSpacing": 0.00049,
  "DeviceSerialNumber": "66112",
  "DwellTime": 2e-06,
  "EchoTime": 0.0272,
  "EchoTrainLength": 82,
  "EffectiveEchoSpacing": 0.00049,
  "FlipAngle": 44,
  "ImageComments": "Unaliased MB8/PE3",
  "ImageOrientationPatientDICOM": [0.999655, 0.0241552, -0.0103306, -0.0258277, 0.975576, -0.218139],
  "ImageType": [
    "ORIGINAL",
    "PRIMARY",
    "M",
    "MB",
    "ND",
    "NORM",
    "MOSAIC"
],
  "ImagingFrequency": 123.252,
  "InPlanePhaseEncodingDirectionDICOM": "COL",
  "InstitutionAddress": "Maynard 3,Hanover,NH,US,03755",
  "InstitutionName": "Dartmouth College - PBS",
  "InstitutionalDepartmentName": "Department",
  "MRAcquisitionType": "2D",
  "MagneticFieldStrength": 3,
  "Manufacturer": "Siemens",
  "ManufacturersModelName": "Prisma",
  "Modality": "MR",
  "MultibandAccelerationFactor": 8,
  "PartialFourier": 1,
  "PatientPosition": "HFS",
  "PercentPhaseFOV": 100,
  "PercentSampling": 100,
  "PhaseEncodingDirection": "j-",
  "PhaseEncodingSteps": 82,
  "PhaseResolution": 1,
  "PixelBandwidth": 3050,
  "ProcedureStepDescription": "Wager_Wager^1076_spacetop",
  "ProtocolName": "func_run-02_task-social_acq-ap-mb8",
  "PulseSequenceDetails": "%CustomerSeq%\\cmrr_mbep2d_bold",
  "ReceiveCoilActiveElements": "HEA;HEP",
  "ReceiveCoilName": "Head_32",
  "ReconMatrixPE": 82,
  "RepetitionTime": 0.46,
  "SAR": 0.10312,
  "ScanOptions": "FS",
  "ScanningSequence": "EP",
  "SequenceName": "epfid2d1_82",
  "SequenceVariant": "SK\\SS",
  "SeriesDescription": "func_run-02_task-social_acq-ap-mb8",
  "SeriesNumber": 14,
  "ShimSetting": [4152, -7729, -7265, 507, 10, -120, -56, 56],
  "SliceThickness": 2.7,
  "SliceTiming": [0, 0.25, 0.0625, 0.3125, 0.125, 0.375, 0.1875, 0, 0.25, 0.0625, 0.3125, 0.125, 0.375, 0.1875, 0, 0.25, 0.0625, 0.3125, 0.125, 0.375, 0.1875, 0, 0.25, 0.0625, 0.3125, 0.125, 0.375, 0.1875, 0, 0.25, 0.0625, 0.3125, 0.125, 0.375, 0.1875, 0, 0.25, 0.0625, 0.3125, 0.125, 0.375, 0.1875, 0, 0.25, 0.0625, 0.3125, 0.125, 0.375, 0.1875, 0, 0.25, 0.0625, 0.3125, 0.125, 0.375, 0.1875],
  "SoftwareVersions": "syngo MR E11",
  "SpacingBetweenSlices": 2.7,
  "StationName": "AWP66112",
  "TaskName": "social",
  "TotalReadoutTime": 0.03969,
  "TxRefAmp": 270.675,
  "WipMemBlock": "6541eb43-6771-4d0f-be34-f6f8e32ee33f||Sequence: R016 ve11c/master r/e634e98; Dec 19 2017 11:00:25 by eja",
  "dcmmeta_affine": [
    [-2.6820008754730225, -0.0692937821149826, -0.012984544970095158, 122.16265106201172],
    [-0.06480672955513, 2.617398977279663, -0.5894911289215088, -68.40421295166016],
    [-0.027716223150491714, 0.585249662399292, 2.6348304748535156, -88.13460540771484],
    [0.0, 0.0, 0.0, 1.0]
],
  "dcmmeta_reorient_transform": [
    [0.0, -1.0, 0.0, 81.0],
    [1.0, 0.0, 0.0, 0.0],
    [0.0, 0.0, 1.0, 0.0],
    [0.0, 0.0, 0.0, 1.0]
],
  "dcmmeta_shape": [82, 82, 56, 872],
  "dcmmeta_slice_dim": 2,
  "dcmmeta_version": 0.6,
  "global": {
    "const": {
      "AccessionNumber": "A003660",
      "AcquisitionMatrix": [82, 0, 0, 82],
      "AngioFlag": "N",
      "BitsAllocated": 16,
      "BitsStored": 16,
      "BodyPartExamined": "BRAIN",
      "Columns": 656,
      "EchoNumbers": 1,
      "EchoTime": 27.2,
      "EchoTrainLength": 82,
      "FlipAngle": 44.0,
      "HighBit": 15,
      "ImageOrientationPatient": [0.99965484218762, 0.02415523451518, -0.0103305922557, -0.0258276815973, 0.97557599322513, -0.2181385163288],
      "ImagePositionPatient": [-866.39679004498, -913.39817164423, 135.19183554555],
      "ImageType": [
        "ORIGINAL",
        "PRIMARY",
        "M",
        "MB",
        "ND",
        "NORM",
        "MOSAIC"
],
      "ImagedNucleus": "1H",
      "ImagingFrequency": 123.252166,
      "InPlanePhaseEncodingDirection": "COL",
      "MRAcquisitionType": "2D",
      "MagneticFieldStrength": 3.0,
      "Manufacturer": "SIEMENS",
      "ManufacturerModelName": "Prisma",
      "Modality": "MR",
      "NumberOfAverages": 1.0,
      "NumberOfPhaseEncodingSteps": 82,
      "PercentPhaseFieldOfView": 100.0,
      "PercentSampling": 100.0,
      "PerformedProcedureStepStartTime": "114533.207000",
      "PhotometricInterpretation": "MONOCHROME2",
      "PixelBandwidth": 3050.0,
      "PixelRepresentation": 0,
      "PixelSpacing": [2.6829268932343, 2.6829268932343],
      "ProtocolName": "func_run-02_task-social_acq-ap-mb8",
      "RepetitionTime": 460.0,
      "Rows": 656,
      "SAR": 0.10311980093655,
      "SamplesPerPixel": 1,
      "ScanOptions": "FS",
      "ScanningSequence": "EP",
      "SequenceName": "epfid2d1_82",
      "SequenceVariant": [
        "SK",
        "SS"
],
      "SeriesDescription": "func_run-02_task-social_acq-ap-mb8",
      "SeriesNumber": 14,
      "SeriesTime": "124852.284000",
      "SliceLocation": -71.660110548472,
      "SliceThickness": 2.7000000476837,
      "SmallestImagePixelValue": 0,
      "SoftwareVersions": "syngo MR E11",
      "SpacingBetweenSlices": 2.7000000625664,
      "SpecificCharacterSet": "ISO_IR 100",
      "StudyID": "1",
      "StudyTime": "114533.166000",
      "TransmitCoilName": "Body",
      "VariableFlipAngleFlag": "N",
      "WindowCenterWidthExplanation": "Algo1",
      "dBdt": 0.0},
    "slices": {}
  },
  "time": {
    "samples": {
      "AcquisitionNumber": [1, 2, 3, 4, 5, 6, 7, 8, 9, 10, 11, 12, 13, 14, 15, 16, 17, 18, 19, 20, 21, 22, 23, 24, 25, 26, 27, 28, 29, 30, 31, 32, 33, 34, 35, 36, 37, 38, 39, 40, 41, 42, 43, 44, 45, 46, 47, 48, 49, 50, 51, 52, 53, 54, 55, 56, 57, 58, 59, 60, 61, 62, 63, 64, 65, 66, 67, 68, 69, 70, 71, 72, 73, 74, 75, 76, 77, 78, 79, 80, 81, 82, 83, 84, 85, 86, 87, 88, 89, 90, 91, 92, 93, 94, 95, 96, 97, 98, 99, 100, 101, 102, 103, 104, 105, 106, 107, 108, 109, 110, 111, 112, 113, 114, 115, 116, 117, 118, 119, 120, 121, 122, 123, 124, 125, 126, 127, 128, 129, 130, 131, 132, 133, 134, 135, 136, 137, 138, 139, 140, 141, 142, 143, 144, 145, 146, 147, 148, 149, 150, 151, 152, 153, 154, 155, 156, 157, 158, 159, 160, 161, 162, 163, 164, 165, 166, 167, 168, 169, 170, 171, 172, 173, 174, 175, 176, 177, 178, 179, 180, 181, 182, 183, 184, 185, 186, 187, 188, 189, 190, 191, 192, 193, 194, 195, 196, 197, 198, 199, 200, 201, 202, 203, 204, 205, 206, 207, 208, 209, 210, 211, 212, 213, 214, 215, 216, 217, 218, 219, 220, 221, 222, 223, 224, 225, 226, 227, 228, 229, 230, 231, 232, 233, 234, 235, 236, 237, 238, 239, 240, 241, 242, 243, 244, 245, 246, 247, 248, 249, 250, 251, 252, 253, 254, 255, 256, 257, 258, 259, 260, 261, 262, 263, 264, 265, 266, 267, 268, 269, 270, 271, 272, 273, 274, 275, 276, 277, 278, 279, 280, 281, 282, 283, 284, 285, 286, 287, 288, 289, 290, 291, 292, 293, 294, 295, 296, 297, 298, 299, 300, 301, 302, 303, 304, 305, 306, 307, 308, 309, 310, 311, 312, 313, 314, 315, 316, 317, 318, 319, 320, 321, 322, 323, 324, 325, 326, 327, 328, 329, 330, 331, 332, 333, 334, 335, 336, 337, 338, 339, 340, 341, 342, 343, 344, 345, 346, 347, 348, 349, 350, 351, 352, 353, 354, 355, 356, 357, 358, 359, 360, 361, 362, 363, 364, 365, 366, 367, 368, 369, 370, 371, 372, 373, 374, 375, 376, 377, 378, 379, 380, 381, 382, 383, 384, 385, 386, 387, 388, 389, 390, 391, 392, 393, 394, 395, 396, 397, 398, 399, 400, 401, 402, 403, 404, 405, 406, 407, 408, 409, 410, 411, 412, 413, 414, 415, 416, 417, 418, 419, 420, 421, 422, 423, 424, 425, 426, 427, 428, 429, 430, 431, 432, 433, 434, 435, 436, 437, 438, 439, 440, 441, 442, 443, 444, 445, 446, 447, 448, 449, 450, 451, 452, 453, 454, 455, 456, 457, 458, 459, 460, 461, 462, 463, 464, 465, 466, 467, 468, 469, 470, 471, 472, 473, 474, 475, 476, 477, 478, 479, 480, 481, 482, 483, 484, 485, 486, 487, 488, 489, 490, 491, 492, 493, 494, 495, 496, 497, 498, 499, 500, 501, 502, 503, 504, 505, 506, 507, 508, 509, 510, 511, 512, 513, 514, 515, 516, 517, 518, 519, 520, 521, 522, 523, 524, 525, 526, 527, 528, 529, 530, 531, 532, 533, 534, 535, 536, 537, 538, 539, 540, 541, 542, 543, 544, 545, 546, 547, 548, 549, 550, 551, 552, 553, 554, 555, 556, 557, 558, 559, 560, 561, 562, 563, 564, 565, 566, 567, 568, 569, 570, 571, 572, 573, 574, 575, 576, 577, 578, 579, 580, 581, 582, 583, 584, 585, 586, 587, 588, 589, 590, 591, 592, 593, 594, 595, 596, 597, 598, 599, 600, 601, 602, 603, 604, 605, 606, 607, 608, 609, 610, 611, 612, 613, 614, 615, 616, 617, 618, 619, 620, 621, 622, 623, 624, 625, 626, 627, 628, 629, 630, 631, 632, 633, 634, 635, 636, 637, 638, 639, 640, 641, 642, 643, 644, 645, 646, 647, 648, 649, 650, 651, 652, 653, 654, 655, 656, 657, 658, 659, 660, 661, 662, 663, 664, 665, 666, 667, 668, 669, 670, 671, 672, 673, 674, 675, 676, 677, 678, 679, 680, 681, 682, 683, 684, 685, 686, 687, 688, 689, 690, 691, 692, 693, 694, 695, 696, 697, 698, 699, 700, 701, 702, 703, 704, 705, 706, 707, 708, 709, 710, 711, 712, 713, 714, 715, 716, 717, 718, 719, 720, 721, 722, 723, 724, 725, 726, 727, 728, 729, 730, 731, 732, 733, 734, 735, 736, 737, 738, 739, 740, 741, 742, 743, 744, 745, 746, 747, 748, 749, 750, 751, 752, 753, 754, 755, 756, 757, 758, 759, 760, 761, 762, 763, 764, 765, 766, 767, 768, 769, 770, 771, 772, 773, 774, 775, 776, 777, 778, 779, 780, 781, 782, 783, 784, 785, 786, 787, 788, 789, 790, 791, 792, 793, 794, 795, 796, 797, 798, 799, 800, 801, 802, 803, 804, 805, 806, 807, 808, 809, 810, 811, 812, 813, 814, 815, 816, 817, 818, 819, 820, 821, 822, 823, 824, 825, 826, 827, 828, 829, 830, 831, 832, 833, 834, 835, 836, 837, 838, 839, 840, 841, 842, 843, 844, 845, 846, 847, 848, 849, 850, 851, 852, 853, 854, 855, 856, 857, 858, 859, 860, 861, 862, 863, 864, 865, 866, 867, 868, 869, 870, 871, 872],
      "AcquisitionTime": ["124845.330000", "124845.790000", "124846.250000", "124846.710000", "124847.170000", "124847.630000", "124848.090000", "124848.550000", "124849.010000", "124849.470000", "124849.930000", "124850.390000", "124850.850000", "124851.310000", "124851.770000", "124852.230000", "124852.690000", "124853.150000", "124853.610000", "124854.070000", "124854.530000", "124854.990000", "124855.450000", "124855.910000", "124856.370000", "124856.830000", "124857.290000", "124857.750000", "124858.210000", "124858.670000", "124859.130000", "124859.590000", "124900.050000", "124900.510000", "124900.970000", "124901.430000", "124901.890000", "124902.350000", "124902.810000", "124903.270000", "124903.730000", "124904.190000", "124904.650000", "124905.110000", "124905.570000", "124906.030000", "124906.490000", "124906.950000", "124907.410000", "124907.870000", "124908.330000", "124908.790000", "124909.250000", "124909.710000", "124910.170000", "124910.630000", "124911.090000", "124911.550000", "124912.010000", "124912.470000", "124912.930000", "124913.390000", "124913.850000", "124914.310000", "124914.770000", "124915.230000", "124915.690000", "124916.150000", "124916.610000", "124917.070000", "124917.530000", "124917.990000", "124918.450000", "124918.910000", "124919.370000", "124919.830000", "124920.290000", "124920.750000", "124921.210000", "124921.670000", "124922.130000", "124922.590000", "124923.050000", "124923.510000", "124923.970000", "124924.430000", "124924.890000", "124925.350000", "124925.810000", "124926.270000", "124926.730000", "124927.190000", "124927.650000", "124928.110000", "124928.570000", "124929.030000", "124929.490000", "124929.950000", "124930.410000", "124930.870000", "124931.330000", "124931.790000", "124932.250000", "124932.710000", "124933.170000", "124933.630000", "124934.090000", "124934.550000", "124935.010000", "124935.470000", "124935.930000", "124936.390000", "124936.850000", "124937.310000", "124937.770000", "124938.230000", "124938.690000", "124939.150000", "124939.610000", "124940.070000", "124940.530000", "124940.990000", "124941.450000", "124941.910000", "124942.370000", "124942.830000", "124943.290000", "124943.750000", "124944.210000", "124944.670000", "124945.130000", "124945.590000", "124946.050000", "124946.510000", "124946.970000", "124947.430000", "124947.890000", "124948.350000", "124948.810000", "124949.270000", "124949.730000", "124950.190000", "124950.650000", "124951.110000", "124951.570000", "124952.030000", "124952.490000", "124952.950000", "124953.410000", "124953.870000", "124954.330000", "124954.790000", "124955.250000", "124955.710000", "124956.170000", "124956.630000", "124957.090000", "124957.550000", "124958.010000", "124958.470000", "124958.930000", "124959.390000", "124959.850000", "125000.310000", "125000.770000", "125001.230000", "125001.690000", "125002.150000", "125002.610000", "125003.070000", "125003.530000", "125003.990000", "125004.450000", "125004.910000", "125005.370000", "125005.830000", "125006.290000", "125006.750000", "125007.210000", "125007.670000", "125008.130000", "125008.590000", "125009.050000", "125009.510000", "125009.970000", "125010.430000", "125010.890000", "125011.350000", "125011.810000", "125012.270000", "125012.730000", "125013.190000", "125013.650000", "125014.110000", "125014.570000", "125015.030000", "125015.490000", "125015.950000", "125016.410000", "125016.870000", "125017.330000", "125017.790000", "125018.250000", "125018.710000", "125019.170000", "125019.630000", "125020.090000", "125020.550000", "125021.010000", "125021.470000", "125021.930000", "125022.390000", "125022.850000", "125023.310000", "125023.770000", "125024.230000", "125024.690000", "125025.150000", "125025.610000", "125026.070000", "125026.530000", "125026.990000", "125027.450000", "125027.910000", "125028.370000", "125028.830000", "125029.290000", "125029.750000", "125030.210000", "125030.670000", "125031.130000", "125031.590000", "125032.050000", "125032.510000", "125032.970000", "125033.430000", "125033.890000", "125034.350000", "125034.810000", "125035.270000", "125035.730000", "125036.190000", "125036.650000", "125037.110000", "125037.570000", "125038.030000", "125038.490000", "125038.950000", "125039.410000", "125039.870000", "125040.330000", "125040.790000", "125041.250000", "125041.710000", "125042.170000", "125042.630000", "125043.090000", "125043.550000", "125044.010000", "125044.470000", "125044.930000", "125045.390000", "125045.850000", "125046.310000", "125046.770000", "125047.230000", "125047.690000", "125048.150000", "125048.610000", "125049.070000", "125049.530000", "125049.990000", "125050.450000", "125050.910000", "125051.370000", "125051.830000", "125052.290000", "125052.750000", "125053.210000", "125053.670000", "125054.130000", "125054.590000", "125055.050000", "125055.510000", "125055.970000", "125056.430000", "125056.890000", "125057.350000", "125057.810000", "125058.270000", "125058.730000", "125059.190000", "125059.650000", "125100.110000", "125100.570000", "125101.030000", "125101.490000", "125101.950000", "125102.410000", "125102.870000", "125103.330000", "125103.790000", "125104.250000", "125104.710000", "125105.170000", "125105.630000", "125106.090000", "125106.550000", "125107.010000", "125107.470000", "125107.930000", "125108.390000", "125108.850000", "125109.310000", "125109.770000", "125110.230000", "125110.690000", "125111.150000", "125111.610000", "125112.070000", "125112.530000", "125112.990000", "125113.450000", "125113.910000", "125114.370000", "125114.830000", "125115.290000", "125115.750000", "125116.210000", "125116.670000", "125117.130000", "125117.590000", "125118.050000", "125118.510000", "125118.970000", "125119.430000", "125119.890000", "125120.350000", "125120.810000", "125121.270000", "125121.730000", "125122.190000", "125122.650000", "125123.110000", "125123.570000", "125124.030000", "125124.490000", "125124.950000", "125125.410000", "125125.870000", "125126.330000", "125126.790000", "125127.250000", "125127.710000", "125128.170000", "125128.630000", "125129.090000", "125129.550000", "125130.010000", "125130.470000", "125130.930000", "125131.390000", "125131.850000", "125132.310000", "125132.770000", "125133.230000", "125133.690000", "125134.150000", "125134.610000", "125135.070000", "125135.530000", "125135.990000", "125136.450000", "125136.910000", "125137.370000", "125137.830000", "125138.290000", "125138.750000", "125139.210000", "125139.670000", "125140.130000", "125140.590000", "125141.050000", "125141.510000", "125141.970000", "125142.430000", "125142.890000", "125143.350000", "125143.810000", "125144.270000", "125144.730000", "125145.190000", "125145.650000", "125146.110000", "125146.570000", "125147.030000", "125147.490000", "125147.950000", "125148.410000", "125148.870000", "125149.330000", "125149.790000", "125150.250000", "125150.710000", "125151.170000", "125151.630000", "125152.090000", "125152.550000", "125153.010000", "125153.470000", "125153.930000", "125154.390000", "125154.850000", "125155.310000", "125155.770000", "125156.230000", "125156.690000", "125157.150000", "125157.610000", "125158.070000", "125158.530000", "125158.990000", "125159.450000", "125159.910000", "125200.370000", "125200.830000", "125201.290000", "125201.750000", "125202.210000", "125202.670000", "125203.130000", "125203.590000", "125204.050000", "125204.510000", "125204.970000", "125205.430000", "125205.890000", "125206.350000", "125206.810000", "125207.270000", "125207.730000", "125208.190000", "125208.650000", "125209.110000", "125209.570000", "125210.030000", "125210.490000", "125210.950000", "125211.410000", "125211.870000", "125212.330000", "125212.790000", "125213.250000", "125213.710000", "125214.170000", "125214.630000", "125215.090000", "125215.550000", "125216.010000", "125216.470000", "125216.930000", "125217.390000", "125217.850000", "125218.310000", "125218.770000", "125219.230000", "125219.690000", "125220.150000", "125220.610000", "125221.070000", "125221.530000", "125221.990000", "125222.450000", "125222.910000", "125223.370000", "125223.830000", "125224.290000", "125224.750000", "125225.210000", "125225.670000", "125226.130000", "125226.590000", "125227.050000", "125227.510000", "125227.970000", "125228.430000", "125228.890000", "125229.350000", "125229.810000", "125230.270000", "125230.730000", "125231.190000", "125231.650000", "125232.110000", "125232.570000", "125233.030000", "125233.490000", "125233.950000", "125234.410000", "125234.870000", "125235.330000", "125235.790000", "125236.250000", "125236.710000", "125237.170000", "125237.630000", "125238.090000", "125238.550000", "125239.010000", "125239.470000", "125239.930000", "125240.390000", "125240.850000", "125241.310000", "125241.770000", "125242.230000", "125242.690000", "125243.150000", "125243.610000", "125244.070000", "125244.530000", "125244.990000", "125245.450000", "125245.910000", "125246.370000", "125246.830000", "125247.290000", "125247.750000", "125248.210000", "125248.670000", "125249.130000", "125249.590000", "125250.050000", "125250.510000", "125250.970000", "125251.430000", "125251.890000", "125252.350000", "125252.810000", "125253.270000", "125253.730000", "125254.190000", "125254.650000", "125255.110000", "125255.570000", "125256.030000", "125256.490000", "125256.950000", "125257.410000", "125257.870000", "125258.330000", "125258.790000", "125259.250000", "125259.710000", "125300.170000", "125300.630000", "125301.090000", "125301.550000", "125302.010000", "125302.470000", "125302.930000", "125303.390000", "125303.850000", "125304.310000", "125304.770000", "125305.230000", "125305.690000", "125306.150000", "125306.610000", "125307.070000", "125307.530000", "125307.990000", "125308.450000", "125308.910000", "125309.370000", "125309.830000", "125310.290000", "125310.750000", "125311.210000", "125311.670000", "125312.130000", "125312.590000", "125313.050000", "125313.510000", "125313.970000", "125314.430000", "125314.890000", "125315.350000", "125315.810000", "125316.270000", "125316.730000", "125317.190000", "125317.650000", "125318.110000", "125318.570000", "125319.030000", "125319.490000", "125319.950000", "125320.410000", "125320.870000", "125321.330000", "125321.790000", "125322.250000", "125322.710000", "125323.170000", "125323.630000", "125324.090000", "125324.550000", "125325.010000", "125325.470000", "125325.930000", "125326.390000", "125326.850000", "125327.310000", "125327.770000", "125328.230000", "125328.690000", "125329.150000", "125329.610000", "125330.070000", "125330.530000", "125330.990000", "125331.450000", "125331.910000", "125332.370000", "125332.830000", "125333.290000", "125333.750000", "125334.210000", "125334.670000", "125335.130000", "125335.590000", "125336.050000", "125336.510000", "125336.970000", "125337.430000", "125337.890000", "125338.350000", "125338.810000", "125339.270000", "125339.730000", "125340.190000", "125340.650000", "125341.110000", "125341.570000", "125342.030000", "125342.490000", "125342.950000", "125343.410000", "125343.870000", "125344.330000", "125344.790000", "125345.250000", "125345.710000", "125346.170000", "125346.630000", "125347.090000", "125347.550000", "125348.010000", "125348.470000", "125348.930000", "125349.390000", "125349.850000", "125350.310000", "125350.770000", "125351.230000", "125351.690000", "125352.150000", "125352.610000", "125353.070000", "125353.530000", "125353.990000", "125354.450000", "125354.910000", "125355.370000", "125355.830000", "125356.290000", "125356.750000", "125357.210000", "125357.670000", "125358.130000", "125358.590000", "125359.050000", "125359.510000", "125359.970000", "125400.430000", "125400.890000", "125401.350000", "125401.810000", "125402.270000", "125402.730000", "125403.190000", "125403.650000", "125404.110000", "125404.570000", "125405.030000", "125405.490000", "125405.950000", "125406.410000", "125406.870000", "125407.330000", "125407.790000", "125408.250000", "125408.710000", "125409.170000", "125409.630000", "125410.090000", "125410.550000", "125411.010000", "125411.470000", "125411.930000", "125412.390000", "125412.850000", "125413.310000", "125413.770000", "125414.230000", "125414.690000", "125415.150000", "125415.610000", "125416.070000", "125416.530000", "125416.990000", "125417.450000", "125417.910000", "125418.370000", "125418.830000", "125419.290000", "125419.750000", "125420.210000", "125420.670000", "125421.130000", "125421.590000", "125422.050000", "125422.510000", "125422.970000", "125423.430000", "125423.890000", "125424.350000", "125424.810000", "125425.270000", "125425.730000", "125426.190000", "125426.650000", "125427.110000", "125427.570000", "125428.030000", "125428.490000", "125428.950000", "125429.410000", "125429.870000", "125430.330000", "125430.790000", "125431.250000", "125431.710000", "125432.170000", "125432.630000", "125433.090000", "125433.550000", "125434.010000", "125434.470000", "125434.930000", "125435.390000", "125435.850000", "125436.310000", "125436.770000", "125437.230000", "125437.690000", "125438.150000", "125438.610000", "125439.070000", "125439.530000", "125439.990000", "125440.450000", "125440.910000", "125441.370000", "125441.830000", "125442.290000", "125442.750000", "125443.210000", "125443.670000", "125444.130000", "125444.590000", "125445.050000", "125445.510000", "125445.970000", "125446.430000", "125446.890000", "125447.350000", "125447.810000", "125448.270000", "125448.730000", "125449.190000", "125449.650000", "125450.110000", "125450.570000", "125451.030000", "125451.490000", "125451.950000", "125452.410000", "125452.870000", "125453.330000", "125453.790000", "125454.250000", "125454.710000", "125455.170000", "125455.630000", "125456.090000", "125456.550000", "125457.010000", "125457.470000", "125457.930000", "125458.390000", "125458.850000", "125459.310000", "125459.770000", "125500.230000", "125500.690000", "125501.150000", "125501.610000", "125502.070000", "125502.530000", "125502.990000", "125503.450000", "125503.910000", "125504.370000", "125504.830000", "125505.290000", "125505.750000", "125506.210000", "125506.670000", "125507.130000", "125507.590000", "125508.050000", "125508.510000", "125508.970000", "125509.430000", "125509.890000", "125510.350000", "125510.810000", "125511.270000", "125511.730000", "125512.190000", "125512.650000", "125513.110000", "125513.570000", "125514.030000", "125514.490000", "125514.950000", "125515.410000", "125515.870000", "125516.330000", "125516.790000", "125517.250000", "125517.710000", "125518.170000", "125518.630000", "125519.090000", "125519.550000", "125520.010000", "125520.470000", "125520.930000", "125521.390000", "125521.850000", "125522.310000", "125522.770000", "125523.230000", "125523.690000", "125524.150000", "125524.610000", "125525.070000", "125525.530000", "125525.990000"],
