{
  "AcquisitionMatrixPE": 82,
  "AcquisitionNumber": 1,
  "AcquisitionTime": "13:05:15.390000",
  "BandwidthPerPixelPhaseEncode": 24.888,
  "BaseResolution": 82,
  "BodyPartExamined": "BRAIN",
  "ConsistencyInfo": "N4_VE11C_LATEST_20160120",
  "ConversionSoftware": "dcm2niix",
  "ConversionSoftwareVersion": "v1.0.20201102",
  "DerivedVendorReportedEchoSpacing": 0.00049,
  "DeviceSerialNumber": "66112",
  "DwellTime": 2e-06,
  "EchoTime": 0.0272,
  "EchoTrainLength": 82,
  "EffectiveEchoSpacing": 0.00049,
  "FlipAngle": 44,
  "ImageComments": "Unaliased MB8/PE3",
  "ImageOrientationPatientDICOM": [0.999655, 0.0241552, -0.0103306, -0.0258277, 0.975576, -0.218139],
  "ImageType": [
    "ORIGINAL",
    "PRIMARY",
    "M",
    "MB",
    "ND",
    "NORM",
    "MOSAIC"
],
  "ImagingFrequency": 123.252,
  "InPlanePhaseEncodingDirectionDICOM": "COL",
  "InstitutionAddress": "Maynard 3,Hanover,NH,US,03755",
  "InstitutionName": "Dartmouth College - PBS",
  "InstitutionalDepartmentName": "Department",
  "MRAcquisitionType": "2D",
  "MagneticFieldStrength": 3,
  "Manufacturer": "Siemens",
  "ManufacturersModelName": "Prisma",
  "Modality": "MR",
  "MultibandAccelerationFactor": 8,
  "PartialFourier": 1,
  "PatientPosition": "HFS",
  "PercentPhaseFOV": 100,
  "PercentSampling": 100,
  "PhaseEncodingDirection": "j-",
  "PhaseEncodingSteps": 82,
  "PhaseResolution": 1,
  "PixelBandwidth": 3050,
  "ProcedureStepDescription": "Wager_Wager^1076_spacetop",
  "ProtocolName": "func_run-03_task-social_acq-ap-mb8",
  "PulseSequenceDetails": "%CustomerSeq%\\cmrr_mbep2d_bold",
  "ReceiveCoilActiveElements": "HEA;HEP",
  "ReceiveCoilName": "Head_32",
  "ReconMatrixPE": 82,
  "RepetitionTime": 0.46,
  "SAR": 0.10312,
  "ScanOptions": "FS",
  "ScanningSequence": "EP",
  "SequenceName": "epfid2d1_82",
  "SequenceVariant": "SK\\SS",
  "SeriesDescription": "func_run-03_task-social_acq-ap-mb8",
  "SeriesNumber": 16,
  "ShimSetting": [4152, -7729, -7265, 507, 10, -120, -56, 56],
  "SliceThickness": 2.7,
  "SliceTiming": [0, 0.25, 0.0625, 0.315, 0.125, 0.3775, 0.1875, 0, 0.25, 0.0625, 0.315, 0.125, 0.3775, 0.1875, 0, 0.25, 0.0625, 0.315, 0.125, 0.3775, 0.1875, 0, 0.25, 0.0625, 0.315, 0.125, 0.3775, 0.1875, 0, 0.25, 0.0625, 0.315, 0.125, 0.3775, 0.1875, 0, 0.25, 0.0625, 0.315, 0.125, 0.3775, 0.1875, 0, 0.25, 0.0625, 0.315, 0.125, 0.3775, 0.1875, 0, 0.25, 0.0625, 0.315, 0.125, 0.3775, 0.1875],
  "SoftwareVersions": "syngo MR E11",
  "SpacingBetweenSlices": 2.7,
  "StationName": "AWP66112",
  "TaskName": "social",
  "TotalReadoutTime": 0.03969,
  "TxRefAmp": 270.675,
  "WipMemBlock": "dd2656b1-f7a3-49c4-ba32-a04b7e2af1a6||Sequence: R016 ve11c/master r/e634e98; Dec 19 2017 11:00:25 by eja",
  "dcmmeta_affine": [
    [-2.6820008754730225, -0.0692937821149826, -0.012984544970095158, 122.16265106201172],
    [-0.06480672955513, 2.617398977279663, -0.5894911289215088, -68.40421295166016],
    [-0.027716223150491714, 0.585249662399292, 2.6348304748535156, -88.13460540771484],
    [0.0, 0.0, 0.0, 1.0]
],
  "dcmmeta_reorient_transform": [
    [0.0, -1.0, 0.0, 81.0],
    [1.0, 0.0, 0.0, 0.0],
    [0.0, 0.0, 1.0, 0.0],
    [0.0, 0.0, 0.0, 1.0]
],
  "dcmmeta_shape": [82, 82, 56, 872],
  "dcmmeta_slice_dim": 2,
  "dcmmeta_version": 0.6,
  "global": {
    "const": {
      "AccessionNumber": "A003660",
      "AcquisitionMatrix": [82, 0, 0, 82],
      "AngioFlag": "N",
      "BitsAllocated": 16,
      "BitsStored": 16,
      "BodyPartExamined": "BRAIN",
      "Columns": 656,
      "EchoNumbers": 1,
      "EchoTime": 27.2,
      "EchoTrainLength": 82,
      "FlipAngle": 44.0,
      "HighBit": 15,
      "ImageOrientationPatient": [0.99965484218762, 0.02415523451518, -0.0103305922557, -0.0258276815973, 0.97557599322513, -0.2181385163288],
      "ImagePositionPatient": [-866.39679004498, -913.39817164423, 135.19183554555],
      "ImageType": [
        "ORIGINAL",
        "PRIMARY",
        "M",
        "MB",
        "ND",
        "NORM",
        "MOSAIC"
],
      "ImagedNucleus": "1H",
      "ImagingFrequency": 123.252168,
      "InPlanePhaseEncodingDirection": "COL",
      "MRAcquisitionType": "2D",
      "MagneticFieldStrength": 3.0,
      "Manufacturer": "SIEMENS",
      "ManufacturerModelName": "Prisma",
      "Modality": "MR",
      "NumberOfAverages": 1.0,
      "NumberOfPhaseEncodingSteps": 82,
      "PercentPhaseFieldOfView": 100.0,
      "PercentSampling": 100.0,
      "PerformedProcedureStepStartTime": "114533.207000",
      "PhotometricInterpretation": "MONOCHROME2",
      "PixelBandwidth": 3050.0,
      "PixelRepresentation": 0,
      "PixelSpacing": [2.6829268932343, 2.6829268932343],
      "ProtocolName": "func_run-03_task-social_acq-ap-mb8",
      "RepetitionTime": 460.0,
      "Rows": 656,
      "SAR": 0.10311980093655,
      "SamplesPerPixel": 1,
      "ScanOptions": "FS",
      "ScanningSequence": "EP",
      "SequenceName": "epfid2d1_82",
      "SequenceVariant": [
        "SK",
        "SS"
],
      "SeriesDescription": "func_run-03_task-social_acq-ap-mb8",
      "SeriesNumber": 16,
      "SeriesTime": "130532.152000",
      "SliceLocation": -71.660110548472,
      "SliceThickness": 2.7000000476837,
      "SmallestImagePixelValue": 0,
      "SoftwareVersions": "syngo MR E11",
      "SpacingBetweenSlices": 2.7000000625664,
      "SpecificCharacterSet": "ISO_IR 100",
      "StudyID": "1",
      "StudyTime": "114533.166000",
      "TransmitCoilName": "Body",
      "VariableFlipAngleFlag": "N",
      "WindowCenterWidthExplanation": "Algo1",
      "dBdt": 0.0},
    "slices": {}
  },
  "time": {
    "samples": {
      "AcquisitionNumber": [1, 2, 3, 4, 5, 6, 7, 8, 9, 10, 11, 12, 13, 14, 15, 16, 17, 18, 19, 20, 21, 22, 23, 24, 25, 26, 27, 28, 29, 30, 31, 32, 33, 34, 35, 36, 37, 38, 39, 40, 41, 42, 43, 44, 45, 46, 47, 48, 49, 50, 51, 52, 53, 54, 55, 56, 57, 58, 59, 60, 61, 62, 63, 64, 65, 66, 67, 68, 69, 70, 71, 72, 73, 74, 75, 76, 77, 78, 79, 80, 81, 82, 83, 84, 85, 86, 87, 88, 89, 90, 91, 92, 93, 94, 95, 96, 97, 98, 99, 100, 101, 102, 103, 104, 105, 106, 107, 108, 109, 110, 111, 112, 113, 114, 115, 116, 117, 118, 119, 120, 121, 122, 123, 124, 125, 126, 127, 128, 129, 130, 131, 132, 133, 134, 135, 136, 137, 138, 139, 140, 141, 142, 143, 144, 145, 146, 147, 148, 149, 150, 151, 152, 153, 154, 155, 156, 157, 158, 159, 160, 161, 162, 163, 164, 165, 166, 167, 168, 169, 170, 171, 172, 173, 174, 175, 176, 177, 178, 179, 180, 181, 182, 183, 184, 185, 186, 187, 188, 189, 190, 191, 192, 193, 194, 195, 196, 197, 198, 199, 200, 201, 202, 203, 204, 205, 206, 207, 208, 209, 210, 211, 212, 213, 214, 215, 216, 217, 218, 219, 220, 221, 222, 223, 224, 225, 226, 227, 228, 229, 230, 231, 232, 233, 234, 235, 236, 237, 238, 239, 240, 241, 242, 243, 244, 245, 246, 247, 248, 249, 250, 251, 252, 253, 254, 255, 256, 257, 258, 259, 260, 261, 262, 263, 264, 265, 266, 267, 268, 269, 270, 271, 272, 273, 274, 275, 276, 277, 278, 279, 280, 281, 282, 283, 284, 285, 286, 287, 288, 289, 290, 291, 292, 293, 294, 295, 296, 297, 298, 299, 300, 301, 302, 303, 304, 305, 306, 307, 308, 309, 310, 311, 312, 313, 314, 315, 316, 317, 318, 319, 320, 321, 322, 323, 324, 325, 326, 327, 328, 329, 330, 331, 332, 333, 334, 335, 336, 337, 338, 339, 340, 341, 342, 343, 344, 345, 346, 347, 348, 349, 350, 351, 352, 353, 354, 355, 356, 357, 358, 359, 360, 361, 362, 363, 364, 365, 366, 367, 368, 369, 370, 371, 372, 373, 374, 375, 376, 377, 378, 379, 380, 381, 382, 383, 384, 385, 386, 387, 388, 389, 390, 391, 392, 393, 394, 395, 396, 397, 398, 399, 400, 401, 402, 403, 404, 405, 406, 407, 408, 409, 410, 411, 412, 413, 414, 415, 416, 417, 418, 419, 420, 421, 422, 423, 424, 425, 426, 427, 428, 429, 430, 431, 432, 433, 434, 435, 436, 437, 438, 439, 440, 441, 442, 443, 444, 445, 446, 447, 448, 449, 450, 451, 452, 453, 454, 455, 456, 457, 458, 459, 460, 461, 462, 463, 464, 465, 466, 467, 468, 469, 470, 471, 472, 473, 474, 475, 476, 477, 478, 479, 480, 481, 482, 483, 484, 485, 486, 487, 488, 489, 490, 491, 492, 493, 494, 495, 496, 497, 498, 499, 500, 501, 502, 503, 504, 505, 506, 507, 508, 509, 510, 511, 512, 513, 514, 515, 516, 517, 518, 519, 520, 521, 522, 523, 524, 525, 526, 527, 528, 529, 530, 531, 532, 533, 534, 535, 536, 537, 538, 539, 540, 541, 542, 543, 544, 545, 546, 547, 548, 549, 550, 551, 552, 553, 554, 555, 556, 557, 558, 559, 560, 561, 562, 563, 564, 565, 566, 567, 568, 569, 570, 571, 572, 573, 574, 575, 576, 577, 578, 579, 580, 581, 582, 583, 584, 585, 586, 587, 588, 589, 590, 591, 592, 593, 594, 595, 596, 597, 598, 599, 600, 601, 602, 603, 604, 605, 606, 607, 608, 609, 610, 611, 612, 613, 614, 615, 616, 617, 618, 619, 620, 621, 622, 623, 624, 625, 626, 627, 628, 629, 630, 631, 632, 633, 634, 635, 636, 637, 638, 639, 640, 641, 642, 643, 644, 645, 646, 647, 648, 649, 650, 651, 652, 653, 654, 655, 656, 657, 658, 659, 660, 661, 662, 663, 664, 665, 666, 667, 668, 669, 670, 671, 672, 673, 674, 675, 676, 677, 678, 679, 680, 681, 682, 683, 684, 685, 686, 687, 688, 689, 690, 691, 692, 693, 694, 695, 696, 697, 698, 699, 700, 701, 702, 703, 704, 705, 706, 707, 708, 709, 710, 711, 712, 713, 714, 715, 716, 717, 718, 719, 720, 721, 722, 723, 724, 725, 726, 727, 728, 729, 730, 731, 732, 733, 734, 735, 736, 737, 738, 739, 740, 741, 742, 743, 744, 745, 746, 747, 748, 749, 750, 751, 752, 753, 754, 755, 756, 757, 758, 759, 760, 761, 762, 763, 764, 765, 766, 767, 768, 769, 770, 771, 772, 773, 774, 775, 776, 777, 778, 779, 780, 781, 782, 783, 784, 785, 786, 787, 788, 789, 790, 791, 792, 793, 794, 795, 796, 797, 798, 799, 800, 801, 802, 803, 804, 805, 806, 807, 808, 809, 810, 811, 812, 813, 814, 815, 816, 817, 818, 819, 820, 821, 822, 823, 824, 825, 826, 827, 828, 829, 830, 831, 832, 833, 834, 835, 836, 837, 838, 839, 840, 841, 842, 843, 844, 845, 846, 847, 848, 849, 850, 851, 852, 853, 854, 855, 856, 857, 858, 859, 860, 861, 862, 863, 864, 865, 866, 867, 868, 869, 870, 871, 872],
      "AcquisitionTime": ["130515.390000", "130515.850000", "130516.310000", "130516.770000", "130517.230000", "130517.690000", "130518.150000", "130518.610000", "130519.070000", "130519.530000", "130519.990000", "130520.450000", "130520.910000", "130521.370000", "130521.830000", "130522.290000", "130522.750000", "130523.210000", "130523.670000", "130524.130000", "130524.590000", "130525.050000", "130525.510000", "130525.970000", "130526.430000", "130526.890000", "130527.350000", "130527.810000", "130528.270000", "130528.730000", "130529.190000", "130529.650000", "130530.110000", "130530.570000", "130531.030000", "130531.490000", "130531.950000", "130532.410000", "130532.870000", "130533.330000", "130533.790000", "130534.250000", "130534.710000", "130535.170000", "130535.630000", "130536.090000", "130536.550000", "130537.010000", "130537.470000", "130537.930000", "130538.390000", "130538.850000", "130539.310000", "130539.770000", "130540.230000", "130540.690000", "130541.150000", "130541.610000", "130542.070000", "130542.530000", "130542.990000", "130543.450000", "130543.910000", "130544.370000", "130544.830000", "130545.290000", "130545.750000", "130546.210000", "130546.670000", "130547.130000", "130547.590000", "130548.050000", "130548.510000", "130548.970000", "130549.430000", "130549.890000", "130550.350000", "130550.810000", "130551.270000", "130551.730000", "130552.190000", "130552.650000", "130553.110000", "130553.570000", "130554.030000", "130554.490000", "130554.950000", "130555.410000", "130555.870000", "130556.330000", "130556.790000", "130557.250000", "130557.710000", "130558.170000", "130558.630000", "130559.090000", "130559.550000", "130600.010000", "130600.470000", "130600.930000", "130601.390000", "130601.850000", "130602.310000", "130602.770000", "130603.230000", "130603.690000", "130604.150000", "130604.610000", "130605.070000", "130605.530000", "130605.990000", "130606.450000", "130606.910000", "130607.370000", "130607.830000", "130608.290000", "130608.750000", "130609.210000", "130609.670000", "130610.130000", "130610.590000", "130611.050000", "130611.510000", "130611.970000", "130612.430000", "130612.890000", "130613.350000", "130613.810000", "130614.270000", "130614.730000", "130615.190000", "130615.650000", "130616.110000", "130616.570000", "130617.030000", "130617.490000", "130617.950000", "130618.410000", "130618.870000", "130619.330000", "130619.790000", "130620.250000", "130620.710000", "130621.170000", "130621.630000", "130622.090000", "130622.550000", "130623.010000", "130623.470000", "130623.930000", "130624.390000", "130624.850000", "130625.310000", "130625.770000", "130626.230000", "130626.690000", "130627.150000", "130627.610000", "130628.070000", "130628.530000", "130628.990000", "130629.450000", "130629.910000", "130630.370000", "130630.830000", "130631.290000", "130631.750000", "130632.210000", "130632.670000", "130633.130000", "130633.590000", "130634.050000", "130634.510000", "130634.970000", "130635.430000", "130635.890000", "130636.350000", "130636.810000", "130637.270000", "130637.730000", "130638.190000", "130638.650000", "130639.110000", "130639.570000", "130640.030000", "130640.490000", "130640.950000", "130641.410000", "130641.870000", "130642.330000", "130642.790000", "130643.250000", "130643.710000", "130644.170000", "130644.630000", "130645.090000", "130645.550000", "130646.010000", "130646.470000", "130646.930000", "130647.390000", "130647.850000", "130648.310000", "130648.770000", "130649.230000", "130649.690000", "130650.150000", "130650.610000", "130651.070000", "130651.530000", "130651.990000", "130652.450000", "130652.910000", "130653.370000", "130653.830000", "130654.290000", "130654.750000", "130655.210000", "130655.670000", "130656.130000", "130656.590000", "130657.050000", "130657.510000", "130657.970000", "130658.430000", "130658.890000", "130659.350000", "130659.810000", "130700.270000", "130700.730000", "130701.190000", "130701.650000", "130702.110000", "130702.570000", "130703.030000", "130703.490000", "130703.950000", "130704.410000", "130704.870000", "130705.330000", "130705.790000", "130706.250000", "130706.710000", "130707.170000", "130707.630000", "130708.090000", "130708.550000", "130709.010000", "130709.470000", "130709.930000", "130710.390000", "130710.850000", "130711.310000", "130711.770000", "130712.230000", "130712.690000", "130713.150000", "130713.610000", "130714.070000", "130714.530000", "130714.990000", "130715.450000", "130715.910000", "130716.370000", "130716.830000", "130717.290000", "130717.750000", "130718.210000", "130718.670000", "130719.130000", "130719.590000", "130720.050000", "130720.510000", "130720.970000", "130721.430000", "130721.890000", "130722.350000", "130722.810000", "130723.270000", "130723.730000", "130724.190000", "130724.650000", "130725.110000", "130725.570000", "130726.030000", "130726.490000", "130726.950000", "130727.410000", "130727.870000", "130728.330000", "130728.790000", "130729.250000", "130729.710000", "130730.170000", "130730.630000", "130731.090000", "130731.550000", "130732.010000", "130732.470000", "130732.930000", "130733.390000", "130733.850000", "130734.310000", "130734.770000", "130735.230000", "130735.690000", "130736.150000", "130736.610000", "130737.070000", "130737.530000", "130737.990000", "130738.450000", "130738.910000", "130739.370000", "130739.830000", "130740.290000", "130740.750000", "130741.210000", "130741.670000", "130742.130000", "130742.590000", "130743.050000", "130743.510000", "130743.970000", "130744.430000", "130744.890000", "130745.350000", "130745.810000", "130746.270000", "130746.730000", "130747.190000", "130747.650000", "130748.110000", "130748.570000", "130749.030000", "130749.490000", "130749.950000", "130750.410000", "130750.870000", "130751.330000", "130751.790000", "130752.250000", "130752.710000", "130753.170000", "130753.630000", "130754.090000", "130754.550000", "130755.010000", "130755.470000", "130755.930000", "130756.390000", "130756.850000", "130757.310000", "130757.770000", "130758.230000", "130758.690000", "130759.150000", "130759.610000", "130800.070000", "130800.530000", "130800.990000", "130801.450000", "130801.910000", "130802.370000", "130802.830000", "130803.290000", "130803.750000", "130804.210000", "130804.670000", "130805.130000", "130805.590000", "130806.050000", "130806.510000", "130806.970000", "130807.430000", "130807.890000", "130808.350000", "130808.810000", "130809.270000", "130809.730000", "130810.190000", "130810.650000", "130811.110000", "130811.570000", "130812.030000", "130812.490000", "130812.950000", "130813.410000", "130813.870000", "130814.330000", "130814.790000", "130815.250000", "130815.710000", "130816.170000", "130816.630000", "130817.090000", "130817.550000", "130818.010000", "130818.470000", "130818.930000", "130819.390000", "130819.850000", "130820.310000", "130820.770000", "130821.230000", "130821.690000", "130822.150000", "130822.610000", "130823.070000", "130823.530000", "130823.990000", "130824.450000", "130824.910000", "130825.370000", "130825.830000", "130826.290000", "130826.750000", "130827.210000", "130827.670000", "130828.130000", "130828.590000", "130829.050000", "130829.510000", "130829.970000", "130830.430000", "130830.890000", "130831.350000", "130831.810000", "130832.270000", "130832.730000", "130833.190000", "130833.650000", "130834.110000", "130834.570000", "130835.030000", "130835.490000", "130835.950000", "130836.410000", "130836.870000", "130837.330000", "130837.790000", "130838.250000", "130838.710000", "130839.170000", "130839.630000", "130840.090000", "130840.550000", "130841.010000", "130841.470000", "130841.930000", "130842.390000", "130842.850000", "130843.310000", "130843.770000", "130844.230000", "130844.690000", "130845.150000", "130845.610000", "130846.070000", "130846.530000", "130846.990000", "130847.450000", "130847.910000", "130848.370000", "130848.830000", "130849.290000", "130849.750000", "130850.210000", "130850.670000", "130851.130000", "130851.590000", "130852.050000", "130852.510000", "130852.970000", "130853.430000", "130853.890000", "130854.350000", "130854.810000", "130855.270000", "130855.730000", "130856.190000", "130856.650000", "130857.110000", "130857.570000", "130858.030000", "130858.490000", "130858.950000", "130859.410000", "130859.870000", "130900.330000", "130900.790000", "130901.250000", "130901.710000", "130902.170000", "130902.630000", "130903.090000", "130903.550000", "130904.010000", "130904.470000", "130904.930000", "130905.390000", "130905.850000", "130906.310000", "130906.770000", "130907.230000", "130907.690000", "130908.150000", "130908.610000", "130909.070000", "130909.530000", "130909.990000", "130910.450000", "130910.910000", "130911.370000", "130911.830000", "130912.290000", "130912.750000", "130913.210000", "130913.670000", "130914.130000", "130914.590000", "130915.050000", "130915.510000", "130915.970000", "130916.430000", "130916.890000", "130917.350000", "130917.810000", "130918.270000", "130918.730000", "130919.190000", "130919.650000", "130920.110000", "130920.570000", "130921.030000", "130921.490000", "130921.950000", "130922.410000", "130922.870000", "130923.330000", "130923.790000", "130924.250000", "130924.710000", "130925.170000", "130925.630000", "130926.090000", "130926.550000", "130927.010000", "130927.470000", "130927.930000", "130928.390000", "130928.850000", "130929.310000", "130929.770000", "130930.230000", "130930.690000", "130931.150000", "130931.610000", "130932.070000", "130932.530000", "130932.990000", "130933.450000", "130933.910000", "130934.370000", "130934.830000", "130935.290000", "130935.750000", "130936.210000", "130936.670000", "130937.130000", "130937.590000", "130938.050000", "130938.510000", "130938.970000", "130939.430000", "130939.890000", "130940.350000", "130940.810000", "130941.270000", "130941.730000", "130942.190000", "130942.650000", "130943.110000", "130943.570000", "130944.030000", "130944.490000", "130944.950000", "130945.410000", "130945.870000", "130946.330000", "130946.790000", "130947.250000", "130947.710000", "130948.170000", "130948.630000", "130949.090000", "130949.550000", "130950.010000", "130950.470000", "130950.930000", "130951.390000", "130951.850000", "130952.310000", "130952.770000", "130953.230000", "130953.690000", "130954.150000", "130954.610000", "130955.070000", "130955.530000", "130955.990000", "130956.450000", "130956.910000", "130957.370000", "130957.830000", "130958.290000", "130958.750000", "130959.210000", "130959.670000", "131000.130000", "131000.590000", "131001.050000", "131001.510000", "131001.970000", "131002.430000", "131002.890000", "131003.350000", "131003.810000", "131004.270000", "131004.730000", "131005.190000", "131005.650000", "131006.110000", "131006.570000", "131007.030000", "131007.490000", "131007.950000", "131008.410000", "131008.870000", "131009.330000", "131009.790000", "131010.250000", "131010.710000", "131011.170000", "131011.630000", "131012.090000", "131012.550000", "131013.010000", "131013.470000", "131013.930000", "131014.390000", "131014.850000", "131015.310000", "131015.770000", "131016.230000", "131016.690000", "131017.150000", "131017.610000", "131018.070000", "131018.530000", "131018.990000", "131019.450000", "131019.910000", "131020.370000", "131020.830000", "131021.290000", "131021.750000", "131022.210000", "131022.670000", "131023.130000", "131023.590000", "131024.050000", "131024.510000", "131024.970000", "131025.430000", "131025.890000", "131026.350000", "131026.810000", "131027.270000", "131027.730000", "131028.190000", "131028.650000", "131029.110000", "131029.570000", "131030.030000", "131030.490000", "131030.950000", "131031.410000", "131031.870000", "131032.330000", "131032.790000", "131033.250000", "131033.710000", "131034.170000", "131034.630000", "131035.090000", "131035.550000", "131036.010000", "131036.470000", "131036.930000", "131037.390000", "131037.850000", "131038.310000", "131038.770000", "131039.230000", "131039.690000", "131040.150000", "131040.610000", "131041.070000", "131041.530000", "131041.990000", "131042.450000", "131042.910000", "131043.370000", "131043.830000", "131044.290000", "131044.750000", "131045.210000", "131045.670000", "131046.130000", "131046.590000", "131047.050000", "131047.510000", "131047.970000", "131048.430000", "131048.890000", "131049.350000", "131049.810000", "131050.270000", "131050.730000", "131051.190000", "131051.650000", "131052.110000", "131052.570000", "131053.030000", "131053.490000", "131053.950000", "131054.410000", "131054.870000", "131055.330000", "131055.790000", "131056.250000", "131056.710000", "131057.170000", "131057.630000", "131058.090000", "131058.550000", "131059.010000", "131059.470000", "131059.930000", "131100.390000", "131100.850000", "131101.310000", "131101.770000", "131102.230000", "131102.690000", "131103.150000", "131103.610000", "131104.070000", "131104.530000", "131104.990000", "131105.450000", "131105.910000", "131106.370000", "131106.830000", "131107.290000", "131107.750000", "131108.210000", "131108.670000", "131109.130000", "131109.590000", "131110.050000", "131110.510000", "131110.970000", "131111.430000", "131111.890000", "131112.350000", "131112.810000", "131113.270000", "131113.730000", "131114.190000", "131114.650000", "131115.110000", "131115.570000", "131116.030000", "131116.490000", "131116.950000", "131117.410000", "131117.870000", "131118.330000", "131118.790000", "131119.250000", "131119.710000", "131120.170000", "131120.630000", "131121.090000", "131121.550000", "131122.010000", "131122.470000", "131122.930000", "131123.390000", "131123.850000", "131124.310000", "131124.770000", "131125.230000", "131125.690000", "131126.150000", "131126.610000", "131127.070000", "131127.530000", "131127.990000", "131128.450000", "131128.910000", "131129.370000", "131129.830000", "131130.290000", "131130.750000", "131131.210000", "131131.670000", "131132.130000", "131132.590000", "131133.050000", "131133.510000", "131133.970000", "131134.430000", "131134.890000", "131135.350000", "131135.810000", "131136.270000", "131136.730000", "131137.190000", "131137.650000", "131138.110000", "131138.570000", "131139.030000", "131139.490000", "131139.950000", "131140.410000", "131140.870000", "131141.330000", "131141.790000", "131142.250000", "131142.710000", "131143.170000", "131143.630000", "131144.090000", "131144.550000", "131145.010000", "131145.470000", "131145.930000", "131146.390000", "131146.850000", "131147.310000", "131147.770000", "131148.230000", "131148.690000", "131149.150000", "131149.610000", "131150.070000", "131150.530000", "131150.990000", "131151.450000", "131151.910000", "131152.370000", "131152.830000", "131153.290000", "131153.750000", "131154.210000", "131154.670000", "131155.130000", "131155.590000", "131156.050000"],
