{
  "AcquisitionMatrixPE": 82,
  "AcquisitionNumber": 1,
  "AcquisitionTime": "13:29:21.277500",
  "BandwidthPerPixelPhaseEncode": 24.888,
  "BaseResolution": 82,
  "BodyPartExamined": "BRAIN",
  "ConsistencyInfo": "N4_VE11C_LATEST_20160120",
  "ConversionSoftware": "dcm2niix",
  "ConversionSoftwareVersion": "v1.0.20201102",
  "DerivedVendorReportedEchoSpacing": 0.00049,
  "DeviceSerialNumber": "66112",
  "DwellTime": 2e-06,
  "EchoTime": 0.0272,
  "EchoTrainLength": 82,
  "EffectiveEchoSpacing": 0.00049,
  "FlipAngle": 44,
  "ImageComments": "Unaliased MB8/PE3",
  "ImageOrientationPatientDICOM": [0.999655, 0.0241552, -0.0103306, -0.0258277, 0.975576, -0.218139],
  "ImageType": [
    "ORIGINAL",
    "PRIMARY",
    "M",
    "MB",
    "ND",
    "NORM",
    "MOSAIC"
],
  "ImagingFrequency": 123.252,
  "InPlanePhaseEncodingDirectionDICOM": "COL",
  "InstitutionAddress": "Maynard 3,Hanover,NH,US,03755",
  "InstitutionName": "Dartmouth College - PBS",
  "InstitutionalDepartmentName": "Department",
  "MRAcquisitionType": "2D",
  "MagneticFieldStrength": 3,
  "Manufacturer": "Siemens",
  "ManufacturersModelName": "Prisma",
  "Modality": "MR",
  "MultibandAccelerationFactor": 8,
  "PartialFourier": 1,
  "PatientPosition": "HFS",
  "PercentPhaseFOV": 100,
  "PercentSampling": 100,
  "PhaseEncodingDirection": "j-",
  "PhaseEncodingSteps": 82,
  "PhaseResolution": 1,
  "PixelBandwidth": 3050,
  "ProcedureStepDescription": "Wager_Wager^1076_spacetop",
  "ProtocolName": "func_run-06_task-social_acq-ap-mb8",
  "PulseSequenceDetails": "%CustomerSeq%\\cmrr_mbep2d_bold",
  "ReceiveCoilActiveElements": "HEA;HEP",
  "ReceiveCoilName": "Head_32",
  "ReconMatrixPE": 82,
  "RepetitionTime": 0.46,
  "SAR": 0.10312,
  "ScanOptions": "FS",
  "ScanningSequence": "EP",
  "SequenceName": "epfid2d1_82",
  "SequenceVariant": "SK\\SS",
  "SeriesDescription": "func_run-06_task-social_acq-ap-mb8",
  "SeriesNumber": 22,
  "ShimSetting": [4152, -7729, -7265, 507, 10, -120, -56, 56],
  "SliceThickness": 2.7,
  "SliceTiming": [0, 0.25, 0.0625, 0.315, 0.125, 0.3775, 0.1875, 0, 0.25, 0.0625, 0.315, 0.125, 0.3775, 0.1875, 0, 0.25, 0.0625, 0.315, 0.125, 0.3775, 0.1875, 0, 0.25, 0.0625, 0.315, 0.125, 0.3775, 0.1875, 0, 0.25, 0.0625, 0.315, 0.125, 0.3775, 0.1875, 0, 0.25, 0.0625, 0.315, 0.125, 0.3775, 0.1875, 0, 0.25, 0.0625, 0.315, 0.125, 0.3775, 0.1875, 0, 0.25, 0.0625, 0.315, 0.125, 0.3775, 0.1875],
  "SoftwareVersions": "syngo MR E11",
  "SpacingBetweenSlices": 2.7,
  "StationName": "AWP66112",
  "TaskName": "social",
  "TotalReadoutTime": 0.03969,
  "TxRefAmp": 270.675,
  "WipMemBlock": "b43e3c36-9637-42b4-8840-ae246cf55587||Sequence: R016 ve11c/master r/e634e98; Dec 19 2017 11:00:25 by eja",
  "dcmmeta_affine": [
    [-2.6820008754730225, -0.0692937821149826, -0.012984544970095158, 122.16265106201172],
    [-0.06480672955513, 2.617398977279663, -0.5894911289215088, -68.40421295166016],
    [-0.027716223150491714, 0.585249662399292, 2.6348304748535156, -88.13460540771484],
    [0.0, 0.0, 0.0, 1.0]
],
  "dcmmeta_reorient_transform": [
    [0.0, -1.0, 0.0, 81.0],
    [1.0, 0.0, 0.0, 0.0],
    [0.0, 0.0, 1.0, 0.0],
    [0.0, 0.0, 0.0, 1.0]
],
  "dcmmeta_shape": [82, 82, 56, 872],
  "dcmmeta_slice_dim": 2,
  "dcmmeta_version": 0.6,
  "global": {
    "const": {
      "AccessionNumber": "A003660",
      "AcquisitionMatrix": [82, 0, 0, 82],
      "AngioFlag": "N",
      "BitsAllocated": 16,
      "BitsStored": 16,
      "BodyPartExamined": "BRAIN",
      "Columns": 656,
      "EchoNumbers": 1,
      "EchoTime": 27.2,
      "EchoTrainLength": 82,
      "FlipAngle": 44.0,
      "HighBit": 15,
      "ImageOrientationPatient": [0.99965484218762, 0.02415523451518, -0.0103305922557, -0.0258276815973, 0.97557599322513, -0.2181385163288],
      "ImagePositionPatient": [-866.39679004498, -913.39817164423, 135.19183554555],
      "ImageType": [
        "ORIGINAL",
        "PRIMARY",
        "M",
        "MB",
        "ND",
        "NORM",
        "MOSAIC"
],
      "ImagedNucleus": "1H",
      "ImagingFrequency": 123.252175,
      "InPlanePhaseEncodingDirection": "COL",
      "MRAcquisitionType": "2D",
      "MagneticFieldStrength": 3.0,
      "Manufacturer": "SIEMENS",
      "ManufacturerModelName": "Prisma",
      "Modality": "MR",
      "NumberOfAverages": 1.0,
      "NumberOfPhaseEncodingSteps": 82,
      "PercentPhaseFieldOfView": 100.0,
      "PercentSampling": 100.0,
      "PerformedProcedureStepStartTime": "114533.207000",
      "PhotometricInterpretation": "MONOCHROME2",
      "PixelBandwidth": 3050.0,
      "PixelRepresentation": 0,
      "PixelSpacing": [2.6829268932343, 2.6829268932343],
      "ProtocolName": "func_run-06_task-social_acq-ap-mb8",
      "RepetitionTime": 460.0,
      "Rows": 656,
      "SAR": 0.10311980093655,
      "SamplesPerPixel": 1,
      "ScanOptions": "FS",
      "ScanningSequence": "EP",
      "SequenceName": "epfid2d1_82",
      "SequenceVariant": [
        "SK",
        "SS"
],
      "SeriesDescription": "func_run-06_task-social_acq-ap-mb8",
      "SeriesNumber": 22,
      "SeriesTime": "132932.142000",
      "SliceLocation": -71.660110548472,
      "SliceThickness": 2.7000000476837,
      "SmallestImagePixelValue": 0,
      "SoftwareVersions": "syngo MR E11",
      "SpacingBetweenSlices": 2.7000000625664,
      "SpecificCharacterSet": "ISO_IR 100",
      "StudyID": "1",
      "StudyTime": "114533.166000",
      "TransmitCoilName": "Body",
      "VariableFlipAngleFlag": "N",
      "WindowCenterWidthExplanation": "Algo1",
      "dBdt": 0.0},
    "slices": {}
  },
  "time": {
    "samples": {
      "AcquisitionNumber": [1, 2, 3, 4, 5, 6, 7, 8, 9, 10, 11, 12, 13, 14, 15, 16, 17, 18, 19, 20, 21, 22, 23, 24, 25, 26, 27, 28, 29, 30, 31, 32, 33, 34, 35, 36, 37, 38, 39, 40, 41, 42, 43, 44, 45, 46, 47, 48, 49, 50, 51, 52, 53, 54, 55, 56, 57, 58, 59, 60, 61, 62, 63, 64, 65, 66, 67, 68, 69, 70, 71, 72, 73, 74, 75, 76, 77, 78, 79, 80, 81, 82, 83, 84, 85, 86, 87, 88, 89, 90, 91, 92, 93, 94, 95, 96, 97, 98, 99, 100, 101, 102, 103, 104, 105, 106, 107, 108, 109, 110, 111, 112, 113, 114, 115, 116, 117, 118, 119, 120, 121, 122, 123, 124, 125, 126, 127, 128, 129, 130, 131, 132, 133, 134, 135, 136, 137, 138, 139, 140, 141, 142, 143, 144, 145, 146, 147, 148, 149, 150, 151, 152, 153, 154, 155, 156, 157, 158, 159, 160, 161, 162, 163, 164, 165, 166, 167, 168, 169, 170, 171, 172, 173, 174, 175, 176, 177, 178, 179, 180, 181, 182, 183, 184, 185, 186, 187, 188, 189, 190, 191, 192, 193, 194, 195, 196, 197, 198, 199, 200, 201, 202, 203, 204, 205, 206, 207, 208, 209, 210, 211, 212, 213, 214, 215, 216, 217, 218, 219, 220, 221, 222, 223, 224, 225, 226, 227, 228, 229, 230, 231, 232, 233, 234, 235, 236, 237, 238, 239, 240, 241, 242, 243, 244, 245, 246, 247, 248, 249, 250, 251, 252, 253, 254, 255, 256, 257, 258, 259, 260, 261, 262, 263, 264, 265, 266, 267, 268, 269, 270, 271, 272, 273, 274, 275, 276, 277, 278, 279, 280, 281, 282, 283, 284, 285, 286, 287, 288, 289, 290, 291, 292, 293, 294, 295, 296, 297, 298, 299, 300, 301, 302, 303, 304, 305, 306, 307, 308, 309, 310, 311, 312, 313, 314, 315, 316, 317, 318, 319, 320, 321, 322, 323, 324, 325, 326, 327, 328, 329, 330, 331, 332, 333, 334, 335, 336, 337, 338, 339, 340, 341, 342, 343, 344, 345, 346, 347, 348, 349, 350, 351, 352, 353, 354, 355, 356, 357, 358, 359, 360, 361, 362, 363, 364, 365, 366, 367, 368, 369, 370, 371, 372, 373, 374, 375, 376, 377, 378, 379, 380, 381, 382, 383, 384, 385, 386, 387, 388, 389, 390, 391, 392, 393, 394, 395, 396, 397, 398, 399, 400, 401, 402, 403, 404, 405, 406, 407, 408, 409, 410, 411, 412, 413, 414, 415, 416, 417, 418, 419, 420, 421, 422, 423, 424, 425, 426, 427, 428, 429, 430, 431, 432, 433, 434, 435, 436, 437, 438, 439, 440, 441, 442, 443, 444, 445, 446, 447, 448, 449, 450, 451, 452, 453, 454, 455, 456, 457, 458, 459, 460, 461, 462, 463, 464, 465, 466, 467, 468, 469, 470, 471, 472, 473, 474, 475, 476, 477, 478, 479, 480, 481, 482, 483, 484, 485, 486, 487, 488, 489, 490, 491, 492, 493, 494, 495, 496, 497, 498, 499, 500, 501, 502, 503, 504, 505, 506, 507, 508, 509, 510, 511, 512, 513, 514, 515, 516, 517, 518, 519, 520, 521, 522, 523, 524, 525, 526, 527, 528, 529, 530, 531, 532, 533, 534, 535, 536, 537, 538, 539, 540, 541, 542, 543, 544, 545, 546, 547, 548, 549, 550, 551, 552, 553, 554, 555, 556, 557, 558, 559, 560, 561, 562, 563, 564, 565, 566, 567, 568, 569, 570, 571, 572, 573, 574, 575, 576, 577, 578, 579, 580, 581, 582, 583, 584, 585, 586, 587, 588, 589, 590, 591, 592, 593, 594, 595, 596, 597, 598, 599, 600, 601, 602, 603, 604, 605, 606, 607, 608, 609, 610, 611, 612, 613, 614, 615, 616, 617, 618, 619, 620, 621, 622, 623, 624, 625, 626, 627, 628, 629, 630, 631, 632, 633, 634, 635, 636, 637, 638, 639, 640, 641, 642, 643, 644, 645, 646, 647, 648, 649, 650, 651, 652, 653, 654, 655, 656, 657, 658, 659, 660, 661, 662, 663, 664, 665, 666, 667, 668, 669, 670, 671, 672, 673, 674, 675, 676, 677, 678, 679, 680, 681, 682, 683, 684, 685, 686, 687, 688, 689, 690, 691, 692, 693, 694, 695, 696, 697, 698, 699, 700, 701, 702, 703, 704, 705, 706, 707, 708, 709, 710, 711, 712, 713, 714, 715, 716, 717, 718, 719, 720, 721, 722, 723, 724, 725, 726, 727, 728, 729, 730, 731, 732, 733, 734, 735, 736, 737, 738, 739, 740, 741, 742, 743, 744, 745, 746, 747, 748, 749, 750, 751, 752, 753, 754, 755, 756, 757, 758, 759, 760, 761, 762, 763, 764, 765, 766, 767, 768, 769, 770, 771, 772, 773, 774, 775, 776, 777, 778, 779, 780, 781, 782, 783, 784, 785, 786, 787, 788, 789, 790, 791, 792, 793, 794, 795, 796, 797, 798, 799, 800, 801, 802, 803, 804, 805, 806, 807, 808, 809, 810, 811, 812, 813, 814, 815, 816, 817, 818, 819, 820, 821, 822, 823, 824, 825, 826, 827, 828, 829, 830, 831, 832, 833, 834, 835, 836, 837, 838, 839, 840, 841, 842, 843, 844, 845, 846, 847, 848, 849, 850, 851, 852, 853, 854, 855, 856, 857, 858, 859, 860, 861, 862, 863, 864, 865, 866, 867, 868, 869, 870, 871, 872],
      "AcquisitionTime": ["132921.277500", "132921.737500", "132922.197500", "132922.657500", "132923.117500", "132923.577500", "132924.037500", "132924.497500", "132924.957500", "132925.417500", "132925.877500", "132926.337500", "132926.797500", "132927.257500", "132927.717500", "132928.177500", "132928.637500", "132929.097500", "132929.557500", "132930.017500", "132930.477500", "132930.937500", "132931.397500", "132931.857500", "132932.317500", "132932.777500", "132933.237500", "132933.697500", "132934.157500", "132934.617500", "132935.077500", "132935.537500", "132935.997500", "132936.457500", "132936.917500", "132937.377500", "132937.837500", "132938.297500", "132938.757500", "132939.217500", "132939.677500", "132940.137500", "132940.597500", "132941.057500", "132941.517500", "132941.977500", "132942.437500", "132942.897500", "132943.357500", "132943.817500", "132944.277500", "132944.737500", "132945.197500", "132945.657500", "132946.117500", "132946.577500", "132947.037500", "132947.497500", "132947.957500", "132948.417500", "132948.877500", "132949.337500", "132949.797500", "132950.257500", "132950.717500", "132951.177500", "132951.637500", "132952.097500", "132952.557500", "132953.017500", "132953.477500", "132953.937500", "132954.397500", "132954.857500", "132955.317500", "132955.777500", "132956.237500", "132956.697500", "132957.157500", "132957.617500", "132958.077500", "132958.537500", "132958.997500", "132959.457500", "132959.917500", "133000.377500", "133000.837500", "133001.297500", "133001.757500", "133002.217500", "133002.677500", "133003.137500", "133003.597500", "133004.057500", "133004.517500", "133004.977500", "133005.437500", "133005.897500", "133006.357500", "133006.817500", "133007.277500", "133007.737500", "133008.197500", "133008.657500", "133009.117500", "133009.577500", "133010.037500", "133010.497500", "133010.957500", "133011.417500", "133011.877500", "133012.337500", "133012.797500", "133013.257500", "133013.717500", "133014.177500", "133014.637500", "133015.097500", "133015.557500", "133016.017500", "133016.477500", "133016.937500", "133017.397500", "133017.857500", "133018.317500", "133018.777500", "133019.237500", "133019.697500", "133020.157500", "133020.617500", "133021.077500", "133021.537500", "133021.997500", "133022.457500", "133022.917500", "133023.377500", "133023.837500", "133024.297500", "133024.757500", "133025.217500", "133025.677500", "133026.137500", "133026.597500", "133027.057500", "133027.517500", "133027.977500", "133028.437500", "133028.897500", "133029.357500", "133029.817500", "133030.277500", "133030.737500", "133031.197500", "133031.657500", "133032.117500", "133032.577500", "133033.037500", "133033.497500", "133033.957500", "133034.417500", "133034.877500", "133035.337500", "133035.797500", "133036.257500", "133036.717500", "133037.177500", "133037.637500", "133038.097500", "133038.557500", "133039.017500", "133039.477500", "133039.937500", "133040.397500", "133040.857500", "133041.317500", "133041.777500", "133042.237500", "133042.697500", "133043.157500", "133043.617500", "133044.077500", "133044.537500", "133044.997500", "133045.457500", "133045.917500", "133046.377500", "133046.837500", "133047.297500", "133047.757500", "133048.217500", "133048.677500", "133049.137500", "133049.597500", "133050.057500", "133050.517500", "133050.977500", "133051.437500", "133051.897500", "133052.357500", "133052.817500", "133053.277500", "133053.737500", "133054.197500", "133054.657500", "133055.117500", "133055.577500", "133056.037500", "133056.497500", "133056.957500", "133057.417500", "133057.877500", "133058.337500", "133058.797500", "133059.257500", "133059.717500", "133100.177500", "133100.637500", "133101.097500", "133101.557500", "133102.017500", "133102.477500", "133102.937500", "133103.397500", "133103.857500", "133104.317500", "133104.777500", "133105.237500", "133105.697500", "133106.157500", "133106.617500", "133107.077500", "133107.537500", "133107.997500", "133108.457500", "133108.917500", "133109.377500", "133109.837500", "133110.297500", "133110.757500", "133111.217500", "133111.677500", "133112.137500", "133112.597500", "133113.057500", "133113.517500", "133113.977500", "133114.437500", "133114.897500", "133115.357500", "133115.817500", "133116.277500", "133116.737500", "133117.197500", "133117.657500", "133118.117500", "133118.577500", "133119.037500", "133119.497500", "133119.957500", "133120.417500", "133120.877500", "133121.337500", "133121.797500", "133122.257500", "133122.717500", "133123.177500", "133123.637500", "133124.097500", "133124.557500", "133125.017500", "133125.477500", "133125.937500", "133126.397500", "133126.857500", "133127.317500", "133127.777500", "133128.237500", "133128.697500", "133129.157500", "133129.617500", "133130.077500", "133130.537500", "133130.997500", "133131.457500", "133131.917500", "133132.377500", "133132.837500", "133133.297500", "133133.757500", "133134.217500", "133134.677500", "133135.137500", "133135.597500", "133136.057500", "133136.517500", "133136.977500", "133137.437500", "133137.897500", "133138.357500", "133138.817500", "133139.277500", "133139.737500", "133140.197500", "133140.657500", "133141.117500", "133141.577500", "133142.037500", "133142.497500", "133142.957500", "133143.417500", "133143.877500", "133144.337500", "133144.797500", "133145.257500", "133145.717500", "133146.177500", "133146.637500", "133147.097500", "133147.557500", "133148.017500", "133148.477500", "133148.937500", "133149.397500", "133149.857500", "133150.317500", "133150.777500", "133151.237500", "133151.697500", "133152.157500", "133152.617500", "133153.077500", "133153.537500", "133153.997500", "133154.457500", "133154.917500", "133155.377500", "133155.837500", "133156.297500", "133156.757500", "133157.217500", "133157.677500", "133158.137500", "133158.597500", "133159.057500", "133159.517500", "133159.977500", "133200.437500", "133200.897500", "133201.357500", "133201.817500", "133202.277500", "133202.737500", "133203.197500", "133203.657500", "133204.117500", "133204.577500", "133205.037500", "133205.497500", "133205.957500", "133206.417500", "133206.877500", "133207.337500", "133207.797500", "133208.257500", "133208.717500", "133209.177500", "133209.637500", "133210.097500", "133210.557500", "133211.017500", "133211.477500", "133211.937500", "133212.397500", "133212.857500", "133213.317500", "133213.777500", "133214.237500", "133214.697500", "133215.157500", "133215.617500", "133216.077500", "133216.537500", "133216.997500", "133217.457500", "133217.917500", "133218.377500", "133218.837500", "133219.297500", "133219.757500", "133220.217500", "133220.677500", "133221.137500", "133221.597500", "133222.057500", "133222.517500", "133222.977500", "133223.437500", "133223.897500", "133224.357500", "133224.817500", "133225.277500", "133225.737500", "133226.197500", "133226.657500", "133227.117500", "133227.577500", "133228.037500", "133228.497500", "133228.957500", "133229.417500", "133229.877500", "133230.337500", "133230.797500", "133231.257500", "133231.717500", "133232.177500", "133232.637500", "133233.097500", "133233.557500", "133234.017500", "133234.477500", "133234.937500", "133235.397500", "133235.857500", "133236.317500", "133236.777500", "133237.237500", "133237.697500", "133238.157500", "133238.617500", "133239.077500", "133239.537500", "133239.997500", "133240.457500", "133240.917500", "133241.377500", "133241.837500", "133242.297500", "133242.757500", "133243.217500", "133243.677500", "133244.137500", "133244.597500", "133245.057500", "133245.517500", "133245.977500", "133246.437500", "133246.897500", "133247.357500", "133247.817500", "133248.277500", "133248.737500", "133249.197500", "133249.657500", "133250.117500", "133250.577500", "133251.037500", "133251.497500", "133251.957500", "133252.417500", "133252.877500", "133253.337500", "133253.797500", "133254.257500", "133254.717500", "133255.177500", "133255.637500", "133256.097500", "133256.557500", "133257.017500", "133257.477500", "133257.937500", "133258.397500", "133258.857500", "133259.317500", "133259.777500", "133300.237500", "133300.697500", "133301.157500", "133301.617500", "133302.077500", "133302.537500", "133302.997500", "133303.457500", "133303.917500", "133304.377500", "133304.837500", "133305.297500", "133305.757500", "133306.217500", "133306.677500", "133307.137500", "133307.597500", "133308.057500", "133308.517500", "133308.977500", "133309.437500", "133309.897500", "133310.357500", "133310.817500", "133311.277500", "133311.737500", "133312.197500", "133312.657500", "133313.117500", "133313.577500", "133314.037500", "133314.497500", "133314.957500", "133315.417500", "133315.877500", "133316.337500", "133316.797500", "133317.257500", "133317.717500", "133318.177500", "133318.637500", "133319.097500", "133319.557500", "133320.017500", "133320.477500", "133320.937500", "133321.397500", "133321.857500", "133322.317500", "133322.777500", "133323.237500", "133323.697500", "133324.157500", "133324.617500", "133325.077500", "133325.537500", "133325.997500", "133326.457500", "133326.917500", "133327.377500", "133327.837500", "133328.297500", "133328.757500", "133329.217500", "133329.677500", "133330.137500", "133330.597500", "133331.057500", "133331.517500", "133331.977500", "133332.437500", "133332.897500", "133333.357500", "133333.817500", "133334.277500", "133334.737500", "133335.197500", "133335.657500", "133336.117500", "133336.577500", "133337.037500", "133337.497500", "133337.957500", "133338.417500", "133338.877500", "133339.337500", "133339.797500", "133340.257500", "133340.717500", "133341.177500", "133341.637500", "133342.097500", "133342.557500", "133343.017500", "133343.477500", "133343.937500", "133344.397500", "133344.857500", "133345.317500", "133345.777500", "133346.237500", "133346.697500", "133347.157500", "133347.617500", "133348.077500", "133348.537500", "133348.997500", "133349.457500", "133349.917500", "133350.377500", "133350.837500", "133351.297500", "133351.757500", "133352.217500", "133352.677500", "133353.137500", "133353.597500", "133354.057500", "133354.517500", "133354.977500", "133355.437500", "133355.897500", "133356.357500", "133356.817500", "133357.277500", "133357.737500", "133358.197500", "133358.657500", "133359.117500", "133359.577500", "133400.037500", "133400.497500", "133400.957500", "133401.417500", "133401.877500", "133402.337500", "133402.797500", "133403.257500", "133403.717500", "133404.177500", "133404.637500", "133405.097500", "133405.557500", "133406.017500", "133406.477500", "133406.937500", "133407.397500", "133407.857500", "133408.317500", "133408.777500", "133409.237500", "133409.697500", "133410.157500", "133410.617500", "133411.077500", "133411.537500", "133411.997500", "133412.457500", "133412.917500", "133413.377500", "133413.837500", "133414.297500", "133414.757500", "133415.217500", "133415.677500", "133416.137500", "133416.597500", "133417.057500", "133417.517500", "133417.977500", "133418.437500", "133418.897500", "133419.357500", "133419.817500", "133420.277500", "133420.737500", "133421.197500", "133421.657500", "133422.117500", "133422.577500", "133423.037500", "133423.497500", "133423.957500", "133424.417500", "133424.877500", "133425.337500", "133425.797500", "133426.257500", "133426.717500", "133427.177500", "133427.637500", "133428.097500", "133428.557500", "133429.017500", "133429.477500", "133429.937500", "133430.397500", "133430.857500", "133431.317500", "133431.777500", "133432.237500", "133432.697500", "133433.157500", "133433.617500", "133434.077500", "133434.537500", "133434.997500", "133435.457500", "133435.917500", "133436.377500", "133436.837500", "133437.297500", "133437.757500", "133438.217500", "133438.677500", "133439.137500", "133439.597500", "133440.057500", "133440.517500", "133440.977500", "133441.437500", "133441.897500", "133442.357500", "133442.817500", "133443.277500", "133443.737500", "133444.197500", "133444.657500", "133445.117500", "133445.577500", "133446.037500", "133446.497500", "133446.957500", "133447.417500", "133447.877500", "133448.337500", "133448.797500", "133449.257500", "133449.717500", "133450.177500", "133450.637500", "133451.097500", "133451.557500", "133452.017500", "133452.477500", "133452.937500", "133453.397500", "133453.857500", "133454.317500", "133454.777500", "133455.237500", "133455.697500", "133456.157500", "133456.617500", "133457.077500", "133457.537500", "133457.997500", "133458.457500", "133458.917500", "133459.377500", "133459.837500", "133500.297500", "133500.757500", "133501.217500", "133501.677500", "133502.137500", "133502.597500", "133503.057500", "133503.517500", "133503.977500", "133504.437500", "133504.897500", "133505.357500", "133505.817500", "133506.277500", "133506.737500", "133507.197500", "133507.657500", "133508.117500", "133508.577500", "133509.037500", "133509.497500", "133509.957500", "133510.417500", "133510.877500", "133511.337500", "133511.797500", "133512.257500", "133512.717500", "133513.177500", "133513.637500", "133514.097500", "133514.557500", "133515.017500", "133515.477500", "133515.937500", "133516.397500", "133516.857500", "133517.317500", "133517.777500", "133518.237500", "133518.697500", "133519.157500", "133519.617500", "133520.077500", "133520.537500", "133520.997500", "133521.457500", "133521.917500", "133522.377500", "133522.837500", "133523.297500", "133523.757500", "133524.217500", "133524.677500", "133525.137500", "133525.597500", "133526.057500", "133526.517500", "133526.977500", "133527.437500", "133527.897500", "133528.357500", "133528.817500", "133529.277500", "133529.737500", "133530.197500", "133530.657500", "133531.117500", "133531.577500", "133532.037500", "133532.497500", "133532.957500", "133533.417500", "133533.877500", "133534.337500", "133534.797500", "133535.257500", "133535.717500", "133536.177500", "133536.637500", "133537.097500", "133537.557500", "133538.017500", "133538.477500", "133538.937500", "133539.397500", "133539.857500", "133540.317500", "133540.777500", "133541.237500", "133541.697500", "133542.157500", "133542.617500", "133543.077500", "133543.537500", "133543.997500", "133544.457500", "133544.917500", "133545.377500", "133545.837500", "133546.297500", "133546.757500", "133547.217500", "133547.677500", "133548.137500", "133548.597500", "133549.057500", "133549.517500", "133549.977500", "133550.437500", "133550.897500", "133551.357500", "133551.817500", "133552.277500", "133552.737500", "133553.197500", "133553.657500", "133554.117500", "133554.577500", "133555.037500", "133555.497500", "133555.957500", "133556.417500", "133556.877500", "133557.337500", "133557.797500", "133558.257500", "133558.717500", "133559.177500", "133559.637500", "133600.097500", "133600.557500", "133601.017500", "133601.477500", "133601.937500"],
