{
  "AcquisitionMatrixPE": 82,
  "AcquisitionNumber": 1,
  "AcquisitionTime": "13:12:31.840000",
  "BandwidthPerPixelPhaseEncode": 24.888,
  "BaseResolution": 82,
  "BodyPartExamined": "BRAIN",
  "ConsistencyInfo": "N4_VE11C_LATEST_20160120",
  "ConversionSoftware": "dcm2niix",
  "ConversionSoftwareVersion": "v1.0.20201102",
  "DerivedVendorReportedEchoSpacing": 0.00049,
  "DeviceSerialNumber": "66112",
  "DwellTime": 2e-06,
  "EchoTime": 0.0272,
  "EchoTrainLength": 82,
  "EffectiveEchoSpacing": 0.00049,
  "FlipAngle": 44,
  "ImageComments": "Unaliased MB8/PE3",
  "ImageOrientationPatientDICOM": [0.999655, 0.0241552, -0.0103306, -0.0258277, 0.975576, -0.218139],
  "ImageType": [
    "ORIGINAL",
    "PRIMARY",
    "M",
    "MB",
    "ND",
    "NORM",
    "MOSAIC"
],
  "ImagingFrequency": 123.252,
  "InPlanePhaseEncodingDirectionDICOM": "COL",
  "InstitutionAddress": "Maynard 3,Hanover,NH,US,03755",
  "InstitutionName": "Dartmouth College - PBS",
  "InstitutionalDepartmentName": "Department",
  "MRAcquisitionType": "2D",
  "MagneticFieldStrength": 3,
  "Manufacturer": "Siemens",
  "ManufacturersModelName": "Prisma",
  "Modality": "MR",
  "MultibandAccelerationFactor": 8,
  "PartialFourier": 1,
  "PatientPosition": "HFS",
  "PercentPhaseFOV": 100,
  "PercentSampling": 100,
  "PhaseEncodingDirection": "j-",
  "PhaseEncodingSteps": 82,
  "PhaseResolution": 1,
  "PixelBandwidth": 3050,
  "ProcedureStepDescription": "Wager_Wager^1076_spacetop",
  "ProtocolName": "func_run-04_task-social_acq-ap-mb8",
  "PulseSequenceDetails": "%CustomerSeq%\\cmrr_mbep2d_bold",
  "ReceiveCoilActiveElements": "HEA;HEP",
  "ReceiveCoilName": "Head_32",
  "ReconMatrixPE": 82,
  "RepetitionTime": 0.46,
  "SAR": 0.10312,
  "ScanOptions": "FS",
  "ScanningSequence": "EP",
  "SequenceName": "epfid2d1_82",
  "SequenceVariant": "SK\\SS",
  "SeriesDescription": "func_run-04_task-social_acq-ap-mb8",
  "SeriesNumber": 18,
  "ShimSetting": [4152, -7729, -7265, 507, 10, -120, -56, 56],
  "SliceThickness": 2.7,
  "SliceTiming": [0, 0.25, 0.0625, 0.3125, 0.125, 0.375, 0.1875, 0, 0.25, 0.0625, 0.3125, 0.125, 0.375, 0.1875, 0, 0.25, 0.0625, 0.3125, 0.125, 0.375, 0.1875, 0, 0.25, 0.0625, 0.3125, 0.125, 0.375, 0.1875, 0, 0.25, 0.0625, 0.3125, 0.125, 0.375, 0.1875, 0, 0.25, 0.0625, 0.3125, 0.125, 0.375, 0.1875, 0, 0.25, 0.0625, 0.3125, 0.125, 0.375, 0.1875, 0, 0.25, 0.0625, 0.3125, 0.125, 0.375, 0.1875],
  "SoftwareVersions": "syngo MR E11",
  "SpacingBetweenSlices": 2.7,
  "StationName": "AWP66112",
  "TaskName": "social",
  "TotalReadoutTime": 0.03969,
  "TxRefAmp": 270.675,
  "WipMemBlock": "7c219a33-f423-48ac-bdfe-ffe847bcdfb5||Sequence: R016 ve11c/master r/e634e98; Dec 19 2017 11:00:25 by eja",
  "dcmmeta_affine": [
    [-2.6820008754730225, -0.0692937821149826, -0.012984544970095158, 122.16265106201172],
    [-0.06480672955513, 2.617398977279663, -0.5894911289215088, -68.40421295166016],
    [-0.027716223150491714, 0.585249662399292, 2.6348304748535156, -88.13460540771484],
    [0.0, 0.0, 0.0, 1.0]
],
  "dcmmeta_reorient_transform": [
    [0.0, -1.0, 0.0, 81.0],
    [1.0, 0.0, 0.0, 0.0],
    [0.0, 0.0, 1.0, 0.0],
    [0.0, 0.0, 0.0, 1.0]
],
  "dcmmeta_shape": [82, 82, 56, 872],
  "dcmmeta_slice_dim": 2,
  "dcmmeta_version": 0.6,
  "global": {
    "const": {
      "AccessionNumber": "A003660",
      "AcquisitionMatrix": [82, 0, 0, 82],
      "AngioFlag": "N",
      "BitsAllocated": 16,
      "BitsStored": 16,
      "BodyPartExamined": "BRAIN",
      "Columns": 656,
      "EchoNumbers": 1,
      "EchoTime": 27.2,
      "EchoTrainLength": 82,
      "FlipAngle": 44.0,
      "HighBit": 15,
      "ImageOrientationPatient": [0.99965484218762, 0.02415523451518, -0.0103305922557, -0.0258276815973, 0.97557599322513, -0.2181385163288],
      "ImagePositionPatient": [-866.39679004498, -913.39817164423, 135.19183554555],
      "ImageType": [
        "ORIGINAL",
        "PRIMARY",
        "M",
        "MB",
        "ND",
        "NORM",
        "MOSAIC"
],
      "ImagedNucleus": "1H",
      "ImagingFrequency": 123.25217,
      "InPlanePhaseEncodingDirection": "COL",
      "MRAcquisitionType": "2D",
      "MagneticFieldStrength": 3.0,
      "Manufacturer": "SIEMENS",
      "ManufacturerModelName": "Prisma",
      "Modality": "MR",
      "NumberOfAverages": 1.0,
      "NumberOfPhaseEncodingSteps": 82,
      "PercentPhaseFieldOfView": 100.0,
      "PercentSampling": 100.0,
      "PerformedProcedureStepStartTime": "114533.207000",
      "PhotometricInterpretation": "MONOCHROME2",
      "PixelBandwidth": 3050.0,
      "PixelRepresentation": 0,
      "PixelSpacing": [2.6829268932343, 2.6829268932343],
      "ProtocolName": "func_run-04_task-social_acq-ap-mb8",
      "RepetitionTime": 460.0,
      "Rows": 656,
      "SAR": 0.10311980093655,
      "SamplesPerPixel": 1,
      "ScanOptions": "FS",
      "ScanningSequence": "EP",
      "SequenceName": "epfid2d1_82",
      "SequenceVariant": [
        "SK",
        "SS"
],
      "SeriesDescription": "func_run-04_task-social_acq-ap-mb8",
      "SeriesNumber": 18,
      "SeriesTime": "131252.211000",
      "SliceLocation": -71.660110548472,
      "SliceThickness": 2.7000000476837,
      "SmallestImagePixelValue": 0,
      "SoftwareVersions": "syngo MR E11",
      "SpacingBetweenSlices": 2.7000000625664,
      "SpecificCharacterSet": "ISO_IR 100",
      "StudyID": "1",
      "StudyTime": "114533.166000",
      "TransmitCoilName": "Body",
      "VariableFlipAngleFlag": "N",
      "WindowCenterWidthExplanation": "Algo1",
      "dBdt": 0.0},
    "slices": {}
  },
  "time": {
    "samples": {
      "AcquisitionNumber": [1, 2, 3, 4, 5, 6, 7, 8, 9, 10, 11, 12, 13, 14, 15, 16, 17, 18, 19, 20, 21, 22, 23, 24, 25, 26, 27, 28, 29, 30, 31, 32, 33, 34, 35, 36, 37, 38, 39, 40, 41, 42, 43, 44, 45, 46, 47, 48, 49, 50, 51, 52, 53, 54, 55, 56, 57, 58, 59, 60, 61, 62, 63, 64, 65, 66, 67, 68, 69, 70, 71, 72, 73, 74, 75, 76, 77, 78, 79, 80, 81, 82, 83, 84, 85, 86, 87, 88, 89, 90, 91, 92, 93, 94, 95, 96, 97, 98, 99, 100, 101, 102, 103, 104, 105, 106, 107, 108, 109, 110, 111, 112, 113, 114, 115, 116, 117, 118, 119, 120, 121, 122, 123, 124, 125, 126, 127, 128, 129, 130, 131, 132, 133, 134, 135, 136, 137, 138, 139, 140, 141, 142, 143, 144, 145, 146, 147, 148, 149, 150, 151, 152, 153, 154, 155, 156, 157, 158, 159, 160, 161, 162, 163, 164, 165, 166, 167, 168, 169, 170, 171, 172, 173, 174, 175, 176, 177, 178, 179, 180, 181, 182, 183, 184, 185, 186, 187, 188, 189, 190, 191, 192, 193, 194, 195, 196, 197, 198, 199, 200, 201, 202, 203, 204, 205, 206, 207, 208, 209, 210, 211, 212, 213, 214, 215, 216, 217, 218, 219, 220, 221, 222, 223, 224, 225, 226, 227, 228, 229, 230, 231, 232, 233, 234, 235, 236, 237, 238, 239, 240, 241, 242, 243, 244, 245, 246, 247, 248, 249, 250, 251, 252, 253, 254, 255, 256, 257, 258, 259, 260, 261, 262, 263, 264, 265, 266, 267, 268, 269, 270, 271, 272, 273, 274, 275, 276, 277, 278, 279, 280, 281, 282, 283, 284, 285, 286, 287, 288, 289, 290, 291, 292, 293, 294, 295, 296, 297, 298, 299, 300, 301, 302, 303, 304, 305, 306, 307, 308, 309, 310, 311, 312, 313, 314, 315, 316, 317, 318, 319, 320, 321, 322, 323, 324, 325, 326, 327, 328, 329, 330, 331, 332, 333, 334, 335, 336, 337, 338, 339, 340, 341, 342, 343, 344, 345, 346, 347, 348, 349, 350, 351, 352, 353, 354, 355, 356, 357, 358, 359, 360, 361, 362, 363, 364, 365, 366, 367, 368, 369, 370, 371, 372, 373, 374, 375, 376, 377, 378, 379, 380, 381, 382, 383, 384, 385, 386, 387, 388, 389, 390, 391, 392, 393, 394, 395, 396, 397, 398, 399, 400, 401, 402, 403, 404, 405, 406, 407, 408, 409, 410, 411, 412, 413, 414, 415, 416, 417, 418, 419, 420, 421, 422, 423, 424, 425, 426, 427, 428, 429, 430, 431, 432, 433, 434, 435, 436, 437, 438, 439, 440, 441, 442, 443, 444, 445, 446, 447, 448, 449, 450, 451, 452, 453, 454, 455, 456, 457, 458, 459, 460, 461, 462, 463, 464, 465, 466, 467, 468, 469, 470, 471, 472, 473, 474, 475, 476, 477, 478, 479, 480, 481, 482, 483, 484, 485, 486, 487, 488, 489, 490, 491, 492, 493, 494, 495, 496, 497, 498, 499, 500, 501, 502, 503, 504, 505, 506, 507, 508, 509, 510, 511, 512, 513, 514, 515, 516, 517, 518, 519, 520, 521, 522, 523, 524, 525, 526, 527, 528, 529, 530, 531, 532, 533, 534, 535, 536, 537, 538, 539, 540, 541, 542, 543, 544, 545, 546, 547, 548, 549, 550, 551, 552, 553, 554, 555, 556, 557, 558, 559, 560, 561, 562, 563, 564, 565, 566, 567, 568, 569, 570, 571, 572, 573, 574, 575, 576, 577, 578, 579, 580, 581, 582, 583, 584, 585, 586, 587, 588, 589, 590, 591, 592, 593, 594, 595, 596, 597, 598, 599, 600, 601, 602, 603, 604, 605, 606, 607, 608, 609, 610, 611, 612, 613, 614, 615, 616, 617, 618, 619, 620, 621, 622, 623, 624, 625, 626, 627, 628, 629, 630, 631, 632, 633, 634, 635, 636, 637, 638, 639, 640, 641, 642, 643, 644, 645, 646, 647, 648, 649, 650, 651, 652, 653, 654, 655, 656, 657, 658, 659, 660, 661, 662, 663, 664, 665, 666, 667, 668, 669, 670, 671, 672, 673, 674, 675, 676, 677, 678, 679, 680, 681, 682, 683, 684, 685, 686, 687, 688, 689, 690, 691, 692, 693, 694, 695, 696, 697, 698, 699, 700, 701, 702, 703, 704, 705, 706, 707, 708, 709, 710, 711, 712, 713, 714, 715, 716, 717, 718, 719, 720, 721, 722, 723, 724, 725, 726, 727, 728, 729, 730, 731, 732, 733, 734, 735, 736, 737, 738, 739, 740, 741, 742, 743, 744, 745, 746, 747, 748, 749, 750, 751, 752, 753, 754, 755, 756, 757, 758, 759, 760, 761, 762, 763, 764, 765, 766, 767, 768, 769, 770, 771, 772, 773, 774, 775, 776, 777, 778, 779, 780, 781, 782, 783, 784, 785, 786, 787, 788, 789, 790, 791, 792, 793, 794, 795, 796, 797, 798, 799, 800, 801, 802, 803, 804, 805, 806, 807, 808, 809, 810, 811, 812, 813, 814, 815, 816, 817, 818, 819, 820, 821, 822, 823, 824, 825, 826, 827, 828, 829, 830, 831, 832, 833, 834, 835, 836, 837, 838, 839, 840, 841, 842, 843, 844, 845, 846, 847, 848, 849, 850, 851, 852, 853, 854, 855, 856, 857, 858, 859, 860, 861, 862, 863, 864, 865, 866, 867, 868, 869, 870, 871, 872],
      "AcquisitionTime": ["131231.840000", "131232.300000", "131232.760000", "131233.220000", "131233.680000", "131234.140000", "131234.600000", "131235.060000", "131235.520000", "131235.980000", "131236.440000", "131236.900000", "131237.360000", "131237.820000", "131238.280000", "131238.740000", "131239.200000", "131239.660000", "131240.120000", "131240.580000", "131241.040000", "131241.500000", "131241.960000", "131242.420000", "131242.880000", "131243.340000", "131243.800000", "131244.260000", "131244.720000", "131245.180000", "131245.640000", "131246.100000", "131246.560000", "131247.020000", "131247.480000", "131247.940000", "131248.400000", "131248.860000", "131249.320000", "131249.780000", "131250.240000", "131250.700000", "131251.160000", "131251.620000", "131252.080000", "131252.540000", "131253.000000", "131253.460000", "131253.920000", "131254.380000", "131254.840000", "131255.300000", "131255.760000", "131256.220000", "131256.680000", "131257.140000", "131257.600000", "131258.060000", "131258.520000", "131258.980000", "131259.440000", "131259.900000", "131300.360000", "131300.820000", "131301.280000", "131301.740000", "131302.200000", "131302.660000", "131303.120000", "131303.580000", "131304.040000", "131304.500000", "131304.960000", "131305.420000", "131305.880000", "131306.340000", "131306.800000", "131307.260000", "131307.720000", "131308.180000", "131308.640000", "131309.100000", "131309.560000", "131310.020000", "131310.480000", "131310.940000", "131311.400000", "131311.860000", "131312.320000", "131312.780000", "131313.240000", "131313.700000", "131314.160000", "131314.620000", "131315.080000", "131315.540000", "131316.000000", "131316.460000", "131316.920000", "131317.380000", "131317.840000", "131318.300000", "131318.760000", "131319.220000", "131319.680000", "131320.140000", "131320.600000", "131321.060000", "131321.520000", "131321.980000", "131322.440000", "131322.900000", "131323.360000", "131323.820000", "131324.280000", "131324.740000", "131325.200000", "131325.660000", "131326.120000", "131326.580000", "131327.040000", "131327.500000", "131327.960000", "131328.420000", "131328.880000", "131329.340000", "131329.800000", "131330.260000", "131330.720000", "131331.180000", "131331.640000", "131332.100000", "131332.560000", "131333.020000", "131333.480000", "131333.940000", "131334.400000", "131334.860000", "131335.320000", "131335.780000", "131336.240000", "131336.700000", "131337.160000", "131337.620000", "131338.080000", "131338.540000", "131339.000000", "131339.460000", "131339.920000", "131340.380000", "131340.840000", "131341.300000", "131341.760000", "131342.220000", "131342.680000", "131343.140000", "131343.600000", "131344.060000", "131344.520000", "131344.980000", "131345.440000", "131345.900000", "131346.360000", "131346.820000", "131347.280000", "131347.740000", "131348.200000", "131348.660000", "131349.120000", "131349.580000", "131350.040000", "131350.500000", "131350.960000", "131351.420000", "131351.880000", "131352.340000", "131352.800000", "131353.260000", "131353.720000", "131354.180000", "131354.640000", "131355.100000", "131355.560000", "131356.020000", "131356.480000", "131356.940000", "131357.400000", "131357.860000", "131358.320000", "131358.780000", "131359.240000", "131359.700000", "131400.160000", "131400.620000", "131401.080000", "131401.540000", "131402.000000", "131402.460000", "131402.920000", "131403.380000", "131403.840000", "131404.300000", "131404.760000", "131405.220000", "131405.680000", "131406.140000", "131406.600000", "131407.060000", "131407.520000", "131407.980000", "131408.440000", "131408.900000", "131409.360000", "131409.820000", "131410.280000", "131410.740000", "131411.200000", "131411.660000", "131412.120000", "131412.580000", "131413.040000", "131413.500000", "131413.960000", "131414.420000", "131414.880000", "131415.340000", "131415.800000", "131416.260000", "131416.720000", "131417.180000", "131417.640000", "131418.100000", "131418.560000", "131419.020000", "131419.480000", "131419.940000", "131420.400000", "131420.860000", "131421.320000", "131421.780000", "131422.240000", "131422.700000", "131423.160000", "131423.620000", "131424.080000", "131424.540000", "131425.000000", "131425.460000", "131425.920000", "131426.380000", "131426.840000", "131427.300000", "131427.760000", "131428.220000", "131428.680000", "131429.140000", "131429.600000", "131430.060000", "131430.520000", "131430.980000", "131431.440000", "131431.900000", "131432.360000", "131432.820000", "131433.280000", "131433.740000", "131434.200000", "131434.660000", "131435.120000", "131435.580000", "131436.040000", "131436.500000", "131436.960000", "131437.420000", "131437.880000", "131438.340000", "131438.800000", "131439.260000", "131439.720000", "131440.180000", "131440.640000", "131441.100000", "131441.560000", "131442.020000", "131442.480000", "131442.940000", "131443.400000", "131443.860000", "131444.320000", "131444.780000", "131445.240000", "131445.700000", "131446.160000", "131446.620000", "131447.080000", "131447.540000", "131448.000000", "131448.460000", "131448.920000", "131449.380000", "131449.840000", "131450.300000", "131450.760000", "131451.220000", "131451.680000", "131452.140000", "131452.600000", "131453.060000", "131453.520000", "131453.980000", "131454.440000", "131454.900000", "131455.360000", "131455.820000", "131456.280000", "131456.740000", "131457.200000", "131457.660000", "131458.120000", "131458.580000", "131459.040000", "131459.500000", "131459.960000", "131500.420000", "131500.880000", "131501.340000", "131501.800000", "131502.260000", "131502.720000", "131503.180000", "131503.640000", "131504.100000", "131504.560000", "131505.020000", "131505.480000", "131505.940000", "131506.400000", "131506.860000", "131507.320000", "131507.780000", "131508.240000", "131508.700000", "131509.160000", "131509.620000", "131510.080000", "131510.540000", "131511.000000", "131511.460000", "131511.920000", "131512.380000", "131512.840000", "131513.300000", "131513.760000", "131514.220000", "131514.680000", "131515.140000", "131515.600000", "131516.060000", "131516.520000", "131516.980000", "131517.440000", "131517.900000", "131518.360000", "131518.820000", "131519.280000", "131519.740000", "131520.200000", "131520.660000", "131521.120000", "131521.580000", "131522.040000", "131522.500000", "131522.960000", "131523.420000", "131523.880000", "131524.340000", "131524.800000", "131525.260000", "131525.720000", "131526.180000", "131526.640000", "131527.100000", "131527.560000", "131528.020000", "131528.480000", "131528.940000", "131529.400000", "131529.860000", "131530.320000", "131530.780000", "131531.240000", "131531.700000", "131532.160000", "131532.620000", "131533.080000", "131533.540000", "131534.000000", "131534.460000", "131534.920000", "131535.380000", "131535.840000", "131536.300000", "131536.760000", "131537.220000", "131537.680000", "131538.140000", "131538.600000", "131539.060000", "131539.520000", "131539.980000", "131540.440000", "131540.900000", "131541.360000", "131541.820000", "131542.280000", "131542.740000", "131543.200000", "131543.660000", "131544.120000", "131544.580000", "131545.040000", "131545.500000", "131545.960000", "131546.420000", "131546.880000", "131547.340000", "131547.800000", "131548.260000", "131548.720000", "131549.180000", "131549.640000", "131550.100000", "131550.560000", "131551.020000", "131551.480000", "131551.940000", "131552.400000", "131552.860000", "131553.320000", "131553.780000", "131554.240000", "131554.700000", "131555.160000", "131555.620000", "131556.080000", "131556.540000", "131557.000000", "131557.460000", "131557.920000", "131558.380000", "131558.840000", "131559.300000", "131559.760000", "131600.220000", "131600.680000", "131601.140000", "131601.600000", "131602.060000", "131602.520000", "131602.980000", "131603.440000", "131603.900000", "131604.360000", "131604.820000", "131605.280000", "131605.740000", "131606.200000", "131606.660000", "131607.120000", "131607.580000", "131608.040000", "131608.500000", "131608.960000", "131609.420000", "131609.880000", "131610.340000", "131610.800000", "131611.260000", "131611.720000", "131612.180000", "131612.640000", "131613.100000", "131613.560000", "131614.020000", "131614.480000", "131614.940000", "131615.400000", "131615.860000", "131616.320000", "131616.780000", "131617.240000", "131617.700000", "131618.160000", "131618.620000", "131619.080000", "131619.540000", "131620.000000", "131620.460000", "131620.920000", "131621.380000", "131621.840000", "131622.300000", "131622.760000", "131623.220000", "131623.680000", "131624.140000", "131624.600000", "131625.060000", "131625.520000", "131625.980000", "131626.440000", "131626.900000", "131627.360000", "131627.820000", "131628.280000", "131628.740000", "131629.200000", "131629.660000", "131630.120000", "131630.580000", "131631.040000", "131631.500000", "131631.960000", "131632.420000", "131632.880000", "131633.340000", "131633.800000", "131634.260000", "131634.720000", "131635.180000", "131635.640000", "131636.100000", "131636.560000", "131637.020000", "131637.480000", "131637.940000", "131638.400000", "131638.860000", "131639.320000", "131639.780000", "131640.240000", "131640.700000", "131641.160000", "131641.620000", "131642.080000", "131642.540000", "131643.000000", "131643.460000", "131643.920000", "131644.380000", "131644.840000", "131645.300000", "131645.760000", "131646.220000", "131646.680000", "131647.140000", "131647.600000", "131648.060000", "131648.520000", "131648.980000", "131649.440000", "131649.900000", "131650.360000", "131650.820000", "131651.280000", "131651.740000", "131652.200000", "131652.660000", "131653.120000", "131653.580000", "131654.040000", "131654.500000", "131654.960000", "131655.420000", "131655.880000", "131656.340000", "131656.800000", "131657.260000", "131657.720000", "131658.180000", "131658.640000", "131659.100000", "131659.560000", "131700.020000", "131700.480000", "131700.940000", "131701.400000", "131701.860000", "131702.320000", "131702.780000", "131703.240000", "131703.700000", "131704.160000", "131704.620000", "131705.080000", "131705.540000", "131706.000000", "131706.460000", "131706.920000", "131707.380000", "131707.840000", "131708.300000", "131708.760000", "131709.220000", "131709.680000", "131710.140000", "131710.600000", "131711.060000", "131711.520000", "131711.980000", "131712.440000", "131712.900000", "131713.360000", "131713.820000", "131714.280000", "131714.740000", "131715.200000", "131715.660000", "131716.120000", "131716.580000", "131717.040000", "131717.500000", "131717.960000", "131718.420000", "131718.880000", "131719.340000", "131719.800000", "131720.260000", "131720.720000", "131721.180000", "131721.640000", "131722.100000", "131722.560000", "131723.020000", "131723.480000", "131723.940000", "131724.400000", "131724.860000", "131725.320000", "131725.780000", "131726.240000", "131726.700000", "131727.160000", "131727.620000", "131728.080000", "131728.540000", "131729.000000", "131729.460000", "131729.920000", "131730.380000", "131730.840000", "131731.300000", "131731.760000", "131732.220000", "131732.680000", "131733.140000", "131733.600000", "131734.060000", "131734.520000", "131734.980000", "131735.440000", "131735.900000", "131736.360000", "131736.820000", "131737.280000", "131737.740000", "131738.200000", "131738.660000", "131739.120000", "131739.580000", "131740.040000", "131740.500000", "131740.960000", "131741.420000", "131741.880000", "131742.340000", "131742.800000", "131743.260000", "131743.720000", "131744.180000", "131744.640000", "131745.100000", "131745.560000", "131746.020000", "131746.480000", "131746.940000", "131747.400000", "131747.860000", "131748.320000", "131748.780000", "131749.240000", "131749.700000", "131750.160000", "131750.620000", "131751.080000", "131751.540000", "131752.000000", "131752.460000", "131752.920000", "131753.380000", "131753.840000", "131754.300000", "131754.760000", "131755.220000", "131755.680000", "131756.140000", "131756.600000", "131757.060000", "131757.520000", "131757.980000", "131758.440000", "131758.900000", "131759.360000", "131759.820000", "131800.280000", "131800.740000", "131801.200000", "131801.660000", "131802.120000", "131802.580000", "131803.040000", "131803.500000", "131803.960000", "131804.420000", "131804.880000", "131805.340000", "131805.800000", "131806.260000", "131806.720000", "131807.180000", "131807.640000", "131808.100000", "131808.560000", "131809.020000", "131809.480000", "131809.940000", "131810.400000", "131810.860000", "131811.320000", "131811.780000", "131812.240000", "131812.700000", "131813.160000", "131813.620000", "131814.080000", "131814.540000", "131815.000000", "131815.460000", "131815.920000", "131816.380000", "131816.840000", "131817.300000", "131817.760000", "131818.220000", "131818.680000", "131819.140000", "131819.600000", "131820.060000", "131820.520000", "131820.980000", "131821.440000", "131821.900000", "131822.360000", "131822.820000", "131823.280000", "131823.740000", "131824.200000", "131824.660000", "131825.120000", "131825.580000", "131826.040000", "131826.500000", "131826.960000", "131827.420000", "131827.880000", "131828.340000", "131828.800000", "131829.260000", "131829.720000", "131830.180000", "131830.640000", "131831.100000", "131831.560000", "131832.020000", "131832.480000", "131832.940000", "131833.400000", "131833.860000", "131834.320000", "131834.780000", "131835.240000", "131835.700000", "131836.160000", "131836.620000", "131837.080000", "131837.540000", "131838.000000", "131838.460000", "131838.920000", "131839.380000", "131839.840000", "131840.300000", "131840.760000", "131841.220000", "131841.680000", "131842.140000", "131842.600000", "131843.060000", "131843.520000", "131843.980000", "131844.440000", "131844.900000", "131845.360000", "131845.820000", "131846.280000", "131846.740000", "131847.200000", "131847.660000", "131848.120000", "131848.580000", "131849.040000", "131849.500000", "131849.960000", "131850.420000", "131850.880000", "131851.340000", "131851.800000", "131852.260000", "131852.720000", "131853.180000", "131853.640000", "131854.100000", "131854.560000", "131855.020000", "131855.480000", "131855.940000", "131856.400000", "131856.860000", "131857.320000", "131857.780000", "131858.240000", "131858.700000", "131859.160000", "131859.620000", "131900.080000", "131900.540000", "131901.000000", "131901.460000", "131901.920000", "131902.380000", "131902.840000", "131903.300000", "131903.760000", "131904.220000", "131904.680000", "131905.140000", "131905.600000", "131906.060000", "131906.520000", "131906.980000", "131907.440000", "131907.900000", "131908.360000", "131908.820000", "131909.280000", "131909.740000", "131910.200000", "131910.660000", "131911.120000", "131911.580000", "131912.040000", "131912.500000"],
