{
  "AcquisitionMatrixPE": 140,
  "AcquisitionNumber": 1,
  "AcquisitionTime": "20:45:38.062500",
  "BandwidthPerPixelPhaseEncode": 10.352,
  "BaseResolution": 140,
  "BodyPartExamined": "BRAIN",
  "ConsistencyInfo": "N4_VE11E_LATEST_20181129",
  "ConversionSoftware": "dcm2niix",
  "ConversionSoftwareVersion": "v1.0.20201102",
  "DerivedVendorReportedEchoSpacing": 0.000689998,
  "DeviceSerialNumber": "66112",
  "DiffusionScheme": "Monopolar",
  "DwellTime": 2.1e-06,
  "EchoTime": 0.0884,
  "EchoTrainLength": 105,
  "EffectiveEchoSpacing": 0.000689998,
  "FlipAngle": 90,
  "ImageComments": "Unaliased MB3/PE3 SENSE1",
  "ImageOrientationPatientDICOM": [0.999707, 0.0200659, 0.0135106, -0.0188463, 0.996199, -0.0850376],
  "ImageType": [
    "ORIGINAL",
    "PRIMARY",
    "DIFFUSION",
    "NONE",
    "MB",
    "ND",
    "MOSAIC"
],
  "ImagingFrequency": 123.252,
  "InPlanePhaseEncodingDirectionDICOM": "COL",
  "InstitutionAddress": "Maynard 3,Hanover,NH,US,03755",
  "InstitutionName": "Dartmouth College - PBS",
  "InstitutionalDepartmentName": "Department",
  "MRAcquisitionType": "2D",
  "MagneticFieldStrength": 3,
  "Manufacturer": "Siemens",
  "ManufacturersModelName": "Prisma",
  "Modality": "MR",
  "MultibandAccelerationFactor": 3,
  "PartialFourier": 0.75,
  "PatientPosition": "HFS",
  "PercentPhaseFOV": 100,
  "PercentSampling": 100,
  "PhaseEncodingDirection": "j-",
  "PhaseEncodingSteps": 105,
  "PhaseResolution": 1,
  "PixelBandwidth": 1700,
  "ProcedureStepDescription": "Wager_Wager^1076_spacetop",
  "ProtocolName": "dwi_acq-96dir-6b0-mb",
  "PulseSequenceDetails": "%CustomerSeq%\\cmrr_mbep2d_diff",
  "ReceiveCoilActiveElements": "HEA;HEP",
  "ReceiveCoilName": "Head_32",
  "ReconMatrixPE": 140,
  "RepetitionTime": 4.11,
  "SAR": 0.30926,
  "ScanOptions": "PFP\\FS",
  "ScanningSequence": "EP",
  "SequenceName": "ep_b5#1",
  "SequenceVariant": "SK\\SS",
  "SeriesDescription": "dwi_acq-96dir-6b0-mb",
  "SeriesNumber": 9,
  "ShimSetting": [4172, -7686, -7292, 532, -71, -168, -117, 60],
  "SliceThickness": 1.7,
  "SliceTiming": [0, 2.12, 0.15, 2.2725, 0.3025, 2.4225, 0.455, 2.575, 0.605, 2.7275, 0.7575, 2.8775, 0.9075, 3.03, 1.06, 3.18, 1.2125, 3.3325, 1.3625, 3.485, 1.515, 3.635, 1.665, 3.7875, 1.8175, 3.9375, 1.97, 0, 2.12, 0.15, 2.2725, 0.3025, 2.4225, 0.455, 2.575, 0.605, 2.7275, 0.7575, 2.8775, 0.9075, 3.03, 1.06, 3.18, 1.2125, 3.3325, 1.3625, 3.485, 1.515, 3.635, 1.665, 3.7875, 1.8175, 3.9375, 1.97, 0, 2.12, 0.15, 2.2725, 0.3025, 2.4225, 0.455, 2.575, 0.605, 2.7275, 0.7575, 2.8775, 0.9075, 3.03, 1.06, 3.18, 1.2125, 3.3325, 1.3625, 3.485, 1.515, 3.635, 1.665, 3.7875, 1.8175, 3.9375, 1.97],
  "SoftwareVersions": "syngo MR E11",
  "SpacingBetweenSlices": 1.7,
  "StationName": "AWP66112",
  "TotalReadoutTime": 0.0959097,
  "TxRefAmp": 274.136,
  "WipMemBlock": "fad536d6-ab1b-4482-895d-2edd09606fb1||Sequence: R016 ve11e/master r/434b28f1; Aug  7 2019 19:06:17 by eja",
  "dcmmeta_affine": [
    [-1.713784098625183, -0.03230792284011841, 0.025781581178307533, 124.04251098632812],
    [-0.03439876437187195, 1.707770586013794, -0.14408878982067108, -71.51107788085938],
    [0.023161068558692932, 0.14577877521514893, 1.6936864852905273, -86.73626708984375],
    [0.0, 0.0, 0.0, 1.0]
],
  "dcmmeta_reorient_transform": [
    [0.0, -1.0, 0.0, 139.0],
    [1.0, 0.0, 0.0, 0.0],
    [0.0, 0.0, 1.0, 0.0],
    [0.0, 0.0, 0.0, 1.0]
],
  "dcmmeta_shape": [140, 140, 81, 103],
  "dcmmeta_slice_dim": 2,
  "dcmmeta_version": 0.6,
  "global": {
    "const": {
      "AccessionNumber": "A004209",
      "AcquisitionMatrix": [140, 0, 0, 140],
      "AngioFlag": "N",
      "BitsAllocated": 16,
      "BitsStored": 16,
      "BodyPartExamined": "BRAIN",
      "Columns": 1260,
      "EchoNumbers": 1,
      "EchoTime": 88.4,
      "EchoTrainLength": 105,
      "FlipAngle": 90.0,
      "HighBit": 15,
      "ImageOrientationPatient": [0.99970736763192, 0.02006594532824, 0.01351062324806, -0.0188462882744, 0.99619948845114, -0.0850376188988],
      "ImagePositionPatient": [-1061.1783547687, -1141.4838584927, 2.192896914884],
      "ImageType": [
        "ORIGINAL",
        "PRIMARY",
        "DIFFUSION",
        "NONE",
        "MB",
        "ND",
        "MOSAIC"
],
      "ImagedNucleus": "1H",
      "ImagingFrequency": 123.252191,
      "InPlanePhaseEncodingDirection": "COL",
      "MRAcquisitionType": "2D",
      "MagneticFieldStrength": 3.0,
      "Manufacturer": "SIEMENS",
      "ManufacturerModelName": "Prisma",
      "Modality": "MR",
      "NumberOfAverages": 1.0,
      "NumberOfPhaseEncodingSteps": 105,
      "PercentPhaseFieldOfView": 100.0,
      "PercentSampling": 100.0,
      "PerformedProcedureStepStartTime": "202535.275000",
      "PhotometricInterpretation": "MONOCHROME2",
      "PixelBandwidth": 1700.0,
      "PixelRepresentation": 0,
      "PixelSpacing": [1.7142857313156, 1.7142857313156],
      "ProtocolName": "dwi_acq-96dir-6b0-mb",
      "RepetitionTime": 4110.0,
      "Rows": 1260,
      "SAR": 0.30926029725595,
      "SamplesPerPixel": 1,
      "ScanOptions": [
        "PFP",
        "FS"
],
      "ScanningSequence": "EP",
      "SequenceVariant": [
        "SK",
        "SS"
],
      "SeriesDescription": "dwi_acq-96dir-6b0-mb",
      "SeriesNumber": 9,
      "SeriesTime": "204711.871000",
      "SliceLocation": -78.471815697434,
      "SliceThickness": 1.7000000476837,
      "SmallestImagePixelValue": 0,
      "SoftwareVersions": "syngo MR E11",
      "SpacingBetweenSlices": 1.7000000055812,
      "SpecificCharacterSet": "ISO_IR 100",
      "StudyID": "2",
      "StudyTime": "202535.211000",
      "TransmitCoilName": "Body",
      "VariableFlipAngleFlag": "N",
      "WindowCenterWidthExplanation": "Algo1"
    },
    "slices": {}
  },
  "time": {
    "samples": {
      "AcquisitionNumber": [1, 2, 3, 4, 5, 6, 7, 8, 9, 10, 11, 12, 13, 14, 15, 16, 17, 18, 19, 20, 21, 22, 23, 24, 25, 26, 27, 28, 29, 30, 31, 32, 33, 34, 35, 36, 37, 38, 39, 40, 41, 42, 43, 44, 45, 46, 47, 48, 49, 50, 51, 52, 53, 54, 55, 56, 57, 58, 59, 60, 61, 62, 63, 64, 65, 66, 67, 68, 69, 70, 71, 72, 73, 74, 75, 76, 77, 78, 79, 80, 81, 82, 83, 84, 85, 86, 87, 88, 89, 90, 91, 92, 93, 94, 95, 96, 97, 98, 99, 100, 101, 102, 103],
      "AcquisitionTime": ["204538.062500", "204542.172500", "204546.282500", "204550.392500", "204554.502500", "204558.612500", "204602.722500", "204606.832500", "204610.942500", "204615.052500", "204619.162500", "204623.272500", "204627.382500", "204631.492500", "204635.602500", "204639.712500", "204643.822500", "204647.932500", "204652.042500", "204656.152500", "204700.262500", "204704.372500", "204708.482500", "204712.592500", "204716.702500", "204720.812500", "204724.922500", "204729.032500", "204733.142500", "204737.252500", "204741.362500", "204745.472500", "204749.582500", "204753.692500", "204757.802500", "204801.912500", "204806.022500", "204810.132500", "204814.242500", "204818.352500", "204822.462500", "204826.572500", "204830.682500", "204834.792500", "204838.902500", "204843.012500", "204847.122500", "204851.232500", "204855.342500", "204859.452500", "204903.562500", "204907.672500", "204911.782500", "204915.892500", "204920.002500", "204924.112500", "204928.222500", "204932.332500", "204936.442500", "204940.552500", "204944.662500", "204948.772500", "204952.882500", "204956.992500", "205001.102500", "205005.212500", "205009.322500", "205013.432500", "205017.542500", "205021.652500", "205025.762500", "205029.872500", "205033.982500", "205038.092500", "205042.202500", "205046.312500", "205050.422500", "205054.532500", "205058.642500", "205102.752500", "205106.862500", "205110.972500", "205115.082500", "205119.192500", "205123.302500", "205127.412500", "205131.522500", "205135.632500", "205139.742500", "205143.852500", "205147.962500", "205152.072500", "205156.182500", "205200.292500", "205204.402500", "205208.512500", "205212.622500", "205216.732500", "205220.842500", "205224.952500", "205229.062500", "205233.172500", "205237.282500"],
      "ContentTime": ["204711.875000", "204711.879000", "204711.882000", "204711.886000", "204711.889000", "204711.892000", "204711.904000", "204711.908000", "204711.911000", "204711.914000", "204711.917000", "204711.920000", "204711.928000", "204711.931000", "204711.934000", "204711.937000", "204711.940000", "204711.943000", "204711.946000", "204711.949000", "204711.952000", "204711.962000", "204831.870000", "204831.873000", "204831.876000", "204831.879000", "204831.883000", "204831.886000", "204831.889000", "204831.892000", "204831.895000", "204831.898000", "204831.901000", "204831.904000", "204831.907000", "204831.910000", "204831.913000", "204831.916000", "204831.919000", "204831.922000", "204831.925000", "204831.928000", "205011.876000", "205011.880000", "205011.883000", "205011.886000", "205011.889000", "205011.892000", "205011.895000", "205011.898000", "205011.901000", "205011.904000", "205011.907000", "205011.910000", "205011.913000", "205011.916000", "205011.919000", "205011.922000", "205011.925000", "205011.928000", "205011.931000", "205011.934000", "205011.937000", "205011.940000", "205011.943000", "205011.946000", "205151.870000", "205151.873000", "205151.876000", "205151.879000", "205151.882000", "205151.886000", "205151.889000", "205151.892000", "205151.895000", "205151.898000", "205151.901000", "205151.904000", "205151.907000", "205151.910000", "205151.913000", "205151.916000", "205151.919000", "205151.922000", "205151.926000", "205151.929000", "205151.932000", "205151.935000", "205151.938000", "205151.941000", "205211.870000", "205211.873000", "205211.876000", "205211.879000", "205211.883000", "205242.385000", "205242.388000", "205242.391000", "205242.394000", "205242.397000", "205242.401000", "205242.404000", "205242.407000"],
      "InstanceCreationTime": ["204711.875000", "204711.879000", "204711.882000", "204711.886000", "204711.889000", "204711.892000", "204711.904000", "204711.908000", "204711.911000", "204711.914000", "204711.917000", "204711.920000", "204711.928000", "204711.931000", "204711.934000", "204711.937000", "204711.940000", "204711.943000", "204711.946000", "204711.949000", "204711.952000", "204711.962000", "204831.870000", "204831.873000", "204831.876000", "204831.879000", "204831.883000", "204831.886000", "204831.889000", "204831.892000", "204831.895000", "204831.898000", "204831.901000", "204831.904000", "204831.907000", "204831.910000", "204831.913000", "204831.916000", "204831.919000", "204831.922000", "204831.925000", "204831.928000", "205011.876000", "205011.880000", "205011.883000", "205011.886000", "205011.889000", "205011.892000", "205011.895000", "205011.898000", "205011.901000", "205011.904000", "205011.907000", "205011.910000", "205011.913000", "205011.916000", "205011.919000", "205011.922000", "205011.925000", "205011.928000", "205011.931000", "205011.934000", "205011.937000", "205011.940000", "205011.943000", "205011.946000", "205151.870000", "205151.873000", "205151.876000", "205151.879000", "205151.882000", "205151.886000", "205151.889000", "205151.892000", "205151.895000", "205151.898000", "205151.901000", "205151.904000", "205151.907000", "205151.910000", "205151.913000", "205151.916000", "205151.919000", "205151.922000", "205151.926000", "205151.929000", "205151.932000", "205151.935000", "205151.938000", "205151.941000", "205211.870000", "205211.873000", "205211.876000", "205211.879000", "205211.883000", "205242.385000", "205242.388000", "205242.391000", "205242.394000", "205242.397000", "205242.401000", "205242.404000", "205242.407000"],
      "InstanceNumber": [1, 2, 3, 4, 5, 6, 7, 8, 9, 10, 11, 12, 13, 14, 15, 16, 17, 18, 19, 20, 21, 22, 23, 24, 25, 26, 27, 28, 29, 30, 31, 32, 33, 34, 35, 36, 37, 38, 39, 40, 41, 42, 43, 44, 45, 46, 47, 48, 49, 50, 51, 52, 53, 54, 55, 56, 57, 58, 59, 60, 61, 62, 63, 64, 65, 66, 67, 68, 69, 70, 71, 72, 73, 74, 75, 76, 77, 78, 79, 80, 81, 82, 83, 84, 85, 86, 87, 88, 89, 90, 91, 92, 93, 94, 95, 96, 97, 98, 99, 100, 101, 102, 103],
      "LargestImagePixelValue": [65535, 65535, 45948, 46990, 46798, 44359, 46809, 46166, 65535, 28702, 26600, 30848, 32051, 30706, 30391, 28783, 29936, 32051, 30549, 30058, 32761, 33356, 28860, 29867, 65535, 19877, 16920, 17331, 15966, 14483, 14455, 17082, 16696, 17042, 14478, 18200, 16677, 15687, 13212, 15886, 65535, 14790, 10989, 9462, 7991, 9533, 9323, 8988, 10627, 12714, 10749, 8483, 11189, 12412, 8305, 11278, 13391, 9595, 8330, 9229, 9948, 12569, 7754, 9764, 8787, 7391, 10011, 9049, 9219, 10389, 10932, 7660, 7851, 65535, 8181, 10292, 10304, 9758, 10347, 10355, 11143, 9845, 8424, 10808, 10635, 12116, 9339, 9693, 9212, 9782, 9541, 9131, 12108, 10335, 11984, 12415, 8783, 9398, 9150, 9529, 12421, 9545, 65535],
      "SequenceName": [
 "ep_b5#1",
 "ep_b5#1",
 "ep_b500#2",
 "ep_b495#3",
 "ep_b500#4",
 "ep_b505#5",
 "ep_b495#6",
 "ep_b500#7",
 "ep_b5#8",
 "ep_b1000#9",
 "ep_b1005#10",
 "ep_b995#11",
 "ep_b1005#12",
 "ep_b995#13",
 "ep_b995#14",
 "ep_b1005#15",
 "ep_b1000#16",
 "ep_b1005#17",
 "ep_b1000#18",
 "ep_b1000#19",
 "ep_b995#20",
 "ep_b1000#21",
 "ep_b1005#22",
 "ep_b1000#23",
 "ep_b5#24",
 "ep_b2000#25",
 "ep_b1995#26",
 "ep_b1990#27",
 "ep_b2000#28",
 "ep_b2005#29",
 "ep_b2010#30",
 "ep_b2000#31",
 "ep_b2010#32",
 "ep_b2000#33",
 "ep_b1995#34",
 "ep_b1995#35",
 "ep_b2005#36",
 "ep_b1995#37",
 "ep_b2005#38",
 "ep_b1995#39",
 "ep_b5#40",
 "ep_b3000#41",
 "ep_b3010#42",
 "ep_b3010#43",
 "ep_b3010#44",
 "ep_b3000#45",
 "ep_b3000#46",
 "ep_b2990#47",
 "ep_b3005#48",
 "ep_b3005#49",
 "ep_b2990#50",
 "ep_b2990#51",
 "ep_b2995#52",
 "ep_b2995#53",
 "ep_b3005#54",
 "ep_b3000#55",
 "ep_b2995#56",
 "ep_b2995#57",
 "ep_b2990#58",
 "ep_b2990#59",
 "ep_b3000#60",
 "ep_b2990#61",
 "ep_b2995#62",
 "ep_b3000#63",
 "ep_b3000#64",
 "ep_b3010#65",
 "ep_b2995#66",
 "ep_b3000#67",
 "ep_b3005#68",
 "ep_b3005#69",
 "ep_b3005#70",
 "ep_b3005#71",
 "ep_b2990#72",
 "ep_b5#73",
 "ep_b3010#74",
 "ep_b3005#75",
 "ep_b3005#76",
 "ep_b3000#77",
 "ep_b2990#78",
 "ep_b3005#79",
 "ep_b2995#80",
 "ep_b3010#81",
 "ep_b3005#82",
 "ep_b3005#83",
 "ep_b3000#84",
 "ep_b3000#85",
 "ep_b3010#86",
 "ep_b3010#87",
 "ep_b2990#88",
 "ep_b3010#89",
 "ep_b2995#90",
 "ep_b2995#91",
 "ep_b2990#92",
 "ep_b2995#93",
 "ep_b3005#94",
 "ep_b3005#95",
 "ep_b2995#96",
 "ep_b3000#97",
 "ep_b2990#98",
 "ep_b2995#99",
 "ep_b2995#100",
 "ep_b2995#101",
 "ep_b5#102"
],
      "WindowCenter": [10963.0, 10957.0, 7165.0, 7239.0, 7203.0, 7142.0, 7179.0, 7206.0, 10976.0, 5230.0, 5238.0, 5305.0, 5275.0, 5337.0, 5309.0, 5252.0, 5284.0, 5292.0, 5300.0, 5273.0, 5367.0, 5311.0, 5293.0, 5290.0, 11006.0, 3353.0, 3336.0, 3369.0, 3319.0, 3267.0, 3289.0, 3247.0, 3311.0, 3303.0, 3318.0, 3389.0, 3286.0, 3274.0, 3264.0, 3173.0, 10623.0, 2429.0, 2291.0, 2290.0, 2226.0, 2230.0, 2223.0, 2274.0, 2264.0, 2351.0, 2349.0, 2276.0, 2333.0, 2403.0, 2246.0, 2302.0, 2426.0, 2238.0, 2274.0, 2317.0, 2250.0, 2414.0, 2232.0, 2279.0, 2214.0, 2211.0, 2287.0, 2229.0, 2244.0, 2286.0, 2327.0, 2215.0, 2254.0, 10966.0, 2220.0, 2246.0, 2268.0, 2256.0, 2315.0, 2295.0, 2321.0, 2310.0, 2224.0, 2338.0, 2314.0, 2372.0, 2258.0, 2235.0, 2256.0, 2308.0, 2302.0, 2243.0, 2385.0, 2279.0, 2358.0, 2400.0, 2246.0, 2226.0, 2149.0, 2221.0, 2354.0, 2301.0, 10661.0],
      "WindowWidth": [24853.0, 24843.0, 15399.0, 15553.0, 15463.0, 15353.0, 15428.0, 15495.0, 24909.0, 11508.0, 11509.0, 11639.0, 11583.0, 11713.0, 11655.0, 11522.0, 11615.0, 11625.0, 11627.0, 11564.0, 11732.0, 11637.0, 11607.0, 11586.0, 24985.0, 7715.0, 7709.0, 7782.0, 7682.0, 7598.0, 7616.0, 7527.0, 7667.0, 7640.0, 7694.0, 7802.0, 7628.0, 7606.0, 7584.0, 7394.0, 23984.0, 5840.0, 5602.0, 5619.0, 5495.0, 5508.0, 5477.0, 5587.0, 5555.0, 5703.0, 5710.0, 5586.0, 5691.0, 5825.0, 5564.0, 5621.0, 5859.0, 5505.0, 5613.0, 5665.0, 5524.0, 5829.0, 5536.0, 5585.0, 5464.0, 5505.0, 5617.0, 5500.0, 5531.0, 5614.0, 5691.0, 5494.0, 5560.0, 24872.0, 5476.0, 5514.0, 5571.0, 5547.0, 5668.0, 5622.0, 5666.0, 5643.0, 5504.0, 5707.0, 5670.0, 5759.0, 5553.0, 5496.0, 5547.0, 5629.0, 5647.0, 5526.0, 5774.0, 5588.0, 5726.0, 5809.0, 5540.0, 5484.0, 5308.0, 5469.0, 5717.0, 5647.0, 23956.0]
    },
    "slices": {}
  }
}