{
  "AcquisitionMatrixPE": 82,
  "AcquisitionNumber": 1,
  "AcquisitionTime": "17:07:37.740000",
  "BandwidthPerPixelPhaseEncode": 24.888,
  "BaseResolution": 82,
  "BodyPartExamined": "BRAIN",
  "ConsistencyInfo": "N4_VE11E_LATEST_20181129",
  "ConversionSoftware": "dcm2niix",
  "ConversionSoftwareVersion": "v1.0.20201102",
  "DerivedVendorReportedEchoSpacing": 0.00049,
  "DeviceSerialNumber": "66112",
  "DwellTime": 2e-06,
  "EchoTime": 0.0272,
  "EchoTrainLength": 82,
  "EffectiveEchoSpacing": 0.00049,
  "FlipAngle": 44,
  "ImageComments": "Unaliased MB8/PE3",
  "ImageOrientationPatientDICOM": [0.996525, -0.0408717, -0.0725763, 0.0503074, 0.989791, 0.133351],
  "ImageType": [
    "ORIGINAL",
    "PRIMARY",
    "M",
    "MB",
    "ND",
    "NORM",
    "MOSAIC"
],
  "ImagingFrequency": 123.259,
  "InPlanePhaseEncodingDirectionDICOM": "COL",
  "InstitutionAddress": "Maynard 3,Hanover,NH,US,03755",
  "InstitutionName": "Dartmouth College - PBS",
  "InstitutionalDepartmentName": "Department",
  "MRAcquisitionType": "2D",
  "MagneticFieldStrength": 3,
  "Manufacturer": "Siemens",
  "ManufacturersModelName": "Prisma",
  "Modality": "MR",
  "MultibandAccelerationFactor": 8,
  "PartialFourier": 1,
  "PatientPosition": "HFS",
  "PercentPhaseFOV": 100,
  "PercentSampling": 100,
  "PhaseEncodingDirection": "j-",
  "PhaseEncodingSteps": 82,
  "PhaseResolution": 1,
  "PixelBandwidth": 3050,
  "ProcedureStepDescription": "Wager_Wager^1076_spacetop",
  "ProtocolName": "func_run-03_task-social_acq-ap-mb8",
  "PulseSequenceDetails": "%CustomerSeq%\\cmrr_mbep2d_bold",
  "ReceiveCoilActiveElements": "HEA;HEP",
  "ReceiveCoilName": "Head_32",
  "ReconMatrixPE": 82,
  "RepetitionTime": 0.46,
  "SAR": 0.115212,
  "ScanOptions": "FS",
  "ScanningSequence": "EP",
  "SequenceName": "epfid2d1_82",
  "SequenceVariant": "SK\\SS",
  "SeriesDescription": "func_run-03_task-social_acq-ap-mb8",
  "SeriesNumber": 16,
  "ShimSetting": [4206, -7806, -7202, 342, -101, -158, -2, 119],
  "SliceThickness": 2.7,
  "SliceTiming": [0, 0.25, 0.0625, 0.315, 0.125, 0.3775, 0.1875, 0, 0.25, 0.0625, 0.315, 0.125, 0.3775, 0.1875, 0, 0.25, 0.0625, 0.315, 0.125, 0.3775, 0.1875, 0, 0.25, 0.0625, 0.315, 0.125, 0.3775, 0.1875, 0, 0.25, 0.0625, 0.315, 0.125, 0.3775, 0.1875, 0, 0.25, 0.0625, 0.315, 0.125, 0.3775, 0.1875, 0, 0.25, 0.0625, 0.315, 0.125, 0.3775, 0.1875, 0, 0.25, 0.0625, 0.315, 0.125, 0.3775, 0.1875],
  "SoftwareVersions": "syngo MR E11",
  "SpacingBetweenSlices": 2.7,
  "StationName": "AWP66112",
  "TaskName": "social",
  "TotalReadoutTime": 0.03969,
  "TxRefAmp": 266.038,
  "WipMemBlock": "e3b9ca25-c1b0-47e3-96c5-0071e8816866||Sequence: R016 ve11e/master r/434b28f1; Aug  7 2019 18:53:46 by eja",
  "dcmmeta_affine": [
    [-2.6736037731170654, 0.13497112691402435, -0.17923983931541443, 113.60630798339844],
    [0.10965587943792343, 2.6555376052856445, 0.3686542212963104, -106.09335327148438],
    [-0.19471697509288788, -0.3577706217765808, 2.668701410293579, -42.06920623779297],
    [0.0, 0.0, 0.0, 1.0]
],
  "dcmmeta_reorient_transform": [
    [0.0, -1.0, 0.0, 81.0],
    [1.0, 0.0, 0.0, 0.0],
    [0.0, 0.0, 1.0, 0.0],
    [0.0, 0.0, 0.0, 1.0]
],
  "dcmmeta_shape": [82, 82, 56, 872],
  "dcmmeta_slice_dim": 2,
  "dcmmeta_version": 0.6,
  "global": {
    "const": {
      "AccessionNumber": "A004367",
      "AcquisitionMatrix": [82, 0, 0, 82],
      "AngioFlag": "N",
      "BitsAllocated": 16,
      "BitsStored": 16,
      "BodyPartExamined": "BRAIN",
      "Columns": 656,
      "EchoNumbers": 1,
      "EchoTime": 27.2,
      "EchoTrainLength": 82,
      "FlipAngle": 44.0,
      "HighBit": 15,
      "ImageOrientationPatient": [0.99652505160363, -0.0408717361003, -0.0725763233744, 0.05030741811105, 0.98979124524781, 0.13335086994017],
      "ImagePositionPatient": [-930.59999307845, -839.67322427106, -117.84502846149],
      "ImageType": [
        "ORIGINAL",
        "PRIMARY",
        "M",
        "MB",
        "ND",
        "NORM",
        "MOSAIC"
],
      "ImagedNucleus": "1H",
      "ImagingFrequency": 123.25908,
      "InPlanePhaseEncodingDirection": "COL",
      "MRAcquisitionType": "2D",
      "MagneticFieldStrength": 3.0,
      "Manufacturer": "SIEMENS",
      "ManufacturerModelName": "Prisma",
      "Modality": "MR",
      "NumberOfAverages": 1.0,
      "NumberOfPhaseEncodingSteps": 82,
      "PercentPhaseFieldOfView": 100.0,
      "PercentSampling": 100.0,
      "PerformedProcedureStepStartTime": "162534.667000",
      "PhotometricInterpretation": "MONOCHROME2",
      "PixelBandwidth": 3050.0,
      "PixelRepresentation": 0,
      "PixelSpacing": [2.6829268932343, 2.6829268932343],
      "ProtocolName": "func_run-03_task-social_acq-ap-mb8",
      "RepetitionTime": 460.0,
      "Rows": 656,
      "SAR": 0.1152117844682,
      "SamplesPerPixel": 1,
      "ScanOptions": "FS",
      "ScanningSequence": "EP",
      "SequenceName": "epfid2d1_82",
      "SequenceVariant": [
        "SK",
        "SS"
],
      "SeriesDescription": "func_run-03_task-social_acq-ap-mb8",
      "SeriesNumber": 16,
      "SeriesTime": "170753.071000",
      "SliceLocation": -63.609144543871,
      "SliceThickness": 2.7000000476837,
      "SmallestImagePixelValue": 0,
      "SoftwareVersions": "syngo MR E11",
      "SpacingBetweenSlices": 2.6999999198573,
      "SpecificCharacterSet": "ISO_IR 100",
      "StudyID": "1",
      "StudyTime": "162534.600000",
      "TransmitCoilName": "Body",
      "VariableFlipAngleFlag": "N",
      "WindowCenterWidthExplanation": "Algo1"
    },
    "slices": {}
  },
  "time": {
    "samples": {
      "AcquisitionNumber": [1, 2, 3, 4, 5, 6, 7, 8, 9, 10, 11, 12, 13, 14, 15, 16, 17, 18, 19, 20, 21, 22, 23, 24, 25, 26, 27, 28, 29, 30, 31, 32, 33, 34, 35, 36, 37, 38, 39, 40, 41, 42, 43, 44, 45, 46, 47, 48, 49, 50, 51, 52, 53, 54, 55, 56, 57, 58, 59, 60, 61, 62, 63, 64, 65, 66, 67, 68, 69, 70, 71, 72, 73, 74, 75, 76, 77, 78, 79, 80, 81, 82, 83, 84, 85, 86, 87, 88, 89, 90, 91, 92, 93, 94, 95, 96, 97, 98, 99, 100, 101, 102, 103, 104, 105, 106, 107, 108, 109, 110, 111, 112, 113, 114, 115, 116, 117, 118, 119, 120, 121, 122, 123, 124, 125, 126, 127, 128, 129, 130, 131, 132, 133, 134, 135, 136, 137, 138, 139, 140, 141, 142, 143, 144, 145, 146, 147, 148, 149, 150, 151, 152, 153, 154, 155, 156, 157, 158, 159, 160, 161, 162, 163, 164, 165, 166, 167, 168, 169, 170, 171, 172, 173, 174, 175, 176, 177, 178, 179, 180, 181, 182, 183, 184, 185, 186, 187, 188, 189, 190, 191, 192, 193, 194, 195, 196, 197, 198, 199, 200, 201, 202, 203, 204, 205, 206, 207, 208, 209, 210, 211, 212, 213, 214, 215, 216, 217, 218, 219, 220, 221, 222, 223, 224, 225, 226, 227, 228, 229, 230, 231, 232, 233, 234, 235, 236, 237, 238, 239, 240, 241, 242, 243, 244, 245, 246, 247, 248, 249, 250, 251, 252, 253, 254, 255, 256, 257, 258, 259, 260, 261, 262, 263, 264, 265, 266, 267, 268, 269, 270, 271, 272, 273, 274, 275, 276, 277, 278, 279, 280, 281, 282, 283, 284, 285, 286, 287, 288, 289, 290, 291, 292, 293, 294, 295, 296, 297, 298, 299, 300, 301, 302, 303, 304, 305, 306, 307, 308, 309, 310, 311, 312, 313, 314, 315, 316, 317, 318, 319, 320, 321, 322, 323, 324, 325, 326, 327, 328, 329, 330, 331, 332, 333, 334, 335, 336, 337, 338, 339, 340, 341, 342, 343, 344, 345, 346, 347, 348, 349, 350, 351, 352, 353, 354, 355, 356, 357, 358, 359, 360, 361, 362, 363, 364, 365, 366, 367, 368, 369, 370, 371, 372, 373, 374, 375, 376, 377, 378, 379, 380, 381, 382, 383, 384, 385, 386, 387, 388, 389, 390, 391, 392, 393, 394, 395, 396, 397, 398, 399, 400, 401, 402, 403, 404, 405, 406, 407, 408, 409, 410, 411, 412, 413, 414, 415, 416, 417, 418, 419, 420, 421, 422, 423, 424, 425, 426, 427, 428, 429, 430, 431, 432, 433, 434, 435, 436, 437, 438, 439, 440, 441, 442, 443, 444, 445, 446, 447, 448, 449, 450, 451, 452, 453, 454, 455, 456, 457, 458, 459, 460, 461, 462, 463, 464, 465, 466, 467, 468, 469, 470, 471, 472, 473, 474, 475, 476, 477, 478, 479, 480, 481, 482, 483, 484, 485, 486, 487, 488, 489, 490, 491, 492, 493, 494, 495, 496, 497, 498, 499, 500, 501, 502, 503, 504, 505, 506, 507, 508, 509, 510, 511, 512, 513, 514, 515, 516, 517, 518, 519, 520, 521, 522, 523, 524, 525, 526, 527, 528, 529, 530, 531, 532, 533, 534, 535, 536, 537, 538, 539, 540, 541, 542, 543, 544, 545, 546, 547, 548, 549, 550, 551, 552, 553, 554, 555, 556, 557, 558, 559, 560, 561, 562, 563, 564, 565, 566, 567, 568, 569, 570, 571, 572, 573, 574, 575, 576, 577, 578, 579, 580, 581, 582, 583, 584, 585, 586, 587, 588, 589, 590, 591, 592, 593, 594, 595, 596, 597, 598, 599, 600, 601, 602, 603, 604, 605, 606, 607, 608, 609, 610, 611, 612, 613, 614, 615, 616, 617, 618, 619, 620, 621, 622, 623, 624, 625, 626, 627, 628, 629, 630, 631, 632, 633, 634, 635, 636, 637, 638, 639, 640, 641, 642, 643, 644, 645, 646, 647, 648, 649, 650, 651, 652, 653, 654, 655, 656, 657, 658, 659, 660, 661, 662, 663, 664, 665, 666, 667, 668, 669, 670, 671, 672, 673, 674, 675, 676, 677, 678, 679, 680, 681, 682, 683, 684, 685, 686, 687, 688, 689, 690, 691, 692, 693, 694, 695, 696, 697, 698, 699, 700, 701, 702, 703, 704, 705, 706, 707, 708, 709, 710, 711, 712, 713, 714, 715, 716, 717, 718, 719, 720, 721, 722, 723, 724, 725, 726, 727, 728, 729, 730, 731, 732, 733, 734, 735, 736, 737, 738, 739, 740, 741, 742, 743, 744, 745, 746, 747, 748, 749, 750, 751, 752, 753, 754, 755, 756, 757, 758, 759, 760, 761, 762, 763, 764, 765, 766, 767, 768, 769, 770, 771, 772, 773, 774, 775, 776, 777, 778, 779, 780, 781, 782, 783, 784, 785, 786, 787, 788, 789, 790, 791, 792, 793, 794, 795, 796, 797, 798, 799, 800, 801, 802, 803, 804, 805, 806, 807, 808, 809, 810, 811, 812, 813, 814, 815, 816, 817, 818, 819, 820, 821, 822, 823, 824, 825, 826, 827, 828, 829, 830, 831, 832, 833, 834, 835, 836, 837, 838, 839, 840, 841, 842, 843, 844, 845, 846, 847, 848, 849, 850, 851, 852, 853, 854, 855, 856, 857, 858, 859, 860, 861, 862, 863, 864, 865, 866, 867, 868, 869, 870, 871, 872],
      "AcquisitionTime": ["170737.740000", "170738.200000", "170738.660000", "170739.120000", "170739.580000", "170740.040000", "170740.500000", "170740.960000", "170741.420000", "170741.880000", "170742.340000", "170742.800000", "170743.260000", "170743.720000", "170744.180000", "170744.640000", "170745.100000", "170745.560000", "170746.020000", "170746.480000", "170746.940000", "170747.400000", "170747.860000", "170748.320000", "170748.780000", "170749.240000", "170749.700000", "170750.160000", "170750.620000", "170751.080000", "170751.540000", "170752.000000", "170752.460000", "170752.920000", "170753.380000", "170753.840000", "170754.300000", "170754.760000", "170755.220000", "170755.680000", "170756.140000", "170756.600000", "170757.060000", "170757.520000", "170757.980000", "170758.440000", "170758.900000", "170759.360000", "170759.820000", "170800.280000", "170800.740000", "170801.200000", "170801.660000", "170802.120000", "170802.580000", "170803.040000", "170803.500000", "170803.960000", "170804.420000", "170804.880000", "170805.340000", "170805.800000", "170806.260000", "170806.720000", "170807.180000", "170807.640000", "170808.100000", "170808.560000", "170809.020000", "170809.480000", "170809.940000", "170810.400000", "170810.860000", "170811.320000", "170811.780000", "170812.240000", "170812.700000", "170813.160000", "170813.620000", "170814.080000", "170814.540000", "170815.000000", "170815.460000", "170815.920000", "170816.380000", "170816.840000", "170817.300000", "170817.760000", "170818.220000", "170818.680000", "170819.140000", "170819.600000", "170820.060000", "170820.520000", "170820.980000", "170821.440000", "170821.900000", "170822.360000", "170822.820000", "170823.280000", "170823.740000", "170824.200000", "170824.660000", "170825.120000", "170825.580000", "170826.040000", "170826.500000", "170826.960000", "170827.420000", "170827.880000", "170828.340000", "170828.800000", "170829.260000", "170829.720000", "170830.180000", "170830.640000", "170831.100000", "170831.560000", "170832.020000", "170832.480000", "170832.940000", "170833.400000", "170833.860000", "170834.320000", "170834.780000", "170835.240000", "170835.700000", "170836.160000", "170836.620000", "170837.080000", "170837.540000", "170838.000000", "170838.460000", "170838.920000", "170839.380000", "170839.840000", "170840.300000", "170840.760000", "170841.220000", "170841.680000", "170842.140000", "170842.600000", "170843.060000", "170843.520000", "170843.980000", "170844.440000", "170844.900000", "170845.360000", "170845.820000", "170846.280000", "170846.740000", "170847.200000", "170847.660000", "170848.120000", "170848.580000", "170849.040000", "170849.500000", "170849.960000", "170850.420000", "170850.880000", "170851.340000", "170851.800000", "170852.260000", "170852.720000", "170853.180000", "170853.640000", "170854.100000", "170854.560000", "170855.020000", "170855.480000", "170855.940000", "170856.400000", "170856.860000", "170857.320000", "170857.780000", "170858.240000", "170858.700000", "170859.160000", "170859.620000", "170900.080000", "170900.540000", "170901.000000", "170901.460000", "170901.920000", "170902.380000", "170902.840000", "170903.300000", "170903.760000", "170904.220000", "170904.680000", "170905.140000", "170905.600000", "170906.060000", "170906.520000", "170906.980000", "170907.440000", "170907.900000", "170908.360000", "170908.820000", "170909.280000", "170909.740000", "170910.200000", "170910.660000", "170911.120000", "170911.580000", "170912.040000", "170912.500000", "170912.960000", "170913.420000", "170913.880000", "170914.340000", "170914.800000", "170915.260000", "170915.720000", "170916.180000", "170916.640000", "170917.100000", "170917.560000", "170918.020000", "170918.480000", "170918.940000", "170919.400000", "170919.860000", "170920.320000", "170920.780000", "170921.240000", "170921.700000", "170922.160000", "170922.620000", "170923.080000", "170923.540000", "170924.000000", "170924.460000", "170924.920000", "170925.380000", "170925.840000", "170926.300000", "170926.760000", "170927.220000", "170927.680000", "170928.140000", "170928.600000", "170929.060000", "170929.520000", "170929.980000", "170930.440000", "170930.900000", "170931.360000", "170931.820000", "170932.280000", "170932.740000", "170933.200000", "170933.660000", "170934.120000", "170934.580000", "170935.040000", "170935.500000", "170935.960000", "170936.420000", "170936.880000", "170937.340000", "170937.800000", "170938.260000", "170938.720000", "170939.180000", "170939.640000", "170940.100000", "170940.560000", "170941.020000", "170941.480000", "170941.940000", "170942.400000", "170942.860000", "170943.320000", "170943.780000", "170944.240000", "170944.700000", "170945.160000", "170945.620000", "170946.080000", "170946.540000", "170947.000000", "170947.460000", "170947.920000", "170948.380000", "170948.840000", "170949.300000", "170949.760000", "170950.220000", "170950.680000", "170951.140000", "170951.600000", "170952.060000", "170952.520000", "170952.980000", "170953.440000", "170953.900000", "170954.360000", "170954.820000", "170955.280000", "170955.740000", "170956.200000", "170956.660000", "170957.120000", "170957.580000", "170958.040000", "170958.500000", "170958.960000", "170959.420000", "170959.880000", "171000.340000", "171000.800000", "171001.260000", "171001.720000", "171002.180000", "171002.640000", "171003.100000", "171003.560000", "171004.020000", "171004.480000", "171004.940000", "171005.400000", "171005.860000", "171006.320000", "171006.780000", "171007.240000", "171007.700000", "171008.160000", "171008.620000", "171009.080000", "171009.540000", "171010.000000", "171010.460000", "171010.920000", "171011.380000", "171011.840000", "171012.300000", "171012.760000", "171013.220000", "171013.680000", "171014.140000", "171014.600000", "171015.060000", "171015.520000", "171015.980000", "171016.440000", "171016.900000", "171017.360000", "171017.820000", "171018.280000", "171018.740000", "171019.200000", "171019.660000", "171020.120000", "171020.580000", "171021.040000", "171021.500000", "171021.960000", "171022.420000", "171022.880000", "171023.340000", "171023.800000", "171024.260000", "171024.720000", "171025.180000", "171025.640000", "171026.100000", "171026.560000", "171027.020000", "171027.480000", "171027.940000", "171028.400000", "171028.860000", "171029.320000", "171029.780000", "171030.240000", "171030.700000", "171031.160000", "171031.620000", "171032.080000", "171032.540000", "171033.000000", "171033.460000", "171033.920000", "171034.380000", "171034.840000", "171035.300000", "171035.760000", "171036.220000", "171036.680000", "171037.140000", "171037.600000", "171038.060000", "171038.520000", "171038.980000", "171039.440000", "171039.900000", "171040.360000", "171040.820000", "171041.280000", "171041.740000", "171042.200000", "171042.660000", "171043.120000", "171043.580000", "171044.040000", "171044.500000", "171044.960000", "171045.420000", "171045.880000", "171046.340000", "171046.800000", "171047.260000", "171047.720000", "171048.180000", "171048.640000", "171049.100000", "171049.560000", "171050.020000", "171050.480000", "171050.940000", "171051.400000", "171051.860000", "171052.320000", "171052.780000", "171053.240000", "171053.700000", "171054.160000", "171054.620000", "171055.080000", "171055.540000", "171056.000000", "171056.460000", "171056.920000", "171057.380000", "171057.840000", "171058.300000", "171058.760000", "171059.220000", "171059.680000", "171100.140000", "171100.600000", "171101.060000", "171101.520000", "171101.980000", "171102.440000", "171102.900000", "171103.360000", "171103.820000", "171104.280000", "171104.740000", "171105.200000", "171105.660000", "171106.120000", "171106.580000", "171107.040000", "171107.500000", "171107.960000", "171108.420000", "171108.880000", "171109.340000", "171109.800000", "171110.260000", "171110.720000", "171111.180000", "171111.640000", "171112.100000", "171112.560000", "171113.020000", "171113.480000", "171113.940000", "171114.400000", "171114.860000", "171115.320000", "171115.780000", "171116.240000", "171116.700000", "171117.160000", "171117.620000", "171118.080000", "171118.540000", "171119.000000", "171119.460000", "171119.920000", "171120.380000", "171120.840000", "171121.300000", "171121.760000", "171122.220000", "171122.680000", "171123.140000", "171123.600000", "171124.060000", "171124.520000", "171124.980000", "171125.440000", "171125.900000", "171126.360000", "171126.820000", "171127.280000", "171127.740000", "171128.200000", "171128.660000", "171129.120000", "171129.580000", "171130.040000", "171130.500000", "171130.960000", "171131.420000", "171131.880000", "171132.340000", "171132.800000", "171133.260000", "171133.720000", "171134.180000", "171134.640000", "171135.100000", "171135.560000", "171136.020000", "171136.480000", "171136.940000", "171137.400000", "171137.860000", "171138.320000", "171138.780000", "171139.240000", "171139.700000", "171140.160000", "171140.620000", "171141.080000", "171141.540000", "171142.000000", "171142.460000", "171142.920000", "171143.380000", "171143.840000", "171144.300000", "171144.760000", "171145.220000", "171145.680000", "171146.140000", "171146.600000", "171147.060000", "171147.520000", "171147.980000", "171148.440000", "171148.900000", "171149.360000", "171149.820000", "171150.280000", "171150.740000", "171151.200000", "171151.660000", "171152.120000", "171152.580000", "171153.040000", "171153.500000", "171153.960000", "171154.420000", "171154.880000", "171155.340000", "171155.800000", "171156.260000", "171156.720000", "171157.180000", "171157.640000", "171158.100000", "171158.560000", "171159.020000", "171159.480000", "171159.940000", "171200.400000", "171200.860000", "171201.320000", "171201.780000", "171202.240000", "171202.700000", "171203.160000", "171203.620000", "171204.080000", "171204.540000", "171205.000000", "171205.460000", "171205.920000", "171206.380000", "171206.840000", "171207.300000", "171207.760000", "171208.220000", "171208.680000", "171209.140000", "171209.600000", "171210.060000", "171210.520000", "171210.980000", "171211.440000", "171211.900000", "171212.360000", "171212.820000", "171213.280000", "171213.740000", "171214.200000", "171214.660000", "171215.120000", "171215.580000", "171216.040000", "171216.500000", "171216.960000", "171217.420000", "171217.880000", "171218.340000", "171218.800000", "171219.260000", "171219.720000", "171220.180000", "171220.640000", "171221.100000", "171221.560000", "171222.020000", "171222.480000", "171222.940000", "171223.400000", "171223.860000", "171224.320000", "171224.780000", "171225.240000", "171225.700000", "171226.160000", "171226.620000", "171227.080000", "171227.540000", "171228.000000", "171228.460000", "171228.920000", "171229.380000", "171229.840000", "171230.300000", "171230.760000", "171231.220000", "171231.680000", "171232.140000", "171232.600000", "171233.060000", "171233.520000", "171233.980000", "171234.440000", "171234.900000", "171235.360000", "171235.820000", "171236.280000", "171236.740000", "171237.200000", "171237.660000", "171238.120000", "171238.580000", "171239.040000", "171239.500000", "171239.960000", "171240.420000", "171240.880000", "171241.340000", "171241.800000", "171242.260000", "171242.720000", "171243.180000", "171243.640000", "171244.100000", "171244.560000", "171245.020000", "171245.480000", "171245.940000", "171246.400000", "171246.860000", "171247.320000", "171247.780000", "171248.240000", "171248.700000", "171249.160000", "171249.620000", "171250.080000", "171250.540000", "171251.000000", "171251.460000", "171251.920000", "171252.380000", "171252.840000", "171253.300000", "171253.760000", "171254.220000", "171254.680000", "171255.140000", "171255.600000", "171256.060000", "171256.520000", "171256.980000", "171257.440000", "171257.900000", "171258.360000", "171258.820000", "171259.280000", "171259.740000", "171300.200000", "171300.660000", "171301.120000", "171301.580000", "171302.040000", "171302.500000", "171302.960000", "171303.420000", "171303.880000", "171304.340000", "171304.800000", "171305.260000", "171305.720000", "171306.180000", "171306.640000", "171307.100000", "171307.560000", "171308.020000", "171308.480000", "171308.940000", "171309.400000", "171309.860000", "171310.320000", "171310.780000", "171311.240000", "171311.700000", "171312.160000", "171312.620000", "171313.080000", "171313.540000", "171314.000000", "171314.460000", "171314.920000", "171315.380000", "171315.840000", "171316.300000", "171316.760000", "171317.220000", "171317.680000", "171318.140000", "171318.600000", "171319.060000", "171319.520000", "171319.980000", "171320.440000", "171320.900000", "171321.360000", "171321.820000", "171322.280000", "171322.740000", "171323.200000", "171323.660000", "171324.120000", "171324.580000", "171325.040000", "171325.500000", "171325.960000", "171326.420000", "171326.880000", "171327.340000", "171327.800000", "171328.260000", "171328.720000", "171329.180000", "171329.640000", "171330.100000", "171330.560000", "171331.020000", "171331.480000", "171331.940000", "171332.400000", "171332.860000", "171333.320000", "171333.780000", "171334.240000", "171334.700000", "171335.160000", "171335.620000", "171336.080000", "171336.540000", "171337.000000", "171337.460000", "171337.920000", "171338.380000", "171338.840000", "171339.300000", "171339.760000", "171340.220000", "171340.680000", "171341.140000", "171341.600000", "171342.060000", "171342.520000", "171342.980000", "171343.440000", "171343.900000", "171344.360000", "171344.820000", "171345.280000", "171345.740000", "171346.200000", "171346.660000", "171347.120000", "171347.580000", "171348.040000", "171348.500000", "171348.960000", "171349.420000", "171349.880000", "171350.340000", "171350.800000", "171351.260000", "171351.720000", "171352.180000", "171352.640000", "171353.100000", "171353.560000", "171354.020000", "171354.480000", "171354.940000", "171355.400000", "171355.860000", "171356.320000", "171356.780000", "171357.240000", "171357.700000", "171358.160000", "171358.620000", "171359.080000", "171359.540000", "171400.000000", "171400.460000", "171400.920000", "171401.380000", "171401.840000", "171402.300000", "171402.760000", "171403.220000", "171403.680000", "171404.140000", "171404.600000", "171405.060000", "171405.520000", "171405.980000", "171406.440000", "171406.900000", "171407.360000", "171407.820000", "171408.280000", "171408.740000", "171409.200000", "171409.660000", "171410.120000", "171410.580000", "171411.040000", "171411.500000", "171411.960000", "171412.420000", "171412.880000", "171413.340000", "171413.800000", "171414.260000", "171414.720000", "171415.180000", "171415.640000", "171416.100000", "171416.560000", "171417.020000", "171417.480000", "171417.940000", "171418.400000"],
