{
  "AcquisitionMatrixPE": 82,
  "AcquisitionNumber": 1,
  "AcquisitionTime": "17:59:50.270000",
  "BandwidthPerPixelPhaseEncode": 24.888,
  "BaseResolution": 82,
  "BodyPartExamined": "BRAIN",
  "ConsistencyInfo": "N4_VE11E_LATEST_20181129",
  "ConversionSoftware": "dcm2niix",
  "ConversionSoftwareVersion": "v1.0.20201102",
  "DerivedVendorReportedEchoSpacing": 0.00049,
  "DeviceSerialNumber": "66112",
  "DwellTime": 2e-06,
  "EchoTime": 0.0272,
  "EchoTrainLength": 82,
  "EffectiveEchoSpacing": 0.00049,
  "FlipAngle": 44,
  "ImageComments": "Unaliased MB8/PE3",
  "ImageOrientationPatientDICOM": [0.999554, -0.0237076, -0.0181688, 0.0272218, 0.97341, 0.227447],
  "ImageType": [
    "ORIGINAL",
    "PRIMARY",
    "M",
    "MB",
    "ND",
    "NORM",
    "MOSAIC"
],
  "ImagingFrequency": 123.259,
  "InPlanePhaseEncodingDirectionDICOM": "COL",
  "InstitutionAddress": "Maynard 3,Hanover,NH,US,03755",
  "InstitutionName": "Dartmouth College - PBS",
  "InstitutionalDepartmentName": "Department",
  "MRAcquisitionType": "2D",
  "MagneticFieldStrength": 3,
  "Manufacturer": "Siemens",
  "ManufacturersModelName": "Prisma",
  "Modality": "MR",
  "MultibandAccelerationFactor": 8,
  "PartialFourier": 1,
  "PatientPosition": "HFS",
  "PercentPhaseFOV": 100,
  "PercentSampling": 100,
  "PhaseEncodingDirection": "j-",
  "PhaseEncodingSteps": 82,
  "PhaseResolution": 1,
  "PixelBandwidth": 3050,
  "ProcedureStepDescription": "Wager_Wager^1076_spacetop",
  "ProtocolName": "func_run-03_task-alignvideo_acq-ap-mb8",
  "PulseSequenceDetails": "%CustomerSeq%\\cmrr_mbep2d_bold",
  "ReceiveCoilActiveElements": "HEA;HEP",
  "ReceiveCoilName": "Head_32",
  "ReconMatrixPE": 82,
  "RepetitionTime": 0.46,
  "SAR": 0.115313,
  "ScanOptions": "FS",
  "ScanningSequence": "EP",
  "SequenceName": "epfid2d1_82",
  "SequenceVariant": "SK\\SS",
  "SeriesDescription": "func_run-03_task-alignvideo_acq-ap-mb8",
  "SeriesNumber": 34,
  "ShimSetting": [4207, -7806, -7207, 329, -95, -158, -1, 122],
  "SliceThickness": 2.7,
  "SliceTiming": [0, 0.2525, 0.0625, 0.315, 0.125, 0.3775, 0.1875, 0, 0.2525, 0.0625, 0.315, 0.125, 0.3775, 0.1875, 0, 0.2525, 0.0625, 0.315, 0.125, 0.3775, 0.1875, 0, 0.2525, 0.0625, 0.315, 0.125, 0.3775, 0.1875, 0, 0.2525, 0.0625, 0.315, 0.125, 0.3775, 0.1875, 0, 0.2525, 0.0625, 0.315, 0.125, 0.3775, 0.1875, 0, 0.2525, 0.0625, 0.315, 0.125, 0.3775, 0.1875, 0, 0.2525, 0.0625, 0.315, 0.125, 0.3775, 0.1875],
  "SoftwareVersions": "syngo MR E11",
  "SpacingBetweenSlices": 2.7,
  "StationName": "AWP66112",
  "TaskName": "alignvideo",
  "TotalReadoutTime": 0.03969,
  "TxRefAmp": 266.038,
  "WipMemBlock": "00969966-c1af-4df5-954f-5db67fba6189||Sequence: R016 ve11e/master r/434b28f1; Aug  7 2019 18:53:46 by eja",
  "dcmmeta_affine": [
    [-2.681729793548584, 0.07303398102521896, -0.03319227695465088, 112.9112548828125],
    [0.06360567361116409, 2.6115877628326416, 0.6151680946350098, -109.0362548828125],
    [-0.04874545335769653, -0.6102235317230225, 2.6287765502929688, -37.28997039794922],
    [0.0, 0.0, 0.0, 1.0]
],
  "dcmmeta_reorient_transform": [
    [0.0, -1.0, 0.0, 81.0],
    [1.0, 0.0, 0.0, 0.0],
    [0.0, 0.0, 1.0, 0.0],
    [0.0, 0.0, 0.0, 1.0]
],
  "dcmmeta_shape": [82, 82, 56, 1016],
  "dcmmeta_slice_dim": 2,
  "dcmmeta_version": 0.6,
  "global": {
    "const": {
      "AccessionNumber": "A004367",
      "AcquisitionMatrix": [82, 0, 0, 82],
      "AngioFlag": "N",
      "BitsAllocated": 16,
      "BitsStored": 16,
      "BodyPartExamined": "BRAIN",
      "Columns": 656,
      "EchoNumbers": 1,
      "EchoTime": 27.2,
      "EchoTrainLength": 82,
      "FlipAngle": 44.0,
      "HighBit": 15,
      "ImageOrientationPatient": [0.99955382414893, -0.0237075690747, -0.0181687588411, 0.02722175709243, 0.97340991703722, 0.22744693744784],
      "ImagePositionPatient": [-909.44422687503, -833.77316739993, -247.8622769981],
      "ImageType": [
        "ORIGINAL",
        "PRIMARY",
        "M",
        "MB",
        "ND",
        "NORM",
        "MOSAIC"
],
      "ImagedNucleus": "1H",
      "ImagingFrequency": 123.259089,
      "InPlanePhaseEncodingDirection": "COL",
      "MRAcquisitionType": "2D",
      "MagneticFieldStrength": 3.0,
      "Manufacturer": "SIEMENS",
      "ManufacturerModelName": "Prisma",
      "Modality": "MR",
      "NumberOfAverages": 1.0,
      "NumberOfPhaseEncodingSteps": 82,
      "PercentPhaseFieldOfView": 100.0,
      "PercentSampling": 100.0,
      "PerformedProcedureStepStartTime": "162534.667000",
      "PhotometricInterpretation": "MONOCHROME2",
      "PixelBandwidth": 3050.0,
      "PixelRepresentation": 0,
      "PixelSpacing": [2.6829268932343, 2.6829268932343],
      "ProtocolName": "func_run-03_task-alignvideo_acq-ap-mb8",
      "RepetitionTime": 460.0,
      "Rows": 656,
      "SAR": 0.11531336419036,
      "SamplesPerPixel": 1,
      "ScanOptions": "FS",
      "ScanningSequence": "EP",
      "SequenceName": "epfid2d1_82",
      "SequenceVariant": [
        "SK",
        "SS"
],
      "SeriesDescription": "func_run-03_task-alignvideo_acq-ap-mb8",
      "SeriesNumber": 34,
      "SeriesTime": "180013.056000",
      "SliceLocation": -62.537191002421,
      "SliceThickness": 2.7000000476837,
      "SmallestImagePixelValue": 0,
      "SoftwareVersions": "syngo MR E11",
      "SpacingBetweenSlices": 2.70000000975,
      "SpecificCharacterSet": "ISO_IR 100",
      "StudyID": "1",
      "StudyTime": "162534.600000",
      "TransmitCoilName": "Body",
      "VariableFlipAngleFlag": "N",
      "WindowCenterWidthExplanation": "Algo1"
    },
    "slices": {}
  },
  "time": {
    "samples": {
      "AcquisitionNumber": [1, 2, 3, 4, 5, 6, 7, 8, 9, 10, 11, 12, 13, 14, 15, 16, 17, 18, 19, 20, 21, 22, 23, 24, 25, 26, 27, 28, 29, 30, 31, 32, 33, 34, 35, 36, 37, 38, 39, 40, 41, 42, 43, 44, 45, 46, 47, 48, 49, 50, 51, 52, 53, 54, 55, 56, 57, 58, 59, 60, 61, 62, 63, 64, 65, 66, 67, 68, 69, 70, 71, 72, 73, 74, 75, 76, 77, 78, 79, 80, 81, 82, 83, 84, 85, 86, 87, 88, 89, 90, 91, 92, 93, 94, 95, 96, 97, 98, 99, 100, 101, 102, 103, 104, 105, 106, 107, 108, 109, 110, 111, 112, 113, 114, 115, 116, 117, 118, 119, 120, 121, 122, 123, 124, 125, 126, 127, 128, 129, 130, 131, 132, 133, 134, 135, 136, 137, 138, 139, 140, 141, 142, 143, 144, 145, 146, 147, 148, 149, 150, 151, 152, 153, 154, 155, 156, 157, 158, 159, 160, 161, 162, 163, 164, 165, 166, 167, 168, 169, 170, 171, 172, 173, 174, 175, 176, 177, 178, 179, 180, 181, 182, 183, 184, 185, 186, 187, 188, 189, 190, 191, 192, 193, 194, 195, 196, 197, 198, 199, 200, 201, 202, 203, 204, 205, 206, 207, 208, 209, 210, 211, 212, 213, 214, 215, 216, 217, 218, 219, 220, 221, 222, 223, 224, 225, 226, 227, 228, 229, 230, 231, 232, 233, 234, 235, 236, 237, 238, 239, 240, 241, 242, 243, 244, 245, 246, 247, 248, 249, 250, 251, 252, 253, 254, 255, 256, 257, 258, 259, 260, 261, 262, 263, 264, 265, 266, 267, 268, 269, 270, 271, 272, 273, 274, 275, 276, 277, 278, 279, 280, 281, 282, 283, 284, 285, 286, 287, 288, 289, 290, 291, 292, 293, 294, 295, 296, 297, 298, 299, 300, 301, 302, 303, 304, 305, 306, 307, 308, 309, 310, 311, 312, 313, 314, 315, 316, 317, 318, 319, 320, 321, 322, 323, 324, 325, 326, 327, 328, 329, 330, 331, 332, 333, 334, 335, 336, 337, 338, 339, 340, 341, 342, 343, 344, 345, 346, 347, 348, 349, 350, 351, 352, 353, 354, 355, 356, 357, 358, 359, 360, 361, 362, 363, 364, 365, 366, 367, 368, 369, 370, 371, 372, 373, 374, 375, 376, 377, 378, 379, 380, 381, 382, 383, 384, 385, 386, 387, 388, 389, 390, 391, 392, 393, 394, 395, 396, 397, 398, 399, 400, 401, 402, 403, 404, 405, 406, 407, 408, 409, 410, 411, 412, 413, 414, 415, 416, 417, 418, 419, 420, 421, 422, 423, 424, 425, 426, 427, 428, 429, 430, 431, 432, 433, 434, 435, 436, 437, 438, 439, 440, 441, 442, 443, 444, 445, 446, 447, 448, 449, 450, 451, 452, 453, 454, 455, 456, 457, 458, 459, 460, 461, 462, 463, 464, 465, 466, 467, 468, 469, 470, 471, 472, 473, 474, 475, 476, 477, 478, 479, 480, 481, 482, 483, 484, 485, 486, 487, 488, 489, 490, 491, 492, 493, 494, 495, 496, 497, 498, 499, 500, 501, 502, 503, 504, 505, 506, 507, 508, 509, 510, 511, 512, 513, 514, 515, 516, 517, 518, 519, 520, 521, 522, 523, 524, 525, 526, 527, 528, 529, 530, 531, 532, 533, 534, 535, 536, 537, 538, 539, 540, 541, 542, 543, 544, 545, 546, 547, 548, 549, 550, 551, 552, 553, 554, 555, 556, 557, 558, 559, 560, 561, 562, 563, 564, 565, 566, 567, 568, 569, 570, 571, 572, 573, 574, 575, 576, 577, 578, 579, 580, 581, 582, 583, 584, 585, 586, 587, 588, 589, 590, 591, 592, 593, 594, 595, 596, 597, 598, 599, 600, 601, 602, 603, 604, 605, 606, 607, 608, 609, 610, 611, 612, 613, 614, 615, 616, 617, 618, 619, 620, 621, 622, 623, 624, 625, 626, 627, 628, 629, 630, 631, 632, 633, 634, 635, 636, 637, 638, 639, 640, 641, 642, 643, 644, 645, 646, 647, 648, 649, 650, 651, 652, 653, 654, 655, 656, 657, 658, 659, 660, 661, 662, 663, 664, 665, 666, 667, 668, 669, 670, 671, 672, 673, 674, 675, 676, 677, 678, 679, 680, 681, 682, 683, 684, 685, 686, 687, 688, 689, 690, 691, 692, 693, 694, 695, 696, 697, 698, 699, 700, 701, 702, 703, 704, 705, 706, 707, 708, 709, 710, 711, 712, 713, 714, 715, 716, 717, 718, 719, 720, 721, 722, 723, 724, 725, 726, 727, 728, 729, 730, 731, 732, 733, 734, 735, 736, 737, 738, 739, 740, 741, 742, 743, 744, 745, 746, 747, 748, 749, 750, 751, 752, 753, 754, 755, 756, 757, 758, 759, 760, 761, 762, 763, 764, 765, 766, 767, 768, 769, 770, 771, 772, 773, 774, 775, 776, 777, 778, 779, 780, 781, 782, 783, 784, 785, 786, 787, 788, 789, 790, 791, 792, 793, 794, 795, 796, 797, 798, 799, 800, 801, 802, 803, 804, 805, 806, 807, 808, 809, 810, 811, 812, 813, 814, 815, 816, 817, 818, 819, 820, 821, 822, 823, 824, 825, 826, 827, 828, 829, 830, 831, 832, 833, 834, 835, 836, 837, 838, 839, 840, 841, 842, 843, 844, 845, 846, 847, 848, 849, 850, 851, 852, 853, 854, 855, 856, 857, 858, 859, 860, 861, 862, 863, 864, 865, 866, 867, 868, 869, 870, 871, 872, 873, 874, 875, 876, 877, 878, 879, 880, 881, 882, 883, 884, 885, 886, 887, 888, 889, 890, 891, 892, 893, 894, 895, 896, 897, 898, 899, 900, 901, 902, 903, 904, 905, 906, 907, 908, 909, 910, 911, 912, 913, 914, 915, 916, 917, 918, 919, 920, 921, 922, 923, 924, 925, 926, 927, 928, 929, 930, 931, 932, 933, 934, 935, 936, 937, 938, 939, 940, 941, 942, 943, 944, 945, 946, 947, 948, 949, 950, 951, 952, 953, 954, 955, 956, 957, 958, 959, 960, 961, 962, 963, 964, 965, 966, 967, 968, 969, 970, 971, 972, 973, 974, 975, 976, 977, 978, 979, 980, 981, 982, 983, 984, 985, 986, 987, 988, 989, 990, 991, 992, 993, 994, 995, 996, 997, 998, 999, 1000, 1001, 1002, 1003, 1004, 1005, 1006, 1007, 1008, 1009, 1010, 1011, 1012, 1013, 1014, 1015, 1016],
      "AcquisitionTime": ["175950.270000", "175950.730000", "175951.190000", "175951.650000", "175952.110000", "175952.570000", "175953.030000", "175953.490000", "175953.950000", "175954.410000", "175954.870000", "175955.330000", "175955.790000", "175956.250000", "175956.710000", "175957.170000", "175957.630000", "175958.090000", "175958.550000", "175959.010000", "175959.470000", "175959.930000", "180000.390000", "180000.850000", "180001.310000", "180001.770000", "180002.230000", "180002.690000", "180003.150000", "180003.610000", "180004.070000", "180004.530000", "180004.990000", "180005.450000", "180005.910000", "180006.370000", "180006.830000", "180007.290000", "180007.750000", "180008.210000", "180008.670000", "180009.130000", "180009.590000", "180010.050000", "180010.510000", "180010.970000", "180011.430000", "180011.890000", "180012.350000", "180012.810000", "180013.270000", "180013.730000", "180014.190000", "180014.650000", "180015.110000", "180015.570000", "180016.030000", "180016.490000", "180016.950000", "180017.410000", "180017.870000", "180018.330000", "180018.790000", "180019.250000", "180019.710000", "180020.170000", "180020.630000", "180021.090000", "180021.550000", "180022.010000", "180022.470000", "180022.930000", "180023.390000", "180023.850000", "180024.310000", "180024.770000", "180025.230000", "180025.690000", "180026.150000", "180026.610000", "180027.070000", "180027.530000", "180027.990000", "180028.450000", "180028.910000", "180029.370000", "180029.830000", "180030.290000", "180030.750000", "180031.210000", "180031.670000", "180032.130000", "180032.590000", "180033.050000", "180033.510000", "180033.970000", "180034.430000", "180034.890000", "180035.350000", "180035.810000", "180036.270000", "180036.730000", "180037.190000", "180037.650000", "180038.110000", "180038.570000", "180039.030000", "180039.490000", "180039.950000", "180040.410000", "180040.870000", "180041.330000", "180041.790000", "180042.250000", "180042.710000", "180043.170000", "180043.630000", "180044.090000", "180044.550000", "180045.010000", "180045.470000", "180045.930000", "180046.390000", "180046.850000", "180047.310000", "180047.770000", "180048.230000", "180048.690000", "180049.150000", "180049.610000", "180050.070000", "180050.530000", "180050.990000", "180051.450000", "180051.910000", "180052.370000", "180052.830000", "180053.290000", "180053.750000", "180054.210000", "180054.670000", "180055.130000", "180055.590000", "180056.050000", "180056.510000", "180056.970000", "180057.430000", "180057.890000", "180058.350000", "180058.810000", "180059.270000", "180059.730000", "180100.190000", "180100.650000", "180101.110000", "180101.570000", "180102.030000", "180102.490000", "180102.950000", "180103.410000", "180103.870000", "180104.330000", "180104.790000", "180105.250000", "180105.710000", "180106.170000", "180106.630000", "180107.090000", "180107.550000", "180108.010000", "180108.470000", "180108.930000", "180109.390000", "180109.850000", "180110.310000", "180110.770000", "180111.230000", "180111.690000", "180112.150000", "180112.610000", "180113.070000", "180113.530000", "180113.990000", "180114.450000", "180114.910000", "180115.370000", "180115.830000", "180116.290000", "180116.750000", "180117.210000", "180117.670000", "180118.130000", "180118.590000", "180119.050000", "180119.510000", "180119.970000", "180120.430000", "180120.890000", "180121.350000", "180121.810000", "180122.270000", "180122.730000", "180123.190000", "180123.650000", "180124.110000", "180124.570000", "180125.030000", "180125.490000", "180125.950000", "180126.410000", "180126.870000", "180127.330000", "180127.790000", "180128.250000", "180128.710000", "180129.170000", "180129.630000", "180130.090000", "180130.550000", "180131.010000", "180131.470000", "180131.930000", "180132.390000", "180132.850000", "180133.310000", "180133.770000", "180134.230000", "180134.690000", "180135.150000", "180135.610000", "180136.070000", "180136.530000", "180136.990000", "180137.450000", "180137.910000", "180138.370000", "180138.830000", "180139.290000", "180139.750000", "180140.210000", "180140.670000", "180141.130000", "180141.590000", "180142.050000", "180142.510000", "180142.970000", "180143.430000", "180143.890000", "180144.350000", "180144.810000", "180145.270000", "180145.730000", "180146.190000", "180146.650000", "180147.110000", "180147.570000", "180148.030000", "180148.490000", "180148.950000", "180149.410000", "180149.870000", "180150.330000", "180150.790000", "180151.250000", "180151.710000", "180152.170000", "180152.630000", "180153.090000", "180153.550000", "180154.010000", "180154.470000", "180154.930000", "180155.390000", "180155.850000", "180156.310000", "180156.770000", "180157.230000", "180157.690000", "180158.150000", "180158.610000", "180159.070000", "180159.530000", "180159.990000", "180200.450000", "180200.910000", "180201.370000", "180201.830000", "180202.290000", "180202.750000", "180203.210000", "180203.670000", "180204.130000", "180204.590000", "180205.050000", "180205.510000", "180205.970000", "180206.430000", "180206.890000", "180207.350000", "180207.810000", "180208.270000", "180208.730000", "180209.190000", "180209.650000", "180210.110000", "180210.570000", "180211.030000", "180211.490000", "180211.950000", "180212.410000", "180212.870000", "180213.330000", "180213.790000", "180214.250000", "180214.710000", "180215.170000", "180215.630000", "180216.090000", "180216.550000", "180217.010000", "180217.470000", "180217.930000", "180218.390000", "180218.850000", "180219.310000", "180219.770000", "180220.230000", "180220.690000", "180221.150000", "180221.610000", "180222.070000", "180222.530000", "180222.990000", "180223.450000", "180223.910000", "180224.370000", "180224.830000", "180225.290000", "180225.750000", "180226.210000", "180226.670000", "180227.130000", "180227.590000", "180228.050000", "180228.510000", "180228.970000", "180229.430000", "180229.890000", "180230.350000", "180230.810000", "180231.270000", "180231.730000", "180232.190000", "180232.650000", "180233.110000", "180233.570000", "180234.030000", "180234.490000", "180234.950000", "180235.410000", "180235.870000", "180236.330000", "180236.790000", "180237.250000", "180237.710000", "180238.170000", "180238.630000", "180239.090000", "180239.550000", "180240.010000", "180240.470000", "180240.930000", "180241.390000", "180241.850000", "180242.310000", "180242.770000", "180243.230000", "180243.690000", "180244.150000", "180244.610000", "180245.070000", "180245.530000", "180245.990000", "180246.450000", "180246.910000", "180247.370000", "180247.830000", "180248.290000", "180248.750000", "180249.210000", "180249.670000", "180250.130000", "180250.590000", "180251.050000", "180251.510000", "180251.970000", "180252.430000", "180252.890000", "180253.350000", "180253.810000", "180254.270000", "180254.730000", "180255.190000", "180255.650000", "180256.110000", "180256.570000", "180257.030000", "180257.490000", "180257.950000", "180258.410000", "180258.870000", "180259.330000", "180259.790000", "180300.250000", "180300.710000", "180301.170000", "180301.630000", "180302.090000", "180302.550000", "180303.010000", "180303.470000", "180303.930000", "180304.390000", "180304.850000", "180305.310000", "180305.770000", "180306.230000", "180306.690000", "180307.150000", "180307.610000", "180308.070000", "180308.530000", "180308.990000", "180309.450000", "180309.910000", "180310.370000", "180310.830000", "180311.290000", "180311.750000", "180312.210000", "180312.670000", "180313.130000", "180313.590000", "180314.050000", "180314.510000", "180314.970000", "180315.430000", "180315.890000", "180316.350000", "180316.810000", "180317.270000", "180317.730000", "180318.190000", "180318.650000", "180319.110000", "180319.570000", "180320.030000", "180320.490000", "180320.950000", "180321.410000", "180321.870000", "180322.330000", "180322.790000", "180323.250000", "180323.710000", "180324.170000", "180324.630000", "180325.090000", "180325.550000", "180326.010000", "180326.470000", "180326.930000", "180327.390000", "180327.850000", "180328.310000", "180328.770000", "180329.230000", "180329.690000", "180330.150000", "180330.610000", "180331.070000", "180331.530000", "180331.990000", "180332.450000", "180332.910000", "180333.370000", "180333.830000", "180334.290000", "180334.750000", "180335.210000", "180335.670000", "180336.130000", "180336.590000", "180337.050000", "180337.510000", "180337.970000", "180338.430000", "180338.890000", "180339.350000", "180339.810000", "180340.270000", "180340.730000", "180341.190000", "180341.650000", "180342.110000", "180342.570000", "180343.030000", "180343.490000", "180343.950000", "180344.410000", "180344.870000", "180345.330000", "180345.790000", "180346.250000", "180346.710000", "180347.170000", "180347.630000", "180348.090000", "180348.550000", "180349.010000", "180349.470000", "180349.930000", "180350.390000", "180350.850000", "180351.310000", "180351.770000", "180352.230000", "180352.690000", "180353.150000", "180353.610000", "180354.070000", "180354.530000", "180354.990000", "180355.450000", "180355.910000", "180356.370000", "180356.830000", "180357.290000", "180357.750000", "180358.210000", "180358.670000", "180359.130000", "180359.590000", "180400.050000", "180400.510000", "180400.970000", "180401.430000", "180401.890000", "180402.350000", "180402.810000", "180403.270000", "180403.730000", "180404.190000", "180404.650000", "180405.110000", "180405.570000", "180406.030000", "180406.490000", "180406.950000", "180407.410000", "180407.870000", "180408.330000", "180408.790000", "180409.250000", "180409.710000", "180410.170000", "180410.630000", "180411.090000", "180411.550000", "180412.010000", "180412.470000", "180412.930000", "180413.390000", "180413.850000", "180414.310000", "180414.770000", "180415.230000", "180415.690000", "180416.150000", "180416.610000", "180417.070000", "180417.530000", "180417.990000", "180418.450000", "180418.910000", "180419.370000", "180419.830000", "180420.290000", "180420.750000", "180421.210000", "180421.670000", "180422.130000", "180422.590000", "180423.050000", "180423.510000", "180423.970000", "180424.430000", "180424.890000", "180425.350000", "180425.810000", "180426.270000", "180426.730000", "180427.190000", "180427.650000", "180428.110000", "180428.570000", "180429.030000", "180429.490000", "180429.950000", "180430.410000", "180430.870000", "180431.330000", "180431.790000", "180432.250000", "180432.710000", "180433.170000", "180433.630000", "180434.090000", "180434.550000", "180435.010000", "180435.470000", "180435.930000", "180436.390000", "180436.850000", "180437.310000", "180437.770000", "180438.230000", "180438.690000", "180439.150000", "180439.610000", "180440.070000", "180440.530000", "180440.990000", "180441.450000", "180441.910000", "180442.370000", "180442.830000", "180443.290000", "180443.750000", "180444.210000", "180444.670000", "180445.130000", "180445.590000", "180446.050000", "180446.510000", "180446.970000", "180447.430000", "180447.890000", "180448.350000", "180448.810000", "180449.270000", "180449.730000", "180450.190000", "180450.650000", "180451.110000", "180451.570000", "180452.030000", "180452.490000", "180452.950000", "180453.410000", "180453.870000", "180454.330000", "180454.790000", "180455.250000", "180455.710000", "180456.170000", "180456.630000", "180457.090000", "180457.550000", "180458.010000", "180458.470000", "180458.930000", "180459.390000", "180459.850000", "180500.310000", "180500.770000", "180501.230000", "180501.690000", "180502.150000", "180502.610000", "180503.070000", "180503.530000", "180503.990000", "180504.450000", "180504.910000", "180505.370000", "180505.830000", "180506.290000", "180506.750000", "180507.210000", "180507.670000", "180508.130000", "180508.590000", "180509.050000", "180509.510000", "180509.970000", "180510.430000", "180510.890000", "180511.350000", "180511.810000", "180512.270000", "180512.730000", "180513.190000", "180513.650000", "180514.110000", "180514.570000", "180515.030000", "180515.490000", "180515.950000", "180516.410000", "180516.870000", "180517.330000", "180517.790000", "180518.250000", "180518.710000", "180519.170000", "180519.630000", "180520.090000", "180520.550000", "180521.010000", "180521.470000", "180521.930000", "180522.390000", "180522.850000", "180523.310000", "180523.770000", "180524.230000", "180524.690000", "180525.150000", "180525.610000", "180526.070000", "180526.530000", "180526.990000", "180527.450000", "180527.910000", "180528.370000", "180528.830000", "180529.290000", "180529.750000", "180530.210000", "180530.670000", "180531.130000", "180531.590000", "180532.050000", "180532.510000", "180532.970000", "180533.430000", "180533.890000", "180534.350000", "180534.810000", "180535.270000", "180535.730000", "180536.190000", "180536.650000", "180537.110000", "180537.570000", "180538.030000", "180538.490000", "180538.950000", "180539.410000", "180539.870000", "180540.330000", "180540.790000", "180541.250000", "180541.710000", "180542.170000", "180542.630000", "180543.090000", "180543.550000", "180544.010000", "180544.470000", "180544.930000", "180545.390000", "180545.850000", "180546.310000", "180546.770000", "180547.230000", "180547.690000", "180548.150000", "180548.610000", "180549.070000", "180549.530000", "180549.990000", "180550.450000", "180550.910000", "180551.370000", "180551.830000", "180552.290000", "180552.750000", "180553.210000", "180553.670000", "180554.130000", "180554.590000", "180555.050000", "180555.510000", "180555.970000", "180556.430000", "180556.890000", "180557.350000", "180557.810000", "180558.270000", "180558.730000", "180559.190000", "180559.650000", "180600.110000", "180600.570000", "180601.030000", "180601.490000", "180601.950000", "180602.410000", "180602.870000", "180603.330000", "180603.790000", "180604.250000", "180604.710000", "180605.170000", "180605.630000", "180606.090000", "180606.550000", "180607.010000", "180607.470000", "180607.930000", "180608.390000", "180608.850000", "180609.310000", "180609.770000", "180610.230000", "180610.690000", "180611.150000", "180611.610000", "180612.070000", "180612.530000", "180612.990000", "180613.450000", "180613.910000", "180614.370000", "180614.830000", "180615.290000", "180615.750000", "180616.210000", "180616.670000", "180617.130000", "180617.590000", "180618.050000", "180618.510000", "180618.970000", "180619.430000", "180619.890000", "180620.350000", "180620.810000", "180621.270000", "180621.730000", "180622.190000", "180622.650000", "180623.110000", "180623.570000", "180624.030000", "180624.490000", "180624.950000", "180625.410000", "180625.870000", "180626.330000", "180626.790000", "180627.250000", "180627.710000", "180628.170000", "180628.630000", "180629.090000", "180629.550000", "180630.010000", "180630.470000", "180630.930000", "180631.390000", "180631.850000", "180632.310000", "180632.770000", "180633.230000", "180633.690000", "180634.150000", "180634.610000", "180635.070000", "180635.530000", "180635.990000", "180636.450000", "180636.910000", "180637.370000", "180637.830000", "180638.290000", "180638.750000", "180639.210000", "180639.670000", "180640.130000", "180640.590000", "180641.050000", "180641.510000", "180641.970000", "180642.430000", "180642.890000", "180643.350000", "180643.810000", "180644.270000", "180644.730000", "180645.190000", "180645.650000", "180646.110000", "180646.570000", "180647.030000", "180647.490000", "180647.950000", "180648.410000", "180648.870000", "180649.330000", "180649.790000", "180650.250000", "180650.710000", "180651.170000", "180651.630000", "180652.090000", "180652.550000", "180653.010000", "180653.470000", "180653.930000", "180654.390000", "180654.850000", "180655.310000", "180655.770000", "180656.230000", "180656.690000", "180657.150000", "180657.610000", "180658.070000", "180658.530000", "180658.990000", "180659.450000", "180659.910000", "180700.370000", "180700.830000", "180701.290000", "180701.750000", "180702.210000", "180702.670000", "180703.130000", "180703.590000", "180704.050000", "180704.510000", "180704.970000", "180705.430000", "180705.890000", "180706.350000", "180706.810000", "180707.270000", "180707.730000", "180708.190000", "180708.650000", "180709.110000", "180709.570000", "180710.030000", "180710.490000", "180710.950000", "180711.410000", "180711.870000", "180712.330000", "180712.790000", "180713.250000", "180713.710000", "180714.170000", "180714.630000", "180715.090000", "180715.550000", "180716.010000", "180716.470000", "180716.930000", "180717.390000", "180717.850000", "180718.310000", "180718.770000", "180719.230000", "180719.690000", "180720.150000", "180720.610000", "180721.070000", "180721.530000", "180721.990000", "180722.450000", "180722.910000", "180723.370000", "180723.830000", "180724.290000", "180724.750000", "180725.210000", "180725.670000", "180726.130000", "180726.590000", "180727.050000", "180727.510000", "180727.970000", "180728.430000", "180728.890000", "180729.350000", "180729.810000", "180730.270000", "180730.730000", "180731.190000", "180731.650000", "180732.110000", "180732.570000", "180733.030000", "180733.490000", "180733.950000", "180734.410000", "180734.870000", "180735.330000", "180735.790000", "180736.250000", "180736.710000", "180737.170000"],
