{
  "AcquisitionMatrixPE": 82,
  "AcquisitionNumber": 1,
  "AcquisitionTime": "17:00:14.565000",
  "BandwidthPerPixelPhaseEncode": 24.888,
  "BaseResolution": 82,
  "BodyPartExamined": "BRAIN",
  "ConsistencyInfo": "N4_VE11E_LATEST_20181129",
  "ConversionSoftware": "dcm2niix",
  "ConversionSoftwareVersion": "v1.0.20201102",
  "DerivedVendorReportedEchoSpacing": 0.00049,
  "DeviceSerialNumber": "66112",
  "DwellTime": 2e-06,
  "EchoTime": 0.0272,
  "EchoTrainLength": 82,
  "EffectiveEchoSpacing": 0.00049,
  "FlipAngle": 44,
  "ImageComments": "Unaliased MB8/PE3",
  "ImageOrientationPatientDICOM": [0.996525, -0.0408717, -0.0725763, 0.0503074, 0.989791, 0.133351],
  "ImageType": [
    "ORIGINAL",
    "PRIMARY",
    "M",
    "MB",
    "ND",
    "NORM",
    "MOSAIC"
],
  "ImagingFrequency": 123.259,
  "InPlanePhaseEncodingDirectionDICOM": "COL",
  "InstitutionAddress": "Maynard 3,Hanover,NH,US,03755",
  "InstitutionName": "Dartmouth College - PBS",
  "InstitutionalDepartmentName": "Department",
  "MRAcquisitionType": "2D",
  "MagneticFieldStrength": 3,
  "Manufacturer": "Siemens",
  "ManufacturersModelName": "Prisma",
  "Modality": "MR",
  "MultibandAccelerationFactor": 8,
  "PartialFourier": 1,
  "PatientPosition": "HFS",
  "PercentPhaseFOV": 100,
  "PercentSampling": 100,
  "PhaseEncodingDirection": "j-",
  "PhaseEncodingSteps": 82,
  "PhaseResolution": 1,
  "PixelBandwidth": 3050,
  "ProcedureStepDescription": "Wager_Wager^1076_spacetop",
  "ProtocolName": "func_run-02_task-social_acq-ap-mb8",
  "PulseSequenceDetails": "%CustomerSeq%\\cmrr_mbep2d_bold",
  "ReceiveCoilActiveElements": "HEA;HEP",
  "ReceiveCoilName": "Head_32",
  "ReconMatrixPE": 82,
  "RepetitionTime": 0.46,
  "SAR": 0.115212,
  "ScanOptions": "FS",
  "ScanningSequence": "EP",
  "SequenceName": "epfid2d1_82",
  "SequenceVariant": "SK\\SS",
  "SeriesDescription": "func_run-02_task-social_acq-ap-mb8",
  "SeriesNumber": 14,
  "ShimSetting": [4206, -7806, -7202, 342, -101, -158, -2, 119],
  "SliceThickness": 2.7,
  "SliceTiming": [0, 0.2525, 0.0625, 0.315, 0.125, 0.3775, 0.1875, 0, 0.2525, 0.0625, 0.315, 0.125, 0.3775, 0.1875, 0, 0.2525, 0.0625, 0.315, 0.125, 0.3775, 0.1875, 0, 0.2525, 0.0625, 0.315, 0.125, 0.3775, 0.1875, 0, 0.2525, 0.0625, 0.315, 0.125, 0.3775, 0.1875, 0, 0.2525, 0.0625, 0.315, 0.125, 0.3775, 0.1875, 0, 0.2525, 0.0625, 0.315, 0.125, 0.3775, 0.1875, 0, 0.2525, 0.0625, 0.315, 0.125, 0.3775, 0.1875],
  "SoftwareVersions": "syngo MR E11",
  "SpacingBetweenSlices": 2.7,
  "StationName": "AWP66112",
  "TaskName": "social",
  "TotalReadoutTime": 0.03969,
  "TxRefAmp": 266.038,
  "WipMemBlock": "0419225c-582e-4d2f-be95-2b8941926ed8||Sequence: R016 ve11e/master r/434b28f1; Aug  7 2019 18:53:46 by eja",
  "dcmmeta_affine": [
    [-2.6736037731170654, 0.13497112691402435, -0.17923983931541443, 113.60630798339844],
    [0.10965587943792343, 2.6555376052856445, 0.3686542212963104, -106.09335327148438],
    [-0.19471697509288788, -0.3577706217765808, 2.668701410293579, -42.06920623779297],
    [0.0, 0.0, 0.0, 1.0]
],
  "dcmmeta_reorient_transform": [
    [0.0, -1.0, 0.0, 81.0],
    [1.0, 0.0, 0.0, 0.0],
    [0.0, 0.0, 1.0, 0.0],
    [0.0, 0.0, 0.0, 1.0]
],
  "dcmmeta_shape": [82, 82, 56, 872],
  "dcmmeta_slice_dim": 2,
  "dcmmeta_version": 0.6,
  "global": {
    "const": {
      "AccessionNumber": "A004367",
      "AcquisitionMatrix": [82, 0, 0, 82],
      "AngioFlag": "N",
      "BitsAllocated": 16,
      "BitsStored": 16,
      "BodyPartExamined": "BRAIN",
      "Columns": 656,
      "EchoNumbers": 1,
      "EchoTime": 27.2,
      "EchoTrainLength": 82,
      "FlipAngle": 44.0,
      "HighBit": 15,
      "ImageOrientationPatient": [0.99652505160363, -0.0408717361003, -0.0725763233744, 0.05030741811105, 0.98979124524781, 0.13335086994017],
      "ImagePositionPatient": [-930.59999307845, -839.67322427106, -117.84502846149],
      "ImageType": [
        "ORIGINAL",
        "PRIMARY",
        "M",
        "MB",
        "ND",
        "NORM",
        "MOSAIC"
],
      "ImagedNucleus": "1H",
      "ImagingFrequency": 123.259078,
      "InPlanePhaseEncodingDirection": "COL",
      "MRAcquisitionType": "2D",
      "MagneticFieldStrength": 3.0,
      "Manufacturer": "SIEMENS",
      "ManufacturerModelName": "Prisma",
      "Modality": "MR",
      "NumberOfAverages": 1.0,
      "NumberOfPhaseEncodingSteps": 82,
      "PercentPhaseFieldOfView": 100.0,
      "PercentSampling": 100.0,
      "PerformedProcedureStepStartTime": "162534.667000",
      "PhotometricInterpretation": "MONOCHROME2",
      "PixelBandwidth": 3050.0,
      "PixelRepresentation": 0,
      "PixelSpacing": [2.6829268932343, 2.6829268932343],
      "ProtocolName": "func_run-02_task-social_acq-ap-mb8",
      "RepetitionTime": 460.0,
      "Rows": 656,
      "SAR": 0.1152117844682,
      "SamplesPerPixel": 1,
      "ScanOptions": "FS",
      "ScanningSequence": "EP",
      "SequenceName": "epfid2d1_82",
      "SequenceVariant": [
        "SK",
        "SS"
],
      "SeriesDescription": "func_run-02_task-social_acq-ap-mb8",
      "SeriesNumber": 14,
      "SeriesTime": "170032.966000",
      "SliceLocation": -63.609144543871,
      "SliceThickness": 2.7000000476837,
      "SmallestImagePixelValue": 0,
      "SoftwareVersions": "syngo MR E11",
      "SpacingBetweenSlices": 2.6999999198573,
      "SpecificCharacterSet": "ISO_IR 100",
      "StudyID": "1",
      "StudyTime": "162534.600000",
      "TransmitCoilName": "Body",
      "VariableFlipAngleFlag": "N",
      "WindowCenterWidthExplanation": "Algo1"
    },
    "slices": {}
  },
  "time": {
    "samples": {
      "AcquisitionNumber": [1, 2, 3, 4, 5, 6, 7, 8, 9, 10, 11, 12, 13, 14, 15, 16, 17, 18, 19, 20, 21, 22, 23, 24, 25, 26, 27, 28, 29, 30, 31, 32, 33, 34, 35, 36, 37, 38, 39, 40, 41, 42, 43, 44, 45, 46, 47, 48, 49, 50, 51, 52, 53, 54, 55, 56, 57, 58, 59, 60, 61, 62, 63, 64, 65, 66, 67, 68, 69, 70, 71, 72, 73, 74, 75, 76, 77, 78, 79, 80, 81, 82, 83, 84, 85, 86, 87, 88, 89, 90, 91, 92, 93, 94, 95, 96, 97, 98, 99, 100, 101, 102, 103, 104, 105, 106, 107, 108, 109, 110, 111, 112, 113, 114, 115, 116, 117, 118, 119, 120, 121, 122, 123, 124, 125, 126, 127, 128, 129, 130, 131, 132, 133, 134, 135, 136, 137, 138, 139, 140, 141, 142, 143, 144, 145, 146, 147, 148, 149, 150, 151, 152, 153, 154, 155, 156, 157, 158, 159, 160, 161, 162, 163, 164, 165, 166, 167, 168, 169, 170, 171, 172, 173, 174, 175, 176, 177, 178, 179, 180, 181, 182, 183, 184, 185, 186, 187, 188, 189, 190, 191, 192, 193, 194, 195, 196, 197, 198, 199, 200, 201, 202, 203, 204, 205, 206, 207, 208, 209, 210, 211, 212, 213, 214, 215, 216, 217, 218, 219, 220, 221, 222, 223, 224, 225, 226, 227, 228, 229, 230, 231, 232, 233, 234, 235, 236, 237, 238, 239, 240, 241, 242, 243, 244, 245, 246, 247, 248, 249, 250, 251, 252, 253, 254, 255, 256, 257, 258, 259, 260, 261, 262, 263, 264, 265, 266, 267, 268, 269, 270, 271, 272, 273, 274, 275, 276, 277, 278, 279, 280, 281, 282, 283, 284, 285, 286, 287, 288, 289, 290, 291, 292, 293, 294, 295, 296, 297, 298, 299, 300, 301, 302, 303, 304, 305, 306, 307, 308, 309, 310, 311, 312, 313, 314, 315, 316, 317, 318, 319, 320, 321, 322, 323, 324, 325, 326, 327, 328, 329, 330, 331, 332, 333, 334, 335, 336, 337, 338, 339, 340, 341, 342, 343, 344, 345, 346, 347, 348, 349, 350, 351, 352, 353, 354, 355, 356, 357, 358, 359, 360, 361, 362, 363, 364, 365, 366, 367, 368, 369, 370, 371, 372, 373, 374, 375, 376, 377, 378, 379, 380, 381, 382, 383, 384, 385, 386, 387, 388, 389, 390, 391, 392, 393, 394, 395, 396, 397, 398, 399, 400, 401, 402, 403, 404, 405, 406, 407, 408, 409, 410, 411, 412, 413, 414, 415, 416, 417, 418, 419, 420, 421, 422, 423, 424, 425, 426, 427, 428, 429, 430, 431, 432, 433, 434, 435, 436, 437, 438, 439, 440, 441, 442, 443, 444, 445, 446, 447, 448, 449, 450, 451, 452, 453, 454, 455, 456, 457, 458, 459, 460, 461, 462, 463, 464, 465, 466, 467, 468, 469, 470, 471, 472, 473, 474, 475, 476, 477, 478, 479, 480, 481, 482, 483, 484, 485, 486, 487, 488, 489, 490, 491, 492, 493, 494, 495, 496, 497, 498, 499, 500, 501, 502, 503, 504, 505, 506, 507, 508, 509, 510, 511, 512, 513, 514, 515, 516, 517, 518, 519, 520, 521, 522, 523, 524, 525, 526, 527, 528, 529, 530, 531, 532, 533, 534, 535, 536, 537, 538, 539, 540, 541, 542, 543, 544, 545, 546, 547, 548, 549, 550, 551, 552, 553, 554, 555, 556, 557, 558, 559, 560, 561, 562, 563, 564, 565, 566, 567, 568, 569, 570, 571, 572, 573, 574, 575, 576, 577, 578, 579, 580, 581, 582, 583, 584, 585, 586, 587, 588, 589, 590, 591, 592, 593, 594, 595, 596, 597, 598, 599, 600, 601, 602, 603, 604, 605, 606, 607, 608, 609, 610, 611, 612, 613, 614, 615, 616, 617, 618, 619, 620, 621, 622, 623, 624, 625, 626, 627, 628, 629, 630, 631, 632, 633, 634, 635, 636, 637, 638, 639, 640, 641, 642, 643, 644, 645, 646, 647, 648, 649, 650, 651, 652, 653, 654, 655, 656, 657, 658, 659, 660, 661, 662, 663, 664, 665, 666, 667, 668, 669, 670, 671, 672, 673, 674, 675, 676, 677, 678, 679, 680, 681, 682, 683, 684, 685, 686, 687, 688, 689, 690, 691, 692, 693, 694, 695, 696, 697, 698, 699, 700, 701, 702, 703, 704, 705, 706, 707, 708, 709, 710, 711, 712, 713, 714, 715, 716, 717, 718, 719, 720, 721, 722, 723, 724, 725, 726, 727, 728, 729, 730, 731, 732, 733, 734, 735, 736, 737, 738, 739, 740, 741, 742, 743, 744, 745, 746, 747, 748, 749, 750, 751, 752, 753, 754, 755, 756, 757, 758, 759, 760, 761, 762, 763, 764, 765, 766, 767, 768, 769, 770, 771, 772, 773, 774, 775, 776, 777, 778, 779, 780, 781, 782, 783, 784, 785, 786, 787, 788, 789, 790, 791, 792, 793, 794, 795, 796, 797, 798, 799, 800, 801, 802, 803, 804, 805, 806, 807, 808, 809, 810, 811, 812, 813, 814, 815, 816, 817, 818, 819, 820, 821, 822, 823, 824, 825, 826, 827, 828, 829, 830, 831, 832, 833, 834, 835, 836, 837, 838, 839, 840, 841, 842, 843, 844, 845, 846, 847, 848, 849, 850, 851, 852, 853, 854, 855, 856, 857, 858, 859, 860, 861, 862, 863, 864, 865, 866, 867, 868, 869, 870, 871, 872],
      "AcquisitionTime": ["170014.565000", "170015.025000", "170015.485000", "170015.945000", "170016.405000", "170016.865000", "170017.325000", "170017.785000", "170018.245000", "170018.705000", "170019.165000", "170019.625000", "170020.085000", "170020.545000", "170021.005000", "170021.465000", "170021.925000", "170022.385000", "170022.845000", "170023.305000", "170023.765000", "170024.225000", "170024.685000", "170025.145000", "170025.605000", "170026.065000", "170026.525000", "170026.985000", "170027.445000", "170027.905000", "170028.365000", "170028.825000", "170029.285000", "170029.745000", "170030.205000", "170030.665000", "170031.125000", "170031.585000", "170032.045000", "170032.505000", "170032.965000", "170033.425000", "170033.885000", "170034.345000", "170034.805000", "170035.265000", "170035.725000", "170036.185000", "170036.645000", "170037.105000", "170037.565000", "170038.025000", "170038.485000", "170038.945000", "170039.405000", "170039.865000", "170040.325000", "170040.785000", "170041.245000", "170041.705000", "170042.165000", "170042.625000", "170043.085000", "170043.545000", "170044.005000", "170044.465000", "170044.925000", "170045.385000", "170045.845000", "170046.305000", "170046.765000", "170047.225000", "170047.685000", "170048.145000", "170048.605000", "170049.065000", "170049.525000", "170049.985000", "170050.445000", "170050.905000", "170051.365000", "170051.825000", "170052.285000", "170052.745000", "170053.205000", "170053.665000", "170054.125000", "170054.585000", "170055.045000", "170055.505000", "170055.965000", "170056.425000", "170056.885000", "170057.345000", "170057.805000", "170058.265000", "170058.725000", "170059.185000", "170059.645000", "170100.105000", "170100.565000", "170101.025000", "170101.485000", "170101.945000", "170102.405000", "170102.865000", "170103.325000", "170103.785000", "170104.245000", "170104.705000", "170105.165000", "170105.625000", "170106.085000", "170106.545000", "170107.005000", "170107.465000", "170107.925000", "170108.385000", "170108.845000", "170109.305000", "170109.765000", "170110.225000", "170110.685000", "170111.145000", "170111.605000", "170112.065000", "170112.525000", "170112.985000", "170113.445000", "170113.905000", "170114.365000", "170114.825000", "170115.285000", "170115.745000", "170116.205000", "170116.665000", "170117.125000", "170117.585000", "170118.045000", "170118.505000", "170118.965000", "170119.425000", "170119.885000", "170120.345000", "170120.805000", "170121.265000", "170121.725000", "170122.185000", "170122.645000", "170123.105000", "170123.565000", "170124.025000", "170124.485000", "170124.945000", "170125.405000", "170125.865000", "170126.325000", "170126.785000", "170127.245000", "170127.705000", "170128.165000", "170128.625000", "170129.085000", "170129.545000", "170130.005000", "170130.465000", "170130.925000", "170131.385000", "170131.845000", "170132.305000", "170132.765000", "170133.225000", "170133.685000", "170134.145000", "170134.605000", "170135.065000", "170135.525000", "170135.985000", "170136.445000", "170136.905000", "170137.365000", "170137.825000", "170138.285000", "170138.745000", "170139.205000", "170139.665000", "170140.125000", "170140.585000", "170141.045000", "170141.505000", "170141.965000", "170142.425000", "170142.885000", "170143.345000", "170143.805000", "170144.265000", "170144.725000", "170145.185000", "170145.645000", "170146.105000", "170146.565000", "170147.025000", "170147.485000", "170147.945000", "170148.405000", "170148.865000", "170149.325000", "170149.785000", "170150.245000", "170150.705000", "170151.165000", "170151.625000", "170152.085000", "170152.545000", "170153.005000", "170153.465000", "170153.925000", "170154.385000", "170154.845000", "170155.305000", "170155.765000", "170156.225000", "170156.685000", "170157.145000", "170157.605000", "170158.065000", "170158.525000", "170158.985000", "170159.445000", "170159.905000", "170200.365000", "170200.825000", "170201.285000", "170201.745000", "170202.205000", "170202.665000", "170203.125000", "170203.585000", "170204.045000", "170204.505000", "170204.965000", "170205.425000", "170205.885000", "170206.345000", "170206.805000", "170207.265000", "170207.725000", "170208.185000", "170208.645000", "170209.105000", "170209.565000", "170210.025000", "170210.485000", "170210.945000", "170211.405000", "170211.865000", "170212.325000", "170212.785000", "170213.245000", "170213.705000", "170214.165000", "170214.625000", "170215.085000", "170215.545000", "170216.005000", "170216.465000", "170216.925000", "170217.385000", "170217.845000", "170218.305000", "170218.765000", "170219.225000", "170219.685000", "170220.145000", "170220.605000", "170221.065000", "170221.525000", "170221.985000", "170222.445000", "170222.905000", "170223.365000", "170223.825000", "170224.285000", "170224.745000", "170225.205000", "170225.665000", "170226.125000", "170226.585000", "170227.045000", "170227.505000", "170227.965000", "170228.425000", "170228.885000", "170229.345000", "170229.805000", "170230.265000", "170230.725000", "170231.185000", "170231.645000", "170232.105000", "170232.565000", "170233.025000", "170233.485000", "170233.945000", "170234.405000", "170234.865000", "170235.325000", "170235.785000", "170236.245000", "170236.705000", "170237.165000", "170237.625000", "170238.085000", "170238.545000", "170239.005000", "170239.465000", "170239.925000", "170240.385000", "170240.845000", "170241.305000", "170241.765000", "170242.225000", "170242.685000", "170243.145000", "170243.605000", "170244.065000", "170244.525000", "170244.985000", "170245.445000", "170245.905000", "170246.365000", "170246.825000", "170247.285000", "170247.745000", "170248.205000", "170248.665000", "170249.125000", "170249.585000", "170250.045000", "170250.505000", "170250.965000", "170251.425000", "170251.885000", "170252.345000", "170252.805000", "170253.265000", "170253.725000", "170254.185000", "170254.645000", "170255.105000", "170255.565000", "170256.025000", "170256.485000", "170256.945000", "170257.405000", "170257.865000", "170258.325000", "170258.785000", "170259.245000", "170259.705000", "170300.165000", "170300.625000", "170301.085000", "170301.545000", "170302.005000", "170302.465000", "170302.925000", "170303.385000", "170303.845000", "170304.305000", "170304.765000", "170305.225000", "170305.685000", "170306.145000", "170306.605000", "170307.065000", "170307.525000", "170307.985000", "170308.445000", "170308.905000", "170309.365000", "170309.825000", "170310.285000", "170310.745000", "170311.205000", "170311.665000", "170312.125000", "170312.585000", "170313.045000", "170313.505000", "170313.965000", "170314.425000", "170314.885000", "170315.345000", "170315.805000", "170316.265000", "170316.725000", "170317.185000", "170317.645000", "170318.105000", "170318.565000", "170319.025000", "170319.485000", "170319.945000", "170320.405000", "170320.865000", "170321.325000", "170321.785000", "170322.245000", "170322.705000", "170323.165000", "170323.625000", "170324.085000", "170324.545000", "170325.005000", "170325.465000", "170325.925000", "170326.385000", "170326.845000", "170327.305000", "170327.765000", "170328.225000", "170328.685000", "170329.145000", "170329.605000", "170330.065000", "170330.525000", "170330.985000", "170331.445000", "170331.905000", "170332.365000", "170332.825000", "170333.285000", "170333.745000", "170334.205000", "170334.665000", "170335.125000", "170335.585000", "170336.045000", "170336.505000", "170336.965000", "170337.425000", "170337.885000", "170338.345000", "170338.805000", "170339.265000", "170339.725000", "170340.185000", "170340.645000", "170341.105000", "170341.565000", "170342.025000", "170342.485000", "170342.945000", "170343.405000", "170343.865000", "170344.325000", "170344.785000", "170345.245000", "170345.705000", "170346.165000", "170346.625000", "170347.085000", "170347.545000", "170348.005000", "170348.465000", "170348.925000", "170349.385000", "170349.845000", "170350.305000", "170350.765000", "170351.225000", "170351.685000", "170352.145000", "170352.605000", "170353.065000", "170353.525000", "170353.985000", "170354.445000", "170354.905000", "170355.365000", "170355.825000", "170356.285000", "170356.745000", "170357.205000", "170357.665000", "170358.125000", "170358.585000", "170359.045000", "170359.505000", "170359.965000", "170400.425000", "170400.885000", "170401.345000", "170401.805000", "170402.265000", "170402.725000", "170403.185000", "170403.645000", "170404.105000", "170404.565000", "170405.025000", "170405.485000", "170405.945000", "170406.405000", "170406.865000", "170407.325000", "170407.785000", "170408.245000", "170408.705000", "170409.165000", "170409.625000", "170410.085000", "170410.545000", "170411.005000", "170411.465000", "170411.925000", "170412.385000", "170412.845000", "170413.305000", "170413.765000", "170414.225000", "170414.685000", "170415.145000", "170415.605000", "170416.065000", "170416.525000", "170416.985000", "170417.445000", "170417.905000", "170418.365000", "170418.825000", "170419.285000", "170419.745000", "170420.205000", "170420.665000", "170421.125000", "170421.585000", "170422.045000", "170422.505000", "170422.965000", "170423.425000", "170423.885000", "170424.345000", "170424.805000", "170425.265000", "170425.725000", "170426.185000", "170426.645000", "170427.105000", "170427.565000", "170428.025000", "170428.485000", "170428.945000", "170429.405000", "170429.865000", "170430.325000", "170430.785000", "170431.245000", "170431.705000", "170432.165000", "170432.625000", "170433.085000", "170433.545000", "170434.005000", "170434.465000", "170434.925000", "170435.385000", "170435.845000", "170436.305000", "170436.765000", "170437.225000", "170437.685000", "170438.145000", "170438.605000", "170439.065000", "170439.525000", "170439.985000", "170440.445000", "170440.905000", "170441.365000", "170441.825000", "170442.285000", "170442.745000", "170443.205000", "170443.665000", "170444.125000", "170444.585000", "170445.045000", "170445.505000", "170445.965000", "170446.425000", "170446.885000", "170447.345000", "170447.805000", "170448.265000", "170448.725000", "170449.185000", "170449.645000", "170450.105000", "170450.565000", "170451.025000", "170451.485000", "170451.945000", "170452.405000", "170452.865000", "170453.325000", "170453.785000", "170454.245000", "170454.705000", "170455.165000", "170455.625000", "170456.085000", "170456.545000", "170457.005000", "170457.465000", "170457.925000", "170458.385000", "170458.845000", "170459.305000", "170459.765000", "170500.225000", "170500.685000", "170501.145000", "170501.605000", "170502.065000", "170502.525000", "170502.985000", "170503.445000", "170503.905000", "170504.365000", "170504.825000", "170505.285000", "170505.745000", "170506.205000", "170506.665000", "170507.125000", "170507.585000", "170508.045000", "170508.505000", "170508.965000", "170509.425000", "170509.885000", "170510.345000", "170510.805000", "170511.265000", "170511.725000", "170512.185000", "170512.645000", "170513.105000", "170513.565000", "170514.025000", "170514.485000", "170514.945000", "170515.405000", "170515.865000", "170516.325000", "170516.785000", "170517.245000", "170517.705000", "170518.165000", "170518.625000", "170519.085000", "170519.545000", "170520.005000", "170520.465000", "170520.925000", "170521.385000", "170521.845000", "170522.305000", "170522.765000", "170523.225000", "170523.685000", "170524.145000", "170524.605000", "170525.065000", "170525.525000", "170525.985000", "170526.445000", "170526.905000", "170527.365000", "170527.825000", "170528.285000", "170528.745000", "170529.205000", "170529.665000", "170530.125000", "170530.585000", "170531.045000", "170531.505000", "170531.965000", "170532.425000", "170532.885000", "170533.345000", "170533.805000", "170534.265000", "170534.725000", "170535.185000", "170535.645000", "170536.105000", "170536.565000", "170537.025000", "170537.485000", "170537.945000", "170538.405000", "170538.865000", "170539.325000", "170539.785000", "170540.245000", "170540.705000", "170541.165000", "170541.625000", "170542.085000", "170542.545000", "170543.005000", "170543.465000", "170543.925000", "170544.385000", "170544.845000", "170545.305000", "170545.765000", "170546.225000", "170546.685000", "170547.145000", "170547.605000", "170548.065000", "170548.525000", "170548.985000", "170549.445000", "170549.905000", "170550.365000", "170550.825000", "170551.285000", "170551.745000", "170552.205000", "170552.665000", "170553.125000", "170553.585000", "170554.045000", "170554.505000", "170554.965000", "170555.425000", "170555.885000", "170556.345000", "170556.805000", "170557.265000", "170557.725000", "170558.185000", "170558.645000", "170559.105000", "170559.565000", "170600.025000", "170600.485000", "170600.945000", "170601.405000", "170601.865000", "170602.325000", "170602.785000", "170603.245000", "170603.705000", "170604.165000", "170604.625000", "170605.085000", "170605.545000", "170606.005000", "170606.465000", "170606.925000", "170607.385000", "170607.845000", "170608.305000", "170608.765000", "170609.225000", "170609.685000", "170610.145000", "170610.605000", "170611.065000", "170611.525000", "170611.985000", "170612.445000", "170612.905000", "170613.365000", "170613.825000", "170614.285000", "170614.745000", "170615.205000", "170615.665000", "170616.125000", "170616.585000", "170617.045000", "170617.505000", "170617.965000", "170618.425000", "170618.885000", "170619.345000", "170619.805000", "170620.265000", "170620.725000", "170621.185000", "170621.645000", "170622.105000", "170622.565000", "170623.025000", "170623.485000", "170623.945000", "170624.405000", "170624.865000", "170625.325000", "170625.785000", "170626.245000", "170626.705000", "170627.165000", "170627.625000", "170628.085000", "170628.545000", "170629.005000", "170629.465000", "170629.925000", "170630.385000", "170630.845000", "170631.305000", "170631.765000", "170632.225000", "170632.685000", "170633.145000", "170633.605000", "170634.065000", "170634.525000", "170634.985000", "170635.445000", "170635.905000", "170636.365000", "170636.825000", "170637.285000", "170637.745000", "170638.205000", "170638.665000", "170639.125000", "170639.585000", "170640.045000", "170640.505000", "170640.965000", "170641.425000", "170641.885000", "170642.345000", "170642.805000", "170643.265000", "170643.725000", "170644.185000", "170644.645000", "170645.105000", "170645.565000", "170646.025000", "170646.485000", "170646.945000", "170647.405000", "170647.865000", "170648.325000", "170648.785000", "170649.245000", "170649.705000", "170650.165000", "170650.625000", "170651.085000", "170651.545000", "170652.005000", "170652.465000", "170652.925000", "170653.385000", "170653.845000", "170654.305000", "170654.765000", "170655.225000"],
