{
  "AcquisitionMatrixPE": 82,
  "AcquisitionNumber": 1,
  "AcquisitionTime": "16:52:58.547500",
  "BandwidthPerPixelPhaseEncode": 24.888,
  "BaseResolution": 82,
  "BodyPartExamined": "BRAIN",
  "ConsistencyInfo": "N4_VE11E_LATEST_20181129",
  "ConversionSoftware": "dcm2niix",
  "ConversionSoftwareVersion": "v1.0.20201102",
  "DerivedVendorReportedEchoSpacing": 0.00049,
  "DeviceSerialNumber": "66112",
  "DwellTime": 2e-06,
  "EchoTime": 0.0272,
  "EchoTrainLength": 82,
  "EffectiveEchoSpacing": 0.00049,
  "FlipAngle": 44,
  "ImageComments": "Unaliased MB8/PE3",
  "ImageOrientationPatientDICOM": [0.996525, -0.0408717, -0.0725763, 0.0503074, 0.989791, 0.133351],
  "ImageType": [
    "ORIGINAL",
    "PRIMARY",
    "M",
    "MB",
    "ND",
    "NORM",
    "MOSAIC"
],
  "ImagingFrequency": 123.259,
  "InPlanePhaseEncodingDirectionDICOM": "COL",
  "InstitutionAddress": "Maynard 3,Hanover,NH,US,03755",
  "InstitutionName": "Dartmouth College - PBS",
  "InstitutionalDepartmentName": "Department",
  "MRAcquisitionType": "2D",
  "MagneticFieldStrength": 3,
  "Manufacturer": "Siemens",
  "ManufacturersModelName": "Prisma",
  "Modality": "MR",
  "MultibandAccelerationFactor": 8,
  "PartialFourier": 1,
  "PatientPosition": "HFS",
  "PercentPhaseFOV": 100,
  "PercentSampling": 100,
  "PhaseEncodingDirection": "j-",
  "PhaseEncodingSteps": 82,
  "PhaseResolution": 1,
  "PixelBandwidth": 3050,
  "ProcedureStepDescription": "Wager_Wager^1076_spacetop",
  "ProtocolName": "func_run-01_task-social_acq-ap-mb8",
  "PulseSequenceDetails": "%CustomerSeq%\\cmrr_mbep2d_bold",
  "ReceiveCoilActiveElements": "HEA;HEP",
  "ReceiveCoilName": "Head_32",
  "ReconMatrixPE": 82,
  "RepetitionTime": 0.46,
  "SAR": 0.115212,
  "ScanOptions": "FS",
  "ScanningSequence": "EP",
  "SequenceName": "epfid2d1_82",
  "SequenceVariant": "SK\\SS",
  "SeriesDescription": "func_run-01_task-social_acq-ap-mb8",
  "SeriesNumber": 12,
  "ShimSetting": [4206, -7806, -7202, 342, -101, -158, -2, 119],
  "SliceThickness": 2.7,
  "SliceTiming": [0, 0.25, 0.0625, 0.3125, 0.125, 0.375, 0.1875, 0, 0.25, 0.0625, 0.3125, 0.125, 0.375, 0.1875, 0, 0.25, 0.0625, 0.3125, 0.125, 0.375, 0.1875, 0, 0.25, 0.0625, 0.3125, 0.125, 0.375, 0.1875, 0, 0.25, 0.0625, 0.3125, 0.125, 0.375, 0.1875, 0, 0.25, 0.0625, 0.3125, 0.125, 0.375, 0.1875, 0, 0.25, 0.0625, 0.3125, 0.125, 0.375, 0.1875, 0, 0.25, 0.0625, 0.3125, 0.125, 0.375, 0.1875],
  "SoftwareVersions": "syngo MR E11",
  "SpacingBetweenSlices": 2.7,
  "StationName": "AWP66112",
  "TaskName": "social",
  "TotalReadoutTime": 0.03969,
  "TxRefAmp": 266.038,
  "WipMemBlock": "8df5314c-5736-4bbf-98cc-c8d978e6049d||Sequence: R016 ve11e/master r/434b28f1; Aug  7 2019 18:53:46 by eja",
  "dcmmeta_affine": [
    [-2.6736037731170654, 0.13497112691402435, -0.17923983931541443, 113.60630798339844],
    [0.10965587943792343, 2.6555376052856445, 0.3686542212963104, -106.09335327148438],
    [-0.19471697509288788, -0.3577706217765808, 2.668701410293579, -42.06920623779297],
    [0.0, 0.0, 0.0, 1.0]
],
  "dcmmeta_reorient_transform": [
    [0.0, -1.0, 0.0, 81.0],
    [1.0, 0.0, 0.0, 0.0],
    [0.0, 0.0, 1.0, 0.0],
    [0.0, 0.0, 0.0, 1.0]
],
  "dcmmeta_shape": [82, 82, 56, 872],
  "dcmmeta_slice_dim": 2,
  "dcmmeta_version": 0.6,
  "global": {
    "const": {
      "AccessionNumber": "A004367",
      "AcquisitionMatrix": [82, 0, 0, 82],
      "AngioFlag": "N",
      "BitsAllocated": 16,
      "BitsStored": 16,
      "BodyPartExamined": "BRAIN",
      "Columns": 656,
      "EchoNumbers": 1,
      "EchoTime": 27.2,
      "EchoTrainLength": 82,
      "FlipAngle": 44.0,
      "HighBit": 15,
      "ImageOrientationPatient": [0.99652505160363, -0.0408717361003, -0.0725763233744, 0.05030741811105, 0.98979124524781, 0.13335086994017],
      "ImagePositionPatient": [-930.59999307845, -839.67322427106, -117.84502846149],
      "ImageType": [
        "ORIGINAL",
        "PRIMARY",
        "M",
        "MB",
        "ND",
        "NORM",
        "MOSAIC"
],
      "ImagedNucleus": "1H",
      "ImagingFrequency": 123.259073,
      "InPlanePhaseEncodingDirection": "COL",
      "MRAcquisitionType": "2D",
      "MagneticFieldStrength": 3.0,
      "Manufacturer": "SIEMENS",
      "ManufacturerModelName": "Prisma",
      "Modality": "MR",
      "NumberOfAverages": 1.0,
      "NumberOfPhaseEncodingSteps": 82,
      "PercentPhaseFieldOfView": 100.0,
      "PercentSampling": 100.0,
      "PerformedProcedureStepStartTime": "162534.667000",
      "PhotometricInterpretation": "MONOCHROME2",
      "PixelBandwidth": 3050.0,
      "PixelRepresentation": 0,
      "PixelSpacing": [2.6829268932343, 2.6829268932343],
      "ProtocolName": "func_run-01_task-social_acq-ap-mb8",
      "RepetitionTime": 460.0,
      "Rows": 656,
      "SAR": 0.1152117844682,
      "SamplesPerPixel": 1,
      "ScanOptions": "FS",
      "ScanningSequence": "EP",
      "SequenceName": "epfid2d1_82",
      "SequenceVariant": [
        "SK",
        "SS"
],
      "SeriesDescription": "func_run-01_task-social_acq-ap-mb8",
      "SeriesNumber": 12,
      "SeriesTime": "165313.137000",
      "SliceLocation": -63.609144543871,
      "SliceThickness": 2.7000000476837,
      "SmallestImagePixelValue": 0,
      "SoftwareVersions": "syngo MR E11",
      "SpacingBetweenSlices": 2.6999999198573,
      "SpecificCharacterSet": "ISO_IR 100",
      "StudyID": "1",
      "StudyTime": "162534.600000",
      "TransmitCoilName": "Body",
      "VariableFlipAngleFlag": "N",
      "WindowCenterWidthExplanation": "Algo1"
    },
    "slices": {}
  },
  "time": {
    "samples": {
      "AcquisitionNumber": [1, 2, 3, 4, 5, 6, 7, 8, 9, 10, 11, 12, 13, 14, 15, 16, 17, 18, 19, 20, 21, 22, 23, 24, 25, 26, 27, 28, 29, 30, 31, 32, 33, 34, 35, 36, 37, 38, 39, 40, 41, 42, 43, 44, 45, 46, 47, 48, 49, 50, 51, 52, 53, 54, 55, 56, 57, 58, 59, 60, 61, 62, 63, 64, 65, 66, 67, 68, 69, 70, 71, 72, 73, 74, 75, 76, 77, 78, 79, 80, 81, 82, 83, 84, 85, 86, 87, 88, 89, 90, 91, 92, 93, 94, 95, 96, 97, 98, 99, 100, 101, 102, 103, 104, 105, 106, 107, 108, 109, 110, 111, 112, 113, 114, 115, 116, 117, 118, 119, 120, 121, 122, 123, 124, 125, 126, 127, 128, 129, 130, 131, 132, 133, 134, 135, 136, 137, 138, 139, 140, 141, 142, 143, 144, 145, 146, 147, 148, 149, 150, 151, 152, 153, 154, 155, 156, 157, 158, 159, 160, 161, 162, 163, 164, 165, 166, 167, 168, 169, 170, 171, 172, 173, 174, 175, 176, 177, 178, 179, 180, 181, 182, 183, 184, 185, 186, 187, 188, 189, 190, 191, 192, 193, 194, 195, 196, 197, 198, 199, 200, 201, 202, 203, 204, 205, 206, 207, 208, 209, 210, 211, 212, 213, 214, 215, 216, 217, 218, 219, 220, 221, 222, 223, 224, 225, 226, 227, 228, 229, 230, 231, 232, 233, 234, 235, 236, 237, 238, 239, 240, 241, 242, 243, 244, 245, 246, 247, 248, 249, 250, 251, 252, 253, 254, 255, 256, 257, 258, 259, 260, 261, 262, 263, 264, 265, 266, 267, 268, 269, 270, 271, 272, 273, 274, 275, 276, 277, 278, 279, 280, 281, 282, 283, 284, 285, 286, 287, 288, 289, 290, 291, 292, 293, 294, 295, 296, 297, 298, 299, 300, 301, 302, 303, 304, 305, 306, 307, 308, 309, 310, 311, 312, 313, 314, 315, 316, 317, 318, 319, 320, 321, 322, 323, 324, 325, 326, 327, 328, 329, 330, 331, 332, 333, 334, 335, 336, 337, 338, 339, 340, 341, 342, 343, 344, 345, 346, 347, 348, 349, 350, 351, 352, 353, 354, 355, 356, 357, 358, 359, 360, 361, 362, 363, 364, 365, 366, 367, 368, 369, 370, 371, 372, 373, 374, 375, 376, 377, 378, 379, 380, 381, 382, 383, 384, 385, 386, 387, 388, 389, 390, 391, 392, 393, 394, 395, 396, 397, 398, 399, 400, 401, 402, 403, 404, 405, 406, 407, 408, 409, 410, 411, 412, 413, 414, 415, 416, 417, 418, 419, 420, 421, 422, 423, 424, 425, 426, 427, 428, 429, 430, 431, 432, 433, 434, 435, 436, 437, 438, 439, 440, 441, 442, 443, 444, 445, 446, 447, 448, 449, 450, 451, 452, 453, 454, 455, 456, 457, 458, 459, 460, 461, 462, 463, 464, 465, 466, 467, 468, 469, 470, 471, 472, 473, 474, 475, 476, 477, 478, 479, 480, 481, 482, 483, 484, 485, 486, 487, 488, 489, 490, 491, 492, 493, 494, 495, 496, 497, 498, 499, 500, 501, 502, 503, 504, 505, 506, 507, 508, 509, 510, 511, 512, 513, 514, 515, 516, 517, 518, 519, 520, 521, 522, 523, 524, 525, 526, 527, 528, 529, 530, 531, 532, 533, 534, 535, 536, 537, 538, 539, 540, 541, 542, 543, 544, 545, 546, 547, 548, 549, 550, 551, 552, 553, 554, 555, 556, 557, 558, 559, 560, 561, 562, 563, 564, 565, 566, 567, 568, 569, 570, 571, 572, 573, 574, 575, 576, 577, 578, 579, 580, 581, 582, 583, 584, 585, 586, 587, 588, 589, 590, 591, 592, 593, 594, 595, 596, 597, 598, 599, 600, 601, 602, 603, 604, 605, 606, 607, 608, 609, 610, 611, 612, 613, 614, 615, 616, 617, 618, 619, 620, 621, 622, 623, 624, 625, 626, 627, 628, 629, 630, 631, 632, 633, 634, 635, 636, 637, 638, 639, 640, 641, 642, 643, 644, 645, 646, 647, 648, 649, 650, 651, 652, 653, 654, 655, 656, 657, 658, 659, 660, 661, 662, 663, 664, 665, 666, 667, 668, 669, 670, 671, 672, 673, 674, 675, 676, 677, 678, 679, 680, 681, 682, 683, 684, 685, 686, 687, 688, 689, 690, 691, 692, 693, 694, 695, 696, 697, 698, 699, 700, 701, 702, 703, 704, 705, 706, 707, 708, 709, 710, 711, 712, 713, 714, 715, 716, 717, 718, 719, 720, 721, 722, 723, 724, 725, 726, 727, 728, 729, 730, 731, 732, 733, 734, 735, 736, 737, 738, 739, 740, 741, 742, 743, 744, 745, 746, 747, 748, 749, 750, 751, 752, 753, 754, 755, 756, 757, 758, 759, 760, 761, 762, 763, 764, 765, 766, 767, 768, 769, 770, 771, 772, 773, 774, 775, 776, 777, 778, 779, 780, 781, 782, 783, 784, 785, 786, 787, 788, 789, 790, 791, 792, 793, 794, 795, 796, 797, 798, 799, 800, 801, 802, 803, 804, 805, 806, 807, 808, 809, 810, 811, 812, 813, 814, 815, 816, 817, 818, 819, 820, 821, 822, 823, 824, 825, 826, 827, 828, 829, 830, 831, 832, 833, 834, 835, 836, 837, 838, 839, 840, 841, 842, 843, 844, 845, 846, 847, 848, 849, 850, 851, 852, 853, 854, 855, 856, 857, 858, 859, 860, 861, 862, 863, 864, 865, 866, 867, 868, 869, 870, 871, 872],
      "AcquisitionTime": ["165258.547500", "165259.007500", "165259.467500", "165259.927500", "165300.387500", "165300.847500", "165301.307500", "165301.767500", "165302.227500", "165302.687500", "165303.147500", "165303.607500", "165304.067500", "165304.527500", "165304.987500", "165305.447500", "165305.907500", "165306.367500", "165306.827500", "165307.287500", "165307.747500", "165308.207500", "165308.667500", "165309.127500", "165309.587500", "165310.047500", "165310.507500", "165310.967500", "165311.427500", "165311.887500", "165312.347500", "165312.807500", "165313.267500", "165313.727500", "165314.187500", "165314.647500", "165315.107500", "165315.567500", "165316.027500", "165316.487500", "165316.947500", "165317.407500", "165317.867500", "165318.327500", "165318.787500", "165319.247500", "165319.707500", "165320.167500", "165320.627500", "165321.087500", "165321.547500", "165322.007500", "165322.467500", "165322.927500", "165323.387500", "165323.847500", "165324.307500", "165324.767500", "165325.227500", "165325.687500", "165326.147500", "165326.607500", "165327.067500", "165327.527500", "165327.987500", "165328.447500", "165328.907500", "165329.367500", "165329.827500", "165330.287500", "165330.747500", "165331.207500", "165331.667500", "165332.127500", "165332.587500", "165333.047500", "165333.507500", "165333.967500", "165334.427500", "165334.887500", "165335.347500", "165335.807500", "165336.267500", "165336.727500", "165337.187500", "165337.647500", "165338.107500", "165338.567500", "165339.027500", "165339.487500", "165339.947500", "165340.407500", "165340.867500", "165341.327500", "165341.787500", "165342.247500", "165342.707500", "165343.167500", "165343.627500", "165344.087500", "165344.547500", "165345.007500", "165345.467500", "165345.927500", "165346.387500", "165346.847500", "165347.307500", "165347.767500", "165348.227500", "165348.687500", "165349.147500", "165349.607500", "165350.067500", "165350.527500", "165350.987500", "165351.447500", "165351.907500", "165352.367500", "165352.827500", "165353.287500", "165353.747500", "165354.207500", "165354.667500", "165355.127500", "165355.587500", "165356.047500", "165356.507500", "165356.967500", "165357.427500", "165357.887500", "165358.347500", "165358.807500", "165359.267500", "165359.727500", "165400.187500", "165400.647500", "165401.107500", "165401.567500", "165402.027500", "165402.487500", "165402.947500", "165403.407500", "165403.867500", "165404.327500", "165404.787500", "165405.247500", "165405.707500", "165406.167500", "165406.627500", "165407.087500", "165407.547500", "165408.007500", "165408.467500", "165408.927500", "165409.387500", "165409.847500", "165410.307500", "165410.767500", "165411.227500", "165411.687500", "165412.147500", "165412.607500", "165413.067500", "165413.527500", "165413.987500", "165414.447500", "165414.907500", "165415.367500", "165415.827500", "165416.287500", "165416.747500", "165417.207500", "165417.667500", "165418.127500", "165418.587500", "165419.047500", "165419.507500", "165419.967500", "165420.427500", "165420.887500", "165421.347500", "165421.807500", "165422.267500", "165422.727500", "165423.187500", "165423.647500", "165424.107500", "165424.567500", "165425.027500", "165425.487500", "165425.947500", "165426.407500", "165426.867500", "165427.327500", "165427.787500", "165428.247500", "165428.707500", "165429.167500", "165429.627500", "165430.087500", "165430.547500", "165431.007500", "165431.467500", "165431.927500", "165432.387500", "165432.847500", "165433.307500", "165433.767500", "165434.227500", "165434.687500", "165435.147500", "165435.607500", "165436.067500", "165436.527500", "165436.987500", "165437.447500", "165437.907500", "165438.367500", "165438.827500", "165439.287500", "165439.747500", "165440.207500", "165440.667500", "165441.127500", "165441.587500", "165442.047500", "165442.507500", "165442.967500", "165443.427500", "165443.887500", "165444.347500", "165444.807500", "165445.267500", "165445.727500", "165446.187500", "165446.647500", "165447.107500", "165447.567500", "165448.027500", "165448.487500", "165448.947500", "165449.407500", "165449.867500", "165450.327500", "165450.787500", "165451.247500", "165451.707500", "165452.167500", "165452.627500", "165453.087500", "165453.547500", "165454.007500", "165454.467500", "165454.927500", "165455.387500", "165455.847500", "165456.307500", "165456.767500", "165457.227500", "165457.687500", "165458.147500", "165458.607500", "165459.067500", "165459.527500", "165459.987500", "165500.447500", "165500.907500", "165501.367500", "165501.827500", "165502.287500", "165502.747500", "165503.207500", "165503.667500", "165504.127500", "165504.587500", "165505.047500", "165505.507500", "165505.967500", "165506.427500", "165506.887500", "165507.347500", "165507.807500", "165508.267500", "165508.727500", "165509.187500", "165509.647500", "165510.107500", "165510.567500", "165511.027500", "165511.487500", "165511.947500", "165512.407500", "165512.867500", "165513.327500", "165513.787500", "165514.247500", "165514.707500", "165515.167500", "165515.627500", "165516.087500", "165516.547500", "165517.007500", "165517.467500", "165517.927500", "165518.387500", "165518.847500", "165519.307500", "165519.767500", "165520.227500", "165520.687500", "165521.147500", "165521.607500", "165522.067500", "165522.527500", "165522.987500", "165523.447500", "165523.907500", "165524.367500", "165524.827500", "165525.287500", "165525.747500", "165526.207500", "165526.667500", "165527.127500", "165527.587500", "165528.047500", "165528.507500", "165528.967500", "165529.427500", "165529.887500", "165530.347500", "165530.807500", "165531.267500", "165531.727500", "165532.187500", "165532.647500", "165533.107500", "165533.567500", "165534.027500", "165534.487500", "165534.947500", "165535.407500", "165535.867500", "165536.327500", "165536.787500", "165537.247500", "165537.707500", "165538.167500", "165538.627500", "165539.087500", "165539.547500", "165540.007500", "165540.467500", "165540.927500", "165541.387500", "165541.847500", "165542.307500", "165542.767500", "165543.227500", "165543.687500", "165544.147500", "165544.607500", "165545.067500", "165545.527500", "165545.987500", "165546.447500", "165546.907500", "165547.367500", "165547.827500", "165548.287500", "165548.747500", "165549.207500", "165549.667500", "165550.127500", "165550.587500", "165551.047500", "165551.507500", "165551.967500", "165552.427500", "165552.887500", "165553.347500", "165553.807500", "165554.267500", "165554.727500", "165555.187500", "165555.647500", "165556.107500", "165556.567500", "165557.027500", "165557.487500", "165557.947500", "165558.407500", "165558.867500", "165559.327500", "165559.787500", "165600.247500", "165600.707500", "165601.167500", "165601.627500", "165602.087500", "165602.547500", "165603.007500", "165603.467500", "165603.927500", "165604.387500", "165604.847500", "165605.307500", "165605.767500", "165606.227500", "165606.687500", "165607.147500", "165607.607500", "165608.067500", "165608.527500", "165608.987500", "165609.447500", "165609.907500", "165610.367500", "165610.827500", "165611.287500", "165611.747500", "165612.207500", "165612.667500", "165613.127500", "165613.587500", "165614.047500", "165614.507500", "165614.967500", "165615.427500", "165615.887500", "165616.347500", "165616.807500", "165617.267500", "165617.727500", "165618.187500", "165618.647500", "165619.107500", "165619.567500", "165620.027500", "165620.487500", "165620.947500", "165621.407500", "165621.867500", "165622.327500", "165622.787500", "165623.247500", "165623.707500", "165624.167500", "165624.627500", "165625.087500", "165625.547500", "165626.007500", "165626.467500", "165626.927500", "165627.387500", "165627.847500", "165628.307500", "165628.767500", "165629.227500", "165629.687500", "165630.147500", "165630.607500", "165631.067500", "165631.527500", "165631.987500", "165632.447500", "165632.907500", "165633.367500", "165633.827500", "165634.287500", "165634.747500", "165635.207500", "165635.667500", "165636.127500", "165636.587500", "165637.047500", "165637.507500", "165637.967500", "165638.427500", "165638.887500", "165639.347500", "165639.807500", "165640.267500", "165640.727500", "165641.187500", "165641.647500", "165642.107500", "165642.567500", "165643.027500", "165643.487500", "165643.947500", "165644.407500", "165644.867500", "165645.327500", "165645.787500", "165646.247500", "165646.707500", "165647.167500", "165647.627500", "165648.087500", "165648.547500", "165649.007500", "165649.467500", "165649.927500", "165650.387500", "165650.847500", "165651.307500", "165651.767500", "165652.227500", "165652.687500", "165653.147500", "165653.607500", "165654.067500", "165654.527500", "165654.987500", "165655.447500", "165655.907500", "165656.367500", "165656.827500", "165657.287500", "165657.747500", "165658.207500", "165658.667500", "165659.127500", "165659.587500", "165700.047500", "165700.507500", "165700.967500", "165701.427500", "165701.887500", "165702.347500", "165702.807500", "165703.267500", "165703.727500", "165704.187500", "165704.647500", "165705.107500", "165705.567500", "165706.027500", "165706.487500", "165706.947500", "165707.407500", "165707.867500", "165708.327500", "165708.787500", "165709.247500", "165709.707500", "165710.167500", "165710.627500", "165711.087500", "165711.547500", "165712.007500", "165712.467500", "165712.927500", "165713.387500", "165713.847500", "165714.307500", "165714.767500", "165715.227500", "165715.687500", "165716.147500", "165716.607500", "165717.067500", "165717.527500", "165717.987500", "165718.447500", "165718.907500", "165719.367500", "165719.827500", "165720.287500", "165720.747500", "165721.207500", "165721.667500", "165722.127500", "165722.587500", "165723.047500", "165723.507500", "165723.967500", "165724.427500", "165724.887500", "165725.347500", "165725.807500", "165726.267500", "165726.727500", "165727.187500", "165727.647500", "165728.107500", "165728.567500", "165729.027500", "165729.487500", "165729.947500", "165730.407500", "165730.867500", "165731.327500", "165731.787500", "165732.247500", "165732.707500", "165733.167500", "165733.627500", "165734.087500", "165734.547500", "165735.007500", "165735.467500", "165735.927500", "165736.387500", "165736.847500", "165737.307500", "165737.767500", "165738.227500", "165738.687500", "165739.147500", "165739.607500", "165740.067500", "165740.527500", "165740.987500", "165741.447500", "165741.907500", "165742.367500", "165742.827500", "165743.287500", "165743.747500", "165744.207500", "165744.667500", "165745.127500", "165745.587500", "165746.047500", "165746.507500", "165746.967500", "165747.427500", "165747.887500", "165748.347500", "165748.807500", "165749.267500", "165749.727500", "165750.187500", "165750.647500", "165751.107500", "165751.567500", "165752.027500", "165752.487500", "165752.947500", "165753.407500", "165753.867500", "165754.327500", "165754.787500", "165755.247500", "165755.707500", "165756.167500", "165756.627500", "165757.087500", "165757.547500", "165758.007500", "165758.467500", "165758.927500", "165759.387500", "165759.847500", "165800.307500", "165800.767500", "165801.227500", "165801.687500", "165802.147500", "165802.607500", "165803.067500", "165803.527500", "165803.987500", "165804.447500", "165804.907500", "165805.367500", "165805.827500", "165806.287500", "165806.747500", "165807.207500", "165807.667500", "165808.127500", "165808.587500", "165809.047500", "165809.507500", "165809.967500", "165810.427500", "165810.887500", "165811.347500", "165811.807500", "165812.267500", "165812.727500", "165813.187500", "165813.647500", "165814.107500", "165814.567500", "165815.027500", "165815.487500", "165815.947500", "165816.407500", "165816.867500", "165817.327500", "165817.787500", "165818.247500", "165818.707500", "165819.167500", "165819.627500", "165820.087500", "165820.547500", "165821.007500", "165821.467500", "165821.927500", "165822.387500", "165822.847500", "165823.307500", "165823.767500", "165824.227500", "165824.687500", "165825.147500", "165825.607500", "165826.067500", "165826.527500", "165826.987500", "165827.447500", "165827.907500", "165828.367500", "165828.827500", "165829.287500", "165829.747500", "165830.207500", "165830.667500", "165831.127500", "165831.587500", "165832.047500", "165832.507500", "165832.967500", "165833.427500", "165833.887500", "165834.347500", "165834.807500", "165835.267500", "165835.727500", "165836.187500", "165836.647500", "165837.107500", "165837.567500", "165838.027500", "165838.487500", "165838.947500", "165839.407500", "165839.867500", "165840.327500", "165840.787500", "165841.247500", "165841.707500", "165842.167500", "165842.627500", "165843.087500", "165843.547500", "165844.007500", "165844.467500", "165844.927500", "165845.387500", "165845.847500", "165846.307500", "165846.767500", "165847.227500", "165847.687500", "165848.147500", "165848.607500", "165849.067500", "165849.527500", "165849.987500", "165850.447500", "165850.907500", "165851.367500", "165851.827500", "165852.287500", "165852.747500", "165853.207500", "165853.667500", "165854.127500", "165854.587500", "165855.047500", "165855.507500", "165855.967500", "165856.427500", "165856.887500", "165857.347500", "165857.807500", "165858.267500", "165858.727500", "165859.187500", "165859.647500", "165900.107500", "165900.567500", "165901.027500", "165901.487500", "165901.947500", "165902.407500", "165902.867500", "165903.327500", "165903.787500", "165904.247500", "165904.707500", "165905.167500", "165905.627500", "165906.087500", "165906.547500", "165907.007500", "165907.467500", "165907.927500", "165908.387500", "165908.847500", "165909.307500", "165909.767500", "165910.227500", "165910.687500", "165911.147500", "165911.607500", "165912.067500", "165912.527500", "165912.987500", "165913.447500", "165913.907500", "165914.367500", "165914.827500", "165915.287500", "165915.747500", "165916.207500", "165916.667500", "165917.127500", "165917.587500", "165918.047500", "165918.507500", "165918.967500", "165919.427500", "165919.887500", "165920.347500", "165920.807500", "165921.267500", "165921.727500", "165922.187500", "165922.647500", "165923.107500", "165923.567500", "165924.027500", "165924.487500", "165924.947500", "165925.407500", "165925.867500", "165926.327500", "165926.787500", "165927.247500", "165927.707500", "165928.167500", "165928.627500", "165929.087500", "165929.547500", "165930.007500", "165930.467500", "165930.927500", "165931.387500", "165931.847500", "165932.307500", "165932.767500", "165933.227500", "165933.687500", "165934.147500", "165934.607500", "165935.067500", "165935.527500", "165935.987500", "165936.447500", "165936.907500", "165937.367500", "165937.827500", "165938.287500", "165938.747500", "165939.207500"],
