{
  "AcquisitionMatrixPE": 82,
  "AcquisitionNumber": 1,
  "AcquisitionTime": "17:29:37.605000",
  "BandwidthPerPixelPhaseEncode": 24.888,
  "BaseResolution": 82,
  "BodyPartExamined": "BRAIN",
  "ConsistencyInfo": "N4_VE11E_LATEST_20181129",
  "ConversionSoftware": "dcm2niix",
  "ConversionSoftwareVersion": "v1.0.20201102",
  "DerivedVendorReportedEchoSpacing": 0.00049,
  "DeviceSerialNumber": "66112",
  "DwellTime": 2e-06,
  "EchoTime": 0.0272,
  "EchoTrainLength": 82,
  "EffectiveEchoSpacing": 0.00049,
  "FlipAngle": 44,
  "ImageComments": "Unaliased MB8/PE3",
  "ImageOrientationPatientDICOM": [0.996525, -0.0408717, -0.0725763, 0.0503074, 0.989791, 0.133351],
  "ImageType": [
    "ORIGINAL",
    "PRIMARY",
    "M",
    "MB",
    "ND",
    "NORM",
    "MOSAIC"
],
  "ImagingFrequency": 123.259,
  "InPlanePhaseEncodingDirectionDICOM": "COL",
  "InstitutionAddress": "Maynard 3,Hanover,NH,US,03755",
  "InstitutionName": "Dartmouth College - PBS",
  "InstitutionalDepartmentName": "Department",
  "MRAcquisitionType": "2D",
  "MagneticFieldStrength": 3,
  "Manufacturer": "Siemens",
  "ManufacturersModelName": "Prisma",
  "Modality": "MR",
  "MultibandAccelerationFactor": 8,
  "PartialFourier": 1,
  "PatientPosition": "HFS",
  "PercentPhaseFOV": 100,
  "PercentSampling": 100,
  "PhaseEncodingDirection": "j-",
  "PhaseEncodingSteps": 82,
  "PhaseResolution": 1,
  "PixelBandwidth": 3050,
  "ProcedureStepDescription": "Wager_Wager^1076_spacetop",
  "ProtocolName": "func_run-06_task-social_acq-ap-mb8",
  "PulseSequenceDetails": "%CustomerSeq%\\cmrr_mbep2d_bold",
  "ReceiveCoilActiveElements": "HEA;HEP",
  "ReceiveCoilName": "Head_32",
  "ReconMatrixPE": 82,
  "RepetitionTime": 0.46,
  "SAR": 0.115212,
  "ScanOptions": "FS",
  "ScanningSequence": "EP",
  "SequenceName": "epfid2d1_82",
  "SequenceVariant": "SK\\SS",
  "SeriesDescription": "func_run-06_task-social_acq-ap-mb8",
  "SeriesNumber": 22,
  "ShimSetting": [4206, -7806, -7202, 342, -101, -158, -2, 119],
  "SliceThickness": 2.7,
  "SliceTiming": [0, 0.2525, 0.0625, 0.315, 0.1275, 0.3775, 0.19, 0, 0.2525, 0.0625, 0.315, 0.1275, 0.3775, 0.19, 0, 0.2525, 0.0625, 0.315, 0.1275, 0.3775, 0.19, 0, 0.2525, 0.0625, 0.315, 0.1275, 0.3775, 0.19, 0, 0.2525, 0.0625, 0.315, 0.1275, 0.3775, 0.19, 0, 0.2525, 0.0625, 0.315, 0.1275, 0.3775, 0.19, 0, 0.2525, 0.0625, 0.315, 0.1275, 0.3775, 0.19, 0, 0.2525, 0.0625, 0.315, 0.1275, 0.3775, 0.19],
  "SoftwareVersions": "syngo MR E11",
  "SpacingBetweenSlices": 2.7,
  "StationName": "AWP66112",
  "TaskName": "social",
  "TotalReadoutTime": 0.03969,
  "TxRefAmp": 266.038,
  "WipMemBlock": "5eaecb34-5e16-4e42-a979-7711a0ad00ac||Sequence: R016 ve11e/master r/434b28f1; Aug  7 2019 18:53:46 by eja",
  "dcmmeta_affine": [
    [-2.6736037731170654, 0.13497112691402435, -0.17923983931541443, 113.60630798339844],
    [0.10965587943792343, 2.6555376052856445, 0.3686542212963104, -106.09335327148438],
    [-0.19471697509288788, -0.3577706217765808, 2.668701410293579, -42.06920623779297],
    [0.0, 0.0, 0.0, 1.0]
],
  "dcmmeta_reorient_transform": [
    [0.0, -1.0, 0.0, 81.0],
    [1.0, 0.0, 0.0, 0.0],
    [0.0, 0.0, 1.0, 0.0],
    [0.0, 0.0, 0.0, 1.0]
],
  "dcmmeta_shape": [82, 82, 56, 872],
  "dcmmeta_slice_dim": 2,
  "dcmmeta_version": 0.6,
  "global": {
    "const": {
      "AccessionNumber": "A004367",
      "AcquisitionMatrix": [82, 0, 0, 82],
      "AngioFlag": "N",
      "BitsAllocated": 16,
      "BitsStored": 16,
      "BodyPartExamined": "BRAIN",
      "Columns": 656,
      "EchoNumbers": 1,
      "EchoTime": 27.2,
      "EchoTrainLength": 82,
      "FlipAngle": 44.0,
      "HighBit": 15,
      "ImageOrientationPatient": [0.99652505160363, -0.0408717361003, -0.0725763233744, 0.05030741811105, 0.98979124524781, 0.13335086994017],
      "ImagePositionPatient": [-930.59999307845, -839.67322427106, -117.84502846149],
      "ImageType": [
        "ORIGINAL",
        "PRIMARY",
        "M",
        "MB",
        "ND",
        "NORM",
        "MOSAIC"
],
      "ImagedNucleus": "1H",
      "ImagingFrequency": 123.259085,
      "InPlanePhaseEncodingDirection": "COL",
      "MRAcquisitionType": "2D",
      "MagneticFieldStrength": 3.0,
      "Manufacturer": "SIEMENS",
      "ManufacturerModelName": "Prisma",
      "Modality": "MR",
      "NumberOfAverages": 1.0,
      "NumberOfPhaseEncodingSteps": 82,
      "PercentPhaseFieldOfView": 100.0,
      "PercentSampling": 100.0,
      "PerformedProcedureStepStartTime": "162534.667000",
      "PhotometricInterpretation": "MONOCHROME2",
      "PixelBandwidth": 3050.0,
      "PixelRepresentation": 0,
      "PixelSpacing": [2.6829268932343, 2.6829268932343],
      "ProtocolName": "func_run-06_task-social_acq-ap-mb8",
      "RepetitionTime": 460.0,
      "Rows": 656,
      "SAR": 0.1152117844682,
      "SamplesPerPixel": 1,
      "ScanOptions": "FS",
      "ScanningSequence": "EP",
      "SequenceName": "epfid2d1_82",
      "SequenceVariant": [
        "SK",
        "SS"
],
      "SeriesDescription": "func_run-06_task-social_acq-ap-mb8",
      "SeriesNumber": 22,
      "SeriesTime": "172953.059000",
      "SliceLocation": -63.609144543871,
      "SliceThickness": 2.7000000476837,
      "SmallestImagePixelValue": 0,
      "SoftwareVersions": "syngo MR E11",
      "SpacingBetweenSlices": 2.6999999198573,
      "SpecificCharacterSet": "ISO_IR 100",
      "StudyID": "1",
      "StudyTime": "162534.600000",
      "TransmitCoilName": "Body",
      "VariableFlipAngleFlag": "N",
      "WindowCenterWidthExplanation": "Algo1"
    },
    "slices": {}
  },
  "time": {
    "samples": {
      "AcquisitionNumber": [1, 2, 3, 4, 5, 6, 7, 8, 9, 10, 11, 12, 13, 14, 15, 16, 17, 18, 19, 20, 21, 22, 23, 24, 25, 26, 27, 28, 29, 30, 31, 32, 33, 34, 35, 36, 37, 38, 39, 40, 41, 42, 43, 44, 45, 46, 47, 48, 49, 50, 51, 52, 53, 54, 55, 56, 57, 58, 59, 60, 61, 62, 63, 64, 65, 66, 67, 68, 69, 70, 71, 72, 73, 74, 75, 76, 77, 78, 79, 80, 81, 82, 83, 84, 85, 86, 87, 88, 89, 90, 91, 92, 93, 94, 95, 96, 97, 98, 99, 100, 101, 102, 103, 104, 105, 106, 107, 108, 109, 110, 111, 112, 113, 114, 115, 116, 117, 118, 119, 120, 121, 122, 123, 124, 125, 126, 127, 128, 129, 130, 131, 132, 133, 134, 135, 136, 137, 138, 139, 140, 141, 142, 143, 144, 145, 146, 147, 148, 149, 150, 151, 152, 153, 154, 155, 156, 157, 158, 159, 160, 161, 162, 163, 164, 165, 166, 167, 168, 169, 170, 171, 172, 173, 174, 175, 176, 177, 178, 179, 180, 181, 182, 183, 184, 185, 186, 187, 188, 189, 190, 191, 192, 193, 194, 195, 196, 197, 198, 199, 200, 201, 202, 203, 204, 205, 206, 207, 208, 209, 210, 211, 212, 213, 214, 215, 216, 217, 218, 219, 220, 221, 222, 223, 224, 225, 226, 227, 228, 229, 230, 231, 232, 233, 234, 235, 236, 237, 238, 239, 240, 241, 242, 243, 244, 245, 246, 247, 248, 249, 250, 251, 252, 253, 254, 255, 256, 257, 258, 259, 260, 261, 262, 263, 264, 265, 266, 267, 268, 269, 270, 271, 272, 273, 274, 275, 276, 277, 278, 279, 280, 281, 282, 283, 284, 285, 286, 287, 288, 289, 290, 291, 292, 293, 294, 295, 296, 297, 298, 299, 300, 301, 302, 303, 304, 305, 306, 307, 308, 309, 310, 311, 312, 313, 314, 315, 316, 317, 318, 319, 320, 321, 322, 323, 324, 325, 326, 327, 328, 329, 330, 331, 332, 333, 334, 335, 336, 337, 338, 339, 340, 341, 342, 343, 344, 345, 346, 347, 348, 349, 350, 351, 352, 353, 354, 355, 356, 357, 358, 359, 360, 361, 362, 363, 364, 365, 366, 367, 368, 369, 370, 371, 372, 373, 374, 375, 376, 377, 378, 379, 380, 381, 382, 383, 384, 385, 386, 387, 388, 389, 390, 391, 392, 393, 394, 395, 396, 397, 398, 399, 400, 401, 402, 403, 404, 405, 406, 407, 408, 409, 410, 411, 412, 413, 414, 415, 416, 417, 418, 419, 420, 421, 422, 423, 424, 425, 426, 427, 428, 429, 430, 431, 432, 433, 434, 435, 436, 437, 438, 439, 440, 441, 442, 443, 444, 445, 446, 447, 448, 449, 450, 451, 452, 453, 454, 455, 456, 457, 458, 459, 460, 461, 462, 463, 464, 465, 466, 467, 468, 469, 470, 471, 472, 473, 474, 475, 476, 477, 478, 479, 480, 481, 482, 483, 484, 485, 486, 487, 488, 489, 490, 491, 492, 493, 494, 495, 496, 497, 498, 499, 500, 501, 502, 503, 504, 505, 506, 507, 508, 509, 510, 511, 512, 513, 514, 515, 516, 517, 518, 519, 520, 521, 522, 523, 524, 525, 526, 527, 528, 529, 530, 531, 532, 533, 534, 535, 536, 537, 538, 539, 540, 541, 542, 543, 544, 545, 546, 547, 548, 549, 550, 551, 552, 553, 554, 555, 556, 557, 558, 559, 560, 561, 562, 563, 564, 565, 566, 567, 568, 569, 570, 571, 572, 573, 574, 575, 576, 577, 578, 579, 580, 581, 582, 583, 584, 585, 586, 587, 588, 589, 590, 591, 592, 593, 594, 595, 596, 597, 598, 599, 600, 601, 602, 603, 604, 605, 606, 607, 608, 609, 610, 611, 612, 613, 614, 615, 616, 617, 618, 619, 620, 621, 622, 623, 624, 625, 626, 627, 628, 629, 630, 631, 632, 633, 634, 635, 636, 637, 638, 639, 640, 641, 642, 643, 644, 645, 646, 647, 648, 649, 650, 651, 652, 653, 654, 655, 656, 657, 658, 659, 660, 661, 662, 663, 664, 665, 666, 667, 668, 669, 670, 671, 672, 673, 674, 675, 676, 677, 678, 679, 680, 681, 682, 683, 684, 685, 686, 687, 688, 689, 690, 691, 692, 693, 694, 695, 696, 697, 698, 699, 700, 701, 702, 703, 704, 705, 706, 707, 708, 709, 710, 711, 712, 713, 714, 715, 716, 717, 718, 719, 720, 721, 722, 723, 724, 725, 726, 727, 728, 729, 730, 731, 732, 733, 734, 735, 736, 737, 738, 739, 740, 741, 742, 743, 744, 745, 746, 747, 748, 749, 750, 751, 752, 753, 754, 755, 756, 757, 758, 759, 760, 761, 762, 763, 764, 765, 766, 767, 768, 769, 770, 771, 772, 773, 774, 775, 776, 777, 778, 779, 780, 781, 782, 783, 784, 785, 786, 787, 788, 789, 790, 791, 792, 793, 794, 795, 796, 797, 798, 799, 800, 801, 802, 803, 804, 805, 806, 807, 808, 809, 810, 811, 812, 813, 814, 815, 816, 817, 818, 819, 820, 821, 822, 823, 824, 825, 826, 827, 828, 829, 830, 831, 832, 833, 834, 835, 836, 837, 838, 839, 840, 841, 842, 843, 844, 845, 846, 847, 848, 849, 850, 851, 852, 853, 854, 855, 856, 857, 858, 859, 860, 861, 862, 863, 864, 865, 866, 867, 868, 869, 870, 871, 872],
      "AcquisitionTime": ["172937.605000", "172938.065000", "172938.525000", "172938.985000", "172939.445000", "172939.905000", "172940.365000", "172940.825000", "172941.285000", "172941.745000", "172942.205000", "172942.665000", "172943.125000", "172943.585000", "172944.045000", "172944.505000", "172944.965000", "172945.425000", "172945.885000", "172946.345000", "172946.805000", "172947.265000", "172947.725000", "172948.185000", "172948.645000", "172949.105000", "172949.565000", "172950.025000", "172950.485000", "172950.945000", "172951.405000", "172951.865000", "172952.325000", "172952.785000", "172953.245000", "172953.705000", "172954.165000", "172954.625000", "172955.085000", "172955.545000", "172956.005000", "172956.465000", "172956.925000", "172957.385000", "172957.845000", "172958.305000", "172958.765000", "172959.225000", "172959.685000", "173000.145000", "173000.605000", "173001.065000", "173001.525000", "173001.985000", "173002.445000", "173002.905000", "173003.365000", "173003.825000", "173004.285000", "173004.745000", "173005.205000", "173005.665000", "173006.125000", "173006.585000", "173007.045000", "173007.505000", "173007.965000", "173008.425000", "173008.885000", "173009.345000", "173009.805000", "173010.265000", "173010.725000", "173011.185000", "173011.645000", "173012.105000", "173012.565000", "173013.025000", "173013.485000", "173013.945000", "173014.405000", "173014.865000", "173015.325000", "173015.785000", "173016.245000", "173016.705000", "173017.165000", "173017.625000", "173018.085000", "173018.545000", "173019.005000", "173019.465000", "173019.925000", "173020.385000", "173020.845000", "173021.305000", "173021.765000", "173022.225000", "173022.685000", "173023.145000", "173023.605000", "173024.065000", "173024.525000", "173024.985000", "173025.445000", "173025.905000", "173026.365000", "173026.825000", "173027.285000", "173027.745000", "173028.205000", "173028.665000", "173029.125000", "173029.585000", "173030.045000", "173030.505000", "173030.965000", "173031.425000", "173031.885000", "173032.345000", "173032.805000", "173033.265000", "173033.725000", "173034.185000", "173034.645000", "173035.105000", "173035.565000", "173036.025000", "173036.485000", "173036.945000", "173037.405000", "173037.865000", "173038.325000", "173038.785000", "173039.245000", "173039.705000", "173040.165000", "173040.625000", "173041.085000", "173041.545000", "173042.005000", "173042.465000", "173042.925000", "173043.385000", "173043.845000", "173044.305000", "173044.765000", "173045.225000", "173045.685000", "173046.145000", "173046.605000", "173047.065000", "173047.525000", "173047.985000", "173048.445000", "173048.905000", "173049.365000", "173049.825000", "173050.285000", "173050.745000", "173051.205000", "173051.665000", "173052.125000", "173052.585000", "173053.045000", "173053.505000", "173053.965000", "173054.425000", "173054.885000", "173055.345000", "173055.805000", "173056.265000", "173056.725000", "173057.185000", "173057.645000", "173058.105000", "173058.565000", "173059.025000", "173059.485000", "173059.945000", "173100.405000", "173100.865000", "173101.325000", "173101.785000", "173102.245000", "173102.705000", "173103.165000", "173103.625000", "173104.085000", "173104.545000", "173105.005000", "173105.465000", "173105.925000", "173106.385000", "173106.845000", "173107.305000", "173107.765000", "173108.225000", "173108.685000", "173109.145000", "173109.605000", "173110.065000", "173110.525000", "173110.985000", "173111.445000", "173111.905000", "173112.365000", "173112.825000", "173113.285000", "173113.745000", "173114.205000", "173114.665000", "173115.125000", "173115.585000", "173116.045000", "173116.505000", "173116.965000", "173117.425000", "173117.885000", "173118.345000", "173118.805000", "173119.265000", "173119.725000", "173120.185000", "173120.645000", "173121.105000", "173121.565000", "173122.025000", "173122.485000", "173122.945000", "173123.405000", "173123.865000", "173124.325000", "173124.785000", "173125.245000", "173125.705000", "173126.165000", "173126.625000", "173127.085000", "173127.545000", "173128.005000", "173128.465000", "173128.925000", "173129.385000", "173129.845000", "173130.305000", "173130.765000", "173131.225000", "173131.685000", "173132.145000", "173132.605000", "173133.065000", "173133.525000", "173133.985000", "173134.445000", "173134.905000", "173135.365000", "173135.825000", "173136.285000", "173136.745000", "173137.205000", "173137.665000", "173138.125000", "173138.585000", "173139.045000", "173139.505000", "173139.965000", "173140.425000", "173140.885000", "173141.345000", "173141.805000", "173142.265000", "173142.725000", "173143.185000", "173143.645000", "173144.105000", "173144.565000", "173145.025000", "173145.485000", "173145.945000", "173146.405000", "173146.865000", "173147.325000", "173147.785000", "173148.245000", "173148.705000", "173149.165000", "173149.625000", "173150.085000", "173150.545000", "173151.005000", "173151.465000", "173151.925000", "173152.385000", "173152.845000", "173153.305000", "173153.765000", "173154.225000", "173154.685000", "173155.145000", "173155.605000", "173156.065000", "173156.525000", "173156.985000", "173157.445000", "173157.905000", "173158.365000", "173158.825000", "173159.285000", "173159.745000", "173200.205000", "173200.665000", "173201.125000", "173201.585000", "173202.045000", "173202.505000", "173202.965000", "173203.425000", "173203.885000", "173204.345000", "173204.805000", "173205.265000", "173205.725000", "173206.185000", "173206.645000", "173207.105000", "173207.565000", "173208.025000", "173208.485000", "173208.945000", "173209.405000", "173209.865000", "173210.325000", "173210.785000", "173211.245000", "173211.705000", "173212.165000", "173212.625000", "173213.085000", "173213.545000", "173214.005000", "173214.465000", "173214.925000", "173215.385000", "173215.845000", "173216.305000", "173216.765000", "173217.225000", "173217.685000", "173218.145000", "173218.605000", "173219.065000", "173219.525000", "173219.985000", "173220.445000", "173220.905000", "173221.365000", "173221.825000", "173222.285000", "173222.745000", "173223.205000", "173223.665000", "173224.125000", "173224.585000", "173225.045000", "173225.505000", "173225.965000", "173226.425000", "173226.885000", "173227.345000", "173227.805000", "173228.265000", "173228.725000", "173229.185000", "173229.645000", "173230.105000", "173230.565000", "173231.025000", "173231.485000", "173231.945000", "173232.405000", "173232.865000", "173233.325000", "173233.785000", "173234.245000", "173234.705000", "173235.165000", "173235.625000", "173236.085000", "173236.545000", "173237.005000", "173237.465000", "173237.925000", "173238.385000", "173238.845000", "173239.305000", "173239.765000", "173240.225000", "173240.685000", "173241.145000", "173241.605000", "173242.065000", "173242.525000", "173242.985000", "173243.445000", "173243.905000", "173244.365000", "173244.825000", "173245.285000", "173245.745000", "173246.205000", "173246.665000", "173247.125000", "173247.585000", "173248.045000", "173248.505000", "173248.965000", "173249.425000", "173249.885000", "173250.345000", "173250.805000", "173251.265000", "173251.725000", "173252.185000", "173252.645000", "173253.105000", "173253.565000", "173254.025000", "173254.485000", "173254.945000", "173255.405000", "173255.865000", "173256.325000", "173256.785000", "173257.245000", "173257.705000", "173258.165000", "173258.625000", "173259.085000", "173259.545000", "173300.005000", "173300.465000", "173300.925000", "173301.385000", "173301.845000", "173302.305000", "173302.765000", "173303.225000", "173303.685000", "173304.145000", "173304.605000", "173305.065000", "173305.525000", "173305.985000", "173306.445000", "173306.905000", "173307.365000", "173307.825000", "173308.285000", "173308.745000", "173309.205000", "173309.665000", "173310.125000", "173310.585000", "173311.045000", "173311.505000", "173311.965000", "173312.425000", "173312.885000", "173313.345000", "173313.805000", "173314.265000", "173314.725000", "173315.185000", "173315.645000", "173316.105000", "173316.565000", "173317.025000", "173317.485000", "173317.945000", "173318.405000", "173318.865000", "173319.325000", "173319.785000", "173320.245000", "173320.705000", "173321.165000", "173321.625000", "173322.085000", "173322.545000", "173323.005000", "173323.465000", "173323.925000", "173324.385000", "173324.845000", "173325.305000", "173325.765000", "173326.225000", "173326.685000", "173327.145000", "173327.605000", "173328.065000", "173328.525000", "173328.985000", "173329.445000", "173329.905000", "173330.365000", "173330.825000", "173331.285000", "173331.745000", "173332.205000", "173332.665000", "173333.125000", "173333.585000", "173334.045000", "173334.505000", "173334.965000", "173335.425000", "173335.885000", "173336.345000", "173336.805000", "173337.265000", "173337.725000", "173338.185000", "173338.645000", "173339.105000", "173339.565000", "173340.025000", "173340.485000", "173340.945000", "173341.405000", "173341.865000", "173342.325000", "173342.785000", "173343.245000", "173343.705000", "173344.165000", "173344.625000", "173345.085000", "173345.545000", "173346.005000", "173346.465000", "173346.925000", "173347.385000", "173347.845000", "173348.305000", "173348.765000", "173349.225000", "173349.685000", "173350.145000", "173350.605000", "173351.065000", "173351.525000", "173351.985000", "173352.445000", "173352.905000", "173353.365000", "173353.825000", "173354.285000", "173354.745000", "173355.205000", "173355.665000", "173356.125000", "173356.585000", "173357.045000", "173357.505000", "173357.965000", "173358.425000", "173358.885000", "173359.345000", "173359.805000", "173400.265000", "173400.725000", "173401.185000", "173401.645000", "173402.105000", "173402.565000", "173403.025000", "173403.485000", "173403.945000", "173404.405000", "173404.865000", "173405.325000", "173405.785000", "173406.245000", "173406.705000", "173407.165000", "173407.625000", "173408.085000", "173408.545000", "173409.005000", "173409.465000", "173409.925000", "173410.385000", "173410.845000", "173411.305000", "173411.765000", "173412.225000", "173412.685000", "173413.145000", "173413.605000", "173414.065000", "173414.525000", "173414.985000", "173415.445000", "173415.905000", "173416.365000", "173416.825000", "173417.285000", "173417.745000", "173418.205000", "173418.665000", "173419.125000", "173419.585000", "173420.045000", "173420.505000", "173420.965000", "173421.425000", "173421.885000", "173422.345000", "173422.805000", "173423.265000", "173423.725000", "173424.185000", "173424.645000", "173425.105000", "173425.565000", "173426.025000", "173426.485000", "173426.945000", "173427.405000", "173427.865000", "173428.325000", "173428.785000", "173429.245000", "173429.705000", "173430.165000", "173430.625000", "173431.085000", "173431.545000", "173432.005000", "173432.465000", "173432.925000", "173433.385000", "173433.845000", "173434.305000", "173434.765000", "173435.225000", "173435.685000", "173436.145000", "173436.605000", "173437.065000", "173437.525000", "173437.985000", "173438.445000", "173438.905000", "173439.365000", "173439.825000", "173440.285000", "173440.745000", "173441.205000", "173441.665000", "173442.125000", "173442.585000", "173443.045000", "173443.505000", "173443.965000", "173444.425000", "173444.885000", "173445.345000", "173445.805000", "173446.265000", "173446.725000", "173447.185000", "173447.645000", "173448.105000", "173448.565000", "173449.025000", "173449.485000", "173449.945000", "173450.405000", "173450.865000", "173451.325000", "173451.785000", "173452.245000", "173452.705000", "173453.165000", "173453.625000", "173454.085000", "173454.545000", "173455.005000", "173455.465000", "173455.925000", "173456.385000", "173456.845000", "173457.305000", "173457.765000", "173458.225000", "173458.685000", "173459.145000", "173459.605000", "173500.065000", "173500.525000", "173500.985000", "173501.445000", "173501.905000", "173502.365000", "173502.825000", "173503.285000", "173503.745000", "173504.205000", "173504.665000", "173505.125000", "173505.585000", "173506.045000", "173506.505000", "173506.965000", "173507.425000", "173507.885000", "173508.345000", "173508.805000", "173509.265000", "173509.725000", "173510.185000", "173510.645000", "173511.105000", "173511.565000", "173512.025000", "173512.485000", "173512.945000", "173513.405000", "173513.865000", "173514.325000", "173514.785000", "173515.245000", "173515.705000", "173516.165000", "173516.625000", "173517.085000", "173517.545000", "173518.005000", "173518.465000", "173518.925000", "173519.385000", "173519.845000", "173520.305000", "173520.765000", "173521.225000", "173521.685000", "173522.145000", "173522.605000", "173523.065000", "173523.525000", "173523.985000", "173524.445000", "173524.905000", "173525.365000", "173525.825000", "173526.285000", "173526.745000", "173527.205000", "173527.665000", "173528.125000", "173528.585000", "173529.045000", "173529.505000", "173529.965000", "173530.425000", "173530.885000", "173531.345000", "173531.805000", "173532.265000", "173532.725000", "173533.185000", "173533.645000", "173534.105000", "173534.565000", "173535.025000", "173535.485000", "173535.945000", "173536.405000", "173536.865000", "173537.325000", "173537.785000", "173538.245000", "173538.705000", "173539.165000", "173539.625000", "173540.085000", "173540.545000", "173541.005000", "173541.465000", "173541.925000", "173542.385000", "173542.845000", "173543.305000", "173543.765000", "173544.225000", "173544.685000", "173545.145000", "173545.605000", "173546.065000", "173546.525000", "173546.985000", "173547.445000", "173547.905000", "173548.365000", "173548.825000", "173549.285000", "173549.745000", "173550.205000", "173550.665000", "173551.125000", "173551.585000", "173552.045000", "173552.505000", "173552.965000", "173553.425000", "173553.885000", "173554.345000", "173554.805000", "173555.265000", "173555.725000", "173556.185000", "173556.645000", "173557.105000", "173557.565000", "173558.025000", "173558.485000", "173558.945000", "173559.405000", "173559.865000", "173600.325000", "173600.785000", "173601.245000", "173601.705000", "173602.165000", "173602.625000", "173603.085000", "173603.545000", "173604.005000", "173604.465000", "173604.925000", "173605.385000", "173605.845000", "173606.305000", "173606.765000", "173607.225000", "173607.685000", "173608.145000", "173608.605000", "173609.065000", "173609.525000", "173609.985000", "173610.445000", "173610.905000", "173611.365000", "173611.825000", "173612.285000", "173612.745000", "173613.205000", "173613.665000", "173614.125000", "173614.585000", "173615.045000", "173615.505000", "173615.965000", "173616.425000", "173616.885000", "173617.345000", "173617.805000", "173618.265000"],
