{
  "AcquisitionMatrixPE": 82,
  "AcquisitionNumber": 1,
  "AcquisitionTime": "17:39:14.635000",
  "BandwidthPerPixelPhaseEncode": 24.888,
  "BaseResolution": 82,
  "BodyPartExamined": "BRAIN",
  "ConsistencyInfo": "N4_VE11E_LATEST_20181129",
  "ConversionSoftware": "dcm2niix",
  "ConversionSoftwareVersion": "v1.0.20201102",
  "DerivedVendorReportedEchoSpacing": 0.00049,
  "DeviceSerialNumber": "66112",
  "DwellTime": 2e-06,
  "EchoTime": 0.0272,
  "EchoTrainLength": 82,
  "EffectiveEchoSpacing": 0.00049,
  "FlipAngle": 44,
  "ImageComments": "Unaliased MB8/PE3",
  "ImageOrientationPatientDICOM": [0.999554, -0.0237076, -0.0181688, 0.0272218, 0.97341, 0.227447],
  "ImageType": [
    "ORIGINAL",
    "PRIMARY",
    "M",
    "MB",
    "ND",
    "NORM",
    "MOSAIC"
],
  "ImagingFrequency": 123.259,
  "InPlanePhaseEncodingDirectionDICOM": "COL",
  "InstitutionAddress": "Maynard 3,Hanover,NH,US,03755",
  "InstitutionName": "Dartmouth College - PBS",
  "InstitutionalDepartmentName": "Department",
  "MRAcquisitionType": "2D",
  "MagneticFieldStrength": 3,
  "Manufacturer": "Siemens",
  "ManufacturersModelName": "Prisma",
  "Modality": "MR",
  "MultibandAccelerationFactor": 8,
  "PartialFourier": 1,
  "PatientPosition": "HFS",
  "PercentPhaseFOV": 100,
  "PercentSampling": 100,
  "PhaseEncodingDirection": "j-",
  "PhaseEncodingSteps": 82,
  "PhaseResolution": 1,
  "PixelBandwidth": 3050,
  "ProcedureStepDescription": "Wager_Wager^1076_spacetop",
  "ProtocolName": "func_run-01_task-alignvideo_acq-ap-mb8",
  "PulseSequenceDetails": "%CustomerSeq%\\cmrr_mbep2d_bold",
  "ReceiveCoilActiveElements": "HEA;HEP",
  "ReceiveCoilName": "Head_32",
  "ReconMatrixPE": 82,
  "RepetitionTime": 0.46,
  "SAR": 0.115346,
  "ScanOptions": "FS",
  "ScanningSequence": "EP",
  "SequenceName": "epfid2d1_82",
  "SequenceVariant": "SK\\SS",
  "SeriesDescription": "func_run-01_task-alignvideo_acq-ap-mb8",
  "SeriesNumber": 30,
  "ShimSetting": [4207, -7806, -7207, 329, -95, -158, -1, 122],
  "SliceThickness": 2.7,
  "SliceTiming": [0, 0.25, 0.0625, 0.315, 0.125, 0.3775, 0.1875, 0, 0.25, 0.0625, 0.315, 0.125, 0.3775, 0.1875, 0, 0.25, 0.0625, 0.315, 0.125, 0.3775, 0.1875, 0, 0.25, 0.0625, 0.315, 0.125, 0.3775, 0.1875, 0, 0.25, 0.0625, 0.315, 0.125, 0.3775, 0.1875, 0, 0.25, 0.0625, 0.315, 0.125, 0.3775, 0.1875, 0, 0.25, 0.0625, 0.315, 0.125, 0.3775, 0.1875, 0, 0.25, 0.0625, 0.315, 0.125, 0.3775, 0.1875],
  "SoftwareVersions": "syngo MR E11",
  "SpacingBetweenSlices": 2.7,
  "StationName": "AWP66112",
  "TaskName": "alignvideo",
  "TotalReadoutTime": 0.03969,
  "TxRefAmp": 266.038,
  "WipMemBlock": "05789de3-e898-4ac1-8612-66fcde0392d8||Sequence: R016 ve11e/master r/434b28f1; Aug  7 2019 18:53:46 by eja",
  "dcmmeta_affine": [
    [-2.681729793548584, 0.07303398102521896, -0.03319227695465088, 112.9112548828125],
    [0.06360567361116409, 2.6115877628326416, 0.6151680946350098, -109.0362548828125],
    [-0.04874545335769653, -0.6102235317230225, 2.6287765502929688, -37.28997039794922],
    [0.0, 0.0, 0.0, 1.0]
],
  "dcmmeta_reorient_transform": [
    [0.0, -1.0, 0.0, 81.0],
    [1.0, 0.0, 0.0, 0.0],
    [0.0, 0.0, 1.0, 0.0],
    [0.0, 0.0, 0.0, 1.0]
],
  "dcmmeta_shape": [82, 82, 56, 1073],
  "dcmmeta_slice_dim": 2,
  "dcmmeta_version": 0.6,
  "global": {
    "const": {
      "AccessionNumber": "A004367",
      "AcquisitionMatrix": [82, 0, 0, 82],
      "AngioFlag": "N",
      "BitsAllocated": 16,
      "BitsStored": 16,
      "BodyPartExamined": "BRAIN",
      "Columns": 656,
      "EchoNumbers": 1,
      "EchoTime": 27.2,
      "EchoTrainLength": 82,
      "FlipAngle": 44.0,
      "HighBit": 15,
      "ImageOrientationPatient": [0.99955382414893, -0.0237075690747, -0.0181687588411, 0.02722175709243, 0.97340991703722, 0.22744693744784],
      "ImagePositionPatient": [-909.44422687503, -833.77316739993, -247.8622769981],
      "ImageType": [
        "ORIGINAL",
        "PRIMARY",
        "M",
        "MB",
        "ND",
        "NORM",
        "MOSAIC"
],
      "ImagedNucleus": "1H",
      "ImagingFrequency": 123.259084,
      "InPlanePhaseEncodingDirection": "COL",
      "MRAcquisitionType": "2D",
      "MagneticFieldStrength": 3.0,
      "Manufacturer": "SIEMENS",
      "ManufacturerModelName": "Prisma",
      "Modality": "MR",
      "NumberOfAverages": 1.0,
      "NumberOfPhaseEncodingSteps": 82,
      "PercentPhaseFieldOfView": 100.0,
      "PercentSampling": 100.0,
      "PerformedProcedureStepStartTime": "162534.667000",
      "PhotometricInterpretation": "MONOCHROME2",
      "PixelBandwidth": 3050.0,
      "PixelRepresentation": 0,
      "PixelSpacing": [2.6829268932343, 2.6829268932343],
      "ProtocolName": "func_run-01_task-alignvideo_acq-ap-mb8",
      "RepetitionTime": 460.0,
      "Rows": 656,
      "SAR": 0.11534614197649,
      "SamplesPerPixel": 1,
      "ScanOptions": "FS",
      "ScanningSequence": "EP",
      "SequenceName": "epfid2d1_82",
      "SequenceVariant": [
        "SK",
        "SS"
],
      "SeriesDescription": "func_run-01_task-alignvideo_acq-ap-mb8",
      "SeriesNumber": 30,
      "SeriesTime": "173933.153000",
      "SliceLocation": -62.537191002421,
      "SliceThickness": 2.7000000476837,
      "SmallestImagePixelValue": 0,
      "SoftwareVersions": "syngo MR E11",
      "SpacingBetweenSlices": 2.70000000975,
      "SpecificCharacterSet": "ISO_IR 100",
      "StudyID": "1",
      "StudyTime": "162534.600000",
      "TransmitCoilName": "Body",
      "VariableFlipAngleFlag": "N",
      "WindowCenterWidthExplanation": "Algo1"
    },
    "slices": {}
  },
  "time": {
    "samples": {
      "AcquisitionNumber": [1, 2, 3, 4, 5, 6, 7, 8, 9, 10, 11, 12, 13, 14, 15, 16, 17, 18, 19, 20, 21, 22, 23, 24, 25, 26, 27, 28, 29, 30, 31, 32, 33, 34, 35, 36, 37, 38, 39, 40, 41, 42, 43, 44, 45, 46, 47, 48, 49, 50, 51, 52, 53, 54, 55, 56, 57, 58, 59, 60, 61, 62, 63, 64, 65, 66, 67, 68, 69, 70, 71, 72, 73, 74, 75, 76, 77, 78, 79, 80, 81, 82, 83, 84, 85, 86, 87, 88, 89, 90, 91, 92, 93, 94, 95, 96, 97, 98, 99, 100, 101, 102, 103, 104, 105, 106, 107, 108, 109, 110, 111, 112, 113, 114, 115, 116, 117, 118, 119, 120, 121, 122, 123, 124, 125, 126, 127, 128, 129, 130, 131, 132, 133, 134, 135, 136, 137, 138, 139, 140, 141, 142, 143, 144, 145, 146, 147, 148, 149, 150, 151, 152, 153, 154, 155, 156, 157, 158, 159, 160, 161, 162, 163, 164, 165, 166, 167, 168, 169, 170, 171, 172, 173, 174, 175, 176, 177, 178, 179, 180, 181, 182, 183, 184, 185, 186, 187, 188, 189, 190, 191, 192, 193, 194, 195, 196, 197, 198, 199, 200, 201, 202, 203, 204, 205, 206, 207, 208, 209, 210, 211, 212, 213, 214, 215, 216, 217, 218, 219, 220, 221, 222, 223, 224, 225, 226, 227, 228, 229, 230, 231, 232, 233, 234, 235, 236, 237, 238, 239, 240, 241, 242, 243, 244, 245, 246, 247, 248, 249, 250, 251, 252, 253, 254, 255, 256, 257, 258, 259, 260, 261, 262, 263, 264, 265, 266, 267, 268, 269, 270, 271, 272, 273, 274, 275, 276, 277, 278, 279, 280, 281, 282, 283, 284, 285, 286, 287, 288, 289, 290, 291, 292, 293, 294, 295, 296, 297, 298, 299, 300, 301, 302, 303, 304, 305, 306, 307, 308, 309, 310, 311, 312, 313, 314, 315, 316, 317, 318, 319, 320, 321, 322, 323, 324, 325, 326, 327, 328, 329, 330, 331, 332, 333, 334, 335, 336, 337, 338, 339, 340, 341, 342, 343, 344, 345, 346, 347, 348, 349, 350, 351, 352, 353, 354, 355, 356, 357, 358, 359, 360, 361, 362, 363, 364, 365, 366, 367, 368, 369, 370, 371, 372, 373, 374, 375, 376, 377, 378, 379, 380, 381, 382, 383, 384, 385, 386, 387, 388, 389, 390, 391, 392, 393, 394, 395, 396, 397, 398, 399, 400, 401, 402, 403, 404, 405, 406, 407, 408, 409, 410, 411, 412, 413, 414, 415, 416, 417, 418, 419, 420, 421, 422, 423, 424, 425, 426, 427, 428, 429, 430, 431, 432, 433, 434, 435, 436, 437, 438, 439, 440, 441, 442, 443, 444, 445, 446, 447, 448, 449, 450, 451, 452, 453, 454, 455, 456, 457, 458, 459, 460, 461, 462, 463, 464, 465, 466, 467, 468, 469, 470, 471, 472, 473, 474, 475, 476, 477, 478, 479, 480, 481, 482, 483, 484, 485, 486, 487, 488, 489, 490, 491, 492, 493, 494, 495, 496, 497, 498, 499, 500, 501, 502, 503, 504, 505, 506, 507, 508, 509, 510, 511, 512, 513, 514, 515, 516, 517, 518, 519, 520, 521, 522, 523, 524, 525, 526, 527, 528, 529, 530, 531, 532, 533, 534, 535, 536, 537, 538, 539, 540, 541, 542, 543, 544, 545, 546, 547, 548, 549, 550, 551, 552, 553, 554, 555, 556, 557, 558, 559, 560, 561, 562, 563, 564, 565, 566, 567, 568, 569, 570, 571, 572, 573, 574, 575, 576, 577, 578, 579, 580, 581, 582, 583, 584, 585, 586, 587, 588, 589, 590, 591, 592, 593, 594, 595, 596, 597, 598, 599, 600, 601, 602, 603, 604, 605, 606, 607, 608, 609, 610, 611, 612, 613, 614, 615, 616, 617, 618, 619, 620, 621, 622, 623, 624, 625, 626, 627, 628, 629, 630, 631, 632, 633, 634, 635, 636, 637, 638, 639, 640, 641, 642, 643, 644, 645, 646, 647, 648, 649, 650, 651, 652, 653, 654, 655, 656, 657, 658, 659, 660, 661, 662, 663, 664, 665, 666, 667, 668, 669, 670, 671, 672, 673, 674, 675, 676, 677, 678, 679, 680, 681, 682, 683, 684, 685, 686, 687, 688, 689, 690, 691, 692, 693, 694, 695, 696, 697, 698, 699, 700, 701, 702, 703, 704, 705, 706, 707, 708, 709, 710, 711, 712, 713, 714, 715, 716, 717, 718, 719, 720, 721, 722, 723, 724, 725, 726, 727, 728, 729, 730, 731, 732, 733, 734, 735, 736, 737, 738, 739, 740, 741, 742, 743, 744, 745, 746, 747, 748, 749, 750, 751, 752, 753, 754, 755, 756, 757, 758, 759, 760, 761, 762, 763, 764, 765, 766, 767, 768, 769, 770, 771, 772, 773, 774, 775, 776, 777, 778, 779, 780, 781, 782, 783, 784, 785, 786, 787, 788, 789, 790, 791, 792, 793, 794, 795, 796, 797, 798, 799, 800, 801, 802, 803, 804, 805, 806, 807, 808, 809, 810, 811, 812, 813, 814, 815, 816, 817, 818, 819, 820, 821, 822, 823, 824, 825, 826, 827, 828, 829, 830, 831, 832, 833, 834, 835, 836, 837, 838, 839, 840, 841, 842, 843, 844, 845, 846, 847, 848, 849, 850, 851, 852, 853, 854, 855, 856, 857, 858, 859, 860, 861, 862, 863, 864, 865, 866, 867, 868, 869, 870, 871, 872, 873, 874, 875, 876, 877, 878, 879, 880, 881, 882, 883, 884, 885, 886, 887, 888, 889, 890, 891, 892, 893, 894, 895, 896, 897, 898, 899, 900, 901, 902, 903, 904, 905, 906, 907, 908, 909, 910, 911, 912, 913, 914, 915, 916, 917, 918, 919, 920, 921, 922, 923, 924, 925, 926, 927, 928, 929, 930, 931, 932, 933, 934, 935, 936, 937, 938, 939, 940, 941, 942, 943, 944, 945, 946, 947, 948, 949, 950, 951, 952, 953, 954, 955, 956, 957, 958, 959, 960, 961, 962, 963, 964, 965, 966, 967, 968, 969, 970, 971, 972, 973, 974, 975, 976, 977, 978, 979, 980, 981, 982, 983, 984, 985, 986, 987, 988, 989, 990, 991, 992, 993, 994, 995, 996, 997, 998, 999, 1000, 1001, 1002, 1003, 1004, 1005, 1006, 1007, 1008, 1009, 1010, 1011, 1012, 1013, 1014, 1015, 1016, 1017, 1018, 1019, 1020, 1021, 1022, 1023, 1024, 1025, 1026, 1027, 1028, 1029, 1030, 1031, 1032, 1033, 1034, 1035, 1036, 1037, 1038, 1039, 1040, 1041, 1042, 1043, 1044, 1045, 1046, 1047, 1048, 1049, 1050, 1051, 1052, 1053, 1054, 1055, 1056, 1057, 1058, 1059, 1060, 1061, 1062, 1063, 1064, 1065, 1066, 1067, 1068, 1069, 1070, 1071, 1072, 1073],
      "AcquisitionTime": ["173914.635000", "173915.095000", "173915.555000", "173916.015000", "173916.475000", "173916.935000", "173917.395000", "173917.855000", "173918.315000", "173918.775000", "173919.235000", "173919.695000", "173920.155000", "173920.615000", "173921.075000", "173921.535000", "173921.995000", "173922.455000", "173922.915000", "173923.375000", "173923.835000", "173924.295000", "173924.755000", "173925.215000", "173925.675000", "173926.135000", "173926.595000", "173927.055000", "173927.515000", "173927.975000", "173928.435000", "173928.895000", "173929.355000", "173929.815000", "173930.275000", "173930.735000", "173931.195000", "173931.655000", "173932.115000", "173932.575000", "173933.035000", "173933.495000", "173933.955000", "173934.415000", "173934.875000", "173935.335000", "173935.795000", "173936.255000", "173936.715000", "173937.175000", "173937.635000", "173938.095000", "173938.555000", "173939.015000", "173939.475000", "173939.935000", "173940.395000", "173940.855000", "173941.315000", "173941.775000", "173942.235000", "173942.695000", "173943.155000", "173943.615000", "173944.075000", "173944.535000", "173944.995000", "173945.455000", "173945.915000", "173946.375000", "173946.835000", "173947.295000", "173947.755000", "173948.215000", "173948.675000", "173949.135000", "173949.595000", "173950.055000", "173950.515000", "173950.975000", "173951.435000", "173951.895000", "173952.355000", "173952.815000", "173953.275000", "173953.735000", "173954.195000", "173954.655000", "173955.115000", "173955.575000", "173956.035000", "173956.495000", "173956.955000", "173957.415000", "173957.875000", "173958.335000", "173958.795000", "173959.255000", "173959.715000", "174000.175000", "174000.635000", "174001.095000", "174001.555000", "174002.015000", "174002.475000", "174002.935000", "174003.395000", "174003.855000", "174004.315000", "174004.775000", "174005.235000", "174005.695000", "174006.155000", "174006.615000", "174007.075000", "174007.535000", "174007.995000", "174008.455000", "174008.915000", "174009.375000", "174009.835000", "174010.295000", "174010.755000", "174011.215000", "174011.675000", "174012.135000", "174012.595000", "174013.055000", "174013.515000", "174013.975000", "174014.435000", "174014.895000", "174015.355000", "174015.815000", "174016.275000", "174016.735000", "174017.195000", "174017.655000", "174018.115000", "174018.575000", "174019.035000", "174019.495000", "174019.955000", "174020.415000", "174020.875000", "174021.335000", "174021.795000", "174022.255000", "174022.715000", "174023.175000", "174023.635000", "174024.095000", "174024.555000", "174025.015000", "174025.475000", "174025.935000", "174026.395000", "174026.855000", "174027.315000", "174027.775000", "174028.235000", "174028.695000", "174029.155000", "174029.615000", "174030.075000", "174030.535000", "174030.995000", "174031.455000", "174031.915000", "174032.375000", "174032.835000", "174033.295000", "174033.755000", "174034.215000", "174034.675000", "174035.135000", "174035.595000", "174036.055000", "174036.515000", "174036.975000", "174037.435000", "174037.895000", "174038.355000", "174038.815000", "174039.275000", "174039.735000", "174040.195000", "174040.655000", "174041.115000", "174041.575000", "174042.035000", "174042.495000", "174042.955000", "174043.415000", "174043.875000", "174044.335000", "174044.795000", "174045.255000", "174045.715000", "174046.175000", "174046.635000", "174047.095000", "174047.555000", "174048.015000", "174048.475000", "174048.935000", "174049.395000", "174049.855000", "174050.315000", "174050.775000", "174051.235000", "174051.695000", "174052.155000", "174052.615000", "174053.075000", "174053.535000", "174053.995000", "174054.455000", "174054.915000", "174055.375000", "174055.835000", "174056.295000", "174056.755000", "174057.215000", "174057.675000", "174058.135000", "174058.595000", "174059.055000", "174059.515000", "174059.975000", "174100.435000", "174100.895000", "174101.355000", "174101.815000", "174102.275000", "174102.735000", "174103.195000", "174103.655000", "174104.115000", "174104.575000", "174105.035000", "174105.495000", "174105.955000", "174106.415000", "174106.875000", "174107.335000", "174107.795000", "174108.255000", "174108.715000", "174109.175000", "174109.635000", "174110.095000", "174110.555000", "174111.015000", "174111.475000", "174111.935000", "174112.395000", "174112.855000", "174113.315000", "174113.775000", "174114.235000", "174114.695000", "174115.155000", "174115.615000", "174116.075000", "174116.535000", "174116.995000", "174117.455000", "174117.915000", "174118.375000", "174118.835000", "174119.295000", "174119.755000", "174120.215000", "174120.675000", "174121.135000", "174121.595000", "174122.055000", "174122.515000", "174122.975000", "174123.435000", "174123.895000", "174124.355000", "174124.815000", "174125.275000", "174125.735000", "174126.195000", "174126.655000", "174127.115000", "174127.575000", "174128.035000", "174128.495000", "174128.955000", "174129.415000", "174129.875000", "174130.335000", "174130.795000", "174131.255000", "174131.715000", "174132.175000", "174132.635000", "174133.095000", "174133.555000", "174134.015000", "174134.475000", "174134.935000", "174135.395000", "174135.855000", "174136.315000", "174136.775000", "174137.235000", "174137.695000", "174138.155000", "174138.615000", "174139.075000", "174139.535000", "174139.995000", "174140.455000", "174140.915000", "174141.375000", "174141.835000", "174142.295000", "174142.755000", "174143.215000", "174143.675000", "174144.135000", "174144.595000", "174145.055000", "174145.515000", "174145.975000", "174146.435000", "174146.895000", "174147.355000", "174147.815000", "174148.275000", "174148.735000", "174149.195000", "174149.655000", "174150.115000", "174150.575000", "174151.035000", "174151.495000", "174151.955000", "174152.415000", "174152.875000", "174153.335000", "174153.795000", "174154.255000", "174154.715000", "174155.175000", "174155.635000", "174156.095000", "174156.555000", "174157.015000", "174157.475000", "174157.935000", "174158.395000", "174158.855000", "174159.315000", "174159.775000", "174200.235000", "174200.695000", "174201.155000", "174201.615000", "174202.075000", "174202.535000", "174202.995000", "174203.455000", "174203.915000", "174204.375000", "174204.835000", "174205.295000", "174205.755000", "174206.215000", "174206.675000", "174207.135000", "174207.595000", "174208.055000", "174208.515000", "174208.975000", "174209.435000", "174209.895000", "174210.355000", "174210.815000", "174211.275000", "174211.735000", "174212.195000", "174212.655000", "174213.115000", "174213.575000", "174214.035000", "174214.495000", "174214.955000", "174215.415000", "174215.875000", "174216.335000", "174216.795000", "174217.255000", "174217.715000", "174218.175000", "174218.635000", "174219.095000", "174219.555000", "174220.015000", "174220.475000", "174220.935000", "174221.395000", "174221.855000", "174222.315000", "174222.775000", "174223.235000", "174223.695000", "174224.155000", "174224.615000", "174225.075000", "174225.535000", "174225.995000", "174226.455000", "174226.915000", "174227.375000", "174227.835000", "174228.295000", "174228.755000", "174229.215000", "174229.675000", "174230.135000", "174230.595000", "174231.055000", "174231.515000", "174231.975000", "174232.435000", "174232.895000", "174233.355000", "174233.815000", "174234.275000", "174234.735000", "174235.195000", "174235.655000", "174236.115000", "174236.575000", "174237.035000", "174237.495000", "174237.955000", "174238.415000", "174238.875000", "174239.335000", "174239.795000", "174240.255000", "174240.715000", "174241.175000", "174241.635000", "174242.095000", "174242.555000", "174243.015000", "174243.475000", "174243.935000", "174244.395000", "174244.855000", "174245.315000", "174245.775000", "174246.235000", "174246.695000", "174247.155000", "174247.615000", "174248.075000", "174248.535000", "174248.995000", "174249.455000", "174249.915000", "174250.375000", "174250.835000", "174251.295000", "174251.755000", "174252.215000", "174252.675000", "174253.135000", "174253.595000", "174254.055000", "174254.515000", "174254.975000", "174255.435000", "174255.895000", "174256.355000", "174256.815000", "174257.275000", "174257.735000", "174258.195000", "174258.655000", "174259.115000", "174259.575000", "174300.035000", "174300.495000", "174300.955000", "174301.415000", "174301.875000", "174302.335000", "174302.795000", "174303.255000", "174303.715000", "174304.175000", "174304.635000", "174305.095000", "174305.555000", "174306.015000", "174306.475000", "174306.935000", "174307.395000", "174307.855000", "174308.315000", "174308.775000", "174309.235000", "174309.695000", "174310.155000", "174310.615000", "174311.075000", "174311.535000", "174311.995000", "174312.455000", "174312.915000", "174313.375000", "174313.835000", "174314.295000", "174314.755000", "174315.215000", "174315.675000", "174316.135000", "174316.595000", "174317.055000", "174317.515000", "174317.975000", "174318.435000", "174318.895000", "174319.355000", "174319.815000", "174320.275000", "174320.735000", "174321.195000", "174321.655000", "174322.115000", "174322.575000", "174323.035000", "174323.495000", "174323.955000", "174324.415000", "174324.875000", "174325.335000", "174325.795000", "174326.255000", "174326.715000", "174327.175000", "174327.635000", "174328.095000", "174328.555000", "174329.015000", "174329.475000", "174329.935000", "174330.395000", "174330.855000", "174331.315000", "174331.775000", "174332.235000", "174332.695000", "174333.155000", "174333.615000", "174334.075000", "174334.535000", "174334.995000", "174335.455000", "174335.915000", "174336.375000", "174336.835000", "174337.295000", "174337.755000", "174338.215000", "174338.675000", "174339.135000", "174339.595000", "174340.055000", "174340.515000", "174340.975000", "174341.435000", "174341.895000", "174342.355000", "174342.815000", "174343.275000", "174343.735000", "174344.195000", "174344.655000", "174345.115000", "174345.575000", "174346.035000", "174346.495000", "174346.955000", "174347.415000", "174347.875000", "174348.335000", "174348.795000", "174349.255000", "174349.715000", "174350.175000", "174350.635000", "174351.095000", "174351.555000", "174352.015000", "174352.475000", "174352.935000", "174353.395000", "174353.855000", "174354.315000", "174354.775000", "174355.235000", "174355.695000", "174356.155000", "174356.615000", "174357.075000", "174357.535000", "174357.995000", "174358.455000", "174358.915000", "174359.375000", "174359.835000", "174400.295000", "174400.755000", "174401.215000", "174401.675000", "174402.135000", "174402.595000", "174403.055000", "174403.515000", "174403.975000", "174404.435000", "174404.895000", "174405.355000", "174405.815000", "174406.275000", "174406.735000", "174407.195000", "174407.655000", "174408.115000", "174408.575000", "174409.035000", "174409.495000", "174409.955000", "174410.415000", "174410.875000", "174411.335000", "174411.795000", "174412.255000", "174412.715000", "174413.175000", "174413.635000", "174414.095000", "174414.555000", "174415.015000", "174415.475000", "174415.935000", "174416.395000", "174416.855000", "174417.315000", "174417.775000", "174418.235000", "174418.695000", "174419.155000", "174419.615000", "174420.075000", "174420.535000", "174420.995000", "174421.455000", "174421.915000", "174422.375000", "174422.835000", "174423.295000", "174423.755000", "174424.215000", "174424.675000", "174425.135000", "174425.595000", "174426.055000", "174426.515000", "174426.975000", "174427.435000", "174427.895000", "174428.355000", "174428.815000", "174429.275000", "174429.735000", "174430.195000", "174430.655000", "174431.115000", "174431.575000", "174432.035000", "174432.495000", "174432.955000", "174433.415000", "174433.875000", "174434.335000", "174434.795000", "174435.255000", "174435.715000", "174436.175000", "174436.635000", "174437.095000", "174437.555000", "174438.015000", "174438.475000", "174438.935000", "174439.395000", "174439.855000", "174440.315000", "174440.775000", "174441.235000", "174441.695000", "174442.155000", "174442.615000", "174443.075000", "174443.535000", "174443.995000", "174444.455000", "174444.915000", "174445.375000", "174445.835000", "174446.295000", "174446.755000", "174447.215000", "174447.675000", "174448.135000", "174448.595000", "174449.055000", "174449.515000", "174449.975000", "174450.435000", "174450.895000", "174451.355000", "174451.815000", "174452.275000", "174452.735000", "174453.195000", "174453.655000", "174454.115000", "174454.575000", "174455.035000", "174455.495000", "174455.955000", "174456.415000", "174456.875000", "174457.335000", "174457.795000", "174458.255000", "174458.715000", "174459.175000", "174459.635000", "174500.095000", "174500.555000", "174501.015000", "174501.475000", "174501.935000", "174502.395000", "174502.855000", "174503.315000", "174503.775000", "174504.235000", "174504.695000", "174505.155000", "174505.615000", "174506.075000", "174506.535000", "174506.995000", "174507.455000", "174507.915000", "174508.375000", "174508.835000", "174509.295000", "174509.755000", "174510.215000", "174510.675000", "174511.135000", "174511.595000", "174512.055000", "174512.515000", "174512.975000", "174513.435000", "174513.895000", "174514.355000", "174514.815000", "174515.275000", "174515.735000", "174516.195000", "174516.655000", "174517.115000", "174517.575000", "174518.035000", "174518.495000", "174518.955000", "174519.415000", "174519.875000", "174520.335000", "174520.795000", "174521.255000", "174521.715000", "174522.175000", "174522.635000", "174523.095000", "174523.555000", "174524.015000", "174524.475000", "174524.935000", "174525.395000", "174525.855000", "174526.315000", "174526.775000", "174527.235000", "174527.695000", "174528.155000", "174528.615000", "174529.075000", "174529.535000", "174529.995000", "174530.455000", "174530.915000", "174531.375000", "174531.835000", "174532.295000", "174532.755000", "174533.215000", "174533.675000", "174534.135000", "174534.595000", "174535.055000", "174535.515000", "174535.975000", "174536.435000", "174536.895000", "174537.355000", "174537.815000", "174538.275000", "174538.735000", "174539.195000", "174539.655000", "174540.115000", "174540.575000", "174541.035000", "174541.495000", "174541.955000", "174542.415000", "174542.875000", "174543.335000", "174543.795000", "174544.255000", "174544.715000", "174545.175000", "174545.635000", "174546.095000", "174546.555000", "174547.015000", "174547.475000", "174547.935000", "174548.395000", "174548.855000", "174549.315000", "174549.775000", "174550.235000", "174550.695000", "174551.155000", "174551.615000", "174552.075000", "174552.535000", "174552.995000", "174553.455000", "174553.915000", "174554.375000", "174554.835000", "174555.295000", "174555.755000", "174556.215000", "174556.675000", "174557.135000", "174557.595000", "174558.055000", "174558.515000", "174558.975000", "174559.435000", "174559.895000", "174600.355000", "174600.815000", "174601.275000", "174601.735000", "174602.195000", "174602.655000", "174603.115000", "174603.575000", "174604.035000", "174604.495000", "174604.955000", "174605.415000", "174605.875000", "174606.335000", "174606.795000", "174607.255000", "174607.715000", "174608.175000", "174608.635000", "174609.095000", "174609.555000", "174610.015000", "174610.475000", "174610.935000", "174611.395000", "174611.855000", "174612.315000", "174612.775000", "174613.235000", "174613.695000", "174614.155000", "174614.615000", "174615.075000", "174615.535000", "174615.995000", "174616.455000", "174616.915000", "174617.375000", "174617.835000", "174618.295000", "174618.755000", "174619.215000", "174619.675000", "174620.135000", "174620.595000", "174621.055000", "174621.515000", "174621.975000", "174622.435000", "174622.895000", "174623.355000", "174623.815000", "174624.275000", "174624.735000", "174625.195000", "174625.655000", "174626.115000", "174626.575000", "174627.035000", "174627.495000", "174627.955000", "174628.415000", "174628.875000", "174629.335000", "174629.795000", "174630.255000", "174630.715000", "174631.175000", "174631.635000", "174632.095000", "174632.555000", "174633.015000", "174633.475000", "174633.935000", "174634.395000", "174634.855000", "174635.315000", "174635.775000", "174636.235000", "174636.695000", "174637.155000", "174637.615000", "174638.075000", "174638.535000", "174638.995000", "174639.455000", "174639.915000", "174640.375000", "174640.835000", "174641.295000", "174641.755000", "174642.215000", "174642.675000", "174643.135000", "174643.595000", "174644.055000", "174644.515000", "174644.975000", "174645.435000", "174645.895000", "174646.355000", "174646.815000", "174647.275000", "174647.735000", "174648.195000", "174648.655000", "174649.115000", "174649.575000", "174650.035000", "174650.495000", "174650.955000", "174651.415000", "174651.875000", "174652.335000", "174652.795000", "174653.255000", "174653.715000", "174654.175000", "174654.635000", "174655.095000", "174655.555000", "174656.015000", "174656.475000", "174656.935000", "174657.395000", "174657.855000", "174658.315000", "174658.775000", "174659.235000", "174659.695000", "174700.155000", "174700.615000", "174701.075000", "174701.535000", "174701.995000", "174702.455000", "174702.915000", "174703.375000", "174703.835000", "174704.295000", "174704.755000", "174705.215000", "174705.675000", "174706.135000", "174706.595000", "174707.055000", "174707.515000", "174707.975000", "174708.435000", "174708.895000", "174709.355000", "174709.815000", "174710.275000", "174710.735000", "174711.195000", "174711.655000", "174712.115000", "174712.575000", "174713.035000", "174713.495000", "174713.955000", "174714.415000", "174714.875000", "174715.335000", "174715.795000", "174716.255000", "174716.715000", "174717.175000", "174717.635000", "174718.095000", "174718.555000", "174719.015000", "174719.475000", "174719.935000", "174720.395000", "174720.855000", "174721.315000", "174721.775000", "174722.235000", "174722.695000", "174723.155000", "174723.615000", "174724.075000", "174724.535000", "174724.995000", "174725.455000", "174725.915000", "174726.375000", "174726.835000", "174727.295000", "174727.755000"],
