{
  "AcquisitionMatrixPE": 82,
  "AcquisitionNumber": 1,
  "AcquisitionTime": "13:49:54.102500",
  "BandwidthPerPixelPhaseEncode": 24.888,
  "BaseResolution": 82,
  "BodyPartExamined": "BRAIN",
  "ConsistencyInfo": "N4_VE11E_LATEST_20181129",
  "ConversionSoftware": "dcm2niix",
  "ConversionSoftwareVersion": "v1.0.20201102",
  "DerivedVendorReportedEchoSpacing": 0.00049,
  "DeviceSerialNumber": "66112",
  "DwellTime": 2e-06,
  "EchoTime": 0.0272,
  "EchoTrainLength": 82,
  "EffectiveEchoSpacing": 0.00049,
  "FlipAngle": 44,
  "ImageComments": "Unaliased MB8/PE3",
  "ImageOrientationPatientDICOM": [0.998152, 0.00518772, 0.060546, -0.0151574, 0.986112, 0.16539],
  "ImageType": [
    "ORIGINAL",
    "PRIMARY",
    "M",
    "MB",
    "ND",
    "NORM",
    "MOSAIC"
],
  "ImagingFrequency": 123.259,
  "InPlanePhaseEncodingDirectionDICOM": "COL",
  "InstitutionAddress": "Maynard 3,Hanover,NH,US,03755",
  "InstitutionName": "Dartmouth College - PBS",
  "InstitutionalDepartmentName": "Department",
  "MRAcquisitionType": "2D",
  "MagneticFieldStrength": 3,
  "Manufacturer": "Siemens",
  "ManufacturersModelName": "Prisma",
  "Modality": "MR",
  "MultibandAccelerationFactor": 8,
  "PartialFourier": 1,
  "PatientPosition": "HFS",
  "PercentPhaseFOV": 100,
  "PercentSampling": 100,
  "PhaseEncodingDirection": "j-",
  "PhaseEncodingSteps": 82,
  "PhaseResolution": 1,
  "PixelBandwidth": 3050,
  "ProcedureStepDescription": "Wager_Wager^1076_spacetop",
  "ProtocolName": "func_run-02_task-social_acq-ap-mb8",
  "PulseSequenceDetails": "%CustomerSeq%\\cmrr_mbep2d_bold",
  "ReceiveCoilActiveElements": "HEA;HEP",
  "ReceiveCoilName": "Head_32",
  "ReconMatrixPE": 82,
  "RepetitionTime": 0.46,
  "SAR": 0.0857244,
  "ScanOptions": "FS",
  "ScanningSequence": "EP",
  "SequenceName": "epfid2d1_82",
  "SequenceVariant": "SK\\SS",
  "SeriesDescription": "func_run-02_task-social_acq-ap-mb8",
  "SeriesNumber": 10,
  "ShimSetting": [4242, -7794, -7222, 389, -150, 23, 137, 59],
  "SliceThickness": 2.7,
  "SliceTiming": [0, 0.25, 0.0625, 0.3125, 0.125, 0.375, 0.1875, 0, 0.25, 0.0625, 0.3125, 0.125, 0.375, 0.1875, 0, 0.25, 0.0625, 0.3125, 0.125, 0.375, 0.1875, 0, 0.25, 0.0625, 0.3125, 0.125, 0.375, 0.1875, 0, 0.25, 0.0625, 0.3125, 0.125, 0.375, 0.1875, 0, 0.25, 0.0625, 0.3125, 0.125, 0.375, 0.1875, 0, 0.25, 0.0625, 0.3125, 0.125, 0.375, 0.1875, 0, 0.25, 0.0625, 0.3125, 0.125, 0.375, 0.1875],
  "SoftwareVersions": "syngo MR E11",
  "SpacingBetweenSlices": 2.7,
  "StationName": "AWP66112",
  "TaskName": "social",
  "TotalReadoutTime": 0.03969,
  "TxRefAmp": 220.894,
  "WipMemBlock": "7b9521fd-a4a2-4c74-b50f-cafcea81caed||Sequence: R016 ve11e/master r/434b28f1; Aug  7 2019 18:53:46 by eja",
  "dcmmeta_affine": [
    [-2.677968740463257, -0.04066622629761696, 0.1588873416185379, 109.45892333984375],
    [-0.013918265700340271, 2.6456656455993652, 0.44820651412010193, -112.35665130615234],
    [0.16244059801101685, -0.4437301754951477, 2.6577935218811035, -51.52315139770508],
    [0.0, 0.0, 0.0, 1.0]
],
  "dcmmeta_reorient_transform": [
    [0.0, -1.0, 0.0, 81.0],
    [1.0, 0.0, 0.0, 0.0],
    [0.0, 0.0, 1.0, 0.0],
    [0.0, 0.0, 0.0, 1.0]
],
  "dcmmeta_shape": [82, 82, 56, 872],
  "dcmmeta_slice_dim": 2,
  "dcmmeta_version": 0.6,
  "global": {
    "const": {
      "AccessionNumber": "A004848",
      "AcquisitionMatrix": [82, 0, 0, 82],
      "AngioFlag": "N",
      "BitsAllocated": 16,
      "BitsStored": 16,
      "BodyPartExamined": "BRAIN",
      "Columns": 656,
      "EchoNumbers": 1,
      "EchoTime": 27.2,
      "EchoTrainLength": 82,
      "FlipAngle": 44.0,
      "HighBit": 15,
      "ImageOrientationPatient": [0.99815192459098, 0.00518771703645, 0.06054604055818, -0.0151574106883, 0.98611170191762, 0.16539033902366],
      "ImagePositionPatient": [-863.07075596971, -865.24283008029, -261.43631201576],
      "ImageType": [
        "ORIGINAL",
        "PRIMARY",
        "M",
        "MB",
        "ND",
        "NORM",
        "MOSAIC"
],
      "ImagedNucleus": "1H",
      "ImagingFrequency": 123.259039,
      "InPlanePhaseEncodingDirection": "COL",
      "MRAcquisitionType": "2D",
      "MagneticFieldStrength": 3.0,
      "Manufacturer": "SIEMENS",
      "ManufacturerModelName": "Prisma",
      "Modality": "MR",
      "NumberOfAverages": 1.0,
      "NumberOfPhaseEncodingSteps": 82,
      "PercentPhaseFieldOfView": 100.0,
      "PercentSampling": 100.0,
      "PerformedProcedureStepStartTime": "132939.511000",
      "PhotometricInterpretation": "MONOCHROME2",
      "PixelBandwidth": 3050.0,
      "PixelRepresentation": 0,
      "PixelSpacing": [2.6829268932343, 2.6829268932343],
      "ProtocolName": "func_run-02_task-social_acq-ap-mb8",
      "RepetitionTime": 460.0,
      "Rows": 656,
      "SAR": 0.08572440767402,
      "SamplesPerPixel": 1,
      "ScanOptions": "FS",
      "ScanningSequence": "EP",
      "SequenceName": "epfid2d1_82",
      "SequenceVariant": [
        "SK",
        "SS"
],
      "SeriesDescription": "func_run-02_task-social_acq-ap-mb8",
      "SeriesNumber": 10,
      "SeriesTime": "135004.886000",
      "SliceLocation": -62.927864610722,
      "SliceThickness": 2.7000000476837,
      "SmallestImagePixelValue": 0,
      "SoftwareVersions": "syngo MR E11",
      "SpacingBetweenSlices": 2.7000000212658,
      "SpecificCharacterSet": "ISO_IR 100",
      "StudyID": "1",
      "StudyTime": "132939.355000",
      "TransmitCoilName": "Body",
      "VariableFlipAngleFlag": "N",
      "WindowCenterWidthExplanation": "Algo1"
    },
    "slices": {}
  },
  "time": {
    "samples": {
      "AcquisitionNumber": [1, 2, 3, 4, 5, 6, 7, 8, 9, 10, 11, 12, 13, 14, 15, 16, 17, 18, 19, 20, 21, 22, 23, 24, 25, 26, 27, 28, 29, 30, 31, 32, 33, 34, 35, 36, 37, 38, 39, 40, 41, 42, 43, 44, 45, 46, 47, 48, 49, 50, 51, 52, 53, 54, 55, 56, 57, 58, 59, 60, 61, 62, 63, 64, 65, 66, 67, 68, 69, 70, 71, 72, 73, 74, 75, 76, 77, 78, 79, 80, 81, 82, 83, 84, 85, 86, 87, 88, 89, 90, 91, 92, 93, 94, 95, 96, 97, 98, 99, 100, 101, 102, 103, 104, 105, 106, 107, 108, 109, 110, 111, 112, 113, 114, 115, 116, 117, 118, 119, 120, 121, 122, 123, 124, 125, 126, 127, 128, 129, 130, 131, 132, 133, 134, 135, 136, 137, 138, 139, 140, 141, 142, 143, 144, 145, 146, 147, 148, 149, 150, 151, 152, 153, 154, 155, 156, 157, 158, 159, 160, 161, 162, 163, 164, 165, 166, 167, 168, 169, 170, 171, 172, 173, 174, 175, 176, 177, 178, 179, 180, 181, 182, 183, 184, 185, 186, 187, 188, 189, 190, 191, 192, 193, 194, 195, 196, 197, 198, 199, 200, 201, 202, 203, 204, 205, 206, 207, 208, 209, 210, 211, 212, 213, 214, 215, 216, 217, 218, 219, 220, 221, 222, 223, 224, 225, 226, 227, 228, 229, 230, 231, 232, 233, 234, 235, 236, 237, 238, 239, 240, 241, 242, 243, 244, 245, 246, 247, 248, 249, 250, 251, 252, 253, 254, 255, 256, 257, 258, 259, 260, 261, 262, 263, 264, 265, 266, 267, 268, 269, 270, 271, 272, 273, 274, 275, 276, 277, 278, 279, 280, 281, 282, 283, 284, 285, 286, 287, 288, 289, 290, 291, 292, 293, 294, 295, 296, 297, 298, 299, 300, 301, 302, 303, 304, 305, 306, 307, 308, 309, 310, 311, 312, 313, 314, 315, 316, 317, 318, 319, 320, 321, 322, 323, 324, 325, 326, 327, 328, 329, 330, 331, 332, 333, 334, 335, 336, 337, 338, 339, 340, 341, 342, 343, 344, 345, 346, 347, 348, 349, 350, 351, 352, 353, 354, 355, 356, 357, 358, 359, 360, 361, 362, 363, 364, 365, 366, 367, 368, 369, 370, 371, 372, 373, 374, 375, 376, 377, 378, 379, 380, 381, 382, 383, 384, 385, 386, 387, 388, 389, 390, 391, 392, 393, 394, 395, 396, 397, 398, 399, 400, 401, 402, 403, 404, 405, 406, 407, 408, 409, 410, 411, 412, 413, 414, 415, 416, 417, 418, 419, 420, 421, 422, 423, 424, 425, 426, 427, 428, 429, 430, 431, 432, 433, 434, 435, 436, 437, 438, 439, 440, 441, 442, 443, 444, 445, 446, 447, 448, 449, 450, 451, 452, 453, 454, 455, 456, 457, 458, 459, 460, 461, 462, 463, 464, 465, 466, 467, 468, 469, 470, 471, 472, 473, 474, 475, 476, 477, 478, 479, 480, 481, 482, 483, 484, 485, 486, 487, 488, 489, 490, 491, 492, 493, 494, 495, 496, 497, 498, 499, 500, 501, 502, 503, 504, 505, 506, 507, 508, 509, 510, 511, 512, 513, 514, 515, 516, 517, 518, 519, 520, 521, 522, 523, 524, 525, 526, 527, 528, 529, 530, 531, 532, 533, 534, 535, 536, 537, 538, 539, 540, 541, 542, 543, 544, 545, 546, 547, 548, 549, 550, 551, 552, 553, 554, 555, 556, 557, 558, 559, 560, 561, 562, 563, 564, 565, 566, 567, 568, 569, 570, 571, 572, 573, 574, 575, 576, 577, 578, 579, 580, 581, 582, 583, 584, 585, 586, 587, 588, 589, 590, 591, 592, 593, 594, 595, 596, 597, 598, 599, 600, 601, 602, 603, 604, 605, 606, 607, 608, 609, 610, 611, 612, 613, 614, 615, 616, 617, 618, 619, 620, 621, 622, 623, 624, 625, 626, 627, 628, 629, 630, 631, 632, 633, 634, 635, 636, 637, 638, 639, 640, 641, 642, 643, 644, 645, 646, 647, 648, 649, 650, 651, 652, 653, 654, 655, 656, 657, 658, 659, 660, 661, 662, 663, 664, 665, 666, 667, 668, 669, 670, 671, 672, 673, 674, 675, 676, 677, 678, 679, 680, 681, 682, 683, 684, 685, 686, 687, 688, 689, 690, 691, 692, 693, 694, 695, 696, 697, 698, 699, 700, 701, 702, 703, 704, 705, 706, 707, 708, 709, 710, 711, 712, 713, 714, 715, 716, 717, 718, 719, 720, 721, 722, 723, 724, 725, 726, 727, 728, 729, 730, 731, 732, 733, 734, 735, 736, 737, 738, 739, 740, 741, 742, 743, 744, 745, 746, 747, 748, 749, 750, 751, 752, 753, 754, 755, 756, 757, 758, 759, 760, 761, 762, 763, 764, 765, 766, 767, 768, 769, 770, 771, 772, 773, 774, 775, 776, 777, 778, 779, 780, 781, 782, 783, 784, 785, 786, 787, 788, 789, 790, 791, 792, 793, 794, 795, 796, 797, 798, 799, 800, 801, 802, 803, 804, 805, 806, 807, 808, 809, 810, 811, 812, 813, 814, 815, 816, 817, 818, 819, 820, 821, 822, 823, 824, 825, 826, 827, 828, 829, 830, 831, 832, 833, 834, 835, 836, 837, 838, 839, 840, 841, 842, 843, 844, 845, 846, 847, 848, 849, 850, 851, 852, 853, 854, 855, 856, 857, 858, 859, 860, 861, 862, 863, 864, 865, 866, 867, 868, 869, 870, 871, 872],
      "AcquisitionTime": ["134954.102500", "134954.562500", "134955.022500", "134955.482500", "134955.942500", "134956.402500", "134956.862500", "134957.322500", "134957.782500", "134958.242500", "134958.702500", "134959.162500", "134959.622500", "135000.082500", "135000.542500", "135001.002500", "135001.462500", "135001.922500", "135002.382500", "135002.842500", "135003.302500", "135003.762500", "135004.222500", "135004.682500", "135005.142500", "135005.602500", "135006.062500", "135006.522500", "135006.982500", "135007.442500", "135007.902500", "135008.362500", "135008.822500", "135009.282500", "135009.742500", "135010.202500", "135010.662500", "135011.122500", "135011.582500", "135012.042500", "135012.502500", "135012.962500", "135013.422500", "135013.882500", "135014.342500", "135014.802500", "135015.262500", "135015.722500", "135016.182500", "135016.642500", "135017.102500", "135017.562500", "135018.022500", "135018.482500", "135018.942500", "135019.402500", "135019.862500", "135020.322500", "135020.782500", "135021.242500", "135021.702500", "135022.162500", "135022.622500", "135023.082500", "135023.542500", "135024.002500", "135024.462500", "135024.922500", "135025.382500", "135025.842500", "135026.302500", "135026.762500", "135027.222500", "135027.682500", "135028.142500", "135028.602500", "135029.062500", "135029.522500", "135029.982500", "135030.442500", "135030.902500", "135031.362500", "135031.822500", "135032.282500", "135032.742500", "135033.202500", "135033.662500", "135034.122500", "135034.582500", "135035.042500", "135035.502500", "135035.962500", "135036.422500", "135036.882500", "135037.342500", "135037.802500", "135038.262500", "135038.722500", "135039.182500", "135039.642500", "135040.102500", "135040.562500", "135041.022500", "135041.482500", "135041.942500", "135042.402500", "135042.862500", "135043.322500", "135043.782500", "135044.242500", "135044.702500", "135045.162500", "135045.622500", "135046.082500", "135046.542500", "135047.002500", "135047.462500", "135047.922500", "135048.382500", "135048.842500", "135049.302500", "135049.762500", "135050.222500", "135050.682500", "135051.142500", "135051.602500", "135052.062500", "135052.522500", "135052.982500", "135053.442500", "135053.902500", "135054.362500", "135054.822500", "135055.282500", "135055.742500", "135056.202500", "135056.662500", "135057.122500", "135057.582500", "135058.042500", "135058.502500", "135058.962500", "135059.422500", "135059.882500", "135100.342500", "135100.802500", "135101.262500", "135101.722500", "135102.182500", "135102.642500", "135103.102500", "135103.562500", "135104.022500", "135104.482500", "135104.942500", "135105.402500", "135105.862500", "135106.322500", "135106.782500", "135107.242500", "135107.702500", "135108.162500", "135108.622500", "135109.082500", "135109.542500", "135110.002500", "135110.462500", "135110.922500", "135111.382500", "135111.842500", "135112.302500", "135112.762500", "135113.222500", "135113.682500", "135114.142500", "135114.602500", "135115.062500", "135115.522500", "135115.982500", "135116.442500", "135116.902500", "135117.362500", "135117.822500", "135118.282500", "135118.742500", "135119.202500", "135119.662500", "135120.122500", "135120.582500", "135121.042500", "135121.502500", "135121.962500", "135122.422500", "135122.882500", "135123.342500", "135123.802500", "135124.262500", "135124.722500", "135125.182500", "135125.642500", "135126.102500", "135126.562500", "135127.022500", "135127.482500", "135127.942500", "135128.402500", "135128.862500", "135129.322500", "135129.782500", "135130.242500", "135130.702500", "135131.162500", "135131.622500", "135132.082500", "135132.542500", "135133.002500", "135133.462500", "135133.922500", "135134.382500", "135134.842500", "135135.302500", "135135.762500", "135136.222500", "135136.682500", "135137.142500", "135137.602500", "135138.062500", "135138.522500", "135138.982500", "135139.442500", "135139.902500", "135140.362500", "135140.822500", "135141.282500", "135141.742500", "135142.202500", "135142.662500", "135143.122500", "135143.582500", "135144.042500", "135144.502500", "135144.962500", "135145.422500", "135145.882500", "135146.342500", "135146.802500", "135147.262500", "135147.722500", "135148.182500", "135148.642500", "135149.102500", "135149.562500", "135150.022500", "135150.482500", "135150.942500", "135151.402500", "135151.862500", "135152.322500", "135152.782500", "135153.242500", "135153.702500", "135154.162500", "135154.622500", "135155.082500", "135155.542500", "135156.002500", "135156.462500", "135156.922500", "135157.382500", "135157.842500", "135158.302500", "135158.762500", "135159.222500", "135159.682500", "135200.142500", "135200.602500", "135201.062500", "135201.522500", "135201.982500", "135202.442500", "135202.902500", "135203.362500", "135203.822500", "135204.282500", "135204.742500", "135205.202500", "135205.662500", "135206.122500", "135206.582500", "135207.042500", "135207.502500", "135207.962500", "135208.422500", "135208.882500", "135209.342500", "135209.802500", "135210.262500", "135210.722500", "135211.182500", "135211.642500", "135212.102500", "135212.562500", "135213.022500", "135213.482500", "135213.942500", "135214.402500", "135214.862500", "135215.322500", "135215.782500", "135216.242500", "135216.702500", "135217.162500", "135217.622500", "135218.082500", "135218.542500", "135219.002500", "135219.462500", "135219.922500", "135220.382500", "135220.842500", "135221.302500", "135221.762500", "135222.222500", "135222.682500", "135223.142500", "135223.602500", "135224.062500", "135224.522500", "135224.982500", "135225.442500", "135225.902500", "135226.362500", "135226.822500", "135227.282500", "135227.742500", "135228.202500", "135228.662500", "135229.122500", "135229.582500", "135230.042500", "135230.502500", "135230.962500", "135231.422500", "135231.882500", "135232.342500", "135232.802500", "135233.262500", "135233.722500", "135234.182500", "135234.642500", "135235.102500", "135235.562500", "135236.022500", "135236.482500", "135236.942500", "135237.402500", "135237.862500", "135238.322500", "135238.782500", "135239.242500", "135239.702500", "135240.162500", "135240.622500", "135241.082500", "135241.542500", "135242.002500", "135242.462500", "135242.922500", "135243.382500", "135243.842500", "135244.302500", "135244.762500", "135245.222500", "135245.682500", "135246.142500", "135246.602500", "135247.062500", "135247.522500", "135247.982500", "135248.442500", "135248.902500", "135249.362500", "135249.822500", "135250.282500", "135250.742500", "135251.202500", "135251.662500", "135252.122500", "135252.582500", "135253.042500", "135253.502500", "135253.962500", "135254.422500", "135254.882500", "135255.342500", "135255.802500", "135256.262500", "135256.722500", "135257.182500", "135257.642500", "135258.102500", "135258.562500", "135259.022500", "135259.482500", "135259.942500", "135300.402500", "135300.862500", "135301.322500", "135301.782500", "135302.242500", "135302.702500", "135303.162500", "135303.622500", "135304.082500", "135304.542500", "135305.002500", "135305.462500", "135305.922500", "135306.382500", "135306.842500", "135307.302500", "135307.762500", "135308.222500", "135308.682500", "135309.142500", "135309.602500", "135310.062500", "135310.522500", "135310.982500", "135311.442500", "135311.902500", "135312.362500", "135312.822500", "135313.282500", "135313.742500", "135314.202500", "135314.662500", "135315.122500", "135315.582500", "135316.042500", "135316.502500", "135316.962500", "135317.422500", "135317.882500", "135318.342500", "135318.802500", "135319.262500", "135319.722500", "135320.182500", "135320.642500", "135321.102500", "135321.562500", "135322.022500", "135322.482500", "135322.942500", "135323.402500", "135323.862500", "135324.322500", "135324.782500", "135325.242500", "135325.702500", "135326.162500", "135326.622500", "135327.082500", "135327.542500", "135328.002500", "135328.462500", "135328.922500", "135329.382500", "135329.842500", "135330.302500", "135330.762500", "135331.222500", "135331.682500", "135332.142500", "135332.602500", "135333.062500", "135333.522500", "135333.982500", "135334.442500", "135334.902500", "135335.362500", "135335.822500", "135336.282500", "135336.742500", "135337.202500", "135337.662500", "135338.122500", "135338.582500", "135339.042500", "135339.502500", "135339.962500", "135340.422500", "135340.882500", "135341.342500", "135341.802500", "135342.262500", "135342.722500", "135343.182500", "135343.642500", "135344.102500", "135344.562500", "135345.022500", "135345.482500", "135345.942500", "135346.402500", "135346.862500", "135347.322500", "135347.782500", "135348.242500", "135348.702500", "135349.162500", "135349.622500", "135350.082500", "135350.542500", "135351.002500", "135351.462500", "135351.922500", "135352.382500", "135352.842500", "135353.302500", "135353.762500", "135354.222500", "135354.682500", "135355.142500", "135355.602500", "135356.062500", "135356.522500", "135356.982500", "135357.442500", "135357.902500", "135358.362500", "135358.822500", "135359.282500", "135359.742500", "135400.202500", "135400.662500", "135401.122500", "135401.582500", "135402.042500", "135402.502500", "135402.962500", "135403.422500", "135403.882500", "135404.342500", "135404.802500", "135405.262500", "135405.722500", "135406.182500", "135406.642500", "135407.102500", "135407.562500", "135408.022500", "135408.482500", "135408.942500", "135409.402500", "135409.862500", "135410.322500", "135410.782500", "135411.242500", "135411.702500", "135412.162500", "135412.622500", "135413.082500", "135413.542500", "135414.002500", "135414.462500", "135414.922500", "135415.382500", "135415.842500", "135416.302500", "135416.762500", "135417.222500", "135417.682500", "135418.142500", "135418.602500", "135419.062500", "135419.522500", "135419.982500", "135420.442500", "135420.902500", "135421.362500", "135421.822500", "135422.282500", "135422.742500", "135423.202500", "135423.662500", "135424.122500", "135424.582500", "135425.042500", "135425.502500", "135425.962500", "135426.422500", "135426.882500", "135427.342500", "135427.802500", "135428.262500", "135428.722500", "135429.182500", "135429.642500", "135430.102500", "135430.562500", "135431.022500", "135431.482500", "135431.942500", "135432.402500", "135432.862500", "135433.322500", "135433.782500", "135434.242500", "135434.702500", "135435.162500", "135435.622500", "135436.082500", "135436.542500", "135437.002500", "135437.462500", "135437.922500", "135438.382500", "135438.842500", "135439.302500", "135439.762500", "135440.222500", "135440.682500", "135441.142500", "135441.602500", "135442.062500", "135442.522500", "135442.982500", "135443.442500", "135443.902500", "135444.362500", "135444.822500", "135445.282500", "135445.742500", "135446.202500", "135446.662500", "135447.122500", "135447.582500", "135448.042500", "135448.502500", "135448.962500", "135449.422500", "135449.882500", "135450.342500", "135450.802500", "135451.262500", "135451.722500", "135452.182500", "135452.642500", "135453.102500", "135453.562500", "135454.022500", "135454.482500", "135454.942500", "135455.402500", "135455.862500", "135456.322500", "135456.782500", "135457.242500", "135457.702500", "135458.162500", "135458.622500", "135459.082500", "135459.542500", "135500.002500", "135500.462500", "135500.922500", "135501.382500", "135501.842500", "135502.302500", "135502.762500", "135503.222500", "135503.682500", "135504.142500", "135504.602500", "135505.062500", "135505.522500", "135505.982500", "135506.442500", "135506.902500", "135507.362500", "135507.822500", "135508.282500", "135508.742500", "135509.202500", "135509.662500", "135510.122500", "135510.582500", "135511.042500", "135511.502500", "135511.962500", "135512.422500", "135512.882500", "135513.342500", "135513.802500", "135514.262500", "135514.722500", "135515.182500", "135515.642500", "135516.102500", "135516.562500", "135517.022500", "135517.482500", "135517.942500", "135518.402500", "135518.862500", "135519.322500", "135519.782500", "135520.242500", "135520.702500", "135521.162500", "135521.622500", "135522.082500", "135522.542500", "135523.002500", "135523.462500", "135523.922500", "135524.382500", "135524.842500", "135525.302500", "135525.762500", "135526.222500", "135526.682500", "135527.142500", "135527.602500", "135528.062500", "135528.522500", "135528.982500", "135529.442500", "135529.902500", "135530.362500", "135530.822500", "135531.282500", "135531.742500", "135532.202500", "135532.662500", "135533.122500", "135533.582500", "135534.042500", "135534.502500", "135534.962500", "135535.422500", "135535.882500", "135536.342500", "135536.802500", "135537.262500", "135537.722500", "135538.182500", "135538.642500", "135539.102500", "135539.562500", "135540.022500", "135540.482500", "135540.942500", "135541.402500", "135541.862500", "135542.322500", "135542.782500", "135543.242500", "135543.702500", "135544.162500", "135544.622500", "135545.082500", "135545.542500", "135546.002500", "135546.462500", "135546.922500", "135547.382500", "135547.842500", "135548.302500", "135548.762500", "135549.222500", "135549.682500", "135550.142500", "135550.602500", "135551.062500", "135551.522500", "135551.982500", "135552.442500", "135552.902500", "135553.362500", "135553.822500", "135554.282500", "135554.742500", "135555.202500", "135555.662500", "135556.122500", "135556.582500", "135557.042500", "135557.502500", "135557.962500", "135558.422500", "135558.882500", "135559.342500", "135559.802500", "135600.262500", "135600.722500", "135601.182500", "135601.642500", "135602.102500", "135602.562500", "135603.022500", "135603.482500", "135603.942500", "135604.402500", "135604.862500", "135605.322500", "135605.782500", "135606.242500", "135606.702500", "135607.162500", "135607.622500", "135608.082500", "135608.542500", "135609.002500", "135609.462500", "135609.922500", "135610.382500", "135610.842500", "135611.302500", "135611.762500", "135612.222500", "135612.682500", "135613.142500", "135613.602500", "135614.062500", "135614.522500", "135614.982500", "135615.442500", "135615.902500", "135616.362500", "135616.822500", "135617.282500", "135617.742500", "135618.202500", "135618.662500", "135619.122500", "135619.582500", "135620.042500", "135620.502500", "135620.962500", "135621.422500", "135621.882500", "135622.342500", "135622.802500", "135623.262500", "135623.722500", "135624.182500", "135624.642500", "135625.102500", "135625.562500", "135626.022500", "135626.482500", "135626.942500", "135627.402500", "135627.862500", "135628.322500", "135628.782500", "135629.242500", "135629.702500", "135630.162500", "135630.622500", "135631.082500", "135631.542500", "135632.002500", "135632.462500", "135632.922500", "135633.382500", "135633.842500", "135634.302500", "135634.762500"],
