{
  "AcquisitionMatrixPE": 82,
  "AcquisitionNumber": 1,
  "AcquisitionTime": "14:10:58.172500",
  "BandwidthPerPixelPhaseEncode": 24.888,
  "BaseResolution": 82,
  "BodyPartExamined": "BRAIN",
  "ConsistencyInfo": "N4_VE11E_LATEST_20181129",
  "ConversionSoftware": "dcm2niix",
  "ConversionSoftwareVersion": "v1.0.20201102",
  "DerivedVendorReportedEchoSpacing": 0.00049,
  "DeviceSerialNumber": "66112",
  "DwellTime": 2e-06,
  "EchoTime": 0.0272,
  "EchoTrainLength": 82,
  "EffectiveEchoSpacing": 0.00049,
  "FlipAngle": 44,
  "ImageComments": "Unaliased MB8/PE3",
  "ImageOrientationPatientDICOM": [0.998152, 0.00518772, 0.060546, -0.0151574, 0.986112, 0.16539],
  "ImageType": [
    "ORIGINAL",
    "PRIMARY",
    "M",
    "MB",
    "ND",
    "NORM",
    "MOSAIC"
],
  "ImagingFrequency": 123.259,
  "InPlanePhaseEncodingDirectionDICOM": "COL",
  "InstitutionAddress": "Maynard 3,Hanover,NH,US,03755",
  "InstitutionName": "Dartmouth College - PBS",
  "InstitutionalDepartmentName": "Department",
  "MRAcquisitionType": "2D",
  "MagneticFieldStrength": 3,
  "Manufacturer": "Siemens",
  "ManufacturersModelName": "Prisma",
  "Modality": "MR",
  "MultibandAccelerationFactor": 8,
  "PartialFourier": 1,
  "PatientPosition": "HFS",
  "PercentPhaseFOV": 100,
  "PercentSampling": 100,
  "PhaseEncodingDirection": "j-",
  "PhaseEncodingSteps": 82,
  "PhaseResolution": 1,
  "PixelBandwidth": 3050,
  "ProcedureStepDescription": "Wager_Wager^1076_spacetop",
  "ProtocolName": "func_run-05_task-social_acq-ap-mb8",
  "PulseSequenceDetails": "%CustomerSeq%\\cmrr_mbep2d_bold",
  "ReceiveCoilActiveElements": "HEA;HEP",
  "ReceiveCoilName": "Head_32",
  "ReconMatrixPE": 82,
  "RepetitionTime": 0.46,
  "SAR": 0.0857244,
  "ScanOptions": "FS",
  "ScanningSequence": "EP",
  "SequenceName": "epfid2d1_82",
  "SequenceVariant": "SK\\SS",
  "SeriesDescription": "func_run-05_task-social_acq-ap-mb8",
  "SeriesNumber": 16,
  "ShimSetting": [4242, -7794, -7222, 389, -150, 23, 137, 59],
  "SliceThickness": 2.7,
  "SliceTiming": [0, 0.25, 0.0625, 0.3125, 0.125, 0.375, 0.1875, 0, 0.25, 0.0625, 0.3125, 0.125, 0.375, 0.1875, 0, 0.25, 0.0625, 0.3125, 0.125, 0.375, 0.1875, 0, 0.25, 0.0625, 0.3125, 0.125, 0.375, 0.1875, 0, 0.25, 0.0625, 0.3125, 0.125, 0.375, 0.1875, 0, 0.25, 0.0625, 0.3125, 0.125, 0.375, 0.1875, 0, 0.25, 0.0625, 0.3125, 0.125, 0.375, 0.1875, 0, 0.25, 0.0625, 0.3125, 0.125, 0.375, 0.1875],
  "SoftwareVersions": "syngo MR E11",
  "SpacingBetweenSlices": 2.7,
  "StationName": "AWP66112",
  "TaskName": "social",
  "TotalReadoutTime": 0.03969,
  "TxRefAmp": 220.894,
  "WipMemBlock": "408e0091-c497-4810-83d3-1b8865005a0f||Sequence: R016 ve11e/master r/434b28f1; Aug  7 2019 18:53:46 by eja",
  "dcmmeta_affine": [
    [-2.677968740463257, -0.04066622629761696, 0.1588873416185379, 109.45892333984375],
    [-0.013918265700340271, 2.6456656455993652, 0.44820651412010193, -112.35665130615234],
    [0.16244059801101685, -0.4437301754951477, 2.6577935218811035, -51.52315139770508],
    [0.0, 0.0, 0.0, 1.0]
],
  "dcmmeta_reorient_transform": [
    [0.0, -1.0, 0.0, 81.0],
    [1.0, 0.0, 0.0, 0.0],
    [0.0, 0.0, 1.0, 0.0],
    [0.0, 0.0, 0.0, 1.0]
],
  "dcmmeta_shape": [82, 82, 56, 872],
  "dcmmeta_slice_dim": 2,
  "dcmmeta_version": 0.6,
  "global": {
    "const": {
      "AccessionNumber": "A004848",
      "AcquisitionMatrix": [82, 0, 0, 82],
      "AngioFlag": "N",
      "BitsAllocated": 16,
      "BitsStored": 16,
      "BodyPartExamined": "BRAIN",
      "Columns": 656,
      "EchoNumbers": 1,
      "EchoTime": 27.2,
      "EchoTrainLength": 82,
      "FlipAngle": 44.0,
      "HighBit": 15,
      "ImageOrientationPatient": [0.99815192459098, 0.00518771703645, 0.06054604055818, -0.0151574106883, 0.98611170191762, 0.16539033902366],
      "ImagePositionPatient": [-863.07075596971, -865.24283008029, -261.43631201576],
      "ImageType": [
        "ORIGINAL",
        "PRIMARY",
        "M",
        "MB",
        "ND",
        "NORM",
        "MOSAIC"
],
      "ImagedNucleus": "1H",
      "ImagingFrequency": 123.259056,
      "InPlanePhaseEncodingDirection": "COL",
      "MRAcquisitionType": "2D",
      "MagneticFieldStrength": 3.0,
      "Manufacturer": "SIEMENS",
      "ManufacturerModelName": "Prisma",
      "Modality": "MR",
      "NumberOfAverages": 1.0,
      "NumberOfPhaseEncodingSteps": 82,
      "PercentPhaseFieldOfView": 100.0,
      "PercentSampling": 100.0,
      "PerformedProcedureStepStartTime": "132939.511000",
      "PhotometricInterpretation": "MONOCHROME2",
      "PixelBandwidth": 3050.0,
      "PixelRepresentation": 0,
      "PixelSpacing": [2.6829268932343, 2.6829268932343],
      "ProtocolName": "func_run-05_task-social_acq-ap-mb8",
      "RepetitionTime": 460.0,
      "Rows": 656,
      "SAR": 0.08572440767402,
      "SamplesPerPixel": 1,
      "ScanOptions": "FS",
      "ScanningSequence": "EP",
      "SequenceName": "epfid2d1_82",
      "SequenceVariant": [
        "SK",
        "SS"
],
      "SeriesDescription": "func_run-05_task-social_acq-ap-mb8",
      "SeriesNumber": 16,
      "SeriesTime": "141124.885000",
      "SliceLocation": -62.927864610722,
      "SliceThickness": 2.7000000476837,
      "SmallestImagePixelValue": 0,
      "SoftwareVersions": "syngo MR E11",
      "SpacingBetweenSlices": 2.7000000212658,
      "SpecificCharacterSet": "ISO_IR 100",
      "StudyID": "1",
      "StudyTime": "132939.355000",
      "TransmitCoilName": "Body",
      "VariableFlipAngleFlag": "N",
      "WindowCenterWidthExplanation": "Algo1"
    },
    "slices": {}
  },
  "time": {
    "samples": {
      "AcquisitionNumber": [1, 2, 3, 4, 5, 6, 7, 8, 9, 10, 11, 12, 13, 14, 15, 16, 17, 18, 19, 20, 21, 22, 23, 24, 25, 26, 27, 28, 29, 30, 31, 32, 33, 34, 35, 36, 37, 38, 39, 40, 41, 42, 43, 44, 45, 46, 47, 48, 49, 50, 51, 52, 53, 54, 55, 56, 57, 58, 59, 60, 61, 62, 63, 64, 65, 66, 67, 68, 69, 70, 71, 72, 73, 74, 75, 76, 77, 78, 79, 80, 81, 82, 83, 84, 85, 86, 87, 88, 89, 90, 91, 92, 93, 94, 95, 96, 97, 98, 99, 100, 101, 102, 103, 104, 105, 106, 107, 108, 109, 110, 111, 112, 113, 114, 115, 116, 117, 118, 119, 120, 121, 122, 123, 124, 125, 126, 127, 128, 129, 130, 131, 132, 133, 134, 135, 136, 137, 138, 139, 140, 141, 142, 143, 144, 145, 146, 147, 148, 149, 150, 151, 152, 153, 154, 155, 156, 157, 158, 159, 160, 161, 162, 163, 164, 165, 166, 167, 168, 169, 170, 171, 172, 173, 174, 175, 176, 177, 178, 179, 180, 181, 182, 183, 184, 185, 186, 187, 188, 189, 190, 191, 192, 193, 194, 195, 196, 197, 198, 199, 200, 201, 202, 203, 204, 205, 206, 207, 208, 209, 210, 211, 212, 213, 214, 215, 216, 217, 218, 219, 220, 221, 222, 223, 224, 225, 226, 227, 228, 229, 230, 231, 232, 233, 234, 235, 236, 237, 238, 239, 240, 241, 242, 243, 244, 245, 246, 247, 248, 249, 250, 251, 252, 253, 254, 255, 256, 257, 258, 259, 260, 261, 262, 263, 264, 265, 266, 267, 268, 269, 270, 271, 272, 273, 274, 275, 276, 277, 278, 279, 280, 281, 282, 283, 284, 285, 286, 287, 288, 289, 290, 291, 292, 293, 294, 295, 296, 297, 298, 299, 300, 301, 302, 303, 304, 305, 306, 307, 308, 309, 310, 311, 312, 313, 314, 315, 316, 317, 318, 319, 320, 321, 322, 323, 324, 325, 326, 327, 328, 329, 330, 331, 332, 333, 334, 335, 336, 337, 338, 339, 340, 341, 342, 343, 344, 345, 346, 347, 348, 349, 350, 351, 352, 353, 354, 355, 356, 357, 358, 359, 360, 361, 362, 363, 364, 365, 366, 367, 368, 369, 370, 371, 372, 373, 374, 375, 376, 377, 378, 379, 380, 381, 382, 383, 384, 385, 386, 387, 388, 389, 390, 391, 392, 393, 394, 395, 396, 397, 398, 399, 400, 401, 402, 403, 404, 405, 406, 407, 408, 409, 410, 411, 412, 413, 414, 415, 416, 417, 418, 419, 420, 421, 422, 423, 424, 425, 426, 427, 428, 429, 430, 431, 432, 433, 434, 435, 436, 437, 438, 439, 440, 441, 442, 443, 444, 445, 446, 447, 448, 449, 450, 451, 452, 453, 454, 455, 456, 457, 458, 459, 460, 461, 462, 463, 464, 465, 466, 467, 468, 469, 470, 471, 472, 473, 474, 475, 476, 477, 478, 479, 480, 481, 482, 483, 484, 485, 486, 487, 488, 489, 490, 491, 492, 493, 494, 495, 496, 497, 498, 499, 500, 501, 502, 503, 504, 505, 506, 507, 508, 509, 510, 511, 512, 513, 514, 515, 516, 517, 518, 519, 520, 521, 522, 523, 524, 525, 526, 527, 528, 529, 530, 531, 532, 533, 534, 535, 536, 537, 538, 539, 540, 541, 542, 543, 544, 545, 546, 547, 548, 549, 550, 551, 552, 553, 554, 555, 556, 557, 558, 559, 560, 561, 562, 563, 564, 565, 566, 567, 568, 569, 570, 571, 572, 573, 574, 575, 576, 577, 578, 579, 580, 581, 582, 583, 584, 585, 586, 587, 588, 589, 590, 591, 592, 593, 594, 595, 596, 597, 598, 599, 600, 601, 602, 603, 604, 605, 606, 607, 608, 609, 610, 611, 612, 613, 614, 615, 616, 617, 618, 619, 620, 621, 622, 623, 624, 625, 626, 627, 628, 629, 630, 631, 632, 633, 634, 635, 636, 637, 638, 639, 640, 641, 642, 643, 644, 645, 646, 647, 648, 649, 650, 651, 652, 653, 654, 655, 656, 657, 658, 659, 660, 661, 662, 663, 664, 665, 666, 667, 668, 669, 670, 671, 672, 673, 674, 675, 676, 677, 678, 679, 680, 681, 682, 683, 684, 685, 686, 687, 688, 689, 690, 691, 692, 693, 694, 695, 696, 697, 698, 699, 700, 701, 702, 703, 704, 705, 706, 707, 708, 709, 710, 711, 712, 713, 714, 715, 716, 717, 718, 719, 720, 721, 722, 723, 724, 725, 726, 727, 728, 729, 730, 731, 732, 733, 734, 735, 736, 737, 738, 739, 740, 741, 742, 743, 744, 745, 746, 747, 748, 749, 750, 751, 752, 753, 754, 755, 756, 757, 758, 759, 760, 761, 762, 763, 764, 765, 766, 767, 768, 769, 770, 771, 772, 773, 774, 775, 776, 777, 778, 779, 780, 781, 782, 783, 784, 785, 786, 787, 788, 789, 790, 791, 792, 793, 794, 795, 796, 797, 798, 799, 800, 801, 802, 803, 804, 805, 806, 807, 808, 809, 810, 811, 812, 813, 814, 815, 816, 817, 818, 819, 820, 821, 822, 823, 824, 825, 826, 827, 828, 829, 830, 831, 832, 833, 834, 835, 836, 837, 838, 839, 840, 841, 842, 843, 844, 845, 846, 847, 848, 849, 850, 851, 852, 853, 854, 855, 856, 857, 858, 859, 860, 861, 862, 863, 864, 865, 866, 867, 868, 869, 870, 871, 872],
      "AcquisitionTime": ["141058.172500", "141058.632500", "141059.092500", "141059.552500", "141100.012500", "141100.472500", "141100.932500", "141101.392500", "141101.852500", "141102.312500", "141102.772500", "141103.232500", "141103.692500", "141104.152500", "141104.612500", "141105.072500", "141105.532500", "141105.992500", "141106.452500", "141106.912500", "141107.372500", "141107.832500", "141108.292500", "141108.752500", "141109.212500", "141109.672500", "141110.132500", "141110.592500", "141111.052500", "141111.512500", "141111.972500", "141112.432500", "141112.892500", "141113.352500", "141113.812500", "141114.272500", "141114.732500", "141115.192500", "141115.652500", "141116.112500", "141116.572500", "141117.032500", "141117.492500", "141117.952500", "141118.412500", "141118.872500", "141119.332500", "141119.792500", "141120.252500", "141120.712500", "141121.172500", "141121.632500", "141122.092500", "141122.552500", "141123.012500", "141123.472500", "141123.932500", "141124.392500", "141124.852500", "141125.312500", "141125.772500", "141126.232500", "141126.692500", "141127.152500", "141127.612500", "141128.072500", "141128.532500", "141128.992500", "141129.452500", "141129.912500", "141130.372500", "141130.832500", "141131.292500", "141131.752500", "141132.212500", "141132.672500", "141133.132500", "141133.592500", "141134.052500", "141134.512500", "141134.972500", "141135.432500", "141135.892500", "141136.352500", "141136.812500", "141137.272500", "141137.732500", "141138.192500", "141138.652500", "141139.112500", "141139.572500", "141140.032500", "141140.492500", "141140.952500", "141141.412500", "141141.872500", "141142.332500", "141142.792500", "141143.252500", "141143.712500", "141144.172500", "141144.632500", "141145.092500", "141145.552500", "141146.012500", "141146.472500", "141146.932500", "141147.392500", "141147.852500", "141148.312500", "141148.772500", "141149.232500", "141149.692500", "141150.152500", "141150.612500", "141151.072500", "141151.532500", "141151.992500", "141152.452500", "141152.912500", "141153.372500", "141153.832500", "141154.292500", "141154.752500", "141155.212500", "141155.672500", "141156.132500", "141156.592500", "141157.052500", "141157.512500", "141157.972500", "141158.432500", "141158.892500", "141159.352500", "141159.812500", "141200.272500", "141200.732500", "141201.192500", "141201.652500", "141202.112500", "141202.572500", "141203.032500", "141203.492500", "141203.952500", "141204.412500", "141204.872500", "141205.332500", "141205.792500", "141206.252500", "141206.712500", "141207.172500", "141207.632500", "141208.092500", "141208.552500", "141209.012500", "141209.472500", "141209.932500", "141210.392500", "141210.852500", "141211.312500", "141211.772500", "141212.232500", "141212.692500", "141213.152500", "141213.612500", "141214.072500", "141214.532500", "141214.992500", "141215.452500", "141215.912500", "141216.372500", "141216.832500", "141217.292500", "141217.752500", "141218.212500", "141218.672500", "141219.132500", "141219.592500", "141220.052500", "141220.512500", "141220.972500", "141221.432500", "141221.892500", "141222.352500", "141222.812500", "141223.272500", "141223.732500", "141224.192500", "141224.652500", "141225.112500", "141225.572500", "141226.032500", "141226.492500", "141226.952500", "141227.412500", "141227.872500", "141228.332500", "141228.792500", "141229.252500", "141229.712500", "141230.172500", "141230.632500", "141231.092500", "141231.552500", "141232.012500", "141232.472500", "141232.932500", "141233.392500", "141233.852500", "141234.312500", "141234.772500", "141235.232500", "141235.692500", "141236.152500", "141236.612500", "141237.072500", "141237.532500", "141237.992500", "141238.452500", "141238.912500", "141239.372500", "141239.832500", "141240.292500", "141240.752500", "141241.212500", "141241.672500", "141242.132500", "141242.592500", "141243.052500", "141243.512500", "141243.972500", "141244.432500", "141244.892500", "141245.352500", "141245.812500", "141246.272500", "141246.732500", "141247.192500", "141247.652500", "141248.112500", "141248.572500", "141249.032500", "141249.492500", "141249.952500", "141250.412500", "141250.872500", "141251.332500", "141251.792500", "141252.252500", "141252.712500", "141253.172500", "141253.632500", "141254.092500", "141254.552500", "141255.012500", "141255.472500", "141255.932500", "141256.392500", "141256.852500", "141257.312500", "141257.772500", "141258.232500", "141258.692500", "141259.152500", "141259.612500", "141300.072500", "141300.532500", "141300.992500", "141301.452500", "141301.912500", "141302.372500", "141302.832500", "141303.292500", "141303.752500", "141304.212500", "141304.672500", "141305.132500", "141305.592500", "141306.052500", "141306.512500", "141306.972500", "141307.432500", "141307.892500", "141308.352500", "141308.812500", "141309.272500", "141309.732500", "141310.192500", "141310.652500", "141311.112500", "141311.572500", "141312.032500", "141312.492500", "141312.952500", "141313.412500", "141313.872500", "141314.332500", "141314.792500", "141315.252500", "141315.712500", "141316.172500", "141316.632500", "141317.092500", "141317.552500", "141318.012500", "141318.472500", "141318.932500", "141319.392500", "141319.852500", "141320.312500", "141320.772500", "141321.232500", "141321.692500", "141322.152500", "141322.612500", "141323.072500", "141323.532500", "141323.992500", "141324.452500", "141324.912500", "141325.372500", "141325.832500", "141326.292500", "141326.752500", "141327.212500", "141327.672500", "141328.132500", "141328.592500", "141329.052500", "141329.512500", "141329.972500", "141330.432500", "141330.892500", "141331.352500", "141331.812500", "141332.272500", "141332.732500", "141333.192500", "141333.652500", "141334.112500", "141334.572500", "141335.032500", "141335.492500", "141335.952500", "141336.412500", "141336.872500", "141337.332500", "141337.792500", "141338.252500", "141338.712500", "141339.172500", "141339.632500", "141340.092500", "141340.552500", "141341.012500", "141341.472500", "141341.932500", "141342.392500", "141342.852500", "141343.312500", "141343.772500", "141344.232500", "141344.692500", "141345.152500", "141345.612500", "141346.072500", "141346.532500", "141346.992500", "141347.452500", "141347.912500", "141348.372500", "141348.832500", "141349.292500", "141349.752500", "141350.212500", "141350.672500", "141351.132500", "141351.592500", "141352.052500", "141352.512500", "141352.972500", "141353.432500", "141353.892500", "141354.352500", "141354.812500", "141355.272500", "141355.732500", "141356.192500", "141356.652500", "141357.112500", "141357.572500", "141358.032500", "141358.492500", "141358.952500", "141359.412500", "141359.872500", "141400.332500", "141400.792500", "141401.252500", "141401.712500", "141402.172500", "141402.632500", "141403.092500", "141403.552500", "141404.012500", "141404.472500", "141404.932500", "141405.392500", "141405.852500", "141406.312500", "141406.772500", "141407.232500", "141407.692500", "141408.152500", "141408.612500", "141409.072500", "141409.532500", "141409.992500", "141410.452500", "141410.912500", "141411.372500", "141411.832500", "141412.292500", "141412.752500", "141413.212500", "141413.672500", "141414.132500", "141414.592500", "141415.052500", "141415.512500", "141415.972500", "141416.432500", "141416.892500", "141417.352500", "141417.812500", "141418.272500", "141418.732500", "141419.192500", "141419.652500", "141420.112500", "141420.572500", "141421.032500", "141421.492500", "141421.952500", "141422.412500", "141422.872500", "141423.332500", "141423.792500", "141424.252500", "141424.712500", "141425.172500", "141425.632500", "141426.092500", "141426.552500", "141427.012500", "141427.472500", "141427.932500", "141428.392500", "141428.852500", "141429.312500", "141429.772500", "141430.232500", "141430.692500", "141431.152500", "141431.612500", "141432.072500", "141432.532500", "141432.992500", "141433.452500", "141433.912500", "141434.372500", "141434.832500", "141435.292500", "141435.752500", "141436.212500", "141436.672500", "141437.132500", "141437.592500", "141438.052500", "141438.512500", "141438.972500", "141439.432500", "141439.892500", "141440.352500", "141440.812500", "141441.272500", "141441.732500", "141442.192500", "141442.652500", "141443.112500", "141443.572500", "141444.032500", "141444.492500", "141444.952500", "141445.412500", "141445.872500", "141446.332500", "141446.792500", "141447.252500", "141447.712500", "141448.172500", "141448.632500", "141449.092500", "141449.552500", "141450.012500", "141450.472500", "141450.932500", "141451.392500", "141451.852500", "141452.312500", "141452.772500", "141453.232500", "141453.692500", "141454.152500", "141454.612500", "141455.072500", "141455.532500", "141455.992500", "141456.452500", "141456.912500", "141457.372500", "141457.832500", "141458.292500", "141458.752500", "141459.212500", "141459.672500", "141500.132500", "141500.592500", "141501.052500", "141501.512500", "141501.972500", "141502.432500", "141502.892500", "141503.352500", "141503.812500", "141504.272500", "141504.732500", "141505.192500", "141505.652500", "141506.112500", "141506.572500", "141507.032500", "141507.492500", "141507.952500", "141508.412500", "141508.872500", "141509.332500", "141509.792500", "141510.252500", "141510.712500", "141511.172500", "141511.632500", "141512.092500", "141512.552500", "141513.012500", "141513.472500", "141513.932500", "141514.392500", "141514.852500", "141515.312500", "141515.772500", "141516.232500", "141516.692500", "141517.152500", "141517.612500", "141518.072500", "141518.532500", "141518.992500", "141519.452500", "141519.912500", "141520.372500", "141520.832500", "141521.292500", "141521.752500", "141522.212500", "141522.672500", "141523.132500", "141523.592500", "141524.052500", "141524.512500", "141524.972500", "141525.432500", "141525.892500", "141526.352500", "141526.812500", "141527.272500", "141527.732500", "141528.192500", "141528.652500", "141529.112500", "141529.572500", "141530.032500", "141530.492500", "141530.952500", "141531.412500", "141531.872500", "141532.332500", "141532.792500", "141533.252500", "141533.712500", "141534.172500", "141534.632500", "141535.092500", "141535.552500", "141536.012500", "141536.472500", "141536.932500", "141537.392500", "141537.852500", "141538.312500", "141538.772500", "141539.232500", "141539.692500", "141540.152500", "141540.612500", "141541.072500", "141541.532500", "141541.992500", "141542.452500", "141542.912500", "141543.372500", "141543.832500", "141544.292500", "141544.752500", "141545.212500", "141545.672500", "141546.132500", "141546.592500", "141547.052500", "141547.512500", "141547.972500", "141548.432500", "141548.892500", "141549.352500", "141549.812500", "141550.272500", "141550.732500", "141551.192500", "141551.652500", "141552.112500", "141552.572500", "141553.032500", "141553.492500", "141553.952500", "141554.412500", "141554.872500", "141555.332500", "141555.792500", "141556.252500", "141556.712500", "141557.172500", "141557.632500", "141558.092500", "141558.552500", "141559.012500", "141559.472500", "141559.932500", "141600.392500", "141600.852500", "141601.312500", "141601.772500", "141602.232500", "141602.692500", "141603.152500", "141603.612500", "141604.072500", "141604.532500", "141604.992500", "141605.452500", "141605.912500", "141606.372500", "141606.832500", "141607.292500", "141607.752500", "141608.212500", "141608.672500", "141609.132500", "141609.592500", "141610.052500", "141610.512500", "141610.972500", "141611.432500", "141611.892500", "141612.352500", "141612.812500", "141613.272500", "141613.732500", "141614.192500", "141614.652500", "141615.112500", "141615.572500", "141616.032500", "141616.492500", "141616.952500", "141617.412500", "141617.872500", "141618.332500", "141618.792500", "141619.252500", "141619.712500", "141620.172500", "141620.632500", "141621.092500", "141621.552500", "141622.012500", "141622.472500", "141622.932500", "141623.392500", "141623.852500", "141624.312500", "141624.772500", "141625.232500", "141625.692500", "141626.152500", "141626.612500", "141627.072500", "141627.532500", "141627.992500", "141628.452500", "141628.912500", "141629.372500", "141629.832500", "141630.292500", "141630.752500", "141631.212500", "141631.672500", "141632.132500", "141632.592500", "141633.052500", "141633.512500", "141633.972500", "141634.432500", "141634.892500", "141635.352500", "141635.812500", "141636.272500", "141636.732500", "141637.192500", "141637.652500", "141638.112500", "141638.572500", "141639.032500", "141639.492500", "141639.952500", "141640.412500", "141640.872500", "141641.332500", "141641.792500", "141642.252500", "141642.712500", "141643.172500", "141643.632500", "141644.092500", "141644.552500", "141645.012500", "141645.472500", "141645.932500", "141646.392500", "141646.852500", "141647.312500", "141647.772500", "141648.232500", "141648.692500", "141649.152500", "141649.612500", "141650.072500", "141650.532500", "141650.992500", "141651.452500", "141651.912500", "141652.372500", "141652.832500", "141653.292500", "141653.752500", "141654.212500", "141654.672500", "141655.132500", "141655.592500", "141656.052500", "141656.512500", "141656.972500", "141657.432500", "141657.892500", "141658.352500", "141658.812500", "141659.272500", "141659.732500", "141700.192500", "141700.652500", "141701.112500", "141701.572500", "141702.032500", "141702.492500", "141702.952500", "141703.412500", "141703.872500", "141704.332500", "141704.792500", "141705.252500", "141705.712500", "141706.172500", "141706.632500", "141707.092500", "141707.552500", "141708.012500", "141708.472500", "141708.932500", "141709.392500", "141709.852500", "141710.312500", "141710.772500", "141711.232500", "141711.692500", "141712.152500", "141712.612500", "141713.072500", "141713.532500", "141713.992500", "141714.452500", "141714.912500", "141715.372500", "141715.832500", "141716.292500", "141716.752500", "141717.212500", "141717.672500", "141718.132500", "141718.592500", "141719.052500", "141719.512500", "141719.972500", "141720.432500", "141720.892500", "141721.352500", "141721.812500", "141722.272500", "141722.732500", "141723.192500", "141723.652500", "141724.112500", "141724.572500", "141725.032500", "141725.492500", "141725.952500", "141726.412500", "141726.872500", "141727.332500", "141727.792500", "141728.252500", "141728.712500", "141729.172500", "141729.632500", "141730.092500", "141730.552500", "141731.012500", "141731.472500", "141731.932500", "141732.392500", "141732.852500", "141733.312500", "141733.772500", "141734.232500", "141734.692500", "141735.152500", "141735.612500", "141736.072500", "141736.532500", "141736.992500", "141737.452500", "141737.912500", "141738.372500", "141738.832500"],
