{
  "AcquisitionMatrixPE": 82,
  "AcquisitionNumber": 1,
  "AcquisitionTime": "13:42:56.862500",
  "BandwidthPerPixelPhaseEncode": 24.888,
  "BaseResolution": 82,
  "BodyPartExamined": "BRAIN",
  "ConsistencyInfo": "N4_VE11E_LATEST_20181129",
  "ConversionSoftware": "dcm2niix",
  "ConversionSoftwareVersion": "v1.0.20201102",
  "DerivedVendorReportedEchoSpacing": 0.00049,
  "DeviceSerialNumber": "66112",
  "DwellTime": 2e-06,
  "EchoTime": 0.0272,
  "EchoTrainLength": 82,
  "EffectiveEchoSpacing": 0.00049,
  "FlipAngle": 44,
  "ImageComments": "Unaliased MB8/PE3",
  "ImageOrientationPatientDICOM": [0.998152, 0.00518772, 0.060546, -0.0151574, 0.986112, 0.16539],
  "ImageType": [
    "ORIGINAL",
    "PRIMARY",
    "M",
    "MB",
    "ND",
    "NORM",
    "MOSAIC"
],
  "ImagingFrequency": 123.259,
  "InPlanePhaseEncodingDirectionDICOM": "COL",
  "InstitutionAddress": "Maynard 3,Hanover,NH,US,03755",
  "InstitutionName": "Dartmouth College - PBS",
  "InstitutionalDepartmentName": "Department",
  "MRAcquisitionType": "2D",
  "MagneticFieldStrength": 3,
  "Manufacturer": "Siemens",
  "ManufacturersModelName": "Prisma",
  "Modality": "MR",
  "MultibandAccelerationFactor": 8,
  "PartialFourier": 1,
  "PatientPosition": "HFS",
  "PercentPhaseFOV": 100,
  "PercentSampling": 100,
  "PhaseEncodingDirection": "j-",
  "PhaseEncodingSteps": 82,
  "PhaseResolution": 1,
  "PixelBandwidth": 3050,
  "ProcedureStepDescription": "Wager_Wager^1076_spacetop",
  "ProtocolName": "func_run-01_task-social_acq-ap-mb8",
  "PulseSequenceDetails": "%CustomerSeq%\\cmrr_mbep2d_bold",
  "ReceiveCoilActiveElements": "HEA;HEP",
  "ReceiveCoilName": "Head_32",
  "ReconMatrixPE": 82,
  "RepetitionTime": 0.46,
  "SAR": 0.0857244,
  "ScanOptions": "FS",
  "ScanningSequence": "EP",
  "SequenceName": "epfid2d1_82",
  "SequenceVariant": "SK\\SS",
  "SeriesDescription": "func_run-01_task-social_acq-ap-mb8",
  "SeriesNumber": 8,
  "ShimSetting": [4242, -7794, -7222, 389, -150, 23, 137, 59],
  "SliceThickness": 2.7,
  "SliceTiming": [0, 0.2525, 0.0625, 0.315, 0.125, 0.3775, 0.19, 0, 0.2525, 0.0625, 0.315, 0.125, 0.3775, 0.19, 0, 0.2525, 0.0625, 0.315, 0.125, 0.3775, 0.19, 0, 0.2525, 0.0625, 0.315, 0.125, 0.3775, 0.19, 0, 0.2525, 0.0625, 0.315, 0.125, 0.3775, 0.19, 0, 0.2525, 0.0625, 0.315, 0.125, 0.3775, 0.19, 0, 0.2525, 0.0625, 0.315, 0.125, 0.3775, 0.19, 0, 0.2525, 0.0625, 0.315, 0.125, 0.3775, 0.19],
  "SoftwareVersions": "syngo MR E11",
  "SpacingBetweenSlices": 2.7,
  "StationName": "AWP66112",
  "TaskName": "social",
  "TotalReadoutTime": 0.03969,
  "TxRefAmp": 220.894,
  "WipMemBlock": "5e038a9b-7cbb-4a74-ad23-c3ae497899ba||Sequence: R016 ve11e/master r/434b28f1; Aug  7 2019 18:53:46 by eja",
  "dcmmeta_affine": [
    [-2.677968740463257, -0.04066622629761696, 0.1588873416185379, 109.45892333984375],
    [-0.013918265700340271, 2.6456656455993652, 0.44820651412010193, -112.35665130615234],
    [0.16244059801101685, -0.4437301754951477, 2.6577935218811035, -51.52315139770508],
    [0.0, 0.0, 0.0, 1.0]
],
  "dcmmeta_reorient_transform": [
    [0.0, -1.0, 0.0, 81.0],
    [1.0, 0.0, 0.0, 0.0],
    [0.0, 0.0, 1.0, 0.0],
    [0.0, 0.0, 0.0, 1.0]
],
  "dcmmeta_shape": [82, 82, 56, 872],
  "dcmmeta_slice_dim": 2,
  "dcmmeta_version": 0.6,
  "global": {
    "const": {
      "AccessionNumber": "A004848",
      "AcquisitionMatrix": [82, 0, 0, 82],
      "AngioFlag": "N",
      "BitsAllocated": 16,
      "BitsStored": 16,
      "BodyPartExamined": "BRAIN",
      "Columns": 656,
      "EchoNumbers": 1,
      "EchoTime": 27.2,
      "EchoTrainLength": 82,
      "FlipAngle": 44.0,
      "HighBit": 15,
      "ImageOrientationPatient": [0.99815192459098, 0.00518771703645, 0.06054604055818, -0.0151574106883, 0.98611170191762, 0.16539033902366],
      "ImagePositionPatient": [-863.07075596971, -865.24283008029, -261.43631201576],
      "ImageType": [
        "ORIGINAL",
        "PRIMARY",
        "M",
        "MB",
        "ND",
        "NORM",
        "MOSAIC"
],
      "ImagedNucleus": "1H",
      "ImagingFrequency": 123.259029,
      "InPlanePhaseEncodingDirection": "COL",
      "MRAcquisitionType": "2D",
      "MagneticFieldStrength": 3.0,
      "Manufacturer": "SIEMENS",
      "ManufacturerModelName": "Prisma",
      "Modality": "MR",
      "NumberOfAverages": 1.0,
      "NumberOfPhaseEncodingSteps": 82,
      "PercentPhaseFieldOfView": 100.0,
      "PercentSampling": 100.0,
      "PerformedProcedureStepStartTime": "132939.511000",
      "PhotometricInterpretation": "MONOCHROME2",
      "PixelBandwidth": 3050.0,
      "PixelRepresentation": 0,
      "PixelSpacing": [2.6829268932343, 2.6829268932343],
      "ProtocolName": "func_run-01_task-social_acq-ap-mb8",
      "RepetitionTime": 460.0,
      "Rows": 656,
      "SAR": 0.08572440767402,
      "SamplesPerPixel": 1,
      "ScanOptions": "FS",
      "ScanningSequence": "EP",
      "SequenceName": "epfid2d1_82",
      "SequenceVariant": [
        "SK",
        "SS"
],
      "SeriesDescription": "func_run-01_task-social_acq-ap-mb8",
      "SeriesNumber": 8,
      "SeriesTime": "134324.787000",
      "SliceLocation": -62.927864610722,
      "SliceThickness": 2.7000000476837,
      "SmallestImagePixelValue": 0,
      "SoftwareVersions": "syngo MR E11",
      "SpacingBetweenSlices": 2.7000000212658,
      "SpecificCharacterSet": "ISO_IR 100",
      "StudyID": "1",
      "StudyTime": "132939.355000",
      "TransmitCoilName": "Body",
      "VariableFlipAngleFlag": "N",
      "WindowCenterWidthExplanation": "Algo1"
    },
    "slices": {}
  },
  "time": {
    "samples": {
      "AcquisitionNumber": [1, 2, 3, 4, 5, 6, 7, 8, 9, 10, 11, 12, 13, 14, 15, 16, 17, 18, 19, 20, 21, 22, 23, 24, 25, 26, 27, 28, 29, 30, 31, 32, 33, 34, 35, 36, 37, 38, 39, 40, 41, 42, 43, 44, 45, 46, 47, 48, 49, 50, 51, 52, 53, 54, 55, 56, 57, 58, 59, 60, 61, 62, 63, 64, 65, 66, 67, 68, 69, 70, 71, 72, 73, 74, 75, 76, 77, 78, 79, 80, 81, 82, 83, 84, 85, 86, 87, 88, 89, 90, 91, 92, 93, 94, 95, 96, 97, 98, 99, 100, 101, 102, 103, 104, 105, 106, 107, 108, 109, 110, 111, 112, 113, 114, 115, 116, 117, 118, 119, 120, 121, 122, 123, 124, 125, 126, 127, 128, 129, 130, 131, 132, 133, 134, 135, 136, 137, 138, 139, 140, 141, 142, 143, 144, 145, 146, 147, 148, 149, 150, 151, 152, 153, 154, 155, 156, 157, 158, 159, 160, 161, 162, 163, 164, 165, 166, 167, 168, 169, 170, 171, 172, 173, 174, 175, 176, 177, 178, 179, 180, 181, 182, 183, 184, 185, 186, 187, 188, 189, 190, 191, 192, 193, 194, 195, 196, 197, 198, 199, 200, 201, 202, 203, 204, 205, 206, 207, 208, 209, 210, 211, 212, 213, 214, 215, 216, 217, 218, 219, 220, 221, 222, 223, 224, 225, 226, 227, 228, 229, 230, 231, 232, 233, 234, 235, 236, 237, 238, 239, 240, 241, 242, 243, 244, 245, 246, 247, 248, 249, 250, 251, 252, 253, 254, 255, 256, 257, 258, 259, 260, 261, 262, 263, 264, 265, 266, 267, 268, 269, 270, 271, 272, 273, 274, 275, 276, 277, 278, 279, 280, 281, 282, 283, 284, 285, 286, 287, 288, 289, 290, 291, 292, 293, 294, 295, 296, 297, 298, 299, 300, 301, 302, 303, 304, 305, 306, 307, 308, 309, 310, 311, 312, 313, 314, 315, 316, 317, 318, 319, 320, 321, 322, 323, 324, 325, 326, 327, 328, 329, 330, 331, 332, 333, 334, 335, 336, 337, 338, 339, 340, 341, 342, 343, 344, 345, 346, 347, 348, 349, 350, 351, 352, 353, 354, 355, 356, 357, 358, 359, 360, 361, 362, 363, 364, 365, 366, 367, 368, 369, 370, 371, 372, 373, 374, 375, 376, 377, 378, 379, 380, 381, 382, 383, 384, 385, 386, 387, 388, 389, 390, 391, 392, 393, 394, 395, 396, 397, 398, 399, 400, 401, 402, 403, 404, 405, 406, 407, 408, 409, 410, 411, 412, 413, 414, 415, 416, 417, 418, 419, 420, 421, 422, 423, 424, 425, 426, 427, 428, 429, 430, 431, 432, 433, 434, 435, 436, 437, 438, 439, 440, 441, 442, 443, 444, 445, 446, 447, 448, 449, 450, 451, 452, 453, 454, 455, 456, 457, 458, 459, 460, 461, 462, 463, 464, 465, 466, 467, 468, 469, 470, 471, 472, 473, 474, 475, 476, 477, 478, 479, 480, 481, 482, 483, 484, 485, 486, 487, 488, 489, 490, 491, 492, 493, 494, 495, 496, 497, 498, 499, 500, 501, 502, 503, 504, 505, 506, 507, 508, 509, 510, 511, 512, 513, 514, 515, 516, 517, 518, 519, 520, 521, 522, 523, 524, 525, 526, 527, 528, 529, 530, 531, 532, 533, 534, 535, 536, 537, 538, 539, 540, 541, 542, 543, 544, 545, 546, 547, 548, 549, 550, 551, 552, 553, 554, 555, 556, 557, 558, 559, 560, 561, 562, 563, 564, 565, 566, 567, 568, 569, 570, 571, 572, 573, 574, 575, 576, 577, 578, 579, 580, 581, 582, 583, 584, 585, 586, 587, 588, 589, 590, 591, 592, 593, 594, 595, 596, 597, 598, 599, 600, 601, 602, 603, 604, 605, 606, 607, 608, 609, 610, 611, 612, 613, 614, 615, 616, 617, 618, 619, 620, 621, 622, 623, 624, 625, 626, 627, 628, 629, 630, 631, 632, 633, 634, 635, 636, 637, 638, 639, 640, 641, 642, 643, 644, 645, 646, 647, 648, 649, 650, 651, 652, 653, 654, 655, 656, 657, 658, 659, 660, 661, 662, 663, 664, 665, 666, 667, 668, 669, 670, 671, 672, 673, 674, 675, 676, 677, 678, 679, 680, 681, 682, 683, 684, 685, 686, 687, 688, 689, 690, 691, 692, 693, 694, 695, 696, 697, 698, 699, 700, 701, 702, 703, 704, 705, 706, 707, 708, 709, 710, 711, 712, 713, 714, 715, 716, 717, 718, 719, 720, 721, 722, 723, 724, 725, 726, 727, 728, 729, 730, 731, 732, 733, 734, 735, 736, 737, 738, 739, 740, 741, 742, 743, 744, 745, 746, 747, 748, 749, 750, 751, 752, 753, 754, 755, 756, 757, 758, 759, 760, 761, 762, 763, 764, 765, 766, 767, 768, 769, 770, 771, 772, 773, 774, 775, 776, 777, 778, 779, 780, 781, 782, 783, 784, 785, 786, 787, 788, 789, 790, 791, 792, 793, 794, 795, 796, 797, 798, 799, 800, 801, 802, 803, 804, 805, 806, 807, 808, 809, 810, 811, 812, 813, 814, 815, 816, 817, 818, 819, 820, 821, 822, 823, 824, 825, 826, 827, 828, 829, 830, 831, 832, 833, 834, 835, 836, 837, 838, 839, 840, 841, 842, 843, 844, 845, 846, 847, 848, 849, 850, 851, 852, 853, 854, 855, 856, 857, 858, 859, 860, 861, 862, 863, 864, 865, 866, 867, 868, 869, 870, 871, 872],
      "AcquisitionTime": ["134256.862500", "134257.322500", "134257.782500", "134258.242500", "134258.702500", "134259.162500", "134259.622500", "134300.082500", "134300.542500", "134301.002500", "134301.462500", "134301.922500", "134302.382500", "134302.842500", "134303.302500", "134303.762500", "134304.222500", "134304.682500", "134305.142500", "134305.602500", "134306.062500", "134306.522500", "134306.982500", "134307.442500", "134307.902500", "134308.362500", "134308.822500", "134309.282500", "134309.742500", "134310.202500", "134310.662500", "134311.122500", "134311.582500", "134312.042500", "134312.502500", "134312.962500", "134313.422500", "134313.882500", "134314.342500", "134314.802500", "134315.262500", "134315.722500", "134316.182500", "134316.642500", "134317.102500", "134317.562500", "134318.022500", "134318.482500", "134318.942500", "134319.402500", "134319.862500", "134320.322500", "134320.782500", "134321.242500", "134321.702500", "134322.162500", "134322.622500", "134323.082500", "134323.542500", "134324.002500", "134324.462500", "134324.922500", "134325.382500", "134325.842500", "134326.302500", "134326.762500", "134327.222500", "134327.682500", "134328.142500", "134328.602500", "134329.062500", "134329.522500", "134329.982500", "134330.442500", "134330.902500", "134331.362500", "134331.822500", "134332.282500", "134332.742500", "134333.202500", "134333.662500", "134334.122500", "134334.582500", "134335.042500", "134335.502500", "134335.962500", "134336.422500", "134336.882500", "134337.342500", "134337.802500", "134338.262500", "134338.722500", "134339.182500", "134339.642500", "134340.102500", "134340.562500", "134341.022500", "134341.482500", "134341.942500", "134342.402500", "134342.862500", "134343.322500", "134343.782500", "134344.242500", "134344.702500", "134345.162500", "134345.622500", "134346.082500", "134346.542500", "134347.002500", "134347.462500", "134347.922500", "134348.382500", "134348.842500", "134349.302500", "134349.762500", "134350.222500", "134350.682500", "134351.142500", "134351.602500", "134352.062500", "134352.522500", "134352.982500", "134353.442500", "134353.902500", "134354.362500", "134354.822500", "134355.282500", "134355.742500", "134356.202500", "134356.662500", "134357.122500", "134357.582500", "134358.042500", "134358.502500", "134358.962500", "134359.422500", "134359.882500", "134400.342500", "134400.802500", "134401.262500", "134401.722500", "134402.182500", "134402.642500", "134403.102500", "134403.562500", "134404.022500", "134404.482500", "134404.942500", "134405.402500", "134405.862500", "134406.322500", "134406.782500", "134407.242500", "134407.702500", "134408.162500", "134408.622500", "134409.082500", "134409.542500", "134410.002500", "134410.462500", "134410.922500", "134411.382500", "134411.842500", "134412.302500", "134412.762500", "134413.222500", "134413.682500", "134414.142500", "134414.602500", "134415.062500", "134415.522500", "134415.982500", "134416.442500", "134416.902500", "134417.362500", "134417.822500", "134418.282500", "134418.742500", "134419.202500", "134419.662500", "134420.122500", "134420.582500", "134421.042500", "134421.502500", "134421.962500", "134422.422500", "134422.882500", "134423.342500", "134423.802500", "134424.262500", "134424.722500", "134425.182500", "134425.642500", "134426.102500", "134426.562500", "134427.022500", "134427.482500", "134427.942500", "134428.402500", "134428.862500", "134429.322500", "134429.782500", "134430.242500", "134430.702500", "134431.162500", "134431.622500", "134432.082500", "134432.542500", "134433.002500", "134433.462500", "134433.922500", "134434.382500", "134434.842500", "134435.302500", "134435.762500", "134436.222500", "134436.682500", "134437.142500", "134437.602500", "134438.062500", "134438.522500", "134438.982500", "134439.442500", "134439.902500", "134440.362500", "134440.822500", "134441.282500", "134441.742500", "134442.202500", "134442.662500", "134443.122500", "134443.582500", "134444.042500", "134444.502500", "134444.962500", "134445.422500", "134445.882500", "134446.342500", "134446.802500", "134447.262500", "134447.722500", "134448.182500", "134448.642500", "134449.102500", "134449.562500", "134450.022500", "134450.482500", "134450.942500", "134451.402500", "134451.862500", "134452.322500", "134452.782500", "134453.242500", "134453.702500", "134454.162500", "134454.622500", "134455.082500", "134455.542500", "134456.002500", "134456.462500", "134456.922500", "134457.382500", "134457.842500", "134458.302500", "134458.762500", "134459.222500", "134459.682500", "134500.142500", "134500.602500", "134501.062500", "134501.522500", "134501.982500", "134502.442500", "134502.902500", "134503.362500", "134503.822500", "134504.282500", "134504.742500", "134505.202500", "134505.662500", "134506.122500", "134506.582500", "134507.042500", "134507.502500", "134507.962500", "134508.422500", "134508.882500", "134509.342500", "134509.802500", "134510.262500", "134510.722500", "134511.182500", "134511.642500", "134512.102500", "134512.562500", "134513.022500", "134513.482500", "134513.942500", "134514.402500", "134514.862500", "134515.322500", "134515.782500", "134516.242500", "134516.702500", "134517.162500", "134517.622500", "134518.082500", "134518.542500", "134519.002500", "134519.462500", "134519.922500", "134520.382500", "134520.842500", "134521.302500", "134521.762500", "134522.222500", "134522.682500", "134523.142500", "134523.602500", "134524.062500", "134524.522500", "134524.982500", "134525.442500", "134525.902500", "134526.362500", "134526.822500", "134527.282500", "134527.742500", "134528.202500", "134528.662500", "134529.122500", "134529.582500", "134530.042500", "134530.502500", "134530.962500", "134531.422500", "134531.882500", "134532.342500", "134532.802500", "134533.262500", "134533.722500", "134534.182500", "134534.642500", "134535.102500", "134535.562500", "134536.022500", "134536.482500", "134536.942500", "134537.402500", "134537.862500", "134538.322500", "134538.782500", "134539.242500", "134539.702500", "134540.162500", "134540.622500", "134541.082500", "134541.542500", "134542.002500", "134542.462500", "134542.922500", "134543.382500", "134543.842500", "134544.302500", "134544.762500", "134545.222500", "134545.682500", "134546.142500", "134546.602500", "134547.062500", "134547.522500", "134547.982500", "134548.442500", "134548.902500", "134549.362500", "134549.822500", "134550.282500", "134550.742500", "134551.202500", "134551.662500", "134552.122500", "134552.582500", "134553.042500", "134553.502500", "134553.962500", "134554.422500", "134554.882500", "134555.342500", "134555.802500", "134556.262500", "134556.722500", "134557.182500", "134557.642500", "134558.102500", "134558.562500", "134559.022500", "134559.482500", "134559.942500", "134600.402500", "134600.862500", "134601.322500", "134601.782500", "134602.242500", "134602.702500", "134603.162500", "134603.622500", "134604.082500", "134604.542500", "134605.002500", "134605.462500", "134605.922500", "134606.382500", "134606.842500", "134607.302500", "134607.762500", "134608.222500", "134608.682500", "134609.142500", "134609.602500", "134610.062500", "134610.522500", "134610.982500", "134611.442500", "134611.902500", "134612.362500", "134612.822500", "134613.282500", "134613.742500", "134614.202500", "134614.662500", "134615.122500", "134615.582500", "134616.042500", "134616.502500", "134616.962500", "134617.422500", "134617.882500", "134618.342500", "134618.802500", "134619.262500", "134619.722500", "134620.182500", "134620.642500", "134621.102500", "134621.562500", "134622.022500", "134622.482500", "134622.942500", "134623.402500", "134623.862500", "134624.322500", "134624.782500", "134625.242500", "134625.702500", "134626.162500", "134626.622500", "134627.082500", "134627.542500", "134628.002500", "134628.462500", "134628.922500", "134629.382500", "134629.842500", "134630.302500", "134630.762500", "134631.222500", "134631.682500", "134632.142500", "134632.602500", "134633.062500", "134633.522500", "134633.982500", "134634.442500", "134634.902500", "134635.362500", "134635.822500", "134636.282500", "134636.742500", "134637.202500", "134637.662500", "134638.122500", "134638.582500", "134639.042500", "134639.502500", "134639.962500", "134640.422500", "134640.882500", "134641.342500", "134641.802500", "134642.262500", "134642.722500", "134643.182500", "134643.642500", "134644.102500", "134644.562500", "134645.022500", "134645.482500", "134645.942500", "134646.402500", "134646.862500", "134647.322500", "134647.782500", "134648.242500", "134648.702500", "134649.162500", "134649.622500", "134650.082500", "134650.542500", "134651.002500", "134651.462500", "134651.922500", "134652.382500", "134652.842500", "134653.302500", "134653.762500", "134654.222500", "134654.682500", "134655.142500", "134655.602500", "134656.062500", "134656.522500", "134656.982500", "134657.442500", "134657.902500", "134658.362500", "134658.822500", "134659.282500", "134659.742500", "134700.202500", "134700.662500", "134701.122500", "134701.582500", "134702.042500", "134702.502500", "134702.962500", "134703.422500", "134703.882500", "134704.342500", "134704.802500", "134705.262500", "134705.722500", "134706.182500", "134706.642500", "134707.102500", "134707.562500", "134708.022500", "134708.482500", "134708.942500", "134709.402500", "134709.862500", "134710.322500", "134710.782500", "134711.242500", "134711.702500", "134712.162500", "134712.622500", "134713.082500", "134713.542500", "134714.002500", "134714.462500", "134714.922500", "134715.382500", "134715.842500", "134716.302500", "134716.762500", "134717.222500", "134717.682500", "134718.142500", "134718.602500", "134719.062500", "134719.522500", "134719.982500", "134720.442500", "134720.902500", "134721.362500", "134721.822500", "134722.282500", "134722.742500", "134723.202500", "134723.662500", "134724.122500", "134724.582500", "134725.042500", "134725.502500", "134725.962500", "134726.422500", "134726.882500", "134727.342500", "134727.802500", "134728.262500", "134728.722500", "134729.182500", "134729.642500", "134730.102500", "134730.562500", "134731.022500", "134731.482500", "134731.942500", "134732.402500", "134732.862500", "134733.322500", "134733.782500", "134734.242500", "134734.702500", "134735.162500", "134735.622500", "134736.082500", "134736.542500", "134737.002500", "134737.462500", "134737.922500", "134738.382500", "134738.842500", "134739.302500", "134739.762500", "134740.222500", "134740.682500", "134741.142500", "134741.602500", "134742.062500", "134742.522500", "134742.982500", "134743.442500", "134743.902500", "134744.362500", "134744.822500", "134745.282500", "134745.742500", "134746.202500", "134746.662500", "134747.122500", "134747.582500", "134748.042500", "134748.502500", "134748.962500", "134749.422500", "134749.882500", "134750.342500", "134750.802500", "134751.262500", "134751.722500", "134752.182500", "134752.642500", "134753.102500", "134753.562500", "134754.022500", "134754.482500", "134754.942500", "134755.402500", "134755.862500", "134756.322500", "134756.782500", "134757.242500", "134757.702500", "134758.162500", "134758.622500", "134759.082500", "134759.542500", "134800.002500", "134800.462500", "134800.922500", "134801.382500", "134801.842500", "134802.302500", "134802.762500", "134803.222500", "134803.682500", "134804.142500", "134804.602500", "134805.062500", "134805.522500", "134805.982500", "134806.442500", "134806.902500", "134807.362500", "134807.822500", "134808.282500", "134808.742500", "134809.202500", "134809.662500", "134810.122500", "134810.582500", "134811.042500", "134811.502500", "134811.962500", "134812.422500", "134812.882500", "134813.342500", "134813.802500", "134814.262500", "134814.722500", "134815.182500", "134815.642500", "134816.102500", "134816.562500", "134817.022500", "134817.482500", "134817.942500", "134818.402500", "134818.862500", "134819.322500", "134819.782500", "134820.242500", "134820.702500", "134821.162500", "134821.622500", "134822.082500", "134822.542500", "134823.002500", "134823.462500", "134823.922500", "134824.382500", "134824.842500", "134825.302500", "134825.762500", "134826.222500", "134826.682500", "134827.142500", "134827.602500", "134828.062500", "134828.522500", "134828.982500", "134829.442500", "134829.902500", "134830.362500", "134830.822500", "134831.282500", "134831.742500", "134832.202500", "134832.662500", "134833.122500", "134833.582500", "134834.042500", "134834.502500", "134834.962500", "134835.422500", "134835.882500", "134836.342500", "134836.802500", "134837.262500", "134837.722500", "134838.182500", "134838.642500", "134839.102500", "134839.562500", "134840.022500", "134840.482500", "134840.942500", "134841.402500", "134841.862500", "134842.322500", "134842.782500", "134843.242500", "134843.702500", "134844.162500", "134844.622500", "134845.082500", "134845.542500", "134846.002500", "134846.462500", "134846.922500", "134847.382500", "134847.842500", "134848.302500", "134848.762500", "134849.222500", "134849.682500", "134850.142500", "134850.602500", "134851.062500", "134851.522500", "134851.982500", "134852.442500", "134852.902500", "134853.362500", "134853.822500", "134854.282500", "134854.742500", "134855.202500", "134855.662500", "134856.122500", "134856.582500", "134857.042500", "134857.502500", "134857.962500", "134858.422500", "134858.882500", "134859.342500", "134859.802500", "134900.262500", "134900.722500", "134901.182500", "134901.642500", "134902.102500", "134902.562500", "134903.022500", "134903.482500", "134903.942500", "134904.402500", "134904.862500", "134905.322500", "134905.782500", "134906.242500", "134906.702500", "134907.162500", "134907.622500", "134908.082500", "134908.542500", "134909.002500", "134909.462500", "134909.922500", "134910.382500", "134910.842500", "134911.302500", "134911.762500", "134912.222500", "134912.682500", "134913.142500", "134913.602500", "134914.062500", "134914.522500", "134914.982500", "134915.442500", "134915.902500", "134916.362500", "134916.822500", "134917.282500", "134917.742500", "134918.202500", "134918.662500", "134919.122500", "134919.582500", "134920.042500", "134920.502500", "134920.962500", "134921.422500", "134921.882500", "134922.342500", "134922.802500", "134923.262500", "134923.722500", "134924.182500", "134924.642500", "134925.102500", "134925.562500", "134926.022500", "134926.482500", "134926.942500", "134927.402500", "134927.862500", "134928.322500", "134928.782500", "134929.242500", "134929.702500", "134930.162500", "134930.622500", "134931.082500", "134931.542500", "134932.002500", "134932.462500", "134932.922500", "134933.382500", "134933.842500", "134934.302500", "134934.762500", "134935.222500", "134935.682500", "134936.142500", "134936.602500", "134937.062500", "134937.522500"],
