{
  "AcquisitionMatrixPE": 82,
  "AcquisitionNumber": 1,
  "AcquisitionTime": "15:01:55.785000",
  "BandwidthPerPixelPhaseEncode": 24.888,
  "BaseResolution": 82,
  "BodyPartExamined": "BRAIN",
  "ConsistencyInfo": "N4_VE11E_LATEST_20181129",
  "ConversionSoftware": "dcm2niix",
  "ConversionSoftwareVersion": "v1.0.20201102",
  "DerivedVendorReportedEchoSpacing": 0.00049,
  "DeviceSerialNumber": "66112",
  "DwellTime": 2e-06,
  "EchoTime": 0.0272,
  "EchoTrainLength": 82,
  "EffectiveEchoSpacing": 0.00049,
  "FlipAngle": 44,
  "ImageComments": "Unaliased MB8/PE3",
  "ImageOrientationPatientDICOM": [0.997108, 0.0256377, 0.0715408, -0.0381308, 0.983083, 0.17915],
  "ImageType": [
    "ORIGINAL",
    "PRIMARY",
    "M",
    "MB",
    "ND",
    "NORM",
    "MOSAIC"
],
  "ImagingFrequency": 123.259,
  "InPlanePhaseEncodingDirectionDICOM": "COL",
  "InstitutionAddress": "Maynard 3,Hanover,NH,US,03755",
  "InstitutionName": "Dartmouth College - PBS",
  "InstitutionalDepartmentName": "Department",
  "MRAcquisitionType": "2D",
  "MagneticFieldStrength": 3,
  "Manufacturer": "Siemens",
  "ManufacturersModelName": "Prisma",
  "Modality": "MR",
  "MultibandAccelerationFactor": 8,
  "PartialFourier": 1,
  "PatientPosition": "HFS",
  "PercentPhaseFOV": 100,
  "PercentSampling": 100,
  "PhaseEncodingDirection": "j-",
  "PhaseEncodingSteps": 82,
  "PhaseResolution": 1,
  "PixelBandwidth": 3050,
  "ProcedureStepDescription": "Wager_Wager^1076_spacetop",
  "ProtocolName": "func_run-03_task-alignvideo_acq-ap-mb8",
  "PulseSequenceDetails": "%CustomerSeq%\\cmrr_mbep2d_bold",
  "ReceiveCoilActiveElements": "HEA;HEP",
  "ReceiveCoilName": "Head_32",
  "ReconMatrixPE": 82,
  "RepetitionTime": 0.46,
  "SAR": 0.0858211,
  "ScanOptions": "FS",
  "ScanningSequence": "EP",
  "SequenceName": "epfid2d1_82",
  "SequenceVariant": "SK\\SS",
  "SeriesDescription": "func_run-03_task-alignvideo_acq-ap-mb8",
  "SeriesNumber": 32,
  "ShimSetting": [4243, -7795, -7222, 389, -148, 18, 137, 60],
  "SliceThickness": 2.7,
  "SliceTiming": [0, 0.25, 0.0625, 0.315, 0.125, 0.3775, 0.1875, 0, 0.25, 0.0625, 0.315, 0.125, 0.3775, 0.1875, 0, 0.25, 0.0625, 0.315, 0.125, 0.3775, 0.1875, 0, 0.25, 0.0625, 0.315, 0.125, 0.3775, 0.1875, 0, 0.25, 0.0625, 0.315, 0.125, 0.3775, 0.1875, 0, 0.25, 0.0625, 0.315, 0.125, 0.3775, 0.1875, 0, 0.25, 0.0625, 0.315, 0.125, 0.3775, 0.1875, 0, 0.25, 0.0625, 0.315, 0.125, 0.3775, 0.1875],
  "SoftwareVersions": "syngo MR E11",
  "SpacingBetweenSlices": 2.7,
  "StationName": "AWP66112",
  "TaskName": "alignvideo",
  "TotalReadoutTime": 0.03969,
  "TxRefAmp": 220.894,
  "WipMemBlock": "41e876cf-9c3a-4e26-9222-4ae0dc18363e||Sequence: R016 ve11e/master r/434b28f1; Aug  7 2019 18:53:46 by eja",
  "dcmmeta_affine": [
    [-2.67516827583313, -0.10230211168527603, 0.17749133706092834, 110.60761260986328],
    [-0.06878416240215302, 2.6375389099121094, 0.48967039585113525, -111.131591796875],
    [0.19193875789642334, -0.48064523935317993, 2.6492865085601807, -52.28824234008789],
    [0.0, 0.0, 0.0, 1.0]
],
  "dcmmeta_reorient_transform": [
    [0.0, -1.0, 0.0, 81.0],
    [1.0, 0.0, 0.0, 0.0],
    [0.0, 0.0, 1.0, 0.0],
    [0.0, 0.0, 0.0, 1.0]
],
  "dcmmeta_shape": [82, 82, 56, 1065],
  "dcmmeta_slice_dim": 2,
  "dcmmeta_version": 0.6,
  "global": {
    "const": {
      "AccessionNumber": "A004848",
      "AcquisitionMatrix": [82, 0, 0, 82],
      "AngioFlag": "N",
      "BitsAllocated": 16,
      "BitsStored": 16,
      "BodyPartExamined": "BRAIN",
      "Columns": 656,
      "EchoNumbers": 1,
      "EchoTime": 27.2,
      "EchoTrainLength": 82,
      "FlipAngle": 44.0,
      "HighBit": 15,
      "ImageOrientationPatient": [0.99710812831703, 0.02563773394447, 0.07154080683287, -0.0381307860822, 0.98308263656856, 0.17914958227737],
      "ImagePositionPatient": [-840.73371542492, -879.22375667113, -284.25210944428],
      "ImageType": [
        "ORIGINAL",
        "PRIMARY",
        "M",
        "MB",
        "ND",
        "NORM",
        "MOSAIC"
],
      "ImagedNucleus": "1H",
      "ImagingFrequency": 123.259068,
      "InPlanePhaseEncodingDirection": "COL",
      "MRAcquisitionType": "2D",
      "MagneticFieldStrength": 3.0,
      "Manufacturer": "SIEMENS",
      "ManufacturerModelName": "Prisma",
      "Modality": "MR",
      "NumberOfAverages": 1.0,
      "NumberOfPhaseEncodingSteps": 82,
      "PercentPhaseFieldOfView": 100.0,
      "PercentSampling": 100.0,
      "PerformedProcedureStepStartTime": "132939.511000",
      "PhotometricInterpretation": "MONOCHROME2",
      "PixelBandwidth": 3050.0,
      "PixelRepresentation": 0,
      "PixelSpacing": [2.6829268932343, 2.6829268932343],
      "ProtocolName": "func_run-03_task-alignvideo_acq-ap-mb8",
      "RepetitionTime": 460.0,
      "Rows": 656,
      "SAR": 0.08582110993871,
      "SamplesPerPixel": 1,
      "ScanOptions": "FS",
      "ScanningSequence": "EP",
      "SequenceName": "epfid2d1_82",
      "SequenceVariant": [
        "SK",
        "SS"
],
      "SeriesDescription": "func_run-03_task-alignvideo_acq-ap-mb8",
      "SeriesNumber": 32,
      "SeriesTime": "150224.790000",
      "SliceLocation": -64.189814121817,
      "SliceThickness": 2.7000000476837,
      "SmallestImagePixelValue": 0,
      "SoftwareVersions": "syngo MR E11",
      "SpacingBetweenSlices": 2.6999999403308,
      "SpecificCharacterSet": "ISO_IR 100",
      "StudyID": "1",
      "StudyTime": "132939.355000",
      "TransmitCoilName": "Body",
      "VariableFlipAngleFlag": "N",
      "WindowCenterWidthExplanation": "Algo1"
    },
    "slices": {}
  },
  "time": {
    "samples": {
      "AcquisitionNumber": [1, 2, 3, 4, 5, 6, 7, 8, 9, 10, 11, 12, 13, 14, 15, 16, 17, 18, 19, 20, 21, 22, 23, 24, 25, 26, 27, 28, 29, 30, 31, 32, 33, 34, 35, 36, 37, 38, 39, 40, 41, 42, 43, 44, 45, 46, 47, 48, 49, 50, 51, 52, 53, 54, 55, 56, 57, 58, 59, 60, 61, 62, 63, 64, 65, 66, 67, 68, 69, 70, 71, 72, 73, 74, 75, 76, 77, 78, 79, 80, 81, 82, 83, 84, 85, 86, 87, 88, 89, 90, 91, 92, 93, 94, 95, 96, 97, 98, 99, 100, 101, 102, 103, 104, 105, 106, 107, 108, 109, 110, 111, 112, 113, 114, 115, 116, 117, 118, 119, 120, 121, 122, 123, 124, 125, 126, 127, 128, 129, 130, 131, 132, 133, 134, 135, 136, 137, 138, 139, 140, 141, 142, 143, 144, 145, 146, 147, 148, 149, 150, 151, 152, 153, 154, 155, 156, 157, 158, 159, 160, 161, 162, 163, 164, 165, 166, 167, 168, 169, 170, 171, 172, 173, 174, 175, 176, 177, 178, 179, 180, 181, 182, 183, 184, 185, 186, 187, 188, 189, 190, 191, 192, 193, 194, 195, 196, 197, 198, 199, 200, 201, 202, 203, 204, 205, 206, 207, 208, 209, 210, 211, 212, 213, 214, 215, 216, 217, 218, 219, 220, 221, 222, 223, 224, 225, 226, 227, 228, 229, 230, 231, 232, 233, 234, 235, 236, 237, 238, 239, 240, 241, 242, 243, 244, 245, 246, 247, 248, 249, 250, 251, 252, 253, 254, 255, 256, 257, 258, 259, 260, 261, 262, 263, 264, 265, 266, 267, 268, 269, 270, 271, 272, 273, 274, 275, 276, 277, 278, 279, 280, 281, 282, 283, 284, 285, 286, 287, 288, 289, 290, 291, 292, 293, 294, 295, 296, 297, 298, 299, 300, 301, 302, 303, 304, 305, 306, 307, 308, 309, 310, 311, 312, 313, 314, 315, 316, 317, 318, 319, 320, 321, 322, 323, 324, 325, 326, 327, 328, 329, 330, 331, 332, 333, 334, 335, 336, 337, 338, 339, 340, 341, 342, 343, 344, 345, 346, 347, 348, 349, 350, 351, 352, 353, 354, 355, 356, 357, 358, 359, 360, 361, 362, 363, 364, 365, 366, 367, 368, 369, 370, 371, 372, 373, 374, 375, 376, 377, 378, 379, 380, 381, 382, 383, 384, 385, 386, 387, 388, 389, 390, 391, 392, 393, 394, 395, 396, 397, 398, 399, 400, 401, 402, 403, 404, 405, 406, 407, 408, 409, 410, 411, 412, 413, 414, 415, 416, 417, 418, 419, 420, 421, 422, 423, 424, 425, 426, 427, 428, 429, 430, 431, 432, 433, 434, 435, 436, 437, 438, 439, 440, 441, 442, 443, 444, 445, 446, 447, 448, 449, 450, 451, 452, 453, 454, 455, 456, 457, 458, 459, 460, 461, 462, 463, 464, 465, 466, 467, 468, 469, 470, 471, 472, 473, 474, 475, 476, 477, 478, 479, 480, 481, 482, 483, 484, 485, 486, 487, 488, 489, 490, 491, 492, 493, 494, 495, 496, 497, 498, 499, 500, 501, 502, 503, 504, 505, 506, 507, 508, 509, 510, 511, 512, 513, 514, 515, 516, 517, 518, 519, 520, 521, 522, 523, 524, 525, 526, 527, 528, 529, 530, 531, 532, 533, 534, 535, 536, 537, 538, 539, 540, 541, 542, 543, 544, 545, 546, 547, 548, 549, 550, 551, 552, 553, 554, 555, 556, 557, 558, 559, 560, 561, 562, 563, 564, 565, 566, 567, 568, 569, 570, 571, 572, 573, 574, 575, 576, 577, 578, 579, 580, 581, 582, 583, 584, 585, 586, 587, 588, 589, 590, 591, 592, 593, 594, 595, 596, 597, 598, 599, 600, 601, 602, 603, 604, 605, 606, 607, 608, 609, 610, 611, 612, 613, 614, 615, 616, 617, 618, 619, 620, 621, 622, 623, 624, 625, 626, 627, 628, 629, 630, 631, 632, 633, 634, 635, 636, 637, 638, 639, 640, 641, 642, 643, 644, 645, 646, 647, 648, 649, 650, 651, 652, 653, 654, 655, 656, 657, 658, 659, 660, 661, 662, 663, 664, 665, 666, 667, 668, 669, 670, 671, 672, 673, 674, 675, 676, 677, 678, 679, 680, 681, 682, 683, 684, 685, 686, 687, 688, 689, 690, 691, 692, 693, 694, 695, 696, 697, 698, 699, 700, 701, 702, 703, 704, 705, 706, 707, 708, 709, 710, 711, 712, 713, 714, 715, 716, 717, 718, 719, 720, 721, 722, 723, 724, 725, 726, 727, 728, 729, 730, 731, 732, 733, 734, 735, 736, 737, 738, 739, 740, 741, 742, 743, 744, 745, 746, 747, 748, 749, 750, 751, 752, 753, 754, 755, 756, 757, 758, 759, 760, 761, 762, 763, 764, 765, 766, 767, 768, 769, 770, 771, 772, 773, 774, 775, 776, 777, 778, 779, 780, 781, 782, 783, 784, 785, 786, 787, 788, 789, 790, 791, 792, 793, 794, 795, 796, 797, 798, 799, 800, 801, 802, 803, 804, 805, 806, 807, 808, 809, 810, 811, 812, 813, 814, 815, 816, 817, 818, 819, 820, 821, 822, 823, 824, 825, 826, 827, 828, 829, 830, 831, 832, 833, 834, 835, 836, 837, 838, 839, 840, 841, 842, 843, 844, 845, 846, 847, 848, 849, 850, 851, 852, 853, 854, 855, 856, 857, 858, 859, 860, 861, 862, 863, 864, 865, 866, 867, 868, 869, 870, 871, 872, 873, 874, 875, 876, 877, 878, 879, 880, 881, 882, 883, 884, 885, 886, 887, 888, 889, 890, 891, 892, 893, 894, 895, 896, 897, 898, 899, 900, 901, 902, 903, 904, 905, 906, 907, 908, 909, 910, 911, 912, 913, 914, 915, 916, 917, 918, 919, 920, 921, 922, 923, 924, 925, 926, 927, 928, 929, 930, 931, 932, 933, 934, 935, 936, 937, 938, 939, 940, 941, 942, 943, 944, 945, 946, 947, 948, 949, 950, 951, 952, 953, 954, 955, 956, 957, 958, 959, 960, 961, 962, 963, 964, 965, 966, 967, 968, 969, 970, 971, 972, 973, 974, 975, 976, 977, 978, 979, 980, 981, 982, 983, 984, 985, 986, 987, 988, 989, 990, 991, 992, 993, 994, 995, 996, 997, 998, 999, 1000, 1001, 1002, 1003, 1004, 1005, 1006, 1007, 1008, 1009, 1010, 1011, 1012, 1013, 1014, 1015, 1016, 1017, 1018, 1019, 1020, 1021, 1022, 1023, 1024, 1025, 1026, 1027, 1028, 1029, 1030, 1031, 1032, 1033, 1034, 1035, 1036, 1037, 1038, 1039, 1040, 1041, 1042, 1043, 1044, 1045, 1046, 1047, 1048, 1049, 1050, 1051, 1052, 1053, 1054, 1055, 1056, 1057, 1058, 1059, 1060, 1061, 1062, 1063, 1064, 1065],
      "AcquisitionTime": ["150155.785000", "150156.245000", "150156.705000", "150157.165000", "150157.625000", "150158.085000", "150158.545000", "150159.005000", "150159.465000", "150159.925000", "150200.385000", "150200.845000", "150201.305000", "150201.765000", "150202.225000", "150202.685000", "150203.145000", "150203.605000", "150204.065000", "150204.525000", "150204.985000", "150205.445000", "150205.905000", "150206.365000", "150206.825000", "150207.285000", "150207.745000", "150208.205000", "150208.665000", "150209.125000", "150209.585000", "150210.045000", "150210.505000", "150210.965000", "150211.425000", "150211.885000", "150212.345000", "150212.805000", "150213.265000", "150213.725000", "150214.185000", "150214.645000", "150215.105000", "150215.565000", "150216.025000", "150216.485000", "150216.945000", "150217.405000", "150217.865000", "150218.325000", "150218.785000", "150219.245000", "150219.705000", "150220.165000", "150220.625000", "150221.085000", "150221.545000", "150222.005000", "150222.465000", "150222.925000", "150223.385000", "150223.845000", "150224.305000", "150224.765000", "150225.225000", "150225.685000", "150226.145000", "150226.605000", "150227.065000", "150227.525000", "150227.985000", "150228.445000", "150228.905000", "150229.365000", "150229.825000", "150230.285000", "150230.745000", "150231.205000", "150231.665000", "150232.125000", "150232.585000", "150233.045000", "150233.505000", "150233.965000", "150234.425000", "150234.885000", "150235.345000", "150235.805000", "150236.265000", "150236.725000", "150237.185000", "150237.645000", "150238.105000", "150238.565000", "150239.025000", "150239.485000", "150239.945000", "150240.405000", "150240.865000", "150241.325000", "150241.785000", "150242.245000", "150242.705000", "150243.165000", "150243.625000", "150244.085000", "150244.545000", "150245.005000", "150245.465000", "150245.925000", "150246.385000", "150246.845000", "150247.305000", "150247.765000", "150248.225000", "150248.685000", "150249.145000", "150249.605000", "150250.065000", "150250.525000", "150250.985000", "150251.445000", "150251.905000", "150252.365000", "150252.825000", "150253.285000", "150253.745000", "150254.205000", "150254.665000", "150255.125000", "150255.585000", "150256.045000", "150256.505000", "150256.965000", "150257.425000", "150257.885000", "150258.345000", "150258.805000", "150259.265000", "150259.725000", "150300.185000", "150300.645000", "150301.105000", "150301.565000", "150302.025000", "150302.485000", "150302.945000", "150303.405000", "150303.865000", "150304.325000", "150304.785000", "150305.245000", "150305.705000", "150306.165000", "150306.625000", "150307.085000", "150307.545000", "150308.005000", "150308.465000", "150308.925000", "150309.385000", "150309.845000", "150310.305000", "150310.765000", "150311.225000", "150311.685000", "150312.145000", "150312.605000", "150313.065000", "150313.525000", "150313.985000", "150314.445000", "150314.905000", "150315.365000", "150315.825000", "150316.285000", "150316.745000", "150317.205000", "150317.665000", "150318.125000", "150318.585000", "150319.045000", "150319.505000", "150319.965000", "150320.425000", "150320.885000", "150321.345000", "150321.805000", "150322.265000", "150322.725000", "150323.185000", "150323.645000", "150324.105000", "150324.565000", "150325.025000", "150325.485000", "150325.945000", "150326.405000", "150326.865000", "150327.325000", "150327.785000", "150328.245000", "150328.705000", "150329.165000", "150329.625000", "150330.085000", "150330.545000", "150331.005000", "150331.465000", "150331.925000", "150332.385000", "150332.845000", "150333.305000", "150333.765000", "150334.225000", "150334.685000", "150335.145000", "150335.605000", "150336.065000", "150336.525000", "150336.985000", "150337.445000", "150337.905000", "150338.365000", "150338.825000", "150339.285000", "150339.745000", "150340.205000", "150340.665000", "150341.125000", "150341.585000", "150342.045000", "150342.505000", "150342.965000", "150343.425000", "150343.885000", "150344.345000", "150344.805000", "150345.265000", "150345.725000", "150346.185000", "150346.645000", "150347.105000", "150347.565000", "150348.025000", "150348.485000", "150348.945000", "150349.405000", "150349.865000", "150350.325000", "150350.785000", "150351.245000", "150351.705000", "150352.165000", "150352.625000", "150353.085000", "150353.545000", "150354.005000", "150354.465000", "150354.925000", "150355.385000", "150355.845000", "150356.305000", "150356.765000", "150357.225000", "150357.685000", "150358.145000", "150358.605000", "150359.065000", "150359.525000", "150359.985000", "150400.445000", "150400.905000", "150401.365000", "150401.825000", "150402.285000", "150402.745000", "150403.205000", "150403.665000", "150404.125000", "150404.585000", "150405.045000", "150405.505000", "150405.965000", "150406.425000", "150406.885000", "150407.345000", "150407.805000", "150408.265000", "150408.725000", "150409.185000", "150409.645000", "150410.105000", "150410.565000", "150411.025000", "150411.485000", "150411.945000", "150412.405000", "150412.865000", "150413.325000", "150413.785000", "150414.245000", "150414.705000", "150415.165000", "150415.625000", "150416.085000", "150416.545000", "150417.005000", "150417.465000", "150417.925000", "150418.385000", "150418.845000", "150419.305000", "150419.765000", "150420.225000", "150420.685000", "150421.145000", "150421.605000", "150422.065000", "150422.525000", "150422.985000", "150423.445000", "150423.905000", "150424.365000", "150424.825000", "150425.285000", "150425.745000", "150426.205000", "150426.665000", "150427.125000", "150427.585000", "150428.045000", "150428.505000", "150428.965000", "150429.425000", "150429.885000", "150430.345000", "150430.805000", "150431.265000", "150431.725000", "150432.185000", "150432.645000", "150433.105000", "150433.565000", "150434.025000", "150434.485000", "150434.945000", "150435.405000", "150435.865000", "150436.325000", "150436.785000", "150437.245000", "150437.705000", "150438.165000", "150438.625000", "150439.085000", "150439.545000", "150440.005000", "150440.465000", "150440.925000", "150441.385000", "150441.845000", "150442.305000", "150442.765000", "150443.225000", "150443.685000", "150444.145000", "150444.605000", "150445.065000", "150445.525000", "150445.985000", "150446.445000", "150446.905000", "150447.365000", "150447.825000", "150448.285000", "150448.745000", "150449.205000", "150449.665000", "150450.125000", "150450.585000", "150451.045000", "150451.505000", "150451.965000", "150452.425000", "150452.885000", "150453.345000", "150453.805000", "150454.265000", "150454.725000", "150455.185000", "150455.645000", "150456.105000", "150456.565000", "150457.025000", "150457.485000", "150457.945000", "150458.405000", "150458.865000", "150459.325000", "150459.785000", "150500.245000", "150500.705000", "150501.165000", "150501.625000", "150502.085000", "150502.545000", "150503.005000", "150503.465000", "150503.925000", "150504.385000", "150504.845000", "150505.305000", "150505.765000", "150506.225000", "150506.685000", "150507.145000", "150507.605000", "150508.065000", "150508.525000", "150508.985000", "150509.445000", "150509.905000", "150510.365000", "150510.825000", "150511.285000", "150511.745000", "150512.205000", "150512.665000", "150513.125000", "150513.585000", "150514.045000", "150514.505000", "150514.965000", "150515.425000", "150515.885000", "150516.345000", "150516.805000", "150517.265000", "150517.725000", "150518.185000", "150518.645000", "150519.105000", "150519.565000", "150520.025000", "150520.485000", "150520.945000", "150521.405000", "150521.865000", "150522.325000", "150522.785000", "150523.245000", "150523.705000", "150524.165000", "150524.625000", "150525.085000", "150525.545000", "150526.005000", "150526.465000", "150526.925000", "150527.385000", "150527.845000", "150528.305000", "150528.765000", "150529.225000", "150529.685000", "150530.145000", "150530.605000", "150531.065000", "150531.525000", "150531.985000", "150532.445000", "150532.905000", "150533.365000", "150533.825000", "150534.285000", "150534.745000", "150535.205000", "150535.665000", "150536.125000", "150536.585000", "150537.045000", "150537.505000", "150537.965000", "150538.425000", "150538.885000", "150539.345000", "150539.805000", "150540.265000", "150540.725000", "150541.185000", "150541.645000", "150542.105000", "150542.565000", "150543.025000", "150543.485000", "150543.945000", "150544.405000", "150544.865000", "150545.325000", "150545.785000", "150546.245000", "150546.705000", "150547.165000", "150547.625000", "150548.085000", "150548.545000", "150549.005000", "150549.465000", "150549.925000", "150550.385000", "150550.845000", "150551.305000", "150551.765000", "150552.225000", "150552.685000", "150553.145000", "150553.605000", "150554.065000", "150554.525000", "150554.985000", "150555.445000", "150555.905000", "150556.365000", "150556.825000", "150557.285000", "150557.745000", "150558.205000", "150558.665000", "150559.125000", "150559.585000", "150600.045000", "150600.505000", "150600.965000", "150601.425000", "150601.885000", "150602.345000", "150602.805000", "150603.265000", "150603.725000", "150604.185000", "150604.645000", "150605.105000", "150605.565000", "150606.025000", "150606.485000", "150606.945000", "150607.405000", "150607.865000", "150608.325000", "150608.785000", "150609.245000", "150609.705000", "150610.165000", "150610.625000", "150611.085000", "150611.545000", "150612.005000", "150612.465000", "150612.925000", "150613.385000", "150613.845000", "150614.305000", "150614.765000", "150615.225000", "150615.685000", "150616.145000", "150616.605000", "150617.065000", "150617.525000", "150617.985000", "150618.445000", "150618.905000", "150619.365000", "150619.825000", "150620.285000", "150620.745000", "150621.205000", "150621.665000", "150622.125000", "150622.585000", "150623.045000", "150623.505000", "150623.965000", "150624.425000", "150624.885000", "150625.345000", "150625.805000", "150626.265000", "150626.725000", "150627.185000", "150627.645000", "150628.105000", "150628.565000", "150629.025000", "150629.485000", "150629.945000", "150630.405000", "150630.865000", "150631.325000", "150631.785000", "150632.245000", "150632.705000", "150633.165000", "150633.625000", "150634.085000", "150634.545000", "150635.005000", "150635.465000", "150635.925000", "150636.385000", "150636.845000", "150637.305000", "150637.765000", "150638.225000", "150638.685000", "150639.145000", "150639.605000", "150640.065000", "150640.525000", "150640.985000", "150641.445000", "150641.905000", "150642.365000", "150642.825000", "150643.285000", "150643.745000", "150644.205000", "150644.665000", "150645.125000", "150645.585000", "150646.045000", "150646.505000", "150646.965000", "150647.425000", "150647.885000", "150648.345000", "150648.805000", "150649.265000", "150649.725000", "150650.185000", "150650.645000", "150651.105000", "150651.565000", "150652.025000", "150652.485000", "150652.945000", "150653.405000", "150653.865000", "150654.325000", "150654.785000", "150655.245000", "150655.705000", "150656.165000", "150656.625000", "150657.085000", "150657.545000", "150658.005000", "150658.465000", "150658.925000", "150659.385000", "150659.845000", "150700.305000", "150700.765000", "150701.225000", "150701.685000", "150702.145000", "150702.605000", "150703.065000", "150703.525000", "150703.985000", "150704.445000", "150704.905000", "150705.365000", "150705.825000", "150706.285000", "150706.745000", "150707.205000", "150707.665000", "150708.125000", "150708.585000", "150709.045000", "150709.505000", "150709.965000", "150710.425000", "150710.885000", "150711.345000", "150711.805000", "150712.265000", "150712.725000", "150713.185000", "150713.645000", "150714.105000", "150714.565000", "150715.025000", "150715.485000", "150715.945000", "150716.405000", "150716.865000", "150717.325000", "150717.785000", "150718.245000", "150718.705000", "150719.165000", "150719.625000", "150720.085000", "150720.545000", "150721.005000", "150721.465000", "150721.925000", "150722.385000", "150722.845000", "150723.305000", "150723.765000", "150724.225000", "150724.685000", "150725.145000", "150725.605000", "150726.065000", "150726.525000", "150726.985000", "150727.445000", "150727.905000", "150728.365000", "150728.825000", "150729.285000", "150729.745000", "150730.205000", "150730.665000", "150731.125000", "150731.585000", "150732.045000", "150732.505000", "150732.965000", "150733.425000", "150733.885000", "150734.345000", "150734.805000", "150735.265000", "150735.725000", "150736.185000", "150736.645000", "150737.105000", "150737.565000", "150738.025000", "150738.485000", "150738.945000", "150739.405000", "150739.865000", "150740.325000", "150740.785000", "150741.245000", "150741.705000", "150742.165000", "150742.625000", "150743.085000", "150743.545000", "150744.005000", "150744.465000", "150744.925000", "150745.385000", "150745.845000", "150746.305000", "150746.765000", "150747.225000", "150747.685000", "150748.145000", "150748.605000", "150749.065000", "150749.525000", "150749.985000", "150750.445000", "150750.905000", "150751.365000", "150751.825000", "150752.285000", "150752.745000", "150753.205000", "150753.665000", "150754.125000", "150754.585000", "150755.045000", "150755.505000", "150755.965000", "150756.425000", "150756.885000", "150757.345000", "150757.805000", "150758.265000", "150758.725000", "150759.185000", "150759.645000", "150800.105000", "150800.565000", "150801.025000", "150801.485000", "150801.945000", "150802.405000", "150802.865000", "150803.325000", "150803.785000", "150804.245000", "150804.705000", "150805.165000", "150805.625000", "150806.085000", "150806.545000", "150807.005000", "150807.465000", "150807.925000", "150808.385000", "150808.845000", "150809.305000", "150809.765000", "150810.225000", "150810.685000", "150811.145000", "150811.605000", "150812.065000", "150812.525000", "150812.985000", "150813.445000", "150813.905000", "150814.365000", "150814.825000", "150815.285000", "150815.745000", "150816.205000", "150816.665000", "150817.125000", "150817.585000", "150818.045000", "150818.505000", "150818.965000", "150819.425000", "150819.885000", "150820.345000", "150820.805000", "150821.265000", "150821.725000", "150822.185000", "150822.645000", "150823.105000", "150823.565000", "150824.025000", "150824.485000", "150824.945000", "150825.405000", "150825.865000", "150826.325000", "150826.785000", "150827.245000", "150827.705000", "150828.165000", "150828.625000", "150829.085000", "150829.545000", "150830.005000", "150830.465000", "150830.925000", "150831.385000", "150831.845000", "150832.305000", "150832.765000", "150833.225000", "150833.685000", "150834.145000", "150834.605000", "150835.065000", "150835.525000", "150835.985000", "150836.445000", "150836.905000", "150837.365000", "150837.825000", "150838.285000", "150838.745000", "150839.205000", "150839.665000", "150840.125000", "150840.585000", "150841.045000", "150841.505000", "150841.965000", "150842.425000", "150842.885000", "150843.345000", "150843.805000", "150844.265000", "150844.725000", "150845.185000", "150845.645000", "150846.105000", "150846.565000", "150847.025000", "150847.485000", "150847.945000", "150848.405000", "150848.865000", "150849.325000", "150849.785000", "150850.245000", "150850.705000", "150851.165000", "150851.625000", "150852.085000", "150852.545000", "150853.005000", "150853.465000", "150853.925000", "150854.385000", "150854.845000", "150855.305000", "150855.765000", "150856.225000", "150856.685000", "150857.145000", "150857.605000", "150858.065000", "150858.525000", "150858.985000", "150859.445000", "150859.905000", "150900.365000", "150900.825000", "150901.285000", "150901.745000", "150902.205000", "150902.665000", "150903.125000", "150903.585000", "150904.045000", "150904.505000", "150904.965000", "150905.425000", "150905.885000", "150906.345000", "150906.805000", "150907.265000", "150907.725000", "150908.185000", "150908.645000", "150909.105000", "150909.565000", "150910.025000", "150910.485000", "150910.945000", "150911.405000", "150911.865000", "150912.325000", "150912.785000", "150913.245000", "150913.705000", "150914.165000", "150914.625000", "150915.085000", "150915.545000", "150916.005000", "150916.465000", "150916.925000", "150917.385000", "150917.845000", "150918.305000", "150918.765000", "150919.225000", "150919.685000", "150920.145000", "150920.605000", "150921.065000", "150921.525000", "150921.985000", "150922.445000", "150922.905000", "150923.365000", "150923.825000", "150924.285000", "150924.745000", "150925.205000", "150925.665000", "150926.125000", "150926.585000", "150927.045000", "150927.505000", "150927.965000", "150928.425000", "150928.885000", "150929.345000", "150929.805000", "150930.265000", "150930.725000", "150931.185000", "150931.645000", "150932.105000", "150932.565000", "150933.025000", "150933.485000", "150933.945000", "150934.405000", "150934.865000", "150935.325000", "150935.785000", "150936.245000", "150936.705000", "150937.165000", "150937.625000", "150938.085000", "150938.545000", "150939.005000", "150939.465000", "150939.925000", "150940.385000", "150940.845000", "150941.305000", "150941.765000", "150942.225000", "150942.685000", "150943.145000", "150943.605000", "150944.065000", "150944.525000", "150944.985000", "150945.445000", "150945.905000", "150946.365000", "150946.825000", "150947.285000", "150947.745000", "150948.205000", "150948.665000", "150949.125000", "150949.585000", "150950.045000", "150950.505000", "150950.965000", "150951.425000", "150951.885000", "150952.345000", "150952.805000", "150953.265000", "150953.725000", "150954.185000", "150954.645000", "150955.105000", "150955.565000", "150956.025000", "150956.485000", "150956.945000", "150957.405000", "150957.865000", "150958.325000", "150958.785000", "150959.245000", "150959.705000", "151000.165000", "151000.625000", "151001.085000", "151001.545000", "151002.005000", "151002.465000", "151002.925000", "151003.385000", "151003.845000", "151004.305000", "151004.765000", "151005.225000"],
