{
  "AcquisitionMatrixPE": 82,
  "AcquisitionNumber": 1,
  "AcquisitionTime": "10:15:51.482500",
  "BandwidthPerPixelPhaseEncode": 24.888,
  "BaseResolution": 82,
  "BodyPartExamined": "BRAIN",
  "ConsistencyInfo": "N4_VE11C_LATEST_20160120",
  "ConversionSoftware": "dcm2niix",
  "ConversionSoftwareVersion": "v1.0.20201102",
  "DerivedVendorReportedEchoSpacing": 0.00049,
  "DeviceSerialNumber": "66112",
  "DwellTime": 2e-06,
  "EchoTime": 0.0272,
  "EchoTrainLength": 82,
  "EffectiveEchoSpacing": 0.00049,
  "FlipAngle": 44,
  "ImageComments": "Unaliased MB8/PE3",
  "ImageOrientationPatientDICOM": [0.999467, 0.00376026, 0.0324222, -0.00523321, 0.998952, 0.0454657],
  "ImageType": [
    "ORIGINAL",
    "PRIMARY",
    "M",
    "MB",
    "ND",
    "NORM",
    "MOSAIC"
],
  "ImagingFrequency": 123.252,
  "InPlanePhaseEncodingDirectionDICOM": "COL",
  "InstitutionAddress": "Maynard 3,Hanover,NH,US,03755",
  "InstitutionName": "Dartmouth College - PBS",
  "InstitutionalDepartmentName": "Department",
  "MRAcquisitionType": "2D",
  "MagneticFieldStrength": 3,
  "Manufacturer": "Siemens",
  "ManufacturersModelName": "Prisma",
  "Modality": "MR",
  "MultibandAccelerationFactor": 8,
  "PartialFourier": 1,
  "PatientPosition": "HFS",
  "PercentPhaseFOV": 100,
  "PercentSampling": 100,
  "PhaseEncodingDirection": "j-",
  "PhaseEncodingSteps": 82,
  "PhaseResolution": 1,
  "PixelBandwidth": 3050,
  "ProcedureStepDescription": "Wager_Wager^1076_spacetop",
  "ProtocolName": "func_run-01_task-faces_acq-ap-mb8",
  "PulseSequenceDetails": "%CustomerSeq%\\cmrr_mbep2d_bold",
  "ReceiveCoilActiveElements": "HEA;HEP",
  "ReceiveCoilName": "Head_32",
  "ReconMatrixPE": 82,
  "RepetitionTime": 0.46,
  "SAR": 0.134251,
  "ScanOptions": "FS",
  "ScanningSequence": "EP",
  "SequenceName": "epfid2d1_82",
  "SequenceVariant": "SK\\SS",
  "SeriesDescription": "func_run-01_task-faces_acq-ap-mb8",
  "SeriesNumber": 16,
  "ShimSetting": [4178, -7733, -7184, 557, -9, -35, 16, 31],
  "SliceThickness": 2.7,
  "SliceTiming": [0, 0.25, 0.0625, 0.315, 0.125, 0.3775, 0.1875, 0, 0.25, 0.0625, 0.315, 0.125, 0.3775, 0.1875, 0, 0.25, 0.0625, 0.315, 0.125, 0.3775, 0.1875, 0, 0.25, 0.0625, 0.315, 0.125, 0.3775, 0.1875, 0, 0.25, 0.0625, 0.315, 0.125, 0.3775, 0.1875, 0, 0.25, 0.0625, 0.315, 0.125, 0.3775, 0.1875, 0, 0.25, 0.0625, 0.315, 0.125, 0.3775, 0.1875, 0, 0.25, 0.0625, 0.315, 0.125, 0.3775, 0.1875],
  "SoftwareVersions": "syngo MR E11",
  "SpacingBetweenSlices": 2.7,
  "StationName": "AWP66112",
  "TaskName": "faces",
  "TotalReadoutTime": 0.03969,
  "TxRefAmp": 300.137,
  "WipMemBlock": "d1a7bc5c-4e52-4125-8961-1016f57d11d5||Sequence: R016 ve11c/master r/e634e98; Dec 19 2017 11:00:25 by eja",
  "dcmmeta_affine": [
    [-2.68149733543396, -0.014040317386388779, 0.08698663860559464, 111.34471130371094],
    [-0.010088506154716015, 2.6801156997680664, 0.12315021455287933, -94.51126098632812],
    [0.08698641508817673, -0.12198126316070557, 2.695786952972412, -19.513805389404297],
    [0.0, 0.0, 0.0, 1.0]
],
  "dcmmeta_reorient_transform": [
    [0.0, -1.0, 0.0, 81.0],
    [1.0, 0.0, 0.0, 0.0],
    [0.0, 0.0, 1.0, 0.0],
    [0.0, 0.0, 0.0, 1.0]
],
  "dcmmeta_shape": [82, 82, 56, 914],
  "dcmmeta_slice_dim": 2,
  "dcmmeta_version": 0.6,
  "global": {
    "const": {
      "AccessionNumber": "A003745",
      "AcquisitionMatrix": [82, 0, 0, 82],
      "AngioFlag": "N",
      "BitsAllocated": 16,
      "BitsStored": 16,
      "BodyPartExamined": "BRAIN",
      "Columns": 656,
      "EchoNumbers": 1,
      "EchoTime": 27.2,
      "EchoTrainLength": 82,
      "FlipAngle": 44.0,
      "HighBit": 15,
      "ImageOrientationPatient": [0.99946718847514, 0.00376026113031, 0.03242220840468, -0.0052332091499, 0.99895219099141, 0.04546574133846],
      "ImagePositionPatient": [-875.76762935923, -894.66671733106, -89.368009880652],
      "ImageType": [
        "ORIGINAL",
        "PRIMARY",
        "M",
        "MB",
        "ND",
        "NORM",
        "MOSAIC"
],
      "ImagedNucleus": "1H",
      "ImagingFrequency": 123.25219,
      "InPlanePhaseEncodingDirection": "COL",
      "MRAcquisitionType": "2D",
      "MagneticFieldStrength": 3.0,
      "Manufacturer": "SIEMENS",
      "ManufacturerModelName": "Prisma",
      "Modality": "MR",
      "NumberOfAverages": 1.0,
      "NumberOfPhaseEncodingSteps": 82,
      "PercentPhaseFieldOfView": 100.0,
      "PercentSampling": 100.0,
      "PerformedProcedureStepStartTime": "090438.462000",
      "PhotometricInterpretation": "MONOCHROME2",
      "PixelBandwidth": 3050.0,
      "PixelRepresentation": 0,
      "PixelSpacing": [2.6829268932343, 2.6829268932343],
      "ProtocolName": "func_run-01_task-faces_acq-ap-mb8",
      "RepetitionTime": 460.0,
      "Rows": 656,
      "SAR": 0.13425069982944,
      "SamplesPerPixel": 1,
      "ScanOptions": "FS",
      "ScanningSequence": "EP",
      "SequenceName": "epfid2d1_82",
      "SequenceVariant": [
        "SK",
        "SS"
],
      "SeriesDescription": "func_run-01_task-faces_acq-ap-mb8",
      "SeriesNumber": 16,
      "SeriesTime": "101618.683000",
      "SliceLocation": -20.206903996384,
      "SliceThickness": 2.7000000476837,
      "SmallestImagePixelValue": 0,
      "SoftwareVersions": "syngo MR E11",
      "SpacingBetweenSlices": 2.7000000497803,
      "SpecificCharacterSet": "ISO_IR 100",
      "StudyID": "3",
      "StudyTime": "090438.361000",
      "TransmitCoilName": "Body",
      "VariableFlipAngleFlag": "N",
      "WindowCenterWidthExplanation": "Algo1",
      "dBdt": 0.0},
    "slices": {}
  },
  "time": {
    "samples": {
      "AcquisitionNumber": [1, 2, 3, 4, 5, 6, 7, 8, 9, 10, 11, 12, 13, 14, 15, 16, 17, 18, 19, 20, 21, 22, 23, 24, 25, 26, 27, 28, 29, 30, 31, 32, 33, 34, 35, 36, 37, 38, 39, 40, 41, 42, 43, 44, 45, 46, 47, 48, 49, 50, 51, 52, 53, 54, 55, 56, 57, 58, 59, 60, 61, 62, 63, 64, 65, 66, 67, 68, 69, 70, 71, 72, 73, 74, 75, 76, 77, 78, 79, 80, 81, 82, 83, 84, 85, 86, 87, 88, 89, 90, 91, 92, 93, 94, 95, 96, 97, 98, 99, 100, 101, 102, 103, 104, 105, 106, 107, 108, 109, 110, 111, 112, 113, 114, 115, 116, 117, 118, 119, 120, 121, 122, 123, 124, 125, 126, 127, 128, 129, 130, 131, 132, 133, 134, 135, 136, 137, 138, 139, 140, 141, 142, 143, 144, 145, 146, 147, 148, 149, 150, 151, 152, 153, 154, 155, 156, 157, 158, 159, 160, 161, 162, 163, 164, 165, 166, 167, 168, 169, 170, 171, 172, 173, 174, 175, 176, 177, 178, 179, 180, 181, 182, 183, 184, 185, 186, 187, 188, 189, 190, 191, 192, 193, 194, 195, 196, 197, 198, 199, 200, 201, 202, 203, 204, 205, 206, 207, 208, 209, 210, 211, 212, 213, 214, 215, 216, 217, 218, 219, 220, 221, 222, 223, 224, 225, 226, 227, 228, 229, 230, 231, 232, 233, 234, 235, 236, 237, 238, 239, 240, 241, 242, 243, 244, 245, 246, 247, 248, 249, 250, 251, 252, 253, 254, 255, 256, 257, 258, 259, 260, 261, 262, 263, 264, 265, 266, 267, 268, 269, 270, 271, 272, 273, 274, 275, 276, 277, 278, 279, 280, 281, 282, 283, 284, 285, 286, 287, 288, 289, 290, 291, 292, 293, 294, 295, 296, 297, 298, 299, 300, 301, 302, 303, 304, 305, 306, 307, 308, 309, 310, 311, 312, 313, 314, 315, 316, 317, 318, 319, 320, 321, 322, 323, 324, 325, 326, 327, 328, 329, 330, 331, 332, 333, 334, 335, 336, 337, 338, 339, 340, 341, 342, 343, 344, 345, 346, 347, 348, 349, 350, 351, 352, 353, 354, 355, 356, 357, 358, 359, 360, 361, 362, 363, 364, 365, 366, 367, 368, 369, 370, 371, 372, 373, 374, 375, 376, 377, 378, 379, 380, 381, 382, 383, 384, 385, 386, 387, 388, 389, 390, 391, 392, 393, 394, 395, 396, 397, 398, 399, 400, 401, 402, 403, 404, 405, 406, 407, 408, 409, 410, 411, 412, 413, 414, 415, 416, 417, 418, 419, 420, 421, 422, 423, 424, 425, 426, 427, 428, 429, 430, 431, 432, 433, 434, 435, 436, 437, 438, 439, 440, 441, 442, 443, 444, 445, 446, 447, 448, 449, 450, 451, 452, 453, 454, 455, 456, 457, 458, 459, 460, 461, 462, 463, 464, 465, 466, 467, 468, 469, 470, 471, 472, 473, 474, 475, 476, 477, 478, 479, 480, 481, 482, 483, 484, 485, 486, 487, 488, 489, 490, 491, 492, 493, 494, 495, 496, 497, 498, 499, 500, 501, 502, 503, 504, 505, 506, 507, 508, 509, 510, 511, 512, 513, 514, 515, 516, 517, 518, 519, 520, 521, 522, 523, 524, 525, 526, 527, 528, 529, 530, 531, 532, 533, 534, 535, 536, 537, 538, 539, 540, 541, 542, 543, 544, 545, 546, 547, 548, 549, 550, 551, 552, 553, 554, 555, 556, 557, 558, 559, 560, 561, 562, 563, 564, 565, 566, 567, 568, 569, 570, 571, 572, 573, 574, 575, 576, 577, 578, 579, 580, 581, 582, 583, 584, 585, 586, 587, 588, 589, 590, 591, 592, 593, 594, 595, 596, 597, 598, 599, 600, 601, 602, 603, 604, 605, 606, 607, 608, 609, 610, 611, 612, 613, 614, 615, 616, 617, 618, 619, 620, 621, 622, 623, 624, 625, 626, 627, 628, 629, 630, 631, 632, 633, 634, 635, 636, 637, 638, 639, 640, 641, 642, 643, 644, 645, 646, 647, 648, 649, 650, 651, 652, 653, 654, 655, 656, 657, 658, 659, 660, 661, 662, 663, 664, 665, 666, 667, 668, 669, 670, 671, 672, 673, 674, 675, 676, 677, 678, 679, 680, 681, 682, 683, 684, 685, 686, 687, 688, 689, 690, 691, 692, 693, 694, 695, 696, 697, 698, 699, 700, 701, 702, 703, 704, 705, 706, 707, 708, 709, 710, 711, 712, 713, 714, 715, 716, 717, 718, 719, 720, 721, 722, 723, 724, 725, 726, 727, 728, 729, 730, 731, 732, 733, 734, 735, 736, 737, 738, 739, 740, 741, 742, 743, 744, 745, 746, 747, 748, 749, 750, 751, 752, 753, 754, 755, 756, 757, 758, 759, 760, 761, 762, 763, 764, 765, 766, 767, 768, 769, 770, 771, 772, 773, 774, 775, 776, 777, 778, 779, 780, 781, 782, 783, 784, 785, 786, 787, 788, 789, 790, 791, 792, 793, 794, 795, 796, 797, 798, 799, 800, 801, 802, 803, 804, 805, 806, 807, 808, 809, 810, 811, 812, 813, 814, 815, 816, 817, 818, 819, 820, 821, 822, 823, 824, 825, 826, 827, 828, 829, 830, 831, 832, 833, 834, 835, 836, 837, 838, 839, 840, 841, 842, 843, 844, 845, 846, 847, 848, 849, 850, 851, 852, 853, 854, 855, 856, 857, 858, 859, 860, 861, 862, 863, 864, 865, 866, 867, 868, 869, 870, 871, 872, 873, 874, 875, 876, 877, 878, 879, 880, 881, 882, 883, 884, 885, 886, 887, 888, 889, 890, 891, 892, 893, 894, 895, 896, 897, 898, 899, 900, 901, 902, 903, 904, 905, 906, 907, 908, 909, 910, 911, 912, 913, 914],
      "AcquisitionTime": ["101551.482500", "101551.942500", "101552.402500", "101552.862500", "101553.322500", "101553.782500", "101554.242500", "101554.702500", "101555.162500", "101555.622500", "101556.082500", "101556.542500", "101557.002500", "101557.462500", "101557.922500", "101558.382500", "101558.842500", "101559.302500", "101559.762500", "101600.222500", "101600.682500", "101601.142500", "101601.602500", "101602.062500", "101602.522500", "101602.982500", "101603.442500", "101603.902500", "101604.362500", "101604.822500", "101605.282500", "101605.742500", "101606.202500", "101606.662500", "101607.122500", "101607.582500", "101608.042500", "101608.502500", "101608.962500", "101609.422500", "101609.882500", "101610.342500", "101610.802500", "101611.262500", "101611.722500", "101612.182500", "101612.642500", "101613.102500", "101613.562500", "101614.022500", "101614.482500", "101614.942500", "101615.402500", "101615.862500", "101616.322500", "101616.782500", "101617.242500", "101617.702500", "101618.162500", "101618.622500", "101619.082500", "101619.542500", "101620.002500", "101620.462500", "101620.922500", "101621.382500", "101621.842500", "101622.302500", "101622.762500", "101623.222500", "101623.682500", "101624.142500", "101624.602500", "101625.062500", "101625.522500", "101625.982500", "101626.442500", "101626.902500", "101627.362500", "101627.822500", "101628.282500", "101628.742500", "101629.202500", "101629.662500", "101630.122500", "101630.582500", "101631.042500", "101631.502500", "101631.962500", "101632.422500", "101632.882500", "101633.342500", "101633.802500", "101634.262500", "101634.722500", "101635.182500", "101635.642500", "101636.102500", "101636.562500", "101637.022500", "101637.482500", "101637.942500", "101638.402500", "101638.862500", "101639.322500", "101639.782500", "101640.242500", "101640.702500", "101641.162500", "101641.622500", "101642.082500", "101642.542500", "101643.002500", "101643.462500", "101643.922500", "101644.382500", "101644.842500", "101645.302500", "101645.762500", "101646.222500", "101646.682500", "101647.142500", "101647.602500", "101648.062500", "101648.522500", "101648.982500", "101649.442500", "101649.902500", "101650.362500", "101650.822500", "101651.282500", "101651.742500", "101652.202500", "101652.662500", "101653.122500", "101653.582500", "101654.042500", "101654.502500", "101654.962500", "101655.422500", "101655.882500", "101656.342500", "101656.802500", "101657.262500", "101657.722500", "101658.182500", "101658.642500", "101659.102500", "101659.562500", "101700.022500", "101700.482500", "101700.942500", "101701.402500", "101701.862500", "101702.322500", "101702.782500", "101703.242500", "101703.702500", "101704.162500", "101704.622500", "101705.082500", "101705.542500", "101706.002500", "101706.462500", "101706.922500", "101707.382500", "101707.842500", "101708.302500", "101708.762500", "101709.222500", "101709.682500", "101710.142500", "101710.602500", "101711.062500", "101711.522500", "101711.982500", "101712.442500", "101712.902500", "101713.362500", "101713.822500", "101714.282500", "101714.742500", "101715.202500", "101715.662500", "101716.122500", "101716.582500", "101717.042500", "101717.502500", "101717.962500", "101718.422500", "101718.882500", "101719.342500", "101719.802500", "101720.262500", "101720.722500", "101721.182500", "101721.642500", "101722.102500", "101722.562500", "101723.022500", "101723.482500", "101723.942500", "101724.402500", "101724.862500", "101725.322500", "101725.782500", "101726.242500", "101726.702500", "101727.162500", "101727.622500", "101728.082500", "101728.542500", "101729.002500", "101729.462500", "101729.922500", "101730.382500", "101730.842500", "101731.302500", "101731.762500", "101732.222500", "101732.682500", "101733.142500", "101733.602500", "101734.062500", "101734.522500", "101734.982500", "101735.442500", "101735.902500", "101736.362500", "101736.822500", "101737.282500", "101737.742500", "101738.202500", "101738.662500", "101739.122500", "101739.582500", "101740.042500", "101740.502500", "101740.962500", "101741.422500", "101741.882500", "101742.342500", "101742.802500", "101743.262500", "101743.722500", "101744.182500", "101744.642500", "101745.102500", "101745.562500", "101746.022500", "101746.482500", "101746.942500", "101747.402500", "101747.862500", "101748.322500", "101748.782500", "101749.242500", "101749.702500", "101750.162500", "101750.622500", "101751.082500", "101751.542500", "101752.002500", "101752.462500", "101752.922500", "101753.382500", "101753.842500", "101754.302500", "101754.762500", "101755.222500", "101755.682500", "101756.142500", "101756.602500", "101757.062500", "101757.522500", "101757.982500", "101758.442500", "101758.902500", "101759.362500", "101759.822500", "101800.282500", "101800.742500", "101801.202500", "101801.662500", "101802.122500", "101802.582500", "101803.042500", "101803.502500", "101803.962500", "101804.422500", "101804.882500", "101805.342500", "101805.802500", "101806.262500", "101806.722500", "101807.182500", "101807.642500", "101808.102500", "101808.562500", "101809.022500", "101809.482500", "101809.942500", "101810.402500", "101810.862500", "101811.322500", "101811.782500", "101812.242500", "101812.702500", "101813.162500", "101813.622500", "101814.082500", "101814.542500", "101815.002500", "101815.462500", "101815.922500", "101816.382500", "101816.842500", "101817.302500", "101817.762500", "101818.222500", "101818.682500", "101819.142500", "101819.602500", "101820.062500", "101820.522500", "101820.982500", "101821.442500", "101821.902500", "101822.362500", "101822.822500", "101823.282500", "101823.742500", "101824.202500", "101824.662500", "101825.122500", "101825.582500", "101826.042500", "101826.502500", "101826.962500", "101827.422500", "101827.882500", "101828.342500", "101828.802500", "101829.262500", "101829.722500", "101830.182500", "101830.642500", "101831.102500", "101831.562500", "101832.022500", "101832.482500", "101832.942500", "101833.402500", "101833.862500", "101834.322500", "101834.782500", "101835.242500", "101835.702500", "101836.162500", "101836.622500", "101837.082500", "101837.542500", "101838.002500", "101838.462500", "101838.922500", "101839.382500", "101839.842500", "101840.302500", "101840.762500", "101841.222500", "101841.682500", "101842.142500", "101842.602500", "101843.062500", "101843.522500", "101843.982500", "101844.442500", "101844.902500", "101845.362500", "101845.822500", "101846.282500", "101846.742500", "101847.202500", "101847.662500", "101848.122500", "101848.582500", "101849.042500", "101849.502500", "101849.962500", "101850.422500", "101850.882500", "101851.342500", "101851.802500", "101852.262500", "101852.722500", "101853.182500", "101853.642500", "101854.102500", "101854.562500", "101855.022500", "101855.482500", "101855.942500", "101856.402500", "101856.862500", "101857.322500", "101857.782500", "101858.242500", "101858.702500", "101859.162500", "101859.622500", "101900.082500", "101900.542500", "101901.002500", "101901.462500", "101901.922500", "101902.382500", "101902.842500", "101903.302500", "101903.762500", "101904.222500", "101904.682500", "101905.142500", "101905.602500", "101906.062500", "101906.522500", "101906.982500", "101907.442500", "101907.902500", "101908.362500", "101908.822500", "101909.282500", "101909.742500", "101910.202500", "101910.662500", "101911.122500", "101911.582500", "101912.042500", "101912.502500", "101912.962500", "101913.422500", "101913.882500", "101914.342500", "101914.802500", "101915.262500", "101915.722500", "101916.182500", "101916.642500", "101917.102500", "101917.562500", "101918.022500", "101918.482500", "101918.942500", "101919.402500", "101919.862500", "101920.322500", "101920.782500", "101921.242500", "101921.702500", "101922.162500", "101922.622500", "101923.082500", "101923.542500", "101924.002500", "101924.462500", "101924.922500", "101925.382500", "101925.842500", "101926.302500", "101926.762500", "101927.222500", "101927.682500", "101928.142500", "101928.602500", "101929.062500", "101929.522500", "101929.982500", "101930.442500", "101930.902500", "101931.362500", "101931.822500", "101932.282500", "101932.742500", "101933.202500", "101933.662500", "101934.122500", "101934.582500", "101935.042500", "101935.502500", "101935.962500", "101936.422500", "101936.882500", "101937.342500", "101937.802500", "101938.262500", "101938.722500", "101939.182500", "101939.642500", "101940.102500", "101940.562500", "101941.022500", "101941.482500", "101941.942500", "101942.402500", "101942.862500", "101943.322500", "101943.782500", "101944.242500", "101944.702500", "101945.162500", "101945.622500", "101946.082500", "101946.542500", "101947.002500", "101947.462500", "101947.922500", "101948.382500", "101948.842500", "101949.302500", "101949.762500", "101950.222500", "101950.682500", "101951.142500", "101951.602500", "101952.062500", "101952.522500", "101952.982500", "101953.442500", "101953.902500", "101954.362500", "101954.822500", "101955.282500", "101955.742500", "101956.202500", "101956.662500", "101957.122500", "101957.582500", "101958.042500", "101958.502500", "101958.962500", "101959.422500", "101959.882500", "102000.342500", "102000.802500", "102001.262500", "102001.722500", "102002.182500", "102002.642500", "102003.102500", "102003.562500", "102004.022500", "102004.482500", "102004.942500", "102005.402500", "102005.862500", "102006.322500", "102006.782500", "102007.242500", "102007.702500", "102008.162500", "102008.622500", "102009.082500", "102009.542500", "102010.002500", "102010.462500", "102010.922500", "102011.382500", "102011.842500", "102012.302500", "102012.762500", "102013.222500", "102013.682500", "102014.142500", "102014.602500", "102015.062500", "102015.522500", "102015.982500", "102016.442500", "102016.902500", "102017.362500", "102017.822500", "102018.282500", "102018.742500", "102019.202500", "102019.662500", "102020.122500", "102020.582500", "102021.042500", "102021.502500", "102021.962500", "102022.422500", "102022.882500", "102023.342500", "102023.802500", "102024.262500", "102024.722500", "102025.182500", "102025.642500", "102026.102500", "102026.562500", "102027.022500", "102027.482500", "102027.942500", "102028.402500", "102028.862500", "102029.322500", "102029.782500", "102030.242500", "102030.702500", "102031.162500", "102031.622500", "102032.082500", "102032.542500", "102033.002500", "102033.462500", "102033.922500", "102034.382500", "102034.842500", "102035.302500", "102035.762500", "102036.222500", "102036.682500", "102037.142500", "102037.602500", "102038.062500", "102038.522500", "102038.982500", "102039.442500", "102039.902500", "102040.362500", "102040.822500", "102041.282500", "102041.742500", "102042.202500", "102042.662500", "102043.122500", "102043.582500", "102044.042500", "102044.502500", "102044.962500", "102045.422500", "102045.882500", "102046.342500", "102046.802500", "102047.262500", "102047.722500", "102048.182500", "102048.642500", "102049.102500", "102049.562500", "102050.022500", "102050.482500", "102050.942500", "102051.402500", "102051.862500", "102052.322500", "102052.782500", "102053.242500", "102053.702500", "102054.162500", "102054.622500", "102055.082500", "102055.542500", "102056.002500", "102056.462500", "102056.922500", "102057.382500", "102057.842500", "102058.302500", "102058.762500", "102059.222500", "102059.682500", "102100.142500", "102100.602500", "102101.062500", "102101.522500", "102101.982500", "102102.442500", "102102.902500", "102103.362500", "102103.822500", "102104.282500", "102104.742500", "102105.202500", "102105.662500", "102106.122500", "102106.582500", "102107.042500", "102107.502500", "102107.962500", "102108.422500", "102108.882500", "102109.342500", "102109.802500", "102110.262500", "102110.722500", "102111.182500", "102111.642500", "102112.102500", "102112.562500", "102113.022500", "102113.482500", "102113.942500", "102114.402500", "102114.862500", "102115.322500", "102115.782500", "102116.242500", "102116.702500", "102117.162500", "102117.622500", "102118.082500", "102118.542500", "102119.002500", "102119.462500", "102119.922500", "102120.382500", "102120.842500", "102121.302500", "102121.762500", "102122.222500", "102122.682500", "102123.142500", "102123.602500", "102124.062500", "102124.522500", "102124.982500", "102125.442500", "102125.902500", "102126.362500", "102126.822500", "102127.282500", "102127.742500", "102128.202500", "102128.662500", "102129.122500", "102129.582500", "102130.042500", "102130.502500", "102130.962500", "102131.422500", "102131.882500", "102132.342500", "102132.802500", "102133.262500", "102133.722500", "102134.182500", "102134.642500", "102135.102500", "102135.562500", "102136.022500", "102136.482500", "102136.942500", "102137.402500", "102137.862500", "102138.322500", "102138.782500", "102139.242500", "102139.702500", "102140.162500", "102140.622500", "102141.082500", "102141.542500", "102142.002500", "102142.462500", "102142.922500", "102143.382500", "102143.842500", "102144.302500", "102144.762500", "102145.222500", "102145.682500", "102146.142500", "102146.602500", "102147.062500", "102147.522500", "102147.982500", "102148.442500", "102148.902500", "102149.362500", "102149.822500", "102150.282500", "102150.742500", "102151.202500", "102151.662500", "102152.122500", "102152.582500", "102153.042500", "102153.502500", "102153.962500", "102154.422500", "102154.882500", "102155.342500", "102155.802500", "102156.262500", "102156.722500", "102157.182500", "102157.642500", "102158.102500", "102158.562500", "102159.022500", "102159.482500", "102159.942500", "102200.402500", "102200.862500", "102201.322500", "102201.782500", "102202.242500", "102202.702500", "102203.162500", "102203.622500", "102204.082500", "102204.542500", "102205.002500", "102205.462500", "102205.922500", "102206.382500", "102206.842500", "102207.302500", "102207.762500", "102208.222500", "102208.682500", "102209.142500", "102209.602500", "102210.062500", "102210.522500", "102210.982500", "102211.442500", "102211.902500", "102212.362500", "102212.822500", "102213.282500", "102213.742500", "102214.202500", "102214.662500", "102215.122500", "102215.582500", "102216.042500", "102216.502500", "102216.962500", "102217.422500", "102217.882500", "102218.342500", "102218.802500", "102219.262500", "102219.722500", "102220.182500", "102220.642500", "102221.102500", "102221.562500", "102222.022500", "102222.482500", "102222.942500", "102223.402500", "102223.862500", "102224.322500", "102224.782500", "102225.242500", "102225.702500", "102226.162500", "102226.622500", "102227.082500", "102227.542500", "102228.002500", "102228.462500", "102228.922500", "102229.382500", "102229.842500", "102230.302500", "102230.762500", "102231.222500", "102231.682500", "102232.142500", "102232.602500", "102233.062500", "102233.522500", "102233.982500", "102234.442500", "102234.902500", "102235.362500", "102235.822500", "102236.282500", "102236.742500", "102237.202500", "102237.662500", "102238.122500", "102238.582500", "102239.042500", "102239.502500", "102239.962500", "102240.422500", "102240.882500", "102241.342500", "102241.802500", "102242.262500", "102242.722500", "102243.182500", "102243.642500", "102244.102500", "102244.562500", "102245.022500", "102245.482500", "102245.942500", "102246.402500", "102246.862500", "102247.322500", "102247.782500", "102248.242500", "102248.702500", "102249.162500", "102249.622500", "102250.082500", "102250.542500", "102251.002500", "102251.462500"],
