{
  "AcquisitionMatrixPE": 82,
  "AcquisitionNumber": 1,
  "AcquisitionTime": "09:45:14.947500",
  "BandwidthPerPixelPhaseEncode": 24.888,
  "BaseResolution": 82,
  "BodyPartExamined": "BRAIN",
  "ConsistencyInfo": "N4_VE11C_LATEST_20160120",
  "ConversionSoftware": "dcm2niix",
  "ConversionSoftwareVersion": "v1.0.20201102",
  "DerivedVendorReportedEchoSpacing": 0.00049,
  "DeviceSerialNumber": "66112",
  "DwellTime": 2e-06,
  "EchoTime": 0.0272,
  "EchoTrainLength": 82,
  "EffectiveEchoSpacing": 0.00049,
  "FlipAngle": 44,
  "ImageComments": "Unaliased MB8/PE3",
  "ImageOrientationPatientDICOM": [0.999467, 0.00376026, 0.0324222, -0.00523321, 0.998952, 0.0454657],
  "ImageType": [
    "ORIGINAL",
    "PRIMARY",
    "M",
    "MB",
    "ND",
    "NORM",
    "MOSAIC"
],
  "ImagingFrequency": 123.252,
  "InPlanePhaseEncodingDirectionDICOM": "COL",
  "InstitutionAddress": "Maynard 3,Hanover,NH,US,03755",
  "InstitutionName": "Dartmouth College - PBS",
  "InstitutionalDepartmentName": "Department",
  "MRAcquisitionType": "2D",
  "MagneticFieldStrength": 3,
  "Manufacturer": "Siemens",
  "ManufacturersModelName": "Prisma",
  "Modality": "MR",
  "MultibandAccelerationFactor": 8,
  "PartialFourier": 1,
  "PatientPosition": "HFS",
  "PercentPhaseFOV": 100,
  "PercentSampling": 100,
  "PhaseEncodingDirection": "j-",
  "PhaseEncodingSteps": 82,
  "PhaseResolution": 1,
  "PixelBandwidth": 3050,
  "ProcedureStepDescription": "Wager_Wager^1076_spacetop",
  "ProtocolName": "func_run-02_task-narratives_acq-ap-mb8",
  "PulseSequenceDetails": "%CustomerSeq%\\cmrr_mbep2d_bold",
  "ReceiveCoilActiveElements": "HEA;HEP",
  "ReceiveCoilName": "Head_32",
  "ReconMatrixPE": 82,
  "RepetitionTime": 0.46,
  "SAR": 0.134384,
  "ScanOptions": "FS",
  "ScanningSequence": "EP",
  "SequenceName": "epfid2d1_82",
  "SequenceVariant": "SK\\SS",
  "SeriesDescription": "func_run-02_task-narratives_acq-ap-mb8",
  "SeriesNumber": 10,
  "ShimSetting": [4178, -7733, -7184, 557, -9, -35, 16, 31],
  "SliceThickness": 2.7,
  "SliceTiming": [0, 0.25, 0.0625, 0.3125, 0.125, 0.375, 0.1875, 0, 0.25, 0.0625, 0.3125, 0.125, 0.375, 0.1875, 0, 0.25, 0.0625, 0.3125, 0.125, 0.375, 0.1875, 0, 0.25, 0.0625, 0.3125, 0.125, 0.375, 0.1875, 0, 0.25, 0.0625, 0.3125, 0.125, 0.375, 0.1875, 0, 0.25, 0.0625, 0.3125, 0.125, 0.375, 0.1875, 0, 0.25, 0.0625, 0.3125, 0.125, 0.375, 0.1875, 0, 0.25, 0.0625, 0.3125, 0.125, 0.375, 0.1875],
  "SoftwareVersions": "syngo MR E11",
  "SpacingBetweenSlices": 2.7,
  "StationName": "AWP66112",
  "TaskName": "narratives",
  "TotalReadoutTime": 0.03969,
  "TxRefAmp": 300.137,
  "WipMemBlock": "e2814a1b-347c-4def-90a0-1ce4a569c01e||Sequence: R016 ve11c/master r/e634e98; Dec 19 2017 11:00:25 by eja",
  "dcmmeta_affine": [
    [-2.68149733543396, -0.014040317386388779, 0.08698663860559464, 111.34471130371094],
    [-0.010088506154716015, 2.6801156997680664, 0.12315021455287933, -94.51126098632812],
    [0.08698641508817673, -0.12198126316070557, 2.695786952972412, -19.513805389404297],
    [0.0, 0.0, 0.0, 1.0]
],
  "dcmmeta_reorient_transform": [
    [0.0, -1.0, 0.0, 81.0],
    [1.0, 0.0, 0.0, 0.0],
    [0.0, 0.0, 1.0, 0.0],
    [0.0, 0.0, 0.0, 1.0]
],
  "dcmmeta_shape": [82, 82, 56, 1098],
  "dcmmeta_slice_dim": 2,
  "dcmmeta_version": 0.6,
  "global": {
    "const": {
      "AccessionNumber": "A003745",
      "AcquisitionMatrix": [82, 0, 0, 82],
      "AngioFlag": "N",
      "BitsAllocated": 16,
      "BitsStored": 16,
      "BodyPartExamined": "BRAIN",
      "Columns": 656,
      "EchoNumbers": 1,
      "EchoTime": 27.2,
      "EchoTrainLength": 82,
      "FlipAngle": 44.0,
      "HighBit": 15,
      "ImageOrientationPatient": [0.99946718847514, 0.00376026113031, 0.03242220840468, -0.0052332091499, 0.99895219099141, 0.04546574133846],
      "ImagePositionPatient": [-875.76762935923, -894.66671733106, -89.368009880652],
      "ImageType": [
        "ORIGINAL",
        "PRIMARY",
        "M",
        "MB",
        "ND",
        "NORM",
        "MOSAIC"
],
      "ImagedNucleus": "1H",
      "ImagingFrequency": 123.252182,
      "InPlanePhaseEncodingDirection": "COL",
      "MRAcquisitionType": "2D",
      "MagneticFieldStrength": 3.0,
      "Manufacturer": "SIEMENS",
      "ManufacturerModelName": "Prisma",
      "Modality": "MR",
      "NumberOfAverages": 1.0,
      "NumberOfPhaseEncodingSteps": 82,
      "PercentPhaseFieldOfView": 100.0,
      "PercentSampling": 100.0,
      "PerformedProcedureStepStartTime": "090438.462000",
      "PhotometricInterpretation": "MONOCHROME2",
      "PixelBandwidth": 3050.0,
      "PixelRepresentation": 0,
      "PixelSpacing": [2.6829268932343, 2.6829268932343],
      "ProtocolName": "func_run-02_task-narratives_acq-ap-mb8",
      "RepetitionTime": 460.0,
      "Rows": 656,
      "SAR": 0.13438442236908,
      "SamplesPerPixel": 1,
      "ScanOptions": "FS",
      "ScanningSequence": "EP",
      "SequenceName": "epfid2d1_82",
      "SequenceVariant": [
        "SK",
        "SS"
],
      "SeriesDescription": "func_run-02_task-narratives_acq-ap-mb8",
      "SeriesNumber": 10,
      "SeriesTime": "094538.676000",
      "SliceLocation": -20.206903996384,
      "SliceThickness": 2.7000000476837,
      "SmallestImagePixelValue": 0,
      "SoftwareVersions": "syngo MR E11",
      "SpacingBetweenSlices": 2.7000000497803,
      "SpecificCharacterSet": "ISO_IR 100",
      "StudyID": "3",
      "StudyTime": "090438.361000",
      "TransmitCoilName": "Body",
      "VariableFlipAngleFlag": "N",
      "WindowCenterWidthExplanation": "Algo1",
      "dBdt": 0.0},
    "slices": {}
  },
  "time": {
    "samples": {
      "AcquisitionNumber": [1, 2, 3, 4, 5, 6, 7, 8, 9, 10, 11, 12, 13, 14, 15, 16, 17, 18, 19, 20, 21, 22, 23, 24, 25, 26, 27, 28, 29, 30, 31, 32, 33, 34, 35, 36, 37, 38, 39, 40, 41, 42, 43, 44, 45, 46, 47, 48, 49, 50, 51, 52, 53, 54, 55, 56, 57, 58, 59, 60, 61, 62, 63, 64, 65, 66, 67, 68, 69, 70, 71, 72, 73, 74, 75, 76, 77, 78, 79, 80, 81, 82, 83, 84, 85, 86, 87, 88, 89, 90, 91, 92, 93, 94, 95, 96, 97, 98, 99, 100, 101, 102, 103, 104, 105, 106, 107, 108, 109, 110, 111, 112, 113, 114, 115, 116, 117, 118, 119, 120, 121, 122, 123, 124, 125, 126, 127, 128, 129, 130, 131, 132, 133, 134, 135, 136, 137, 138, 139, 140, 141, 142, 143, 144, 145, 146, 147, 148, 149, 150, 151, 152, 153, 154, 155, 156, 157, 158, 159, 160, 161, 162, 163, 164, 165, 166, 167, 168, 169, 170, 171, 172, 173, 174, 175, 176, 177, 178, 179, 180, 181, 182, 183, 184, 185, 186, 187, 188, 189, 190, 191, 192, 193, 194, 195, 196, 197, 198, 199, 200, 201, 202, 203, 204, 205, 206, 207, 208, 209, 210, 211, 212, 213, 214, 215, 216, 217, 218, 219, 220, 221, 222, 223, 224, 225, 226, 227, 228, 229, 230, 231, 232, 233, 234, 235, 236, 237, 238, 239, 240, 241, 242, 243, 244, 245, 246, 247, 248, 249, 250, 251, 252, 253, 254, 255, 256, 257, 258, 259, 260, 261, 262, 263, 264, 265, 266, 267, 268, 269, 270, 271, 272, 273, 274, 275, 276, 277, 278, 279, 280, 281, 282, 283, 284, 285, 286, 287, 288, 289, 290, 291, 292, 293, 294, 295, 296, 297, 298, 299, 300, 301, 302, 303, 304, 305, 306, 307, 308, 309, 310, 311, 312, 313, 314, 315, 316, 317, 318, 319, 320, 321, 322, 323, 324, 325, 326, 327, 328, 329, 330, 331, 332, 333, 334, 335, 336, 337, 338, 339, 340, 341, 342, 343, 344, 345, 346, 347, 348, 349, 350, 351, 352, 353, 354, 355, 356, 357, 358, 359, 360, 361, 362, 363, 364, 365, 366, 367, 368, 369, 370, 371, 372, 373, 374, 375, 376, 377, 378, 379, 380, 381, 382, 383, 384, 385, 386, 387, 388, 389, 390, 391, 392, 393, 394, 395, 396, 397, 398, 399, 400, 401, 402, 403, 404, 405, 406, 407, 408, 409, 410, 411, 412, 413, 414, 415, 416, 417, 418, 419, 420, 421, 422, 423, 424, 425, 426, 427, 428, 429, 430, 431, 432, 433, 434, 435, 436, 437, 438, 439, 440, 441, 442, 443, 444, 445, 446, 447, 448, 449, 450, 451, 452, 453, 454, 455, 456, 457, 458, 459, 460, 461, 462, 463, 464, 465, 466, 467, 468, 469, 470, 471, 472, 473, 474, 475, 476, 477, 478, 479, 480, 481, 482, 483, 484, 485, 486, 487, 488, 489, 490, 491, 492, 493, 494, 495, 496, 497, 498, 499, 500, 501, 502, 503, 504, 505, 506, 507, 508, 509, 510, 511, 512, 513, 514, 515, 516, 517, 518, 519, 520, 521, 522, 523, 524, 525, 526, 527, 528, 529, 530, 531, 532, 533, 534, 535, 536, 537, 538, 539, 540, 541, 542, 543, 544, 545, 546, 547, 548, 549, 550, 551, 552, 553, 554, 555, 556, 557, 558, 559, 560, 561, 562, 563, 564, 565, 566, 567, 568, 569, 570, 571, 572, 573, 574, 575, 576, 577, 578, 579, 580, 581, 582, 583, 584, 585, 586, 587, 588, 589, 590, 591, 592, 593, 594, 595, 596, 597, 598, 599, 600, 601, 602, 603, 604, 605, 606, 607, 608, 609, 610, 611, 612, 613, 614, 615, 616, 617, 618, 619, 620, 621, 622, 623, 624, 625, 626, 627, 628, 629, 630, 631, 632, 633, 634, 635, 636, 637, 638, 639, 640, 641, 642, 643, 644, 645, 646, 647, 648, 649, 650, 651, 652, 653, 654, 655, 656, 657, 658, 659, 660, 661, 662, 663, 664, 665, 666, 667, 668, 669, 670, 671, 672, 673, 674, 675, 676, 677, 678, 679, 680, 681, 682, 683, 684, 685, 686, 687, 688, 689, 690, 691, 692, 693, 694, 695, 696, 697, 698, 699, 700, 701, 702, 703, 704, 705, 706, 707, 708, 709, 710, 711, 712, 713, 714, 715, 716, 717, 718, 719, 720, 721, 722, 723, 724, 725, 726, 727, 728, 729, 730, 731, 732, 733, 734, 735, 736, 737, 738, 739, 740, 741, 742, 743, 744, 745, 746, 747, 748, 749, 750, 751, 752, 753, 754, 755, 756, 757, 758, 759, 760, 761, 762, 763, 764, 765, 766, 767, 768, 769, 770, 771, 772, 773, 774, 775, 776, 777, 778, 779, 780, 781, 782, 783, 784, 785, 786, 787, 788, 789, 790, 791, 792, 793, 794, 795, 796, 797, 798, 799, 800, 801, 802, 803, 804, 805, 806, 807, 808, 809, 810, 811, 812, 813, 814, 815, 816, 817, 818, 819, 820, 821, 822, 823, 824, 825, 826, 827, 828, 829, 830, 831, 832, 833, 834, 835, 836, 837, 838, 839, 840, 841, 842, 843, 844, 845, 846, 847, 848, 849, 850, 851, 852, 853, 854, 855, 856, 857, 858, 859, 860, 861, 862, 863, 864, 865, 866, 867, 868, 869, 870, 871, 872, 873, 874, 875, 876, 877, 878, 879, 880, 881, 882, 883, 884, 885, 886, 887, 888, 889, 890, 891, 892, 893, 894, 895, 896, 897, 898, 899, 900, 901, 902, 903, 904, 905, 906, 907, 908, 909, 910, 911, 912, 913, 914, 915, 916, 917, 918, 919, 920, 921, 922, 923, 924, 925, 926, 927, 928, 929, 930, 931, 932, 933, 934, 935, 936, 937, 938, 939, 940, 941, 942, 943, 944, 945, 946, 947, 948, 949, 950, 951, 952, 953, 954, 955, 956, 957, 958, 959, 960, 961, 962, 963, 964, 965, 966, 967, 968, 969, 970, 971, 972, 973, 974, 975, 976, 977, 978, 979, 980, 981, 982, 983, 984, 985, 986, 987, 988, 989, 990, 991, 992, 993, 994, 995, 996, 997, 998, 999, 1000, 1001, 1002, 1003, 1004, 1005, 1006, 1007, 1008, 1009, 1010, 1011, 1012, 1013, 1014, 1015, 1016, 1017, 1018, 1019, 1020, 1021, 1022, 1023, 1024, 1025, 1026, 1027, 1028, 1029, 1030, 1031, 1032, 1033, 1034, 1035, 1036, 1037, 1038, 1039, 1040, 1041, 1042, 1043, 1044, 1045, 1046, 1047, 1048, 1049, 1050, 1051, 1052, 1053, 1054, 1055, 1056, 1057, 1058, 1059, 1060, 1061, 1062, 1063, 1064, 1065, 1066, 1067, 1068, 1069, 1070, 1071, 1072, 1073, 1074, 1075, 1076, 1077, 1078, 1079, 1080, 1081, 1082, 1083, 1084, 1085, 1086, 1087, 1088, 1089, 1090, 1091, 1092, 1093, 1094, 1095, 1096, 1097, 1098],
      "AcquisitionTime": ["094514.947500", "094515.407500", "094515.867500", "094516.327500", "094516.787500", "094517.247500", "094517.707500", "094518.167500", "094518.627500", "094519.087500", "094519.547500", "094520.007500", "094520.467500", "094520.927500", "094521.387500", "094521.847500", "094522.307500", "094522.767500", "094523.227500", "094523.687500", "094524.147500", "094524.607500", "094525.067500", "094525.527500", "094525.987500", "094526.447500", "094526.907500", "094527.367500", "094527.827500", "094528.287500", "094528.747500", "094529.207500", "094529.667500", "094530.127500", "094530.587500", "094531.047500", "094531.507500", "094531.967500", "094532.427500", "094532.887500", "094533.347500", "094533.807500", "094534.267500", "094534.727500", "094535.187500", "094535.647500", "094536.107500", "094536.567500", "094537.027500", "094537.487500", "094537.947500", "094538.407500", "094538.867500", "094539.327500", "094539.787500", "094540.247500", "094540.707500", "094541.167500", "094541.627500", "094542.087500", "094542.547500", "094543.007500", "094543.467500", "094543.927500", "094544.387500", "094544.847500", "094545.307500", "094545.767500", "094546.227500", "094546.687500", "094547.147500", "094547.607500", "094548.067500", "094548.527500", "094548.987500", "094549.447500", "094549.907500", "094550.367500", "094550.827500", "094551.287500", "094551.747500", "094552.207500", "094552.667500", "094553.127500", "094553.587500", "094554.047500", "094554.507500", "094554.967500", "094555.427500", "094555.887500", "094556.347500", "094556.807500", "094557.267500", "094557.727500", "094558.187500", "094558.647500", "094559.107500", "094559.567500", "094600.027500", "094600.487500", "094600.947500", "094601.407500", "094601.867500", "094602.327500", "094602.787500", "094603.247500", "094603.707500", "094604.167500", "094604.627500", "094605.087500", "094605.547500", "094606.007500", "094606.467500", "094606.927500", "094607.387500", "094607.847500", "094608.307500", "094608.767500", "094609.227500", "094609.687500", "094610.147500", "094610.607500", "094611.067500", "094611.527500", "094611.987500", "094612.447500", "094612.907500", "094613.367500", "094613.827500", "094614.287500", "094614.747500", "094615.207500", "094615.667500", "094616.127500", "094616.587500", "094617.047500", "094617.507500", "094617.967500", "094618.427500", "094618.887500", "094619.347500", "094619.807500", "094620.267500", "094620.727500", "094621.187500", "094621.647500", "094622.107500", "094622.567500", "094623.027500", "094623.487500", "094623.947500", "094624.407500", "094624.867500", "094625.327500", "094625.787500", "094626.247500", "094626.707500", "094627.167500", "094627.627500", "094628.087500", "094628.547500", "094629.007500", "094629.467500", "094629.927500", "094630.387500", "094630.847500", "094631.307500", "094631.767500", "094632.227500", "094632.687500", "094633.147500", "094633.607500", "094634.067500", "094634.527500", "094634.987500", "094635.447500", "094635.907500", "094636.367500", "094636.827500", "094637.287500", "094637.747500", "094638.207500", "094638.667500", "094639.127500", "094639.587500", "094640.047500", "094640.507500", "094640.967500", "094641.427500", "094641.887500", "094642.347500", "094642.807500", "094643.267500", "094643.727500", "094644.187500", "094644.647500", "094645.107500", "094645.567500", "094646.027500", "094646.487500", "094646.947500", "094647.407500", "094647.867500", "094648.327500", "094648.787500", "094649.247500", "094649.707500", "094650.167500", "094650.627500", "094651.087500", "094651.547500", "094652.007500", "094652.467500", "094652.927500", "094653.387500", "094653.847500", "094654.307500", "094654.767500", "094655.227500", "094655.687500", "094656.147500", "094656.607500", "094657.067500", "094657.527500", "094657.987500", "094658.447500", "094658.907500", "094659.367500", "094659.827500", "094700.287500", "094700.747500", "094701.207500", "094701.667500", "094702.127500", "094702.587500", "094703.047500", "094703.507500", "094703.967500", "094704.427500", "094704.887500", "094705.347500", "094705.807500", "094706.267500", "094706.727500", "094707.187500", "094707.647500", "094708.107500", "094708.567500", "094709.027500", "094709.487500", "094709.947500", "094710.407500", "094710.867500", "094711.327500", "094711.787500", "094712.247500", "094712.707500", "094713.167500", "094713.627500", "094714.087500", "094714.547500", "094715.007500", "094715.467500", "094715.927500", "094716.387500", "094716.847500", "094717.307500", "094717.767500", "094718.227500", "094718.687500", "094719.147500", "094719.607500", "094720.067500", "094720.527500", "094720.987500", "094721.447500", "094721.907500", "094722.367500", "094722.827500", "094723.287500", "094723.747500", "094724.207500", "094724.667500", "094725.127500", "094725.587500", "094726.047500", "094726.507500", "094726.967500", "094727.427500", "094727.887500", "094728.347500", "094728.807500", "094729.267500", "094729.727500", "094730.187500", "094730.647500", "094731.107500", "094731.567500", "094732.027500", "094732.487500", "094732.947500", "094733.407500", "094733.867500", "094734.327500", "094734.787500", "094735.247500", "094735.707500", "094736.167500", "094736.627500", "094737.087500", "094737.547500", "094738.007500", "094738.467500", "094738.927500", "094739.387500", "094739.847500", "094740.307500", "094740.767500", "094741.227500", "094741.687500", "094742.147500", "094742.607500", "094743.067500", "094743.527500", "094743.987500", "094744.447500", "094744.907500", "094745.367500", "094745.827500", "094746.287500", "094746.747500", "094747.207500", "094747.667500", "094748.127500", "094748.587500", "094749.047500", "094749.507500", "094749.967500", "094750.427500", "094750.887500", "094751.347500", "094751.807500", "094752.267500", "094752.727500", "094753.187500", "094753.647500", "094754.107500", "094754.567500", "094755.027500", "094755.487500", "094755.947500", "094756.407500", "094756.867500", "094757.327500", "094757.787500", "094758.247500", "094758.707500", "094759.167500", "094759.627500", "094800.087500", "094800.547500", "094801.007500", "094801.467500", "094801.927500", "094802.387500", "094802.847500", "094803.307500", "094803.767500", "094804.227500", "094804.687500", "094805.147500", "094805.607500", "094806.067500", "094806.527500", "094806.987500", "094807.447500", "094807.907500", "094808.367500", "094808.827500", "094809.287500", "094809.747500", "094810.207500", "094810.667500", "094811.127500", "094811.587500", "094812.047500", "094812.507500", "094812.967500", "094813.427500", "094813.887500", "094814.347500", "094814.807500", "094815.267500", "094815.727500", "094816.187500", "094816.647500", "094817.107500", "094817.567500", "094818.027500", "094818.487500", "094818.947500", "094819.407500", "094819.867500", "094820.327500", "094820.787500", "094821.247500", "094821.707500", "094822.167500", "094822.627500", "094823.087500", "094823.547500", "094824.007500", "094824.467500", "094824.927500", "094825.387500", "094825.847500", "094826.307500", "094826.767500", "094827.227500", "094827.687500", "094828.147500", "094828.607500", "094829.067500", "094829.527500", "094829.987500", "094830.447500", "094830.907500", "094831.367500", "094831.827500", "094832.287500", "094832.747500", "094833.207500", "094833.667500", "094834.127500", "094834.587500", "094835.047500", "094835.507500", "094835.967500", "094836.427500", "094836.887500", "094837.347500", "094837.807500", "094838.267500", "094838.727500", "094839.187500", "094839.647500", "094840.107500", "094840.567500", "094841.027500", "094841.487500", "094841.947500", "094842.407500", "094842.867500", "094843.327500", "094843.787500", "094844.247500", "094844.707500", "094845.167500", "094845.627500", "094846.087500", "094846.547500", "094847.007500", "094847.467500", "094847.927500", "094848.387500", "094848.847500", "094849.307500", "094849.767500", "094850.227500", "094850.687500", "094851.147500", "094851.607500", "094852.067500", "094852.527500", "094852.987500", "094853.447500", "094853.907500", "094854.367500", "094854.827500", "094855.287500", "094855.747500", "094856.207500", "094856.667500", "094857.127500", "094857.587500", "094858.047500", "094858.507500", "094858.967500", "094859.427500", "094859.887500", "094900.347500", "094900.807500", "094901.267500", "094901.727500", "094902.187500", "094902.647500", "094903.107500", "094903.567500", "094904.027500", "094904.487500", "094904.947500", "094905.407500", "094905.867500", "094906.327500", "094906.787500", "094907.247500", "094907.707500", "094908.167500", "094908.627500", "094909.087500", "094909.547500", "094910.007500", "094910.467500", "094910.927500", "094911.387500", "094911.847500", "094912.307500", "094912.767500", "094913.227500", "094913.687500", "094914.147500", "094914.607500", "094915.067500", "094915.527500", "094915.987500", "094916.447500", "094916.907500", "094917.367500", "094917.827500", "094918.287500", "094918.747500", "094919.207500", "094919.667500", "094920.127500", "094920.587500", "094921.047500", "094921.507500", "094921.967500", "094922.427500", "094922.887500", "094923.347500", "094923.807500", "094924.267500", "094924.727500", "094925.187500", "094925.647500", "094926.107500", "094926.567500", "094927.027500", "094927.487500", "094927.947500", "094928.407500", "094928.867500", "094929.327500", "094929.787500", "094930.247500", "094930.707500", "094931.167500", "094931.627500", "094932.087500", "094932.547500", "094933.007500", "094933.467500", "094933.927500", "094934.387500", "094934.847500", "094935.307500", "094935.767500", "094936.227500", "094936.687500", "094937.147500", "094937.607500", "094938.067500", "094938.527500", "094938.987500", "094939.447500", "094939.907500", "094940.367500", "094940.827500", "094941.287500", "094941.747500", "094942.207500", "094942.667500", "094943.127500", "094943.587500", "094944.047500", "094944.507500", "094944.967500", "094945.427500", "094945.887500", "094946.347500", "094946.807500", "094947.267500", "094947.727500", "094948.187500", "094948.647500", "094949.107500", "094949.567500", "094950.027500", "094950.487500", "094950.947500", "094951.407500", "094951.867500", "094952.327500", "094952.787500", "094953.247500", "094953.707500", "094954.167500", "094954.627500", "094955.087500", "094955.547500", "094956.007500", "094956.467500", "094956.927500", "094957.387500", "094957.847500", "094958.307500", "094958.767500", "094959.227500", "094959.687500", "095000.147500", "095000.607500", "095001.067500", "095001.527500", "095001.987500", "095002.447500", "095002.907500", "095003.367500", "095003.827500", "095004.287500", "095004.747500", "095005.207500", "095005.667500", "095006.127500", "095006.587500", "095007.047500", "095007.507500", "095007.967500", "095008.427500", "095008.887500", "095009.347500", "095009.807500", "095010.267500", "095010.727500", "095011.187500", "095011.647500", "095012.107500", "095012.567500", "095013.027500", "095013.487500", "095013.947500", "095014.407500", "095014.867500", "095015.327500", "095015.787500", "095016.247500", "095016.707500", "095017.167500", "095017.627500", "095018.087500", "095018.547500", "095019.007500", "095019.467500", "095019.927500", "095020.387500", "095020.847500", "095021.307500", "095021.767500", "095022.227500", "095022.687500", "095023.147500", "095023.607500", "095024.067500", "095024.527500", "095024.987500", "095025.447500", "095025.907500", "095026.367500", "095026.827500", "095027.287500", "095027.747500", "095028.207500", "095028.667500", "095029.127500", "095029.587500", "095030.047500", "095030.507500", "095030.967500", "095031.427500", "095031.887500", "095032.347500", "095032.807500", "095033.267500", "095033.727500", "095034.187500", "095034.647500", "095035.107500", "095035.567500", "095036.027500", "095036.487500", "095036.947500", "095037.407500", "095037.867500", "095038.327500", "095038.787500", "095039.247500", "095039.707500", "095040.167500", "095040.627500", "095041.087500", "095041.547500", "095042.007500", "095042.467500", "095042.927500", "095043.387500", "095043.847500", "095044.307500", "095044.767500", "095045.227500", "095045.687500", "095046.147500", "095046.607500", "095047.067500", "095047.527500", "095047.987500", "095048.447500", "095048.907500", "095049.367500", "095049.827500", "095050.287500", "095050.747500", "095051.207500", "095051.667500", "095052.127500", "095052.587500", "095053.047500", "095053.507500", "095053.967500", "095054.427500", "095054.887500", "095055.347500", "095055.807500", "095056.267500", "095056.727500", "095057.187500", "095057.647500", "095058.107500", "095058.567500", "095059.027500", "095059.487500", "095059.947500", "095100.407500", "095100.867500", "095101.327500", "095101.787500", "095102.247500", "095102.707500", "095103.167500", "095103.627500", "095104.087500", "095104.547500", "095105.007500", "095105.467500", "095105.927500", "095106.387500", "095106.847500", "095107.307500", "095107.767500", "095108.227500", "095108.687500", "095109.147500", "095109.607500", "095110.067500", "095110.527500", "095110.987500", "095111.447500", "095111.907500", "095112.367500", "095112.827500", "095113.287500", "095113.747500", "095114.207500", "095114.667500", "095115.127500", "095115.587500", "095116.047500", "095116.507500", "095116.967500", "095117.427500", "095117.887500", "095118.347500", "095118.807500", "095119.267500", "095119.727500", "095120.187500", "095120.647500", "095121.107500", "095121.567500", "095122.027500", "095122.487500", "095122.947500", "095123.407500", "095123.867500", "095124.327500", "095124.787500", "095125.247500", "095125.707500", "095126.167500", "095126.627500", "095127.087500", "095127.547500", "095128.007500", "095128.467500", "095128.927500", "095129.387500", "095129.847500", "095130.307500", "095130.767500", "095131.227500", "095131.687500", "095132.147500", "095132.607500", "095133.067500", "095133.527500", "095133.987500", "095134.447500", "095134.907500", "095135.367500", "095135.827500", "095136.287500", "095136.747500", "095137.207500", "095137.667500", "095138.127500", "095138.587500", "095139.047500", "095139.507500", "095139.967500", "095140.427500", "095140.887500", "095141.347500", "095141.807500", "095142.267500", "095142.727500", "095143.187500", "095143.647500", "095144.107500", "095144.567500", "095145.027500", "095145.487500", "095145.947500", "095146.407500", "095146.867500", "095147.327500", "095147.787500", "095148.247500", "095148.707500", "095149.167500", "095149.627500", "095150.087500", "095150.547500", "095151.007500", "095151.467500", "095151.927500", "095152.387500", "095152.847500", "095153.307500", "095153.767500", "095154.227500", "095154.687500", "095155.147500", "095155.607500", "095156.067500", "095156.527500", "095156.987500", "095157.447500", "095157.907500", "095158.367500", "095158.827500", "095159.287500", "095159.747500", "095200.207500", "095200.667500", "095201.127500", "095201.587500", "095202.047500", "095202.507500", "095202.967500", "095203.427500", "095203.887500", "095204.347500", "095204.807500", "095205.267500", "095205.727500", "095206.187500", "095206.647500", "095207.107500", "095207.567500", "095208.027500", "095208.487500", "095208.947500", "095209.407500", "095209.867500", "095210.327500", "095210.787500", "095211.247500", "095211.707500", "095212.167500", "095212.627500", "095213.087500", "095213.547500", "095214.007500", "095214.467500", "095214.927500", "095215.387500", "095215.847500", "095216.307500", "095216.767500", "095217.227500", "095217.687500", "095218.147500", "095218.607500", "095219.067500", "095219.527500", "095219.987500", "095220.447500", "095220.907500", "095221.367500", "095221.827500", "095222.287500", "095222.747500", "095223.207500", "095223.667500", "095224.127500", "095224.587500", "095225.047500", "095225.507500", "095225.967500", "095226.427500", "095226.887500", "095227.347500", "095227.807500", "095228.267500", "095228.727500", "095229.187500", "095229.647500", "095230.107500", "095230.567500", "095231.027500", "095231.487500", "095231.947500", "095232.407500", "095232.867500", "095233.327500", "095233.787500", "095234.247500", "095234.707500", "095235.167500", "095235.627500", "095236.087500", "095236.547500", "095237.007500", "095237.467500", "095237.927500", "095238.387500", "095238.847500", "095239.307500", "095239.767500", "095240.227500", "095240.687500", "095241.147500", "095241.607500", "095242.067500", "095242.527500", "095242.987500", "095243.447500", "095243.907500", "095244.367500", "095244.827500", "095245.287500", "095245.747500", "095246.207500", "095246.667500", "095247.127500", "095247.587500", "095248.047500", "095248.507500", "095248.967500", "095249.427500", "095249.887500", "095250.347500", "095250.807500", "095251.267500", "095251.727500", "095252.187500", "095252.647500", "095253.107500", "095253.567500", "095254.027500", "095254.487500", "095254.947500", "095255.407500", "095255.867500", "095256.327500", "095256.787500", "095257.247500", "095257.707500", "095258.167500", "095258.627500", "095259.087500", "095259.547500", "095300.007500", "095300.467500", "095300.927500", "095301.387500", "095301.847500", "095302.307500", "095302.767500", "095303.227500", "095303.687500", "095304.147500", "095304.607500", "095305.067500", "095305.527500", "095305.987500", "095306.447500", "095306.907500", "095307.367500", "095307.827500", "095308.287500", "095308.747500", "095309.207500", "095309.667500", "095310.127500", "095310.587500", "095311.047500", "095311.507500", "095311.967500", "095312.427500", "095312.887500", "095313.347500", "095313.807500", "095314.267500", "095314.727500", "095315.187500", "095315.647500", "095316.107500", "095316.567500", "095317.027500", "095317.487500", "095317.947500", "095318.407500", "095318.867500", "095319.327500", "095319.787500", "095320.247500", "095320.707500", "095321.167500", "095321.627500", "095322.087500", "095322.547500", "095323.007500", "095323.467500", "095323.927500", "095324.387500", "095324.847500", "095325.307500", "095325.767500", "095326.227500", "095326.687500", "095327.147500", "095327.607500", "095328.067500", "095328.527500", "095328.987500", "095329.447500", "095329.907500", "095330.367500", "095330.827500", "095331.287500", "095331.747500", "095332.207500", "095332.667500", "095333.127500", "095333.587500", "095334.047500", "095334.507500", "095334.967500", "095335.427500", "095335.887500", "095336.347500", "095336.807500", "095337.267500", "095337.727500", "095338.187500", "095338.647500", "095339.107500", "095339.567500"],
