{
  "AcquisitionMatrixPE": 82,
  "AcquisitionNumber": 1,
  "AcquisitionTime": "11:12:40.480000",
  "BandwidthPerPixelPhaseEncode": 24.888,
  "BaseResolution": 82,
  "BodyPartExamined": "BRAIN",
  "ConsistencyInfo": "N4_VE11C_LATEST_20160120",
  "ConversionSoftware": "dcm2niix",
  "ConversionSoftwareVersion": "v1.0.20201102",
  "DerivedVendorReportedEchoSpacing": 0.00049,
  "DeviceSerialNumber": "66112",
  "DwellTime": 2e-06,
  "EchoTime": 0.0272,
  "EchoTrainLength": 82,
  "EffectiveEchoSpacing": 0.00049,
  "FlipAngle": 44,
  "ImageComments": "Unaliased MB8/PE3",
  "ImageOrientationPatientDICOM": [0.995655, 0.00634365, 0.0928998, -0.00608221, 0.999977, -0.00309713],
  "ImageType": [
    "ORIGINAL",
    "PRIMARY",
    "M",
    "MB",
    "ND",
    "NORM",
    "MOSAIC"
],
  "ImagingFrequency": 123.252,
  "InPlanePhaseEncodingDirectionDICOM": "COL",
  "InstitutionAddress": "Maynard 3,Hanover,NH,US,03755",
  "InstitutionName": "Dartmouth College - PBS",
  "InstitutionalDepartmentName": "Department",
  "MRAcquisitionType": "2D",
  "MagneticFieldStrength": 3,
  "Manufacturer": "Siemens",
  "ManufacturersModelName": "Prisma",
  "Modality": "MR",
  "MultibandAccelerationFactor": 8,
  "PartialFourier": 1,
  "PatientPosition": "HFS",
  "PercentPhaseFOV": 100,
  "PercentSampling": 100,
  "PhaseEncodingDirection": "j-",
  "PhaseEncodingSteps": 82,
  "PhaseResolution": 1,
  "PixelBandwidth": 3050,
  "ProcedureStepDescription": "Wager_Wager^1076_spacetop",
  "ProtocolName": "func_run-04_task-alignvideo_acq-ap-mb8",
  "PulseSequenceDetails": "%CustomerSeq%\\cmrr_mbep2d_bold",
  "ReceiveCoilActiveElements": "HEA;HEP",
  "ReceiveCoilName": "Head_32",
  "ReconMatrixPE": 82,
  "RepetitionTime": 0.46,
  "SAR": 0.134251,
  "ScanOptions": "FS",
  "ScanningSequence": "EP",
  "SequenceName": "epfid2d1_82",
  "SequenceVariant": "SK\\SS",
  "SeriesDescription": "func_run-04_task-alignvideo_acq-ap-mb8",
  "SeriesNumber": 34,
  "ShimSetting": [4183, -7734, -7178, 567, 7, -40, 19, 38],
  "SliceThickness": 2.7,
  "SliceTiming": [0, 0.2525, 0.065, 0.315, 0.1275, 0.3775, 0.19, 0, 0.2525, 0.065, 0.315, 0.1275, 0.3775, 0.19, 0, 0.2525, 0.065, 0.315, 0.1275, 0.3775, 0.19, 0, 0.2525, 0.065, 0.315, 0.1275, 0.3775, 0.19, 0, 0.2525, 0.065, 0.315, 0.1275, 0.3775, 0.19, 0, 0.2525, 0.065, 0.315, 0.1275, 0.3775, 0.19, 0, 0.2525, 0.065, 0.315, 0.1275, 0.3775, 0.19, 0, 0.2525, 0.065, 0.315, 0.1275, 0.3775, 0.19],
  "SoftwareVersions": "syngo MR E11",
  "SpacingBetweenSlices": 2.7,
  "StationName": "AWP66112",
  "TaskName": "alignvideo",
  "TotalReadoutTime": 0.03969,
  "TxRefAmp": 300.137,
  "WipMemBlock": "f5f0bf07-5206-40dc-b333-7a5b66a9a96a||Sequence: R016 ve11c/master r/e634e98; Dec 19 2017 11:00:25 by eja",
  "dcmmeta_affine": [
    [-2.6712701320648193, -0.01631811447441578, 0.250876784324646, 105.89237213134766],
    [-0.01701955311000347, 2.6828644275665283, -0.0068003227934241295, -91.52973937988281],
    [0.24924348294734955, 0.008309374563395977, 2.6883108615875244, -31.19732093811035],
    [0.0, 0.0, 0.0, 1.0]
],
  "dcmmeta_reorient_transform": [
    [0.0, -1.0, 0.0, 81.0],
    [1.0, 0.0, 0.0, 0.0],
    [0.0, 0.0, 1.0, 0.0],
    [0.0, 0.0, 0.0, 1.0]
],
  "dcmmeta_shape": [82, 82, 56, 914],
  "dcmmeta_slice_dim": 2,
  "dcmmeta_version": 0.6,
  "global": {
    "const": {
      "AccessionNumber": "A003745",
      "AcquisitionMatrix": [82, 0, 0, 82],
      "AngioFlag": "N",
      "BitsAllocated": 16,
      "BitsStored": 16,
      "BodyPartExamined": "BRAIN",
      "Columns": 656,
      "EchoNumbers": 1,
      "EchoTime": 27.2,
      "EchoTrainLength": 82,
      "FlipAngle": 44.0,
      "HighBit": 15,
      "ImageOrientationPatient": [0.99565525016633, 0.00634365151386, 0.09289984338892, -0.0060822064931, 0.99997670700263, -0.0030971303422],
      "ImagePositionPatient": [-866.54186520785, -900.64897464811, -99.672353034054],
      "ImageType": [
        "ORIGINAL",
        "PRIMARY",
        "M",
        "MB",
        "ND",
        "NORM",
        "MOSAIC"
],
      "ImagedNucleus": "1H",
      "ImagingFrequency": 123.252199,
      "InPlanePhaseEncodingDirection": "COL",
      "MRAcquisitionType": "2D",
      "MagneticFieldStrength": 3.0,
      "Manufacturer": "SIEMENS",
      "ManufacturerModelName": "Prisma",
      "Modality": "MR",
      "NumberOfAverages": 1.0,
      "NumberOfPhaseEncodingSteps": 82,
      "PercentPhaseFieldOfView": 100.0,
      "PercentSampling": 100.0,
      "PerformedProcedureStepStartTime": "090438.462000",
      "PhotometricInterpretation": "MONOCHROME2",
      "PixelBandwidth": 3050.0,
      "PixelRepresentation": 0,
      "PixelSpacing": [2.6829268932343, 2.6829268932343],
      "ProtocolName": "func_run-04_task-alignvideo_acq-ap-mb8",
      "RepetitionTime": 460.0,
      "Rows": 656,
      "SAR": 0.13425069982944,
      "SamplesPerPixel": 1,
      "ScanOptions": "FS",
      "ScanningSequence": "EP",
      "SequenceName": "epfid2d1_82",
      "SequenceVariant": [
        "SK",
        "SS"
],
      "SeriesDescription": "func_run-04_task-alignvideo_acq-ap-mb8",
      "SeriesNumber": 34,
      "SeriesTime": "111258.678000",
      "SliceLocation": -20.992491001569,
      "SliceThickness": 2.7000000476837,
      "SmallestImagePixelValue": 0,
      "SoftwareVersions": "syngo MR E11",
      "SpacingBetweenSlices": 2.7000000290574,
      "SpecificCharacterSet": "ISO_IR 100",
      "StudyID": "3",
      "StudyTime": "090438.361000",
      "TransmitCoilName": "Body",
      "VariableFlipAngleFlag": "N",
      "WindowCenterWidthExplanation": "Algo1",
      "dBdt": 0.0},
    "slices": {}
  },
  "time": {
    "samples": {
      "AcquisitionNumber": [1, 2, 3, 4, 5, 6, 7, 8, 9, 10, 11, 12, 13, 14, 15, 16, 17, 18, 19, 20, 21, 22, 23, 24, 25, 26, 27, 28, 29, 30, 31, 32, 33, 34, 35, 36, 37, 38, 39, 40, 41, 42, 43, 44, 45, 46, 47, 48, 49, 50, 51, 52, 53, 54, 55, 56, 57, 58, 59, 60, 61, 62, 63, 64, 65, 66, 67, 68, 69, 70, 71, 72, 73, 74, 75, 76, 77, 78, 79, 80, 81, 82, 83, 84, 85, 86, 87, 88, 89, 90, 91, 92, 93, 94, 95, 96, 97, 98, 99, 100, 101, 102, 103, 104, 105, 106, 107, 108, 109, 110, 111, 112, 113, 114, 115, 116, 117, 118, 119, 120, 121, 122, 123, 124, 125, 126, 127, 128, 129, 130, 131, 132, 133, 134, 135, 136, 137, 138, 139, 140, 141, 142, 143, 144, 145, 146, 147, 148, 149, 150, 151, 152, 153, 154, 155, 156, 157, 158, 159, 160, 161, 162, 163, 164, 165, 166, 167, 168, 169, 170, 171, 172, 173, 174, 175, 176, 177, 178, 179, 180, 181, 182, 183, 184, 185, 186, 187, 188, 189, 190, 191, 192, 193, 194, 195, 196, 197, 198, 199, 200, 201, 202, 203, 204, 205, 206, 207, 208, 209, 210, 211, 212, 213, 214, 215, 216, 217, 218, 219, 220, 221, 222, 223, 224, 225, 226, 227, 228, 229, 230, 231, 232, 233, 234, 235, 236, 237, 238, 239, 240, 241, 242, 243, 244, 245, 246, 247, 248, 249, 250, 251, 252, 253, 254, 255, 256, 257, 258, 259, 260, 261, 262, 263, 264, 265, 266, 267, 268, 269, 270, 271, 272, 273, 274, 275, 276, 277, 278, 279, 280, 281, 282, 283, 284, 285, 286, 287, 288, 289, 290, 291, 292, 293, 294, 295, 296, 297, 298, 299, 300, 301, 302, 303, 304, 305, 306, 307, 308, 309, 310, 311, 312, 313, 314, 315, 316, 317, 318, 319, 320, 321, 322, 323, 324, 325, 326, 327, 328, 329, 330, 331, 332, 333, 334, 335, 336, 337, 338, 339, 340, 341, 342, 343, 344, 345, 346, 347, 348, 349, 350, 351, 352, 353, 354, 355, 356, 357, 358, 359, 360, 361, 362, 363, 364, 365, 366, 367, 368, 369, 370, 371, 372, 373, 374, 375, 376, 377, 378, 379, 380, 381, 382, 383, 384, 385, 386, 387, 388, 389, 390, 391, 392, 393, 394, 395, 396, 397, 398, 399, 400, 401, 402, 403, 404, 405, 406, 407, 408, 409, 410, 411, 412, 413, 414, 415, 416, 417, 418, 419, 420, 421, 422, 423, 424, 425, 426, 427, 428, 429, 430, 431, 432, 433, 434, 435, 436, 437, 438, 439, 440, 441, 442, 443, 444, 445, 446, 447, 448, 449, 450, 451, 452, 453, 454, 455, 456, 457, 458, 459, 460, 461, 462, 463, 464, 465, 466, 467, 468, 469, 470, 471, 472, 473, 474, 475, 476, 477, 478, 479, 480, 481, 482, 483, 484, 485, 486, 487, 488, 489, 490, 491, 492, 493, 494, 495, 496, 497, 498, 499, 500, 501, 502, 503, 504, 505, 506, 507, 508, 509, 510, 511, 512, 513, 514, 515, 516, 517, 518, 519, 520, 521, 522, 523, 524, 525, 526, 527, 528, 529, 530, 531, 532, 533, 534, 535, 536, 537, 538, 539, 540, 541, 542, 543, 544, 545, 546, 547, 548, 549, 550, 551, 552, 553, 554, 555, 556, 557, 558, 559, 560, 561, 562, 563, 564, 565, 566, 567, 568, 569, 570, 571, 572, 573, 574, 575, 576, 577, 578, 579, 580, 581, 582, 583, 584, 585, 586, 587, 588, 589, 590, 591, 592, 593, 594, 595, 596, 597, 598, 599, 600, 601, 602, 603, 604, 605, 606, 607, 608, 609, 610, 611, 612, 613, 614, 615, 616, 617, 618, 619, 620, 621, 622, 623, 624, 625, 626, 627, 628, 629, 630, 631, 632, 633, 634, 635, 636, 637, 638, 639, 640, 641, 642, 643, 644, 645, 646, 647, 648, 649, 650, 651, 652, 653, 654, 655, 656, 657, 658, 659, 660, 661, 662, 663, 664, 665, 666, 667, 668, 669, 670, 671, 672, 673, 674, 675, 676, 677, 678, 679, 680, 681, 682, 683, 684, 685, 686, 687, 688, 689, 690, 691, 692, 693, 694, 695, 696, 697, 698, 699, 700, 701, 702, 703, 704, 705, 706, 707, 708, 709, 710, 711, 712, 713, 714, 715, 716, 717, 718, 719, 720, 721, 722, 723, 724, 725, 726, 727, 728, 729, 730, 731, 732, 733, 734, 735, 736, 737, 738, 739, 740, 741, 742, 743, 744, 745, 746, 747, 748, 749, 750, 751, 752, 753, 754, 755, 756, 757, 758, 759, 760, 761, 762, 763, 764, 765, 766, 767, 768, 769, 770, 771, 772, 773, 774, 775, 776, 777, 778, 779, 780, 781, 782, 783, 784, 785, 786, 787, 788, 789, 790, 791, 792, 793, 794, 795, 796, 797, 798, 799, 800, 801, 802, 803, 804, 805, 806, 807, 808, 809, 810, 811, 812, 813, 814, 815, 816, 817, 818, 819, 820, 821, 822, 823, 824, 825, 826, 827, 828, 829, 830, 831, 832, 833, 834, 835, 836, 837, 838, 839, 840, 841, 842, 843, 844, 845, 846, 847, 848, 849, 850, 851, 852, 853, 854, 855, 856, 857, 858, 859, 860, 861, 862, 863, 864, 865, 866, 867, 868, 869, 870, 871, 872, 873, 874, 875, 876, 877, 878, 879, 880, 881, 882, 883, 884, 885, 886, 887, 888, 889, 890, 891, 892, 893, 894, 895, 896, 897, 898, 899, 900, 901, 902, 903, 904, 905, 906, 907, 908, 909, 910, 911, 912, 913, 914],
      "AcquisitionTime": ["111240.480000", "111240.940000", "111241.400000", "111241.860000", "111242.320000", "111242.780000", "111243.240000", "111243.700000", "111244.160000", "111244.620000", "111245.080000", "111245.540000", "111246.000000", "111246.460000", "111246.920000", "111247.380000", "111247.840000", "111248.300000", "111248.760000", "111249.220000", "111249.680000", "111250.140000", "111250.600000", "111251.060000", "111251.520000", "111251.980000", "111252.440000", "111252.900000", "111253.360000", "111253.820000", "111254.280000", "111254.740000", "111255.200000", "111255.660000", "111256.120000", "111256.580000", "111257.040000", "111257.500000", "111257.960000", "111258.420000", "111258.880000", "111259.340000", "111259.800000", "111300.260000", "111300.720000", "111301.180000", "111301.640000", "111302.100000", "111302.560000", "111303.020000", "111303.480000", "111303.940000", "111304.400000", "111304.860000", "111305.320000", "111305.780000", "111306.240000", "111306.700000", "111307.160000", "111307.620000", "111308.080000", "111308.540000", "111309.000000", "111309.460000", "111309.920000", "111310.380000", "111310.840000", "111311.300000", "111311.760000", "111312.220000", "111312.680000", "111313.140000", "111313.600000", "111314.060000", "111314.520000", "111314.980000", "111315.440000", "111315.900000", "111316.360000", "111316.820000", "111317.280000", "111317.740000", "111318.200000", "111318.660000", "111319.120000", "111319.580000", "111320.040000", "111320.500000", "111320.960000", "111321.420000", "111321.880000", "111322.340000", "111322.800000", "111323.260000", "111323.720000", "111324.180000", "111324.640000", "111325.100000", "111325.560000", "111326.020000", "111326.480000", "111326.940000", "111327.400000", "111327.860000", "111328.320000", "111328.780000", "111329.240000", "111329.700000", "111330.160000", "111330.620000", "111331.080000", "111331.540000", "111332.000000", "111332.460000", "111332.920000", "111333.380000", "111333.840000", "111334.300000", "111334.760000", "111335.220000", "111335.680000", "111336.140000", "111336.600000", "111337.060000", "111337.520000", "111337.980000", "111338.440000", "111338.900000", "111339.360000", "111339.820000", "111340.280000", "111340.740000", "111341.200000", "111341.660000", "111342.120000", "111342.580000", "111343.040000", "111343.500000", "111343.960000", "111344.420000", "111344.880000", "111345.340000", "111345.800000", "111346.260000", "111346.720000", "111347.180000", "111347.640000", "111348.100000", "111348.560000", "111349.020000", "111349.480000", "111349.940000", "111350.400000", "111350.860000", "111351.320000", "111351.780000", "111352.240000", "111352.700000", "111353.160000", "111353.620000", "111354.080000", "111354.540000", "111355.000000", "111355.460000", "111355.920000", "111356.380000", "111356.840000", "111357.300000", "111357.760000", "111358.220000", "111358.680000", "111359.140000", "111359.600000", "111400.060000", "111400.520000", "111400.980000", "111401.440000", "111401.900000", "111402.360000", "111402.820000", "111403.280000", "111403.740000", "111404.200000", "111404.660000", "111405.120000", "111405.580000", "111406.040000", "111406.500000", "111406.960000", "111407.420000", "111407.880000", "111408.340000", "111408.800000", "111409.260000", "111409.720000", "111410.180000", "111410.640000", "111411.100000", "111411.560000", "111412.020000", "111412.480000", "111412.940000", "111413.400000", "111413.860000", "111414.320000", "111414.780000", "111415.240000", "111415.700000", "111416.160000", "111416.620000", "111417.080000", "111417.540000", "111418.000000", "111418.460000", "111418.920000", "111419.380000", "111419.840000", "111420.300000", "111420.760000", "111421.220000", "111421.680000", "111422.140000", "111422.600000", "111423.060000", "111423.520000", "111423.980000", "111424.440000", "111424.900000", "111425.360000", "111425.820000", "111426.280000", "111426.740000", "111427.200000", "111427.660000", "111428.120000", "111428.580000", "111429.040000", "111429.500000", "111429.960000", "111430.420000", "111430.880000", "111431.340000", "111431.800000", "111432.260000", "111432.720000", "111433.180000", "111433.640000", "111434.100000", "111434.560000", "111435.020000", "111435.480000", "111435.940000", "111436.400000", "111436.860000", "111437.320000", "111437.780000", "111438.240000", "111438.700000", "111439.160000", "111439.620000", "111440.080000", "111440.540000", "111441.000000", "111441.460000", "111441.920000", "111442.380000", "111442.840000", "111443.300000", "111443.760000", "111444.220000", "111444.680000", "111445.140000", "111445.600000", "111446.060000", "111446.520000", "111446.980000", "111447.440000", "111447.900000", "111448.360000", "111448.820000", "111449.280000", "111449.740000", "111450.200000", "111450.660000", "111451.120000", "111451.580000", "111452.040000", "111452.500000", "111452.960000", "111453.420000", "111453.880000", "111454.340000", "111454.800000", "111455.260000", "111455.720000", "111456.180000", "111456.640000", "111457.100000", "111457.560000", "111458.020000", "111458.480000", "111458.940000", "111459.400000", "111459.860000", "111500.320000", "111500.780000", "111501.240000", "111501.700000", "111502.160000", "111502.620000", "111503.080000", "111503.540000", "111504.000000", "111504.460000", "111504.920000", "111505.380000", "111505.840000", "111506.300000", "111506.760000", "111507.220000", "111507.680000", "111508.140000", "111508.600000", "111509.060000", "111509.520000", "111509.980000", "111510.440000", "111510.900000", "111511.360000", "111511.820000", "111512.280000", "111512.740000", "111513.200000", "111513.660000", "111514.120000", "111514.580000", "111515.040000", "111515.500000", "111515.960000", "111516.420000", "111516.880000", "111517.340000", "111517.800000", "111518.260000", "111518.720000", "111519.180000", "111519.640000", "111520.100000", "111520.560000", "111521.020000", "111521.480000", "111521.940000", "111522.400000", "111522.860000", "111523.320000", "111523.780000", "111524.240000", "111524.700000", "111525.160000", "111525.620000", "111526.080000", "111526.540000", "111527.000000", "111527.460000", "111527.920000", "111528.380000", "111528.840000", "111529.300000", "111529.760000", "111530.220000", "111530.680000", "111531.140000", "111531.600000", "111532.060000", "111532.520000", "111532.980000", "111533.440000", "111533.900000", "111534.360000", "111534.820000", "111535.280000", "111535.740000", "111536.200000", "111536.660000", "111537.120000", "111537.580000", "111538.040000", "111538.500000", "111538.960000", "111539.420000", "111539.880000", "111540.340000", "111540.800000", "111541.260000", "111541.720000", "111542.180000", "111542.640000", "111543.100000", "111543.560000", "111544.020000", "111544.480000", "111544.940000", "111545.400000", "111545.860000", "111546.320000", "111546.780000", "111547.240000", "111547.700000", "111548.160000", "111548.620000", "111549.080000", "111549.540000", "111550.000000", "111550.460000", "111550.920000", "111551.380000", "111551.840000", "111552.300000", "111552.760000", "111553.220000", "111553.680000", "111554.140000", "111554.600000", "111555.060000", "111555.520000", "111555.980000", "111556.440000", "111556.900000", "111557.360000", "111557.820000", "111558.280000", "111558.740000", "111559.200000", "111559.660000", "111600.120000", "111600.580000", "111601.040000", "111601.500000", "111601.960000", "111602.420000", "111602.880000", "111603.340000", "111603.800000", "111604.260000", "111604.720000", "111605.180000", "111605.640000", "111606.100000", "111606.560000", "111607.020000", "111607.480000", "111607.940000", "111608.400000", "111608.860000", "111609.320000", "111609.780000", "111610.240000", "111610.700000", "111611.160000", "111611.620000", "111612.080000", "111612.540000", "111613.000000", "111613.460000", "111613.920000", "111614.380000", "111614.840000", "111615.300000", "111615.760000", "111616.220000", "111616.680000", "111617.140000", "111617.600000", "111618.060000", "111618.520000", "111618.980000", "111619.440000", "111619.900000", "111620.360000", "111620.820000", "111621.280000", "111621.740000", "111622.200000", "111622.660000", "111623.120000", "111623.580000", "111624.040000", "111624.500000", "111624.960000", "111625.420000", "111625.880000", "111626.340000", "111626.800000", "111627.260000", "111627.720000", "111628.180000", "111628.640000", "111629.100000", "111629.560000", "111630.020000", "111630.480000", "111630.940000", "111631.400000", "111631.860000", "111632.320000", "111632.780000", "111633.240000", "111633.700000", "111634.160000", "111634.620000", "111635.080000", "111635.540000", "111636.000000", "111636.460000", "111636.920000", "111637.380000", "111637.840000", "111638.300000", "111638.760000", "111639.220000", "111639.680000", "111640.140000", "111640.600000", "111641.060000", "111641.520000", "111641.980000", "111642.440000", "111642.900000", "111643.360000", "111643.820000", "111644.280000", "111644.740000", "111645.200000", "111645.660000", "111646.120000", "111646.580000", "111647.040000", "111647.500000", "111647.960000", "111648.420000", "111648.880000", "111649.340000", "111649.800000", "111650.260000", "111650.720000", "111651.180000", "111651.640000", "111652.100000", "111652.560000", "111653.020000", "111653.480000", "111653.940000", "111654.400000", "111654.860000", "111655.320000", "111655.780000", "111656.240000", "111656.700000", "111657.160000", "111657.620000", "111658.080000", "111658.540000", "111659.000000", "111659.460000", "111659.920000", "111700.380000", "111700.840000", "111701.300000", "111701.760000", "111702.220000", "111702.680000", "111703.140000", "111703.600000", "111704.060000", "111704.520000", "111704.980000", "111705.440000", "111705.900000", "111706.360000", "111706.820000", "111707.280000", "111707.740000", "111708.200000", "111708.660000", "111709.120000", "111709.580000", "111710.040000", "111710.500000", "111710.960000", "111711.420000", "111711.880000", "111712.340000", "111712.800000", "111713.260000", "111713.720000", "111714.180000", "111714.640000", "111715.100000", "111715.560000", "111716.020000", "111716.480000", "111716.940000", "111717.400000", "111717.860000", "111718.320000", "111718.780000", "111719.240000", "111719.700000", "111720.160000", "111720.620000", "111721.080000", "111721.540000", "111722.000000", "111722.460000", "111722.920000", "111723.380000", "111723.840000", "111724.300000", "111724.760000", "111725.220000", "111725.680000", "111726.140000", "111726.600000", "111727.060000", "111727.520000", "111727.980000", "111728.440000", "111728.900000", "111729.360000", "111729.820000", "111730.280000", "111730.740000", "111731.200000", "111731.660000", "111732.120000", "111732.580000", "111733.040000", "111733.500000", "111733.960000", "111734.420000", "111734.880000", "111735.340000", "111735.800000", "111736.260000", "111736.720000", "111737.180000", "111737.640000", "111738.100000", "111738.560000", "111739.020000", "111739.480000", "111739.940000", "111740.400000", "111740.860000", "111741.320000", "111741.780000", "111742.240000", "111742.700000", "111743.160000", "111743.620000", "111744.080000", "111744.540000", "111745.000000", "111745.460000", "111745.920000", "111746.380000", "111746.840000", "111747.300000", "111747.760000", "111748.220000", "111748.680000", "111749.140000", "111749.600000", "111750.060000", "111750.520000", "111750.980000", "111751.440000", "111751.900000", "111752.360000", "111752.820000", "111753.280000", "111753.740000", "111754.200000", "111754.660000", "111755.120000", "111755.580000", "111756.040000", "111756.500000", "111756.960000", "111757.420000", "111757.880000", "111758.340000", "111758.800000", "111759.260000", "111759.720000", "111800.180000", "111800.640000", "111801.100000", "111801.560000", "111802.020000", "111802.480000", "111802.940000", "111803.400000", "111803.860000", "111804.320000", "111804.780000", "111805.240000", "111805.700000", "111806.160000", "111806.620000", "111807.080000", "111807.540000", "111808.000000", "111808.460000", "111808.920000", "111809.380000", "111809.840000", "111810.300000", "111810.760000", "111811.220000", "111811.680000", "111812.140000", "111812.600000", "111813.060000", "111813.520000", "111813.980000", "111814.440000", "111814.900000", "111815.360000", "111815.820000", "111816.280000", "111816.740000", "111817.200000", "111817.660000", "111818.120000", "111818.580000", "111819.040000", "111819.500000", "111819.960000", "111820.420000", "111820.880000", "111821.340000", "111821.800000", "111822.260000", "111822.720000", "111823.180000", "111823.640000", "111824.100000", "111824.560000", "111825.020000", "111825.480000", "111825.940000", "111826.400000", "111826.860000", "111827.320000", "111827.780000", "111828.240000", "111828.700000", "111829.160000", "111829.620000", "111830.080000", "111830.540000", "111831.000000", "111831.460000", "111831.920000", "111832.380000", "111832.840000", "111833.300000", "111833.760000", "111834.220000", "111834.680000", "111835.140000", "111835.600000", "111836.060000", "111836.520000", "111836.980000", "111837.440000", "111837.900000", "111838.360000", "111838.820000", "111839.280000", "111839.740000", "111840.200000", "111840.660000", "111841.120000", "111841.580000", "111842.040000", "111842.500000", "111842.960000", "111843.420000", "111843.880000", "111844.340000", "111844.800000", "111845.260000", "111845.720000", "111846.180000", "111846.640000", "111847.100000", "111847.560000", "111848.020000", "111848.480000", "111848.940000", "111849.400000", "111849.860000", "111850.320000", "111850.780000", "111851.240000", "111851.700000", "111852.160000", "111852.620000", "111853.080000", "111853.540000", "111854.000000", "111854.460000", "111854.920000", "111855.380000", "111855.840000", "111856.300000", "111856.760000", "111857.220000", "111857.680000", "111858.140000", "111858.600000", "111859.060000", "111859.520000", "111859.980000", "111900.440000", "111900.900000", "111901.360000", "111901.820000", "111902.280000", "111902.740000", "111903.200000", "111903.660000", "111904.120000", "111904.580000", "111905.040000", "111905.500000", "111905.960000", "111906.420000", "111906.880000", "111907.340000", "111907.800000", "111908.260000", "111908.720000", "111909.180000", "111909.640000", "111910.100000", "111910.560000", "111911.020000", "111911.480000", "111911.940000", "111912.400000", "111912.860000", "111913.320000", "111913.780000", "111914.240000", "111914.700000", "111915.160000", "111915.620000", "111916.080000", "111916.540000", "111917.000000", "111917.460000", "111917.920000", "111918.380000", "111918.840000", "111919.300000", "111919.760000", "111920.220000", "111920.680000", "111921.140000", "111921.600000", "111922.060000", "111922.520000", "111922.980000", "111923.440000", "111923.900000", "111924.360000", "111924.820000", "111925.280000", "111925.740000", "111926.200000", "111926.660000", "111927.120000", "111927.580000", "111928.040000", "111928.500000", "111928.960000", "111929.420000", "111929.880000", "111930.340000", "111930.800000", "111931.260000", "111931.720000", "111932.180000", "111932.640000", "111933.100000", "111933.560000", "111934.020000", "111934.480000", "111934.940000", "111935.400000", "111935.860000", "111936.320000", "111936.780000", "111937.240000", "111937.700000", "111938.160000", "111938.620000", "111939.080000", "111939.540000", "111940.000000", "111940.460000"],
