{
  "AcquisitionMatrixPE": 82,
  "AcquisitionNumber": 1,
  "AcquisitionTime": "10:23:26.872500",
  "BandwidthPerPixelPhaseEncode": 24.888,
  "BaseResolution": 82,
  "BodyPartExamined": "BRAIN",
  "ConsistencyInfo": "N4_VE11C_LATEST_20160120",
  "ConversionSoftware": "dcm2niix",
  "ConversionSoftwareVersion": "v1.0.20201102",
  "DerivedVendorReportedEchoSpacing": 0.00049,
  "DeviceSerialNumber": "66112",
  "DwellTime": 2e-06,
  "EchoTime": 0.0272,
  "EchoTrainLength": 82,
  "EffectiveEchoSpacing": 0.00049,
  "FlipAngle": 44,
  "ImageComments": "Unaliased MB8/PE3",
  "ImageOrientationPatientDICOM": [0.999467, 0.00376026, 0.0324222, -0.00523321, 0.998952, 0.0454657],
  "ImageType": [
    "ORIGINAL",
    "PRIMARY",
    "M",
    "MB",
    "ND",
    "NORM",
    "MOSAIC"
],
  "ImagingFrequency": 123.252,
  "InPlanePhaseEncodingDirectionDICOM": "COL",
  "InstitutionAddress": "Maynard 3,Hanover,NH,US,03755",
  "InstitutionName": "Dartmouth College - PBS",
  "InstitutionalDepartmentName": "Department",
  "MRAcquisitionType": "2D",
  "MagneticFieldStrength": 3,
  "Manufacturer": "Siemens",
  "ManufacturersModelName": "Prisma",
  "Modality": "MR",
  "MultibandAccelerationFactor": 8,
  "PartialFourier": 1,
  "PatientPosition": "HFS",
  "PercentPhaseFOV": 100,
  "PercentSampling": 100,
  "PhaseEncodingDirection": "j-",
  "PhaseEncodingSteps": 82,
  "PhaseResolution": 1,
  "PixelBandwidth": 3050,
  "ProcedureStepDescription": "Wager_Wager^1076_spacetop",
  "ProtocolName": "func_run-02_task-faces_acq-ap-mb8",
  "PulseSequenceDetails": "%CustomerSeq%\\cmrr_mbep2d_bold",
  "ReceiveCoilActiveElements": "HEA;HEP",
  "ReceiveCoilName": "Head_32",
  "ReconMatrixPE": 82,
  "RepetitionTime": 0.46,
  "SAR": 0.134251,
  "ScanOptions": "FS",
  "ScanningSequence": "EP",
  "SequenceName": "epfid2d1_82",
  "SequenceVariant": "SK\\SS",
  "SeriesDescription": "func_run-02_task-faces_acq-ap-mb8",
  "SeriesNumber": 18,
  "ShimSetting": [4178, -7733, -7184, 557, -9, -35, 16, 31],
  "SliceThickness": 2.7,
  "SliceTiming": [0, 0.2525, 0.065, 0.315, 0.1275, 0.3775, 0.19, 0, 0.2525, 0.065, 0.315, 0.1275, 0.3775, 0.19, 0, 0.2525, 0.065, 0.315, 0.1275, 0.3775, 0.19, 0, 0.2525, 0.065, 0.315, 0.1275, 0.3775, 0.19, 0, 0.2525, 0.065, 0.315, 0.1275, 0.3775, 0.19, 0, 0.2525, 0.065, 0.315, 0.1275, 0.3775, 0.19, 0, 0.2525, 0.065, 0.315, 0.1275, 0.3775, 0.19, 0, 0.2525, 0.065, 0.315, 0.1275, 0.3775, 0.19],
  "SoftwareVersions": "syngo MR E11",
  "SpacingBetweenSlices": 2.7,
  "StationName": "AWP66112",
  "TaskName": "faces",
  "TotalReadoutTime": 0.03969,
  "TxRefAmp": 300.137,
  "WipMemBlock": "2faed9f4-5ce0-4fc5-83db-697699b9002b||Sequence: R016 ve11c/master r/e634e98; Dec 19 2017 11:00:25 by eja",
  "dcmmeta_affine": [
    [-2.68149733543396, -0.014040317386388779, 0.08698663860559464, 111.34471130371094],
    [-0.010088506154716015, 2.6801156997680664, 0.12315021455287933, -94.51126098632812],
    [0.08698641508817673, -0.12198126316070557, 2.695786952972412, -19.513805389404297],
    [0.0, 0.0, 0.0, 1.0]
],
  "dcmmeta_reorient_transform": [
    [0.0, -1.0, 0.0, 81.0],
    [1.0, 0.0, 0.0, 0.0],
    [0.0, 0.0, 1.0, 0.0],
    [0.0, 0.0, 0.0, 1.0]
],
  "dcmmeta_shape": [82, 82, 56, 914],
  "dcmmeta_slice_dim": 2,
  "dcmmeta_version": 0.6,
  "global": {
    "const": {
      "AccessionNumber": "A003745",
      "AcquisitionMatrix": [82, 0, 0, 82],
      "AngioFlag": "N",
      "BitsAllocated": 16,
      "BitsStored": 16,
      "BodyPartExamined": "BRAIN",
      "Columns": 656,
      "EchoNumbers": 1,
      "EchoTime": 27.2,
      "EchoTrainLength": 82,
      "FlipAngle": 44.0,
      "HighBit": 15,
      "ImageOrientationPatient": [0.99946718847514, 0.00376026113031, 0.03242220840468, -0.0052332091499, 0.99895219099141, 0.04546574133846],
      "ImagePositionPatient": [-875.76762935923, -894.66671733106, -89.368009880652],
      "ImageType": [
        "ORIGINAL",
        "PRIMARY",
        "M",
        "MB",
        "ND",
        "NORM",
        "MOSAIC"
],
      "ImagedNucleus": "1H",
      "ImagingFrequency": 123.252193,
      "InPlanePhaseEncodingDirection": "COL",
      "MRAcquisitionType": "2D",
      "MagneticFieldStrength": 3.0,
      "Manufacturer": "SIEMENS",
      "ManufacturerModelName": "Prisma",
      "Modality": "MR",
      "NumberOfAverages": 1.0,
      "NumberOfPhaseEncodingSteps": 82,
      "PercentPhaseFieldOfView": 100.0,
      "PercentSampling": 100.0,
      "PerformedProcedureStepStartTime": "090438.462000",
      "PhotometricInterpretation": "MONOCHROME2",
      "PixelBandwidth": 3050.0,
      "PixelRepresentation": 0,
      "PixelSpacing": [2.6829268932343, 2.6829268932343],
      "ProtocolName": "func_run-02_task-faces_acq-ap-mb8",
      "RepetitionTime": 460.0,
      "Rows": 656,
      "SAR": 0.13425069982944,
      "SamplesPerPixel": 1,
      "ScanOptions": "FS",
      "ScanningSequence": "EP",
      "SequenceName": "epfid2d1_82",
      "SequenceVariant": [
        "SK",
        "SS"
],
      "SeriesDescription": "func_run-02_task-faces_acq-ap-mb8",
      "SeriesNumber": 18,
      "SeriesTime": "102338.534000",
      "SliceLocation": -20.206903996384,
      "SliceThickness": 2.7000000476837,
      "SmallestImagePixelValue": 0,
      "SoftwareVersions": "syngo MR E11",
      "SpacingBetweenSlices": 2.7000000497803,
      "SpecificCharacterSet": "ISO_IR 100",
      "StudyID": "3",
      "StudyTime": "090438.361000",
      "TransmitCoilName": "Body",
      "VariableFlipAngleFlag": "N",
      "WindowCenterWidthExplanation": "Algo1",
      "dBdt": 0.0},
    "slices": {}
  },
  "time": {
    "samples": {
      "AcquisitionNumber": [1, 2, 3, 4, 5, 6, 7, 8, 9, 10, 11, 12, 13, 14, 15, 16, 17, 18, 19, 20, 21, 22, 23, 24, 25, 26, 27, 28, 29, 30, 31, 32, 33, 34, 35, 36, 37, 38, 39, 40, 41, 42, 43, 44, 45, 46, 47, 48, 49, 50, 51, 52, 53, 54, 55, 56, 57, 58, 59, 60, 61, 62, 63, 64, 65, 66, 67, 68, 69, 70, 71, 72, 73, 74, 75, 76, 77, 78, 79, 80, 81, 82, 83, 84, 85, 86, 87, 88, 89, 90, 91, 92, 93, 94, 95, 96, 97, 98, 99, 100, 101, 102, 103, 104, 105, 106, 107, 108, 109, 110, 111, 112, 113, 114, 115, 116, 117, 118, 119, 120, 121, 122, 123, 124, 125, 126, 127, 128, 129, 130, 131, 132, 133, 134, 135, 136, 137, 138, 139, 140, 141, 142, 143, 144, 145, 146, 147, 148, 149, 150, 151, 152, 153, 154, 155, 156, 157, 158, 159, 160, 161, 162, 163, 164, 165, 166, 167, 168, 169, 170, 171, 172, 173, 174, 175, 176, 177, 178, 179, 180, 181, 182, 183, 184, 185, 186, 187, 188, 189, 190, 191, 192, 193, 194, 195, 196, 197, 198, 199, 200, 201, 202, 203, 204, 205, 206, 207, 208, 209, 210, 211, 212, 213, 214, 215, 216, 217, 218, 219, 220, 221, 222, 223, 224, 225, 226, 227, 228, 229, 230, 231, 232, 233, 234, 235, 236, 237, 238, 239, 240, 241, 242, 243, 244, 245, 246, 247, 248, 249, 250, 251, 252, 253, 254, 255, 256, 257, 258, 259, 260, 261, 262, 263, 264, 265, 266, 267, 268, 269, 270, 271, 272, 273, 274, 275, 276, 277, 278, 279, 280, 281, 282, 283, 284, 285, 286, 287, 288, 289, 290, 291, 292, 293, 294, 295, 296, 297, 298, 299, 300, 301, 302, 303, 304, 305, 306, 307, 308, 309, 310, 311, 312, 313, 314, 315, 316, 317, 318, 319, 320, 321, 322, 323, 324, 325, 326, 327, 328, 329, 330, 331, 332, 333, 334, 335, 336, 337, 338, 339, 340, 341, 342, 343, 344, 345, 346, 347, 348, 349, 350, 351, 352, 353, 354, 355, 356, 357, 358, 359, 360, 361, 362, 363, 364, 365, 366, 367, 368, 369, 370, 371, 372, 373, 374, 375, 376, 377, 378, 379, 380, 381, 382, 383, 384, 385, 386, 387, 388, 389, 390, 391, 392, 393, 394, 395, 396, 397, 398, 399, 400, 401, 402, 403, 404, 405, 406, 407, 408, 409, 410, 411, 412, 413, 414, 415, 416, 417, 418, 419, 420, 421, 422, 423, 424, 425, 426, 427, 428, 429, 430, 431, 432, 433, 434, 435, 436, 437, 438, 439, 440, 441, 442, 443, 444, 445, 446, 447, 448, 449, 450, 451, 452, 453, 454, 455, 456, 457, 458, 459, 460, 461, 462, 463, 464, 465, 466, 467, 468, 469, 470, 471, 472, 473, 474, 475, 476, 477, 478, 479, 480, 481, 482, 483, 484, 485, 486, 487, 488, 489, 490, 491, 492, 493, 494, 495, 496, 497, 498, 499, 500, 501, 502, 503, 504, 505, 506, 507, 508, 509, 510, 511, 512, 513, 514, 515, 516, 517, 518, 519, 520, 521, 522, 523, 524, 525, 526, 527, 528, 529, 530, 531, 532, 533, 534, 535, 536, 537, 538, 539, 540, 541, 542, 543, 544, 545, 546, 547, 548, 549, 550, 551, 552, 553, 554, 555, 556, 557, 558, 559, 560, 561, 562, 563, 564, 565, 566, 567, 568, 569, 570, 571, 572, 573, 574, 575, 576, 577, 578, 579, 580, 581, 582, 583, 584, 585, 586, 587, 588, 589, 590, 591, 592, 593, 594, 595, 596, 597, 598, 599, 600, 601, 602, 603, 604, 605, 606, 607, 608, 609, 610, 611, 612, 613, 614, 615, 616, 617, 618, 619, 620, 621, 622, 623, 624, 625, 626, 627, 628, 629, 630, 631, 632, 633, 634, 635, 636, 637, 638, 639, 640, 641, 642, 643, 644, 645, 646, 647, 648, 649, 650, 651, 652, 653, 654, 655, 656, 657, 658, 659, 660, 661, 662, 663, 664, 665, 666, 667, 668, 669, 670, 671, 672, 673, 674, 675, 676, 677, 678, 679, 680, 681, 682, 683, 684, 685, 686, 687, 688, 689, 690, 691, 692, 693, 694, 695, 696, 697, 698, 699, 700, 701, 702, 703, 704, 705, 706, 707, 708, 709, 710, 711, 712, 713, 714, 715, 716, 717, 718, 719, 720, 721, 722, 723, 724, 725, 726, 727, 728, 729, 730, 731, 732, 733, 734, 735, 736, 737, 738, 739, 740, 741, 742, 743, 744, 745, 746, 747, 748, 749, 750, 751, 752, 753, 754, 755, 756, 757, 758, 759, 760, 761, 762, 763, 764, 765, 766, 767, 768, 769, 770, 771, 772, 773, 774, 775, 776, 777, 778, 779, 780, 781, 782, 783, 784, 785, 786, 787, 788, 789, 790, 791, 792, 793, 794, 795, 796, 797, 798, 799, 800, 801, 802, 803, 804, 805, 806, 807, 808, 809, 810, 811, 812, 813, 814, 815, 816, 817, 818, 819, 820, 821, 822, 823, 824, 825, 826, 827, 828, 829, 830, 831, 832, 833, 834, 835, 836, 837, 838, 839, 840, 841, 842, 843, 844, 845, 846, 847, 848, 849, 850, 851, 852, 853, 854, 855, 856, 857, 858, 859, 860, 861, 862, 863, 864, 865, 866, 867, 868, 869, 870, 871, 872, 873, 874, 875, 876, 877, 878, 879, 880, 881, 882, 883, 884, 885, 886, 887, 888, 889, 890, 891, 892, 893, 894, 895, 896, 897, 898, 899, 900, 901, 902, 903, 904, 905, 906, 907, 908, 909, 910, 911, 912, 913, 914],
      "AcquisitionTime": ["102326.872500", "102327.332500", "102327.792500", "102328.252500", "102328.712500", "102329.172500", "102329.632500", "102330.092500", "102330.552500", "102331.012500", "102331.472500", "102331.932500", "102332.392500", "102332.852500", "102333.312500", "102333.772500", "102334.232500", "102334.692500", "102335.152500", "102335.612500", "102336.072500", "102336.532500", "102336.992500", "102337.452500", "102337.912500", "102338.372500", "102338.832500", "102339.292500", "102339.752500", "102340.212500", "102340.672500", "102341.132500", "102341.592500", "102342.052500", "102342.512500", "102342.972500", "102343.432500", "102343.892500", "102344.352500", "102344.812500", "102345.272500", "102345.732500", "102346.192500", "102346.652500", "102347.112500", "102347.572500", "102348.032500", "102348.492500", "102348.952500", "102349.412500", "102349.872500", "102350.332500", "102350.792500", "102351.252500", "102351.712500", "102352.172500", "102352.632500", "102353.092500", "102353.552500", "102354.012500", "102354.472500", "102354.932500", "102355.392500", "102355.852500", "102356.312500", "102356.772500", "102357.232500", "102357.692500", "102358.152500", "102358.612500", "102359.072500", "102359.532500", "102359.992500", "102400.452500", "102400.912500", "102401.372500", "102401.832500", "102402.292500", "102402.752500", "102403.212500", "102403.672500", "102404.132500", "102404.592500", "102405.052500", "102405.512500", "102405.972500", "102406.432500", "102406.892500", "102407.352500", "102407.812500", "102408.272500", "102408.732500", "102409.192500", "102409.652500", "102410.112500", "102410.572500", "102411.032500", "102411.492500", "102411.952500", "102412.412500", "102412.872500", "102413.332500", "102413.792500", "102414.252500", "102414.712500", "102415.172500", "102415.632500", "102416.092500", "102416.552500", "102417.012500", "102417.472500", "102417.932500", "102418.392500", "102418.852500", "102419.312500", "102419.772500", "102420.232500", "102420.692500", "102421.152500", "102421.612500", "102422.072500", "102422.532500", "102422.992500", "102423.452500", "102423.912500", "102424.372500", "102424.832500", "102425.292500", "102425.752500", "102426.212500", "102426.672500", "102427.132500", "102427.592500", "102428.052500", "102428.512500", "102428.972500", "102429.432500", "102429.892500", "102430.352500", "102430.812500", "102431.272500", "102431.732500", "102432.192500", "102432.652500", "102433.112500", "102433.572500", "102434.032500", "102434.492500", "102434.952500", "102435.412500", "102435.872500", "102436.332500", "102436.792500", "102437.252500", "102437.712500", "102438.172500", "102438.632500", "102439.092500", "102439.552500", "102440.012500", "102440.472500", "102440.932500", "102441.392500", "102441.852500", "102442.312500", "102442.772500", "102443.232500", "102443.692500", "102444.152500", "102444.612500", "102445.072500", "102445.532500", "102445.992500", "102446.452500", "102446.912500", "102447.372500", "102447.832500", "102448.292500", "102448.752500", "102449.212500", "102449.672500", "102450.132500", "102450.592500", "102451.052500", "102451.512500", "102451.972500", "102452.432500", "102452.892500", "102453.352500", "102453.812500", "102454.272500", "102454.732500", "102455.192500", "102455.652500", "102456.112500", "102456.572500", "102457.032500", "102457.492500", "102457.952500", "102458.412500", "102458.872500", "102459.332500", "102459.792500", "102500.252500", "102500.712500", "102501.172500", "102501.632500", "102502.092500", "102502.552500", "102503.012500", "102503.472500", "102503.932500", "102504.392500", "102504.852500", "102505.312500", "102505.772500", "102506.232500", "102506.692500", "102507.152500", "102507.612500", "102508.072500", "102508.532500", "102508.992500", "102509.452500", "102509.912500", "102510.372500", "102510.832500", "102511.292500", "102511.752500", "102512.212500", "102512.672500", "102513.132500", "102513.592500", "102514.052500", "102514.512500", "102514.972500", "102515.432500", "102515.892500", "102516.352500", "102516.812500", "102517.272500", "102517.732500", "102518.192500", "102518.652500", "102519.112500", "102519.572500", "102520.032500", "102520.492500", "102520.952500", "102521.412500", "102521.872500", "102522.332500", "102522.792500", "102523.252500", "102523.712500", "102524.172500", "102524.632500", "102525.092500", "102525.552500", "102526.012500", "102526.472500", "102526.932500", "102527.392500", "102527.852500", "102528.312500", "102528.772500", "102529.232500", "102529.692500", "102530.152500", "102530.612500", "102531.072500", "102531.532500", "102531.992500", "102532.452500", "102532.912500", "102533.372500", "102533.832500", "102534.292500", "102534.752500", "102535.212500", "102535.672500", "102536.132500", "102536.592500", "102537.052500", "102537.512500", "102537.972500", "102538.432500", "102538.892500", "102539.352500", "102539.812500", "102540.272500", "102540.732500", "102541.192500", "102541.652500", "102542.112500", "102542.572500", "102543.032500", "102543.492500", "102543.952500", "102544.412500", "102544.872500", "102545.332500", "102545.792500", "102546.252500", "102546.712500", "102547.172500", "102547.632500", "102548.092500", "102548.552500", "102549.012500", "102549.472500", "102549.932500", "102550.392500", "102550.852500", "102551.312500", "102551.772500", "102552.232500", "102552.692500", "102553.152500", "102553.612500", "102554.072500", "102554.532500", "102554.992500", "102555.452500", "102555.912500", "102556.372500", "102556.832500", "102557.292500", "102557.752500", "102558.212500", "102558.672500", "102559.132500", "102559.592500", "102600.052500", "102600.512500", "102600.972500", "102601.432500", "102601.892500", "102602.352500", "102602.812500", "102603.272500", "102603.732500", "102604.192500", "102604.652500", "102605.112500", "102605.572500", "102606.032500", "102606.492500", "102606.952500", "102607.412500", "102607.872500", "102608.332500", "102608.792500", "102609.252500", "102609.712500", "102610.172500", "102610.632500", "102611.092500", "102611.552500", "102612.012500", "102612.472500", "102612.932500", "102613.392500", "102613.852500", "102614.312500", "102614.772500", "102615.232500", "102615.692500", "102616.152500", "102616.612500", "102617.072500", "102617.532500", "102617.992500", "102618.452500", "102618.912500", "102619.372500", "102619.832500", "102620.292500", "102620.752500", "102621.212500", "102621.672500", "102622.132500", "102622.592500", "102623.052500", "102623.512500", "102623.972500", "102624.432500", "102624.892500", "102625.352500", "102625.812500", "102626.272500", "102626.732500", "102627.192500", "102627.652500", "102628.112500", "102628.572500", "102629.032500", "102629.492500", "102629.952500", "102630.412500", "102630.872500", "102631.332500", "102631.792500", "102632.252500", "102632.712500", "102633.172500", "102633.632500", "102634.092500", "102634.552500", "102635.012500", "102635.472500", "102635.932500", "102636.392500", "102636.852500", "102637.312500", "102637.772500", "102638.232500", "102638.692500", "102639.152500", "102639.612500", "102640.072500", "102640.532500", "102640.992500", "102641.452500", "102641.912500", "102642.372500", "102642.832500", "102643.292500", "102643.752500", "102644.212500", "102644.672500", "102645.132500", "102645.592500", "102646.052500", "102646.512500", "102646.972500", "102647.432500", "102647.892500", "102648.352500", "102648.812500", "102649.272500", "102649.732500", "102650.192500", "102650.652500", "102651.112500", "102651.572500", "102652.032500", "102652.492500", "102652.952500", "102653.412500", "102653.872500", "102654.332500", "102654.792500", "102655.252500", "102655.712500", "102656.172500", "102656.632500", "102657.092500", "102657.552500", "102658.012500", "102658.472500", "102658.932500", "102659.392500", "102659.852500", "102700.312500", "102700.772500", "102701.232500", "102701.692500", "102702.152500", "102702.612500", "102703.072500", "102703.532500", "102703.992500", "102704.452500", "102704.912500", "102705.372500", "102705.832500", "102706.292500", "102706.752500", "102707.212500", "102707.672500", "102708.132500", "102708.592500", "102709.052500", "102709.512500", "102709.972500", "102710.432500", "102710.892500", "102711.352500", "102711.812500", "102712.272500", "102712.732500", "102713.192500", "102713.652500", "102714.112500", "102714.572500", "102715.032500", "102715.492500", "102715.952500", "102716.412500", "102716.872500", "102717.332500", "102717.792500", "102718.252500", "102718.712500", "102719.172500", "102719.632500", "102720.092500", "102720.552500", "102721.012500", "102721.472500", "102721.932500", "102722.392500", "102722.852500", "102723.312500", "102723.772500", "102724.232500", "102724.692500", "102725.152500", "102725.612500", "102726.072500", "102726.532500", "102726.992500", "102727.452500", "102727.912500", "102728.372500", "102728.832500", "102729.292500", "102729.752500", "102730.212500", "102730.672500", "102731.132500", "102731.592500", "102732.052500", "102732.512500", "102732.972500", "102733.432500", "102733.892500", "102734.352500", "102734.812500", "102735.272500", "102735.732500", "102736.192500", "102736.652500", "102737.112500", "102737.572500", "102738.032500", "102738.492500", "102738.952500", "102739.412500", "102739.872500", "102740.332500", "102740.792500", "102741.252500", "102741.712500", "102742.172500", "102742.632500", "102743.092500", "102743.552500", "102744.012500", "102744.472500", "102744.932500", "102745.392500", "102745.852500", "102746.312500", "102746.772500", "102747.232500", "102747.692500", "102748.152500", "102748.612500", "102749.072500", "102749.532500", "102749.992500", "102750.452500", "102750.912500", "102751.372500", "102751.832500", "102752.292500", "102752.752500", "102753.212500", "102753.672500", "102754.132500", "102754.592500", "102755.052500", "102755.512500", "102755.972500", "102756.432500", "102756.892500", "102757.352500", "102757.812500", "102758.272500", "102758.732500", "102759.192500", "102759.652500", "102800.112500", "102800.572500", "102801.032500", "102801.492500", "102801.952500", "102802.412500", "102802.872500", "102803.332500", "102803.792500", "102804.252500", "102804.712500", "102805.172500", "102805.632500", "102806.092500", "102806.552500", "102807.012500", "102807.472500", "102807.932500", "102808.392500", "102808.852500", "102809.312500", "102809.772500", "102810.232500", "102810.692500", "102811.152500", "102811.612500", "102812.072500", "102812.532500", "102812.992500", "102813.452500", "102813.912500", "102814.372500", "102814.832500", "102815.292500", "102815.752500", "102816.212500", "102816.672500", "102817.132500", "102817.592500", "102818.052500", "102818.512500", "102818.972500", "102819.432500", "102819.892500", "102820.352500", "102820.812500", "102821.272500", "102821.732500", "102822.192500", "102822.652500", "102823.112500", "102823.572500", "102824.032500", "102824.492500", "102824.952500", "102825.412500", "102825.872500", "102826.332500", "102826.792500", "102827.252500", "102827.712500", "102828.172500", "102828.632500", "102829.092500", "102829.552500", "102830.012500", "102830.472500", "102830.932500", "102831.392500", "102831.852500", "102832.312500", "102832.772500", "102833.232500", "102833.692500", "102834.152500", "102834.612500", "102835.072500", "102835.532500", "102835.992500", "102836.452500", "102836.912500", "102837.372500", "102837.832500", "102838.292500", "102838.752500", "102839.212500", "102839.672500", "102840.132500", "102840.592500", "102841.052500", "102841.512500", "102841.972500", "102842.432500", "102842.892500", "102843.352500", "102843.812500", "102844.272500", "102844.732500", "102845.192500", "102845.652500", "102846.112500", "102846.572500", "102847.032500", "102847.492500", "102847.952500", "102848.412500", "102848.872500", "102849.332500", "102849.792500", "102850.252500", "102850.712500", "102851.172500", "102851.632500", "102852.092500", "102852.552500", "102853.012500", "102853.472500", "102853.932500", "102854.392500", "102854.852500", "102855.312500", "102855.772500", "102856.232500", "102856.692500", "102857.152500", "102857.612500", "102858.072500", "102858.532500", "102858.992500", "102859.452500", "102859.912500", "102900.372500", "102900.832500", "102901.292500", "102901.752500", "102902.212500", "102902.672500", "102903.132500", "102903.592500", "102904.052500", "102904.512500", "102904.972500", "102905.432500", "102905.892500", "102906.352500", "102906.812500", "102907.272500", "102907.732500", "102908.192500", "102908.652500", "102909.112500", "102909.572500", "102910.032500", "102910.492500", "102910.952500", "102911.412500", "102911.872500", "102912.332500", "102912.792500", "102913.252500", "102913.712500", "102914.172500", "102914.632500", "102915.092500", "102915.552500", "102916.012500", "102916.472500", "102916.932500", "102917.392500", "102917.852500", "102918.312500", "102918.772500", "102919.232500", "102919.692500", "102920.152500", "102920.612500", "102921.072500", "102921.532500", "102921.992500", "102922.452500", "102922.912500", "102923.372500", "102923.832500", "102924.292500", "102924.752500", "102925.212500", "102925.672500", "102926.132500", "102926.592500", "102927.052500", "102927.512500", "102927.972500", "102928.432500", "102928.892500", "102929.352500", "102929.812500", "102930.272500", "102930.732500", "102931.192500", "102931.652500", "102932.112500", "102932.572500", "102933.032500", "102933.492500", "102933.952500", "102934.412500", "102934.872500", "102935.332500", "102935.792500", "102936.252500", "102936.712500", "102937.172500", "102937.632500", "102938.092500", "102938.552500", "102939.012500", "102939.472500", "102939.932500", "102940.392500", "102940.852500", "102941.312500", "102941.772500", "102942.232500", "102942.692500", "102943.152500", "102943.612500", "102944.072500", "102944.532500", "102944.992500", "102945.452500", "102945.912500", "102946.372500", "102946.832500", "102947.292500", "102947.752500", "102948.212500", "102948.672500", "102949.132500", "102949.592500", "102950.052500", "102950.512500", "102950.972500", "102951.432500", "102951.892500", "102952.352500", "102952.812500", "102953.272500", "102953.732500", "102954.192500", "102954.652500", "102955.112500", "102955.572500", "102956.032500", "102956.492500", "102956.952500", "102957.412500", "102957.872500", "102958.332500", "102958.792500", "102959.252500", "102959.712500", "103000.172500", "103000.632500", "103001.092500", "103001.552500", "103002.012500", "103002.472500", "103002.932500", "103003.392500", "103003.852500", "103004.312500", "103004.772500", "103005.232500", "103005.692500", "103006.152500", "103006.612500", "103007.072500", "103007.532500", "103007.992500", "103008.452500", "103008.912500", "103009.372500", "103009.832500", "103010.292500", "103010.752500", "103011.212500", "103011.672500", "103012.132500", "103012.592500", "103013.052500", "103013.512500", "103013.972500", "103014.432500", "103014.892500", "103015.352500", "103015.812500", "103016.272500", "103016.732500", "103017.192500", "103017.652500", "103018.112500", "103018.572500", "103019.032500", "103019.492500", "103019.952500", "103020.412500", "103020.872500", "103021.332500", "103021.792500", "103022.252500", "103022.712500", "103023.172500", "103023.632500", "103024.092500", "103024.552500", "103025.012500", "103025.472500", "103025.932500", "103026.392500", "103026.852500"],
