{
  "AcquisitionMatrixPE": 82,
  "AcquisitionNumber": 1,
  "AcquisitionTime": "10:31:23.060000",
  "BandwidthPerPixelPhaseEncode": 24.888,
  "BaseResolution": 82,
  "BodyPartExamined": "BRAIN",
  "ConsistencyInfo": "N4_VE11C_LATEST_20160120",
  "ConversionSoftware": "dcm2niix",
  "ConversionSoftwareVersion": "v1.0.20201102",
  "DerivedVendorReportedEchoSpacing": 0.00049,
  "DeviceSerialNumber": "66112",
  "DwellTime": 2e-06,
  "EchoTime": 0.0272,
  "EchoTrainLength": 82,
  "EffectiveEchoSpacing": 0.00049,
  "FlipAngle": 44,
  "ImageComments": "Unaliased MB8/PE3",
  "ImageOrientationPatientDICOM": [0.999467, 0.00376026, 0.0324222, -0.00523321, 0.998952, 0.0454657],
  "ImageType": [
    "ORIGINAL",
    "PRIMARY",
    "M",
    "MB",
    "ND",
    "NORM",
    "MOSAIC"
],
  "ImagingFrequency": 123.252,
  "InPlanePhaseEncodingDirectionDICOM": "COL",
  "InstitutionAddress": "Maynard 3,Hanover,NH,US,03755",
  "InstitutionName": "Dartmouth College - PBS",
  "InstitutionalDepartmentName": "Department",
  "MRAcquisitionType": "2D",
  "MagneticFieldStrength": 3,
  "Manufacturer": "Siemens",
  "ManufacturersModelName": "Prisma",
  "Modality": "MR",
  "MultibandAccelerationFactor": 8,
  "PartialFourier": 1,
  "PatientPosition": "HFS",
  "PercentPhaseFOV": 100,
  "PercentSampling": 100,
  "PhaseEncodingDirection": "j-",
  "PhaseEncodingSteps": 82,
  "PhaseResolution": 1,
  "PixelBandwidth": 3050,
  "ProcedureStepDescription": "Wager_Wager^1076_spacetop",
  "ProtocolName": "func_run-03_task-faces_acq-ap-mb8",
  "PulseSequenceDetails": "%CustomerSeq%\\cmrr_mbep2d_bold",
  "ReceiveCoilActiveElements": "HEA;HEP",
  "ReceiveCoilName": "Head_32",
  "ReconMatrixPE": 82,
  "RepetitionTime": 0.46,
  "SAR": 0.134251,
  "ScanOptions": "FS",
  "ScanningSequence": "EP",
  "SequenceName": "epfid2d1_82",
  "SequenceVariant": "SK\\SS",
  "SeriesDescription": "func_run-03_task-faces_acq-ap-mb8",
  "SeriesNumber": 20,
  "ShimSetting": [4178, -7733, -7184, 557, -9, -35, 16, 31],
  "SliceThickness": 2.7,
  "SliceTiming": [0, 0.25, 0.0625, 0.315, 0.125, 0.3775, 0.1875, 0, 0.25, 0.0625, 0.315, 0.125, 0.3775, 0.1875, 0, 0.25, 0.0625, 0.315, 0.125, 0.3775, 0.1875, 0, 0.25, 0.0625, 0.315, 0.125, 0.3775, 0.1875, 0, 0.25, 0.0625, 0.315, 0.125, 0.3775, 0.1875, 0, 0.25, 0.0625, 0.315, 0.125, 0.3775, 0.1875, 0, 0.25, 0.0625, 0.315, 0.125, 0.3775, 0.1875, 0, 0.25, 0.0625, 0.315, 0.125, 0.3775, 0.1875],
  "SoftwareVersions": "syngo MR E11",
  "SpacingBetweenSlices": 2.7,
  "StationName": "AWP66112",
  "TaskName": "faces",
  "TotalReadoutTime": 0.03969,
  "TxRefAmp": 300.137,
  "WipMemBlock": "74e7d0e8-3c3b-4766-89c7-b0eeff8729b1||Sequence: R016 ve11c/master r/e634e98; Dec 19 2017 11:00:25 by eja",
  "dcmmeta_affine": [
    [-2.68149733543396, -0.014040317386388779, 0.08698663860559464, 111.34471130371094],
    [-0.010088506154716015, 2.6801156997680664, 0.12315021455287933, -94.51126098632812],
    [0.08698641508817673, -0.12198126316070557, 2.695786952972412, -19.513805389404297],
    [0.0, 0.0, 0.0, 1.0]
],
  "dcmmeta_reorient_transform": [
    [0.0, -1.0, 0.0, 81.0],
    [1.0, 0.0, 0.0, 0.0],
    [0.0, 0.0, 1.0, 0.0],
    [0.0, 0.0, 0.0, 1.0]
],
  "dcmmeta_shape": [82, 82, 56, 914],
  "dcmmeta_slice_dim": 2,
  "dcmmeta_version": 0.6,
  "global": {
    "const": {
      "AccessionNumber": "A003745",
      "AcquisitionMatrix": [82, 0, 0, 82],
      "AngioFlag": "N",
      "BitsAllocated": 16,
      "BitsStored": 16,
      "BodyPartExamined": "BRAIN",
      "Columns": 656,
      "EchoNumbers": 1,
      "EchoTime": 27.2,
      "EchoTrainLength": 82,
      "FlipAngle": 44.0,
      "HighBit": 15,
      "ImageOrientationPatient": [0.99946718847514, 0.00376026113031, 0.03242220840468, -0.0052332091499, 0.99895219099141, 0.04546574133846],
      "ImagePositionPatient": [-875.76762935923, -894.66671733106, -89.368009880652],
      "ImageType": [
        "ORIGINAL",
        "PRIMARY",
        "M",
        "MB",
        "ND",
        "NORM",
        "MOSAIC"
],
      "ImagedNucleus": "1H",
      "ImagingFrequency": 123.252195,
      "InPlanePhaseEncodingDirection": "COL",
      "MRAcquisitionType": "2D",
      "MagneticFieldStrength": 3.0,
      "Manufacturer": "SIEMENS",
      "ManufacturerModelName": "Prisma",
      "Modality": "MR",
      "NumberOfAverages": 1.0,
      "NumberOfPhaseEncodingSteps": 82,
      "PercentPhaseFieldOfView": 100.0,
      "PercentSampling": 100.0,
      "PerformedProcedureStepStartTime": "090438.462000",
      "PhotometricInterpretation": "MONOCHROME2",
      "PixelBandwidth": 3050.0,
      "PixelRepresentation": 0,
      "PixelSpacing": [2.6829268932343, 2.6829268932343],
      "ProtocolName": "func_run-03_task-faces_acq-ap-mb8",
      "RepetitionTime": 460.0,
      "Rows": 656,
      "SAR": 0.13425069982944,
      "SamplesPerPixel": 1,
      "ScanOptions": "FS",
      "ScanningSequence": "EP",
      "SequenceName": "epfid2d1_82",
      "SequenceVariant": [
        "SK",
        "SS"
],
      "SeriesDescription": "func_run-03_task-faces_acq-ap-mb8",
      "SeriesNumber": 20,
      "SeriesTime": "103138.606000",
      "SliceLocation": -20.206903996384,
      "SliceThickness": 2.7000000476837,
      "SmallestImagePixelValue": 0,
      "SoftwareVersions": "syngo MR E11",
      "SpacingBetweenSlices": 2.7000000497803,
      "SpecificCharacterSet": "ISO_IR 100",
      "StudyID": "3",
      "StudyTime": "090438.361000",
      "TransmitCoilName": "Body",
      "VariableFlipAngleFlag": "N",
      "WindowCenterWidthExplanation": "Algo1",
      "dBdt": 0.0},
    "slices": {}
  },
  "time": {
    "samples": {
      "AcquisitionNumber": [1, 2, 3, 4, 5, 6, 7, 8, 9, 10, 11, 12, 13, 14, 15, 16, 17, 18, 19, 20, 21, 22, 23, 24, 25, 26, 27, 28, 29, 30, 31, 32, 33, 34, 35, 36, 37, 38, 39, 40, 41, 42, 43, 44, 45, 46, 47, 48, 49, 50, 51, 52, 53, 54, 55, 56, 57, 58, 59, 60, 61, 62, 63, 64, 65, 66, 67, 68, 69, 70, 71, 72, 73, 74, 75, 76, 77, 78, 79, 80, 81, 82, 83, 84, 85, 86, 87, 88, 89, 90, 91, 92, 93, 94, 95, 96, 97, 98, 99, 100, 101, 102, 103, 104, 105, 106, 107, 108, 109, 110, 111, 112, 113, 114, 115, 116, 117, 118, 119, 120, 121, 122, 123, 124, 125, 126, 127, 128, 129, 130, 131, 132, 133, 134, 135, 136, 137, 138, 139, 140, 141, 142, 143, 144, 145, 146, 147, 148, 149, 150, 151, 152, 153, 154, 155, 156, 157, 158, 159, 160, 161, 162, 163, 164, 165, 166, 167, 168, 169, 170, 171, 172, 173, 174, 175, 176, 177, 178, 179, 180, 181, 182, 183, 184, 185, 186, 187, 188, 189, 190, 191, 192, 193, 194, 195, 196, 197, 198, 199, 200, 201, 202, 203, 204, 205, 206, 207, 208, 209, 210, 211, 212, 213, 214, 215, 216, 217, 218, 219, 220, 221, 222, 223, 224, 225, 226, 227, 228, 229, 230, 231, 232, 233, 234, 235, 236, 237, 238, 239, 240, 241, 242, 243, 244, 245, 246, 247, 248, 249, 250, 251, 252, 253, 254, 255, 256, 257, 258, 259, 260, 261, 262, 263, 264, 265, 266, 267, 268, 269, 270, 271, 272, 273, 274, 275, 276, 277, 278, 279, 280, 281, 282, 283, 284, 285, 286, 287, 288, 289, 290, 291, 292, 293, 294, 295, 296, 297, 298, 299, 300, 301, 302, 303, 304, 305, 306, 307, 308, 309, 310, 311, 312, 313, 314, 315, 316, 317, 318, 319, 320, 321, 322, 323, 324, 325, 326, 327, 328, 329, 330, 331, 332, 333, 334, 335, 336, 337, 338, 339, 340, 341, 342, 343, 344, 345, 346, 347, 348, 349, 350, 351, 352, 353, 354, 355, 356, 357, 358, 359, 360, 361, 362, 363, 364, 365, 366, 367, 368, 369, 370, 371, 372, 373, 374, 375, 376, 377, 378, 379, 380, 381, 382, 383, 384, 385, 386, 387, 388, 389, 390, 391, 392, 393, 394, 395, 396, 397, 398, 399, 400, 401, 402, 403, 404, 405, 406, 407, 408, 409, 410, 411, 412, 413, 414, 415, 416, 417, 418, 419, 420, 421, 422, 423, 424, 425, 426, 427, 428, 429, 430, 431, 432, 433, 434, 435, 436, 437, 438, 439, 440, 441, 442, 443, 444, 445, 446, 447, 448, 449, 450, 451, 452, 453, 454, 455, 456, 457, 458, 459, 460, 461, 462, 463, 464, 465, 466, 467, 468, 469, 470, 471, 472, 473, 474, 475, 476, 477, 478, 479, 480, 481, 482, 483, 484, 485, 486, 487, 488, 489, 490, 491, 492, 493, 494, 495, 496, 497, 498, 499, 500, 501, 502, 503, 504, 505, 506, 507, 508, 509, 510, 511, 512, 513, 514, 515, 516, 517, 518, 519, 520, 521, 522, 523, 524, 525, 526, 527, 528, 529, 530, 531, 532, 533, 534, 535, 536, 537, 538, 539, 540, 541, 542, 543, 544, 545, 546, 547, 548, 549, 550, 551, 552, 553, 554, 555, 556, 557, 558, 559, 560, 561, 562, 563, 564, 565, 566, 567, 568, 569, 570, 571, 572, 573, 574, 575, 576, 577, 578, 579, 580, 581, 582, 583, 584, 585, 586, 587, 588, 589, 590, 591, 592, 593, 594, 595, 596, 597, 598, 599, 600, 601, 602, 603, 604, 605, 606, 607, 608, 609, 610, 611, 612, 613, 614, 615, 616, 617, 618, 619, 620, 621, 622, 623, 624, 625, 626, 627, 628, 629, 630, 631, 632, 633, 634, 635, 636, 637, 638, 639, 640, 641, 642, 643, 644, 645, 646, 647, 648, 649, 650, 651, 652, 653, 654, 655, 656, 657, 658, 659, 660, 661, 662, 663, 664, 665, 666, 667, 668, 669, 670, 671, 672, 673, 674, 675, 676, 677, 678, 679, 680, 681, 682, 683, 684, 685, 686, 687, 688, 689, 690, 691, 692, 693, 694, 695, 696, 697, 698, 699, 700, 701, 702, 703, 704, 705, 706, 707, 708, 709, 710, 711, 712, 713, 714, 715, 716, 717, 718, 719, 720, 721, 722, 723, 724, 725, 726, 727, 728, 729, 730, 731, 732, 733, 734, 735, 736, 737, 738, 739, 740, 741, 742, 743, 744, 745, 746, 747, 748, 749, 750, 751, 752, 753, 754, 755, 756, 757, 758, 759, 760, 761, 762, 763, 764, 765, 766, 767, 768, 769, 770, 771, 772, 773, 774, 775, 776, 777, 778, 779, 780, 781, 782, 783, 784, 785, 786, 787, 788, 789, 790, 791, 792, 793, 794, 795, 796, 797, 798, 799, 800, 801, 802, 803, 804, 805, 806, 807, 808, 809, 810, 811, 812, 813, 814, 815, 816, 817, 818, 819, 820, 821, 822, 823, 824, 825, 826, 827, 828, 829, 830, 831, 832, 833, 834, 835, 836, 837, 838, 839, 840, 841, 842, 843, 844, 845, 846, 847, 848, 849, 850, 851, 852, 853, 854, 855, 856, 857, 858, 859, 860, 861, 862, 863, 864, 865, 866, 867, 868, 869, 870, 871, 872, 873, 874, 875, 876, 877, 878, 879, 880, 881, 882, 883, 884, 885, 886, 887, 888, 889, 890, 891, 892, 893, 894, 895, 896, 897, 898, 899, 900, 901, 902, 903, 904, 905, 906, 907, 908, 909, 910, 911, 912, 913, 914],
      "AcquisitionTime": ["103123.060000", "103123.520000", "103123.980000", "103124.440000", "103124.900000", "103125.360000", "103125.820000", "103126.280000", "103126.740000", "103127.200000", "103127.660000", "103128.120000", "103128.580000", "103129.040000", "103129.500000", "103129.960000", "103130.420000", "103130.880000", "103131.340000", "103131.800000", "103132.260000", "103132.720000", "103133.180000", "103133.640000", "103134.100000", "103134.560000", "103135.020000", "103135.480000", "103135.940000", "103136.400000", "103136.860000", "103137.320000", "103137.780000", "103138.240000", "103138.700000", "103139.160000", "103139.620000", "103140.080000", "103140.540000", "103141.000000", "103141.460000", "103141.920000", "103142.380000", "103142.840000", "103143.300000", "103143.760000", "103144.220000", "103144.680000", "103145.140000", "103145.600000", "103146.060000", "103146.520000", "103146.980000", "103147.440000", "103147.900000", "103148.360000", "103148.820000", "103149.280000", "103149.740000", "103150.200000", "103150.660000", "103151.120000", "103151.580000", "103152.040000", "103152.500000", "103152.960000", "103153.420000", "103153.880000", "103154.340000", "103154.800000", "103155.260000", "103155.720000", "103156.180000", "103156.640000", "103157.100000", "103157.560000", "103158.020000", "103158.480000", "103158.940000", "103159.400000", "103159.860000", "103200.320000", "103200.780000", "103201.240000", "103201.700000", "103202.160000", "103202.620000", "103203.080000", "103203.540000", "103204.000000", "103204.460000", "103204.920000", "103205.380000", "103205.840000", "103206.300000", "103206.760000", "103207.220000", "103207.680000", "103208.140000", "103208.600000", "103209.060000", "103209.520000", "103209.980000", "103210.440000", "103210.900000", "103211.360000", "103211.820000", "103212.280000", "103212.740000", "103213.200000", "103213.660000", "103214.120000", "103214.580000", "103215.040000", "103215.500000", "103215.960000", "103216.420000", "103216.880000", "103217.340000", "103217.800000", "103218.260000", "103218.720000", "103219.180000", "103219.640000", "103220.100000", "103220.560000", "103221.020000", "103221.480000", "103221.940000", "103222.400000", "103222.860000", "103223.320000", "103223.780000", "103224.240000", "103224.700000", "103225.160000", "103225.620000", "103226.080000", "103226.540000", "103227.000000", "103227.460000", "103227.920000", "103228.380000", "103228.840000", "103229.300000", "103229.760000", "103230.220000", "103230.680000", "103231.140000", "103231.600000", "103232.060000", "103232.520000", "103232.980000", "103233.440000", "103233.900000", "103234.360000", "103234.820000", "103235.280000", "103235.740000", "103236.200000", "103236.660000", "103237.120000", "103237.580000", "103238.040000", "103238.500000", "103238.960000", "103239.420000", "103239.880000", "103240.340000", "103240.800000", "103241.260000", "103241.720000", "103242.180000", "103242.640000", "103243.100000", "103243.560000", "103244.020000", "103244.480000", "103244.940000", "103245.400000", "103245.860000", "103246.320000", "103246.780000", "103247.240000", "103247.700000", "103248.160000", "103248.620000", "103249.080000", "103249.540000", "103250.000000", "103250.460000", "103250.920000", "103251.380000", "103251.840000", "103252.300000", "103252.760000", "103253.220000", "103253.680000", "103254.140000", "103254.600000", "103255.060000", "103255.520000", "103255.980000", "103256.440000", "103256.900000", "103257.360000", "103257.820000", "103258.280000", "103258.740000", "103259.200000", "103259.660000", "103300.120000", "103300.580000", "103301.040000", "103301.500000", "103301.960000", "103302.420000", "103302.880000", "103303.340000", "103303.800000", "103304.260000", "103304.720000", "103305.180000", "103305.640000", "103306.100000", "103306.560000", "103307.020000", "103307.480000", "103307.940000", "103308.400000", "103308.860000", "103309.320000", "103309.780000", "103310.240000", "103310.700000", "103311.160000", "103311.620000", "103312.080000", "103312.540000", "103313.000000", "103313.460000", "103313.920000", "103314.380000", "103314.840000", "103315.300000", "103315.760000", "103316.220000", "103316.680000", "103317.140000", "103317.600000", "103318.060000", "103318.520000", "103318.980000", "103319.440000", "103319.900000", "103320.360000", "103320.820000", "103321.280000", "103321.740000", "103322.200000", "103322.660000", "103323.120000", "103323.580000", "103324.040000", "103324.500000", "103324.960000", "103325.420000", "103325.880000", "103326.340000", "103326.800000", "103327.260000", "103327.720000", "103328.180000", "103328.640000", "103329.100000", "103329.560000", "103330.020000", "103330.480000", "103330.940000", "103331.400000", "103331.860000", "103332.320000", "103332.780000", "103333.240000", "103333.700000", "103334.160000", "103334.620000", "103335.080000", "103335.540000", "103336.000000", "103336.460000", "103336.920000", "103337.380000", "103337.840000", "103338.300000", "103338.760000", "103339.220000", "103339.680000", "103340.140000", "103340.600000", "103341.060000", "103341.520000", "103341.980000", "103342.440000", "103342.900000", "103343.360000", "103343.820000", "103344.280000", "103344.740000", "103345.200000", "103345.660000", "103346.120000", "103346.580000", "103347.040000", "103347.500000", "103347.960000", "103348.420000", "103348.880000", "103349.340000", "103349.800000", "103350.260000", "103350.720000", "103351.180000", "103351.640000", "103352.100000", "103352.560000", "103353.020000", "103353.480000", "103353.940000", "103354.400000", "103354.860000", "103355.320000", "103355.780000", "103356.240000", "103356.700000", "103357.160000", "103357.620000", "103358.080000", "103358.540000", "103359.000000", "103359.460000", "103359.920000", "103400.380000", "103400.840000", "103401.300000", "103401.760000", "103402.220000", "103402.680000", "103403.140000", "103403.600000", "103404.060000", "103404.520000", "103404.980000", "103405.440000", "103405.900000", "103406.360000", "103406.820000", "103407.280000", "103407.740000", "103408.200000", "103408.660000", "103409.120000", "103409.580000", "103410.040000", "103410.500000", "103410.960000", "103411.420000", "103411.880000", "103412.340000", "103412.800000", "103413.260000", "103413.720000", "103414.180000", "103414.640000", "103415.100000", "103415.560000", "103416.020000", "103416.480000", "103416.940000", "103417.400000", "103417.860000", "103418.320000", "103418.780000", "103419.240000", "103419.700000", "103420.160000", "103420.620000", "103421.080000", "103421.540000", "103422.000000", "103422.460000", "103422.920000", "103423.380000", "103423.840000", "103424.300000", "103424.760000", "103425.220000", "103425.680000", "103426.140000", "103426.600000", "103427.060000", "103427.520000", "103427.980000", "103428.440000", "103428.900000", "103429.360000", "103429.820000", "103430.280000", "103430.740000", "103431.200000", "103431.660000", "103432.120000", "103432.580000", "103433.040000", "103433.500000", "103433.960000", "103434.420000", "103434.880000", "103435.340000", "103435.800000", "103436.260000", "103436.720000", "103437.180000", "103437.640000", "103438.100000", "103438.560000", "103439.020000", "103439.480000", "103439.940000", "103440.400000", "103440.860000", "103441.320000", "103441.780000", "103442.240000", "103442.700000", "103443.160000", "103443.620000", "103444.080000", "103444.540000", "103445.000000", "103445.460000", "103445.920000", "103446.380000", "103446.840000", "103447.300000", "103447.760000", "103448.220000", "103448.680000", "103449.140000", "103449.600000", "103450.060000", "103450.520000", "103450.980000", "103451.440000", "103451.900000", "103452.360000", "103452.820000", "103453.280000", "103453.740000", "103454.200000", "103454.660000", "103455.120000", "103455.580000", "103456.040000", "103456.500000", "103456.960000", "103457.420000", "103457.880000", "103458.340000", "103458.800000", "103459.260000", "103459.720000", "103500.180000", "103500.640000", "103501.100000", "103501.560000", "103502.020000", "103502.480000", "103502.940000", "103503.400000", "103503.860000", "103504.320000", "103504.780000", "103505.240000", "103505.700000", "103506.160000", "103506.620000", "103507.080000", "103507.540000", "103508.000000", "103508.460000", "103508.920000", "103509.380000", "103509.840000", "103510.300000", "103510.760000", "103511.220000", "103511.680000", "103512.140000", "103512.600000", "103513.060000", "103513.520000", "103513.980000", "103514.440000", "103514.900000", "103515.360000", "103515.820000", "103516.280000", "103516.740000", "103517.200000", "103517.660000", "103518.120000", "103518.580000", "103519.040000", "103519.500000", "103519.960000", "103520.420000", "103520.880000", "103521.340000", "103521.800000", "103522.260000", "103522.720000", "103523.180000", "103523.640000", "103524.100000", "103524.560000", "103525.020000", "103525.480000", "103525.940000", "103526.400000", "103526.860000", "103527.320000", "103527.780000", "103528.240000", "103528.700000", "103529.160000", "103529.620000", "103530.080000", "103530.540000", "103531.000000", "103531.460000", "103531.920000", "103532.380000", "103532.840000", "103533.300000", "103533.760000", "103534.220000", "103534.680000", "103535.140000", "103535.600000", "103536.060000", "103536.520000", "103536.980000", "103537.440000", "103537.900000", "103538.360000", "103538.820000", "103539.280000", "103539.740000", "103540.200000", "103540.660000", "103541.120000", "103541.580000", "103542.040000", "103542.500000", "103542.960000", "103543.420000", "103543.880000", "103544.340000", "103544.800000", "103545.260000", "103545.720000", "103546.180000", "103546.640000", "103547.100000", "103547.560000", "103548.020000", "103548.480000", "103548.940000", "103549.400000", "103549.860000", "103550.320000", "103550.780000", "103551.240000", "103551.700000", "103552.160000", "103552.620000", "103553.080000", "103553.540000", "103554.000000", "103554.460000", "103554.920000", "103555.380000", "103555.840000", "103556.300000", "103556.760000", "103557.220000", "103557.680000", "103558.140000", "103558.600000", "103559.060000", "103559.520000", "103559.980000", "103600.440000", "103600.900000", "103601.360000", "103601.820000", "103602.280000", "103602.740000", "103603.200000", "103603.660000", "103604.120000", "103604.580000", "103605.040000", "103605.500000", "103605.960000", "103606.420000", "103606.880000", "103607.340000", "103607.800000", "103608.260000", "103608.720000", "103609.180000", "103609.640000", "103610.100000", "103610.560000", "103611.020000", "103611.480000", "103611.940000", "103612.400000", "103612.860000", "103613.320000", "103613.780000", "103614.240000", "103614.700000", "103615.160000", "103615.620000", "103616.080000", "103616.540000", "103617.000000", "103617.460000", "103617.920000", "103618.380000", "103618.840000", "103619.300000", "103619.760000", "103620.220000", "103620.680000", "103621.140000", "103621.600000", "103622.060000", "103622.520000", "103622.980000", "103623.440000", "103623.900000", "103624.360000", "103624.820000", "103625.280000", "103625.740000", "103626.200000", "103626.660000", "103627.120000", "103627.580000", "103628.040000", "103628.500000", "103628.960000", "103629.420000", "103629.880000", "103630.340000", "103630.800000", "103631.260000", "103631.720000", "103632.180000", "103632.640000", "103633.100000", "103633.560000", "103634.020000", "103634.480000", "103634.940000", "103635.400000", "103635.860000", "103636.320000", "103636.780000", "103637.240000", "103637.700000", "103638.160000", "103638.620000", "103639.080000", "103639.540000", "103640.000000", "103640.460000", "103640.920000", "103641.380000", "103641.840000", "103642.300000", "103642.760000", "103643.220000", "103643.680000", "103644.140000", "103644.600000", "103645.060000", "103645.520000", "103645.980000", "103646.440000", "103646.900000", "103647.360000", "103647.820000", "103648.280000", "103648.740000", "103649.200000", "103649.660000", "103650.120000", "103650.580000", "103651.040000", "103651.500000", "103651.960000", "103652.420000", "103652.880000", "103653.340000", "103653.800000", "103654.260000", "103654.720000", "103655.180000", "103655.640000", "103656.100000", "103656.560000", "103657.020000", "103657.480000", "103657.940000", "103658.400000", "103658.860000", "103659.320000", "103659.780000", "103700.240000", "103700.700000", "103701.160000", "103701.620000", "103702.080000", "103702.540000", "103703.000000", "103703.460000", "103703.920000", "103704.380000", "103704.840000", "103705.300000", "103705.760000", "103706.220000", "103706.680000", "103707.140000", "103707.600000", "103708.060000", "103708.520000", "103708.980000", "103709.440000", "103709.900000", "103710.360000", "103710.820000", "103711.280000", "103711.740000", "103712.200000", "103712.660000", "103713.120000", "103713.580000", "103714.040000", "103714.500000", "103714.960000", "103715.420000", "103715.880000", "103716.340000", "103716.800000", "103717.260000", "103717.720000", "103718.180000", "103718.640000", "103719.100000", "103719.560000", "103720.020000", "103720.480000", "103720.940000", "103721.400000", "103721.860000", "103722.320000", "103722.780000", "103723.240000", "103723.700000", "103724.160000", "103724.620000", "103725.080000", "103725.540000", "103726.000000", "103726.460000", "103726.920000", "103727.380000", "103727.840000", "103728.300000", "103728.760000", "103729.220000", "103729.680000", "103730.140000", "103730.600000", "103731.060000", "103731.520000", "103731.980000", "103732.440000", "103732.900000", "103733.360000", "103733.820000", "103734.280000", "103734.740000", "103735.200000", "103735.660000", "103736.120000", "103736.580000", "103737.040000", "103737.500000", "103737.960000", "103738.420000", "103738.880000", "103739.340000", "103739.800000", "103740.260000", "103740.720000", "103741.180000", "103741.640000", "103742.100000", "103742.560000", "103743.020000", "103743.480000", "103743.940000", "103744.400000", "103744.860000", "103745.320000", "103745.780000", "103746.240000", "103746.700000", "103747.160000", "103747.620000", "103748.080000", "103748.540000", "103749.000000", "103749.460000", "103749.920000", "103750.380000", "103750.840000", "103751.300000", "103751.760000", "103752.220000", "103752.680000", "103753.140000", "103753.600000", "103754.060000", "103754.520000", "103754.980000", "103755.440000", "103755.900000", "103756.360000", "103756.820000", "103757.280000", "103757.740000", "103758.200000", "103758.660000", "103759.120000", "103759.580000", "103800.040000", "103800.500000", "103800.960000", "103801.420000", "103801.880000", "103802.340000", "103802.800000", "103803.260000", "103803.720000", "103804.180000", "103804.640000", "103805.100000", "103805.560000", "103806.020000", "103806.480000", "103806.940000", "103807.400000", "103807.860000", "103808.320000", "103808.780000", "103809.240000", "103809.700000", "103810.160000", "103810.620000", "103811.080000", "103811.540000", "103812.000000", "103812.460000", "103812.920000", "103813.380000", "103813.840000", "103814.300000", "103814.760000", "103815.220000", "103815.680000", "103816.140000", "103816.600000", "103817.060000", "103817.520000", "103817.980000", "103818.440000", "103818.900000", "103819.360000", "103819.820000", "103820.280000", "103820.740000", "103821.200000", "103821.660000", "103822.120000", "103822.580000", "103823.040000"],
