{
  "AcquisitionMatrixPE": 82,
  "AcquisitionNumber": 1,
  "AcquisitionTime": "15:57:13.130000",
  "BandwidthPerPixelPhaseEncode": 24.888,
  "BaseResolution": 82,
  "BodyPartExamined": "BRAIN",
  "ConsistencyInfo": "N4_VE11E_LATEST_20181129",
  "ConversionSoftware": "dcm2niix",
  "ConversionSoftwareVersion": "v1.0.20201102",
  "DerivedVendorReportedEchoSpacing": 0.00049,
  "DeviceSerialNumber": "66112",
  "DwellTime": 2e-06,
  "EchoTime": 0.0272,
  "EchoTrainLength": 82,
  "EffectiveEchoSpacing": 0.00049,
  "FlipAngle": 44,
  "ImageComments": "Unaliased MB8/PE3",
  "ImageOrientationPatientDICOM": [0.995653, -0.0102174, -0.0925763, 0.00590837, 0.998891, -0.0467004],
  "ImageType": [
    "ORIGINAL",
    "PRIMARY",
    "M",
    "MB",
    "ND",
    "NORM",
    "MOSAIC"
],
  "ImagingFrequency": 123.259,
  "InPlanePhaseEncodingDirectionDICOM": "COL",
  "InstitutionAddress": "Maynard 3,Hanover,NH,US,03755",
  "InstitutionName": "Dartmouth College - PBS",
  "InstitutionalDepartmentName": "Department",
  "MRAcquisitionType": "2D",
  "MagneticFieldStrength": 3,
  "Manufacturer": "Siemens",
  "ManufacturersModelName": "Prisma",
  "Modality": "MR",
  "MultibandAccelerationFactor": 8,
  "PartialFourier": 1,
  "PatientPosition": "HFS",
  "PercentPhaseFOV": 100,
  "PercentSampling": 100,
  "PhaseEncodingDirection": "j-",
  "PhaseEncodingSteps": 82,
  "PhaseResolution": 1,
  "PixelBandwidth": 3050,
  "ProcedureStepDescription": "Wager_Wager^1076_spacetop",
  "ProtocolName": "func_run-01_task-social_acq-ap-mb8",
  "PulseSequenceDetails": "%CustomerSeq%\\cmrr_mbep2d_bold",
  "ReceiveCoilActiveElements": "HEA;HEP",
  "ReceiveCoilName": "Head_32",
  "ReconMatrixPE": 82,
  "RepetitionTime": 0.46,
  "SAR": 0.106945,
  "ScanOptions": "FS",
  "ScanningSequence": "EP",
  "SequenceName": "epfid2d1_82",
  "SequenceVariant": "SK\\SS",
  "SeriesDescription": "func_run-01_task-social_acq-ap-mb8",
  "SeriesNumber": 12,
  "ShimSetting": [4210, -7805, -7282, 233, -94, -77, -62, 105],
  "SliceThickness": 2.7,
  "SliceTiming": [0, 0.25, 0.0625, 0.3125, 0.125, 0.375, 0.1875, 0, 0.25, 0.0625, 0.3125, 0.125, 0.375, 0.1875, 0, 0.25, 0.0625, 0.3125, 0.125, 0.375, 0.1875, 0, 0.25, 0.0625, 0.3125, 0.125, 0.375, 0.1875, 0, 0.25, 0.0625, 0.3125, 0.125, 0.375, 0.1875, 0, 0.25, 0.0625, 0.3125, 0.125, 0.375, 0.1875, 0, 0.25, 0.0625, 0.3125, 0.125, 0.375, 0.1875, 0, 0.25, 0.0625, 0.3125, 0.125, 0.375, 0.1875],
  "SoftwareVersions": "syngo MR E11",
  "SpacingBetweenSlices": 2.7,
  "StationName": "AWP66112",
  "TaskName": "social",
  "TotalReadoutTime": 0.03969,
  "TxRefAmp": 260.66,
  "WipMemBlock": "9b2ff4f1-3051-4e0e-81cf-3a14a59720a2||Sequence: R016 ve11e/master r/434b28f1; Aug  7 2019 18:53:46 by eja",
  "dcmmeta_affine": [
    [-2.6712646484375, 0.01585172303020954, -0.2509673237800598, 116.727783203125],
    [0.02741243690252304, 2.67995285987854, -0.12406609207391739, -96.28411865234375],
    [-0.2483755499124527, 0.12529370188713074, 2.6854465007781982, -70.35465240478516],
    [0.0, 0.0, 0.0, 1.0]
],
  "dcmmeta_reorient_transform": [
    [0.0, -1.0, 0.0, 81.0],
    [1.0, 0.0, 0.0, 0.0],
    [0.0, 0.0, 1.0, 0.0],
    [0.0, 0.0, 0.0, 1.0]
],
  "dcmmeta_shape": [82, 82, 56, 872],
  "dcmmeta_slice_dim": 2,
  "dcmmeta_version": 0.6,
  "global": {
    "const": {
      "AccessionNumber": "A004333",
      "AcquisitionMatrix": [82, 0, 0, 82],
      "AngioFlag": "N",
      "BitsAllocated": 16,
      "BitsStored": 16,
      "BodyPartExamined": "BRAIN",
      "Columns": 656,
      "EchoNumbers": 1,
      "EchoTime": 27.2,
      "EchoTrainLength": 82,
      "FlipAngle": 44.0,
      "HighBit": 15,
      "ImageOrientationPatient": [0.99565316618038, -0.0102173629046, -0.0925763369887, 0.00590836920284, 0.99889146841196, -0.0467003801608],
      "ImagePositionPatient": [-889.21417421077, -882.07113832909, 47.037215490811],
      "ImageType": [
        "ORIGINAL",
        "PRIMARY",
        "M",
        "MB",
        "ND",
        "NORM",
        "MOSAIC"
],
      "ImagedNucleus": "1H",
      "ImagingFrequency": 123.259109,
      "InPlanePhaseEncodingDirection": "COL",
      "MRAcquisitionType": "2D",
      "MagneticFieldStrength": 3.0,
      "Manufacturer": "SIEMENS",
      "ManufacturerModelName": "Prisma",
      "Modality": "MR",
      "NumberOfAverages": 1.0,
      "NumberOfPhaseEncodingSteps": 82,
      "PercentPhaseFieldOfView": 100.0,
      "PercentSampling": 100.0,
      "PerformedProcedureStepStartTime": "152822.246000",
      "PhotometricInterpretation": "MONOCHROME2",
      "PixelBandwidth": 3050.0,
      "PixelRepresentation": 0,
      "PixelSpacing": [2.6829268932343, 2.6829268932343],
      "ProtocolName": "func_run-01_task-social_acq-ap-mb8",
      "RepetitionTime": 460.0,
      "Rows": 656,
      "SAR": 0.10694524206063,
      "SamplesPerPixel": 1,
      "ScanOptions": "FS",
      "ScanningSequence": "EP",
      "SequenceName": "epfid2d1_82",
      "SequenceVariant": [
        "SK",
        "SS"
],
      "SeriesDescription": "func_run-01_task-social_acq-ap-mb8",
      "SeriesNumber": 12,
      "SeriesTime": "155737.341000",
      "SliceLocation": -76.401079874302,
      "SliceThickness": 2.7000000476837,
      "SmallestImagePixelValue": 0,
      "SoftwareVersions": "syngo MR E11",
      "SpacingBetweenSlices": 2.6999999274298,
      "SpecificCharacterSet": "ISO_IR 100",
      "StudyID": "1",
      "StudyTime": "152822.130000",
      "TransmitCoilName": "Body",
      "VariableFlipAngleFlag": "N",
      "WindowCenterWidthExplanation": "Algo1"
    },
    "slices": {}
  },
  "time": {
    "samples": {
      "AcquisitionNumber": [1, 2, 3, 4, 5, 6, 7, 8, 9, 10, 11, 12, 13, 14, 15, 16, 17, 18, 19, 20, 21, 22, 23, 24, 25, 26, 27, 28, 29, 30, 31, 32, 33, 34, 35, 36, 37, 38, 39, 40, 41, 42, 43, 44, 45, 46, 47, 48, 49, 50, 51, 52, 53, 54, 55, 56, 57, 58, 59, 60, 61, 62, 63, 64, 65, 66, 67, 68, 69, 70, 71, 72, 73, 74, 75, 76, 77, 78, 79, 80, 81, 82, 83, 84, 85, 86, 87, 88, 89, 90, 91, 92, 93, 94, 95, 96, 97, 98, 99, 100, 101, 102, 103, 104, 105, 106, 107, 108, 109, 110, 111, 112, 113, 114, 115, 116, 117, 118, 119, 120, 121, 122, 123, 124, 125, 126, 127, 128, 129, 130, 131, 132, 133, 134, 135, 136, 137, 138, 139, 140, 141, 142, 143, 144, 145, 146, 147, 148, 149, 150, 151, 152, 153, 154, 155, 156, 157, 158, 159, 160, 161, 162, 163, 164, 165, 166, 167, 168, 169, 170, 171, 172, 173, 174, 175, 176, 177, 178, 179, 180, 181, 182, 183, 184, 185, 186, 187, 188, 189, 190, 191, 192, 193, 194, 195, 196, 197, 198, 199, 200, 201, 202, 203, 204, 205, 206, 207, 208, 209, 210, 211, 212, 213, 214, 215, 216, 217, 218, 219, 220, 221, 222, 223, 224, 225, 226, 227, 228, 229, 230, 231, 232, 233, 234, 235, 236, 237, 238, 239, 240, 241, 242, 243, 244, 245, 246, 247, 248, 249, 250, 251, 252, 253, 254, 255, 256, 257, 258, 259, 260, 261, 262, 263, 264, 265, 266, 267, 268, 269, 270, 271, 272, 273, 274, 275, 276, 277, 278, 279, 280, 281, 282, 283, 284, 285, 286, 287, 288, 289, 290, 291, 292, 293, 294, 295, 296, 297, 298, 299, 300, 301, 302, 303, 304, 305, 306, 307, 308, 309, 310, 311, 312, 313, 314, 315, 316, 317, 318, 319, 320, 321, 322, 323, 324, 325, 326, 327, 328, 329, 330, 331, 332, 333, 334, 335, 336, 337, 338, 339, 340, 341, 342, 343, 344, 345, 346, 347, 348, 349, 350, 351, 352, 353, 354, 355, 356, 357, 358, 359, 360, 361, 362, 363, 364, 365, 366, 367, 368, 369, 370, 371, 372, 373, 374, 375, 376, 377, 378, 379, 380, 381, 382, 383, 384, 385, 386, 387, 388, 389, 390, 391, 392, 393, 394, 395, 396, 397, 398, 399, 400, 401, 402, 403, 404, 405, 406, 407, 408, 409, 410, 411, 412, 413, 414, 415, 416, 417, 418, 419, 420, 421, 422, 423, 424, 425, 426, 427, 428, 429, 430, 431, 432, 433, 434, 435, 436, 437, 438, 439, 440, 441, 442, 443, 444, 445, 446, 447, 448, 449, 450, 451, 452, 453, 454, 455, 456, 457, 458, 459, 460, 461, 462, 463, 464, 465, 466, 467, 468, 469, 470, 471, 472, 473, 474, 475, 476, 477, 478, 479, 480, 481, 482, 483, 484, 485, 486, 487, 488, 489, 490, 491, 492, 493, 494, 495, 496, 497, 498, 499, 500, 501, 502, 503, 504, 505, 506, 507, 508, 509, 510, 511, 512, 513, 514, 515, 516, 517, 518, 519, 520, 521, 522, 523, 524, 525, 526, 527, 528, 529, 530, 531, 532, 533, 534, 535, 536, 537, 538, 539, 540, 541, 542, 543, 544, 545, 546, 547, 548, 549, 550, 551, 552, 553, 554, 555, 556, 557, 558, 559, 560, 561, 562, 563, 564, 565, 566, 567, 568, 569, 570, 571, 572, 573, 574, 575, 576, 577, 578, 579, 580, 581, 582, 583, 584, 585, 586, 587, 588, 589, 590, 591, 592, 593, 594, 595, 596, 597, 598, 599, 600, 601, 602, 603, 604, 605, 606, 607, 608, 609, 610, 611, 612, 613, 614, 615, 616, 617, 618, 619, 620, 621, 622, 623, 624, 625, 626, 627, 628, 629, 630, 631, 632, 633, 634, 635, 636, 637, 638, 639, 640, 641, 642, 643, 644, 645, 646, 647, 648, 649, 650, 651, 652, 653, 654, 655, 656, 657, 658, 659, 660, 661, 662, 663, 664, 665, 666, 667, 668, 669, 670, 671, 672, 673, 674, 675, 676, 677, 678, 679, 680, 681, 682, 683, 684, 685, 686, 687, 688, 689, 690, 691, 692, 693, 694, 695, 696, 697, 698, 699, 700, 701, 702, 703, 704, 705, 706, 707, 708, 709, 710, 711, 712, 713, 714, 715, 716, 717, 718, 719, 720, 721, 722, 723, 724, 725, 726, 727, 728, 729, 730, 731, 732, 733, 734, 735, 736, 737, 738, 739, 740, 741, 742, 743, 744, 745, 746, 747, 748, 749, 750, 751, 752, 753, 754, 755, 756, 757, 758, 759, 760, 761, 762, 763, 764, 765, 766, 767, 768, 769, 770, 771, 772, 773, 774, 775, 776, 777, 778, 779, 780, 781, 782, 783, 784, 785, 786, 787, 788, 789, 790, 791, 792, 793, 794, 795, 796, 797, 798, 799, 800, 801, 802, 803, 804, 805, 806, 807, 808, 809, 810, 811, 812, 813, 814, 815, 816, 817, 818, 819, 820, 821, 822, 823, 824, 825, 826, 827, 828, 829, 830, 831, 832, 833, 834, 835, 836, 837, 838, 839, 840, 841, 842, 843, 844, 845, 846, 847, 848, 849, 850, 851, 852, 853, 854, 855, 856, 857, 858, 859, 860, 861, 862, 863, 864, 865, 866, 867, 868, 869, 870, 871, 872],
      "AcquisitionTime": ["155713.130000", "155713.590000", "155714.050000", "155714.510000", "155714.970000", "155715.430000", "155715.890000", "155716.350000", "155716.810000", "155717.270000", "155717.730000", "155718.190000", "155718.650000", "155719.110000", "155719.570000", "155720.030000", "155720.490000", "155720.950000", "155721.410000", "155721.870000", "155722.330000", "155722.790000", "155723.250000", "155723.710000", "155724.170000", "155724.630000", "155725.090000", "155725.550000", "155726.010000", "155726.470000", "155726.930000", "155727.390000", "155727.850000", "155728.310000", "155728.770000", "155729.230000", "155729.690000", "155730.150000", "155730.610000", "155731.070000", "155731.530000", "155731.990000", "155732.450000", "155732.910000", "155733.370000", "155733.830000", "155734.290000", "155734.750000", "155735.210000", "155735.670000", "155736.130000", "155736.590000", "155737.050000", "155737.510000", "155737.970000", "155738.430000", "155738.890000", "155739.350000", "155739.810000", "155740.270000", "155740.730000", "155741.190000", "155741.650000", "155742.110000", "155742.570000", "155743.030000", "155743.490000", "155743.950000", "155744.410000", "155744.870000", "155745.330000", "155745.790000", "155746.250000", "155746.710000", "155747.170000", "155747.630000", "155748.090000", "155748.550000", "155749.010000", "155749.470000", "155749.930000", "155750.390000", "155750.850000", "155751.310000", "155751.770000", "155752.230000", "155752.690000", "155753.150000", "155753.610000", "155754.070000", "155754.530000", "155754.990000", "155755.450000", "155755.910000", "155756.370000", "155756.830000", "155757.290000", "155757.750000", "155758.210000", "155758.670000", "155759.130000", "155759.590000", "155800.050000", "155800.510000", "155800.970000", "155801.430000", "155801.890000", "155802.350000", "155802.810000", "155803.270000", "155803.730000", "155804.190000", "155804.650000", "155805.110000", "155805.570000", "155806.030000", "155806.490000", "155806.950000", "155807.410000", "155807.870000", "155808.330000", "155808.790000", "155809.250000", "155809.710000", "155810.170000", "155810.630000", "155811.090000", "155811.550000", "155812.010000", "155812.470000", "155812.930000", "155813.390000", "155813.850000", "155814.310000", "155814.770000", "155815.230000", "155815.690000", "155816.150000", "155816.610000", "155817.070000", "155817.530000", "155817.990000", "155818.450000", "155818.910000", "155819.370000", "155819.830000", "155820.290000", "155820.750000", "155821.210000", "155821.670000", "155822.130000", "155822.590000", "155823.050000", "155823.510000", "155823.970000", "155824.430000", "155824.890000", "155825.350000", "155825.810000", "155826.270000", "155826.730000", "155827.190000", "155827.650000", "155828.110000", "155828.570000", "155829.030000", "155829.490000", "155829.950000", "155830.410000", "155830.870000", "155831.330000", "155831.790000", "155832.250000", "155832.710000", "155833.170000", "155833.630000", "155834.090000", "155834.550000", "155835.010000", "155835.470000", "155835.930000", "155836.390000", "155836.850000", "155837.310000", "155837.770000", "155838.230000", "155838.690000", "155839.150000", "155839.610000", "155840.070000", "155840.530000", "155840.990000", "155841.450000", "155841.910000", "155842.370000", "155842.830000", "155843.290000", "155843.750000", "155844.210000", "155844.670000", "155845.130000", "155845.590000", "155846.050000", "155846.510000", "155846.970000", "155847.430000", "155847.890000", "155848.350000", "155848.810000", "155849.270000", "155849.730000", "155850.190000", "155850.650000", "155851.110000", "155851.570000", "155852.030000", "155852.490000", "155852.950000", "155853.410000", "155853.870000", "155854.330000", "155854.790000", "155855.250000", "155855.710000", "155856.170000", "155856.630000", "155857.090000", "155857.550000", "155858.010000", "155858.470000", "155858.930000", "155859.390000", "155859.850000", "155900.310000", "155900.770000", "155901.230000", "155901.690000", "155902.150000", "155902.610000", "155903.070000", "155903.530000", "155903.990000", "155904.450000", "155904.910000", "155905.370000", "155905.830000", "155906.290000", "155906.750000", "155907.210000", "155907.670000", "155908.130000", "155908.590000", "155909.050000", "155909.510000", "155909.970000", "155910.430000", "155910.890000", "155911.350000", "155911.810000", "155912.270000", "155912.730000", "155913.190000", "155913.650000", "155914.110000", "155914.570000", "155915.030000", "155915.490000", "155915.950000", "155916.410000", "155916.870000", "155917.330000", "155917.790000", "155918.250000", "155918.710000", "155919.170000", "155919.630000", "155920.090000", "155920.550000", "155921.010000", "155921.470000", "155921.930000", "155922.390000", "155922.850000", "155923.310000", "155923.770000", "155924.230000", "155924.690000", "155925.150000", "155925.610000", "155926.070000", "155926.530000", "155926.990000", "155927.450000", "155927.910000", "155928.370000", "155928.830000", "155929.290000", "155929.750000", "155930.210000", "155930.670000", "155931.130000", "155931.590000", "155932.050000", "155932.510000", "155932.970000", "155933.430000", "155933.890000", "155934.350000", "155934.810000", "155935.270000", "155935.730000", "155936.190000", "155936.650000", "155937.110000", "155937.570000", "155938.030000", "155938.490000", "155938.950000", "155939.410000", "155939.870000", "155940.330000", "155940.790000", "155941.250000", "155941.710000", "155942.170000", "155942.630000", "155943.090000", "155943.550000", "155944.010000", "155944.470000", "155944.930000", "155945.390000", "155945.850000", "155946.310000", "155946.770000", "155947.230000", "155947.690000", "155948.150000", "155948.610000", "155949.070000", "155949.530000", "155949.990000", "155950.450000", "155950.910000", "155951.370000", "155951.830000", "155952.290000", "155952.750000", "155953.210000", "155953.670000", "155954.130000", "155954.590000", "155955.050000", "155955.510000", "155955.970000", "155956.430000", "155956.890000", "155957.350000", "155957.810000", "155958.270000", "155958.730000", "155959.190000", "155959.650000", "160000.110000", "160000.570000", "160001.030000", "160001.490000", "160001.950000", "160002.410000", "160002.870000", "160003.330000", "160003.790000", "160004.250000", "160004.710000", "160005.170000", "160005.630000", "160006.090000", "160006.550000", "160007.010000", "160007.470000", "160007.930000", "160008.390000", "160008.850000", "160009.310000", "160009.770000", "160010.230000", "160010.690000", "160011.150000", "160011.610000", "160012.070000", "160012.530000", "160012.990000", "160013.450000", "160013.910000", "160014.370000", "160014.830000", "160015.290000", "160015.750000", "160016.210000", "160016.670000", "160017.130000", "160017.590000", "160018.050000", "160018.510000", "160018.970000", "160019.430000", "160019.890000", "160020.350000", "160020.810000", "160021.270000", "160021.730000", "160022.190000", "160022.650000", "160023.110000", "160023.570000", "160024.030000", "160024.490000", "160024.950000", "160025.410000", "160025.870000", "160026.330000", "160026.790000", "160027.250000", "160027.710000", "160028.170000", "160028.630000", "160029.090000", "160029.550000", "160030.010000", "160030.470000", "160030.930000", "160031.390000", "160031.850000", "160032.310000", "160032.770000", "160033.230000", "160033.690000", "160034.150000", "160034.610000", "160035.070000", "160035.530000", "160035.990000", "160036.450000", "160036.910000", "160037.370000", "160037.830000", "160038.290000", "160038.750000", "160039.210000", "160039.670000", "160040.130000", "160040.590000", "160041.050000", "160041.510000", "160041.970000", "160042.430000", "160042.890000", "160043.350000", "160043.810000", "160044.270000", "160044.730000", "160045.190000", "160045.650000", "160046.110000", "160046.570000", "160047.030000", "160047.490000", "160047.950000", "160048.410000", "160048.870000", "160049.330000", "160049.790000", "160050.250000", "160050.710000", "160051.170000", "160051.630000", "160052.090000", "160052.550000", "160053.010000", "160053.470000", "160053.930000", "160054.390000", "160054.850000", "160055.310000", "160055.770000", "160056.230000", "160056.690000", "160057.150000", "160057.610000", "160058.070000", "160058.530000", "160058.990000", "160059.450000", "160059.910000", "160100.370000", "160100.830000", "160101.290000", "160101.750000", "160102.210000", "160102.670000", "160103.130000", "160103.590000", "160104.050000", "160104.510000", "160104.970000", "160105.430000", "160105.890000", "160106.350000", "160106.810000", "160107.270000", "160107.730000", "160108.190000", "160108.650000", "160109.110000", "160109.570000", "160110.030000", "160110.490000", "160110.950000", "160111.410000", "160111.870000", "160112.330000", "160112.790000", "160113.250000", "160113.710000", "160114.170000", "160114.630000", "160115.090000", "160115.550000", "160116.010000", "160116.470000", "160116.930000", "160117.390000", "160117.850000", "160118.310000", "160118.770000", "160119.230000", "160119.690000", "160120.150000", "160120.610000", "160121.070000", "160121.530000", "160121.990000", "160122.450000", "160122.910000", "160123.370000", "160123.830000", "160124.290000", "160124.750000", "160125.210000", "160125.670000", "160126.130000", "160126.590000", "160127.050000", "160127.510000", "160127.970000", "160128.430000", "160128.890000", "160129.350000", "160129.810000", "160130.270000", "160130.730000", "160131.190000", "160131.650000", "160132.110000", "160132.570000", "160133.030000", "160133.490000", "160133.950000", "160134.410000", "160134.870000", "160135.330000", "160135.790000", "160136.250000", "160136.710000", "160137.170000", "160137.630000", "160138.090000", "160138.550000", "160139.010000", "160139.470000", "160139.930000", "160140.390000", "160140.850000", "160141.310000", "160141.770000", "160142.230000", "160142.690000", "160143.150000", "160143.610000", "160144.070000", "160144.530000", "160144.990000", "160145.450000", "160145.910000", "160146.370000", "160146.830000", "160147.290000", "160147.750000", "160148.210000", "160148.670000", "160149.130000", "160149.590000", "160150.050000", "160150.510000", "160150.970000", "160151.430000", "160151.890000", "160152.350000", "160152.810000", "160153.270000", "160153.730000", "160154.190000", "160154.650000", "160155.110000", "160155.570000", "160156.030000", "160156.490000", "160156.950000", "160157.410000", "160157.870000", "160158.330000", "160158.790000", "160159.250000", "160159.710000", "160200.170000", "160200.630000", "160201.090000", "160201.550000", "160202.010000", "160202.470000", "160202.930000", "160203.390000", "160203.850000", "160204.310000", "160204.770000", "160205.230000", "160205.690000", "160206.150000", "160206.610000", "160207.070000", "160207.530000", "160207.990000", "160208.450000", "160208.910000", "160209.370000", "160209.830000", "160210.290000", "160210.750000", "160211.210000", "160211.670000", "160212.130000", "160212.590000", "160213.050000", "160213.510000", "160213.970000", "160214.430000", "160214.890000", "160215.350000", "160215.810000", "160216.270000", "160216.730000", "160217.190000", "160217.650000", "160218.110000", "160218.570000", "160219.030000", "160219.490000", "160219.950000", "160220.410000", "160220.870000", "160221.330000", "160221.790000", "160222.250000", "160222.710000", "160223.170000", "160223.630000", "160224.090000", "160224.550000", "160225.010000", "160225.470000", "160225.930000", "160226.390000", "160226.850000", "160227.310000", "160227.770000", "160228.230000", "160228.690000", "160229.150000", "160229.610000", "160230.070000", "160230.530000", "160230.990000", "160231.450000", "160231.910000", "160232.370000", "160232.830000", "160233.290000", "160233.750000", "160234.210000", "160234.670000", "160235.130000", "160235.590000", "160236.050000", "160236.510000", "160236.970000", "160237.430000", "160237.890000", "160238.350000", "160238.810000", "160239.270000", "160239.730000", "160240.190000", "160240.650000", "160241.110000", "160241.570000", "160242.030000", "160242.490000", "160242.950000", "160243.410000", "160243.870000", "160244.330000", "160244.790000", "160245.250000", "160245.710000", "160246.170000", "160246.630000", "160247.090000", "160247.550000", "160248.010000", "160248.470000", "160248.930000", "160249.390000", "160249.850000", "160250.310000", "160250.770000", "160251.230000", "160251.690000", "160252.150000", "160252.610000", "160253.070000", "160253.530000", "160253.990000", "160254.450000", "160254.910000", "160255.370000", "160255.830000", "160256.290000", "160256.750000", "160257.210000", "160257.670000", "160258.130000", "160258.590000", "160259.050000", "160259.510000", "160259.970000", "160300.430000", "160300.890000", "160301.350000", "160301.810000", "160302.270000", "160302.730000", "160303.190000", "160303.650000", "160304.110000", "160304.570000", "160305.030000", "160305.490000", "160305.950000", "160306.410000", "160306.870000", "160307.330000", "160307.790000", "160308.250000", "160308.710000", "160309.170000", "160309.630000", "160310.090000", "160310.550000", "160311.010000", "160311.470000", "160311.930000", "160312.390000", "160312.850000", "160313.310000", "160313.770000", "160314.230000", "160314.690000", "160315.150000", "160315.610000", "160316.070000", "160316.530000", "160316.990000", "160317.450000", "160317.910000", "160318.370000", "160318.830000", "160319.290000", "160319.750000", "160320.210000", "160320.670000", "160321.130000", "160321.590000", "160322.050000", "160322.510000", "160322.970000", "160323.430000", "160323.890000", "160324.350000", "160324.810000", "160325.270000", "160325.730000", "160326.190000", "160326.650000", "160327.110000", "160327.570000", "160328.030000", "160328.490000", "160328.950000", "160329.410000", "160329.870000", "160330.330000", "160330.790000", "160331.250000", "160331.710000", "160332.170000", "160332.630000", "160333.090000", "160333.550000", "160334.010000", "160334.470000", "160334.930000", "160335.390000", "160335.850000", "160336.310000", "160336.770000", "160337.230000", "160337.690000", "160338.150000", "160338.610000", "160339.070000", "160339.530000", "160339.990000", "160340.450000", "160340.910000", "160341.370000", "160341.830000", "160342.290000", "160342.750000", "160343.210000", "160343.670000", "160344.130000", "160344.590000", "160345.050000", "160345.510000", "160345.970000", "160346.430000", "160346.890000", "160347.350000", "160347.810000", "160348.270000", "160348.730000", "160349.190000", "160349.650000", "160350.110000", "160350.570000", "160351.030000", "160351.490000", "160351.950000", "160352.410000", "160352.870000", "160353.330000", "160353.790000"],
