{
  "AcquisitionMatrixPE": 82,
  "AcquisitionNumber": 1,
  "AcquisitionTime": "16:04:13.817500",
  "BandwidthPerPixelPhaseEncode": 24.888,
  "BaseResolution": 82,
  "BodyPartExamined": "BRAIN",
  "ConsistencyInfo": "N4_VE11E_LATEST_20181129",
  "ConversionSoftware": "dcm2niix",
  "ConversionSoftwareVersion": "v1.0.20201102",
  "DerivedVendorReportedEchoSpacing": 0.00049,
  "DeviceSerialNumber": "66112",
  "DwellTime": 2e-06,
  "EchoTime": 0.0272,
  "EchoTrainLength": 82,
  "EffectiveEchoSpacing": 0.00049,
  "FlipAngle": 44,
  "ImageComments": "Unaliased MB8/PE3",
  "ImageOrientationPatientDICOM": [0.995653, -0.0102174, -0.0925763, 0.00590837, 0.998891, -0.0467004],
  "ImageType": [
    "ORIGINAL",
    "PRIMARY",
    "M",
    "MB",
    "ND",
    "NORM",
    "MOSAIC"
],
  "ImagingFrequency": 123.259,
  "InPlanePhaseEncodingDirectionDICOM": "COL",
  "InstitutionAddress": "Maynard 3,Hanover,NH,US,03755",
  "InstitutionName": "Dartmouth College - PBS",
  "InstitutionalDepartmentName": "Department",
  "MRAcquisitionType": "2D",
  "MagneticFieldStrength": 3,
  "Manufacturer": "Siemens",
  "ManufacturersModelName": "Prisma",
  "Modality": "MR",
  "MultibandAccelerationFactor": 8,
  "PartialFourier": 1,
  "PatientPosition": "HFS",
  "PercentPhaseFOV": 100,
  "PercentSampling": 100,
  "PhaseEncodingDirection": "j-",
  "PhaseEncodingSteps": 82,
  "PhaseResolution": 1,
  "PixelBandwidth": 3050,
  "ProcedureStepDescription": "Wager_Wager^1076_spacetop",
  "ProtocolName": "func_run-02_task-social_acq-ap-mb8",
  "PulseSequenceDetails": "%CustomerSeq%\\cmrr_mbep2d_bold",
  "ReceiveCoilActiveElements": "HEA;HEP",
  "ReceiveCoilName": "Head_32",
  "ReconMatrixPE": 82,
  "RepetitionTime": 0.46,
  "SAR": 0.106945,
  "ScanOptions": "FS",
  "ScanningSequence": "EP",
  "SequenceName": "epfid2d1_82",
  "SequenceVariant": "SK\\SS",
  "SeriesDescription": "func_run-02_task-social_acq-ap-mb8",
  "SeriesNumber": 14,
  "ShimSetting": [4210, -7805, -7282, 233, -94, -77, -62, 105],
  "SliceThickness": 2.7,
  "SliceTiming": [0, 0.25, 0.0625, 0.3125, 0.125, 0.375, 0.1875, 0, 0.25, 0.0625, 0.3125, 0.125, 0.375, 0.1875, 0, 0.25, 0.0625, 0.3125, 0.125, 0.375, 0.1875, 0, 0.25, 0.0625, 0.3125, 0.125, 0.375, 0.1875, 0, 0.25, 0.0625, 0.3125, 0.125, 0.375, 0.1875, 0, 0.25, 0.0625, 0.3125, 0.125, 0.375, 0.1875, 0, 0.25, 0.0625, 0.3125, 0.125, 0.375, 0.1875, 0, 0.25, 0.0625, 0.3125, 0.125, 0.375, 0.1875],
  "SoftwareVersions": "syngo MR E11",
  "SpacingBetweenSlices": 2.7,
  "StationName": "AWP66112",
  "TaskName": "social",
  "TotalReadoutTime": 0.03969,
  "TxRefAmp": 260.66,
  "WipMemBlock": "2947c551-0809-4894-a8a9-92204de1075b||Sequence: R016 ve11e/master r/434b28f1; Aug  7 2019 18:53:46 by eja",
  "dcmmeta_affine": [
    [-2.6712646484375, 0.01585172303020954, -0.2509673237800598, 116.727783203125],
    [0.02741243690252304, 2.67995285987854, -0.12406609207391739, -96.28411865234375],
    [-0.2483755499124527, 0.12529370188713074, 2.6854465007781982, -70.35465240478516],
    [0.0, 0.0, 0.0, 1.0]
],
  "dcmmeta_reorient_transform": [
    [0.0, -1.0, 0.0, 81.0],
    [1.0, 0.0, 0.0, 0.0],
    [0.0, 0.0, 1.0, 0.0],
    [0.0, 0.0, 0.0, 1.0]
],
  "dcmmeta_shape": [82, 82, 56, 872],
  "dcmmeta_slice_dim": 2,
  "dcmmeta_version": 0.6,
  "global": {
    "const": {
      "AccessionNumber": "A004333",
      "AcquisitionMatrix": [82, 0, 0, 82],
      "AngioFlag": "N",
      "BitsAllocated": 16,
      "BitsStored": 16,
      "BodyPartExamined": "BRAIN",
      "Columns": 656,
      "EchoNumbers": 1,
      "EchoTime": 27.2,
      "EchoTrainLength": 82,
      "FlipAngle": 44.0,
      "HighBit": 15,
      "ImageOrientationPatient": [0.99565316618038, -0.0102173629046, -0.0925763369887, 0.00590836920284, 0.99889146841196, -0.0467003801608],
      "ImagePositionPatient": [-889.21417421077, -882.07113832909, 47.037215490811],
      "ImageType": [
        "ORIGINAL",
        "PRIMARY",
        "M",
        "MB",
        "ND",
        "NORM",
        "MOSAIC"
],
      "ImagedNucleus": "1H",
      "ImagingFrequency": 123.259121,
      "InPlanePhaseEncodingDirection": "COL",
      "MRAcquisitionType": "2D",
      "MagneticFieldStrength": 3.0,
      "Manufacturer": "SIEMENS",
      "ManufacturerModelName": "Prisma",
      "Modality": "MR",
      "NumberOfAverages": 1.0,
      "NumberOfPhaseEncodingSteps": 82,
      "PercentPhaseFieldOfView": 100.0,
      "PercentSampling": 100.0,
      "PerformedProcedureStepStartTime": "152822.246000",
      "PhotometricInterpretation": "MONOCHROME2",
      "PixelBandwidth": 3050.0,
      "PixelRepresentation": 0,
      "PixelSpacing": [2.6829268932343, 2.6829268932343],
      "ProtocolName": "func_run-02_task-social_acq-ap-mb8",
      "RepetitionTime": 460.0,
      "Rows": 656,
      "SAR": 0.10694524206063,
      "SamplesPerPixel": 1,
      "ScanOptions": "FS",
      "ScanningSequence": "EP",
      "SequenceName": "epfid2d1_82",
      "SequenceVariant": [
        "SK",
        "SS"
],
      "SeriesDescription": "func_run-02_task-social_acq-ap-mb8",
      "SeriesNumber": 14,
      "SeriesTime": "160437.396000",
      "SliceLocation": -76.401079874302,
      "SliceThickness": 2.7000000476837,
      "SmallestImagePixelValue": 0,
      "SoftwareVersions": "syngo MR E11",
      "SpacingBetweenSlices": 2.6999999274298,
      "SpecificCharacterSet": "ISO_IR 100",
      "StudyID": "1",
      "StudyTime": "152822.130000",
      "TransmitCoilName": "Body",
      "VariableFlipAngleFlag": "N",
      "WindowCenterWidthExplanation": "Algo1"
    },
    "slices": {}
  },
  "time": {
    "samples": {
      "AcquisitionNumber": [1, 2, 3, 4, 5, 6, 7, 8, 9, 10, 11, 12, 13, 14, 15, 16, 17, 18, 19, 20, 21, 22, 23, 24, 25, 26, 27, 28, 29, 30, 31, 32, 33, 34, 35, 36, 37, 38, 39, 40, 41, 42, 43, 44, 45, 46, 47, 48, 49, 50, 51, 52, 53, 54, 55, 56, 57, 58, 59, 60, 61, 62, 63, 64, 65, 66, 67, 68, 69, 70, 71, 72, 73, 74, 75, 76, 77, 78, 79, 80, 81, 82, 83, 84, 85, 86, 87, 88, 89, 90, 91, 92, 93, 94, 95, 96, 97, 98, 99, 100, 101, 102, 103, 104, 105, 106, 107, 108, 109, 110, 111, 112, 113, 114, 115, 116, 117, 118, 119, 120, 121, 122, 123, 124, 125, 126, 127, 128, 129, 130, 131, 132, 133, 134, 135, 136, 137, 138, 139, 140, 141, 142, 143, 144, 145, 146, 147, 148, 149, 150, 151, 152, 153, 154, 155, 156, 157, 158, 159, 160, 161, 162, 163, 164, 165, 166, 167, 168, 169, 170, 171, 172, 173, 174, 175, 176, 177, 178, 179, 180, 181, 182, 183, 184, 185, 186, 187, 188, 189, 190, 191, 192, 193, 194, 195, 196, 197, 198, 199, 200, 201, 202, 203, 204, 205, 206, 207, 208, 209, 210, 211, 212, 213, 214, 215, 216, 217, 218, 219, 220, 221, 222, 223, 224, 225, 226, 227, 228, 229, 230, 231, 232, 233, 234, 235, 236, 237, 238, 239, 240, 241, 242, 243, 244, 245, 246, 247, 248, 249, 250, 251, 252, 253, 254, 255, 256, 257, 258, 259, 260, 261, 262, 263, 264, 265, 266, 267, 268, 269, 270, 271, 272, 273, 274, 275, 276, 277, 278, 279, 280, 281, 282, 283, 284, 285, 286, 287, 288, 289, 290, 291, 292, 293, 294, 295, 296, 297, 298, 299, 300, 301, 302, 303, 304, 305, 306, 307, 308, 309, 310, 311, 312, 313, 314, 315, 316, 317, 318, 319, 320, 321, 322, 323, 324, 325, 326, 327, 328, 329, 330, 331, 332, 333, 334, 335, 336, 337, 338, 339, 340, 341, 342, 343, 344, 345, 346, 347, 348, 349, 350, 351, 352, 353, 354, 355, 356, 357, 358, 359, 360, 361, 362, 363, 364, 365, 366, 367, 368, 369, 370, 371, 372, 373, 374, 375, 376, 377, 378, 379, 380, 381, 382, 383, 384, 385, 386, 387, 388, 389, 390, 391, 392, 393, 394, 395, 396, 397, 398, 399, 400, 401, 402, 403, 404, 405, 406, 407, 408, 409, 410, 411, 412, 413, 414, 415, 416, 417, 418, 419, 420, 421, 422, 423, 424, 425, 426, 427, 428, 429, 430, 431, 432, 433, 434, 435, 436, 437, 438, 439, 440, 441, 442, 443, 444, 445, 446, 447, 448, 449, 450, 451, 452, 453, 454, 455, 456, 457, 458, 459, 460, 461, 462, 463, 464, 465, 466, 467, 468, 469, 470, 471, 472, 473, 474, 475, 476, 477, 478, 479, 480, 481, 482, 483, 484, 485, 486, 487, 488, 489, 490, 491, 492, 493, 494, 495, 496, 497, 498, 499, 500, 501, 502, 503, 504, 505, 506, 507, 508, 509, 510, 511, 512, 513, 514, 515, 516, 517, 518, 519, 520, 521, 522, 523, 524, 525, 526, 527, 528, 529, 530, 531, 532, 533, 534, 535, 536, 537, 538, 539, 540, 541, 542, 543, 544, 545, 546, 547, 548, 549, 550, 551, 552, 553, 554, 555, 556, 557, 558, 559, 560, 561, 562, 563, 564, 565, 566, 567, 568, 569, 570, 571, 572, 573, 574, 575, 576, 577, 578, 579, 580, 581, 582, 583, 584, 585, 586, 587, 588, 589, 590, 591, 592, 593, 594, 595, 596, 597, 598, 599, 600, 601, 602, 603, 604, 605, 606, 607, 608, 609, 610, 611, 612, 613, 614, 615, 616, 617, 618, 619, 620, 621, 622, 623, 624, 625, 626, 627, 628, 629, 630, 631, 632, 633, 634, 635, 636, 637, 638, 639, 640, 641, 642, 643, 644, 645, 646, 647, 648, 649, 650, 651, 652, 653, 654, 655, 656, 657, 658, 659, 660, 661, 662, 663, 664, 665, 666, 667, 668, 669, 670, 671, 672, 673, 674, 675, 676, 677, 678, 679, 680, 681, 682, 683, 684, 685, 686, 687, 688, 689, 690, 691, 692, 693, 694, 695, 696, 697, 698, 699, 700, 701, 702, 703, 704, 705, 706, 707, 708, 709, 710, 711, 712, 713, 714, 715, 716, 717, 718, 719, 720, 721, 722, 723, 724, 725, 726, 727, 728, 729, 730, 731, 732, 733, 734, 735, 736, 737, 738, 739, 740, 741, 742, 743, 744, 745, 746, 747, 748, 749, 750, 751, 752, 753, 754, 755, 756, 757, 758, 759, 760, 761, 762, 763, 764, 765, 766, 767, 768, 769, 770, 771, 772, 773, 774, 775, 776, 777, 778, 779, 780, 781, 782, 783, 784, 785, 786, 787, 788, 789, 790, 791, 792, 793, 794, 795, 796, 797, 798, 799, 800, 801, 802, 803, 804, 805, 806, 807, 808, 809, 810, 811, 812, 813, 814, 815, 816, 817, 818, 819, 820, 821, 822, 823, 824, 825, 826, 827, 828, 829, 830, 831, 832, 833, 834, 835, 836, 837, 838, 839, 840, 841, 842, 843, 844, 845, 846, 847, 848, 849, 850, 851, 852, 853, 854, 855, 856, 857, 858, 859, 860, 861, 862, 863, 864, 865, 866, 867, 868, 869, 870, 871, 872],
      "AcquisitionTime": ["160413.817500", "160414.277500", "160414.737500", "160415.197500", "160415.657500", "160416.117500", "160416.577500", "160417.037500", "160417.497500", "160417.957500", "160418.417500", "160418.877500", "160419.337500", "160419.797500", "160420.257500", "160420.717500", "160421.177500", "160421.637500", "160422.097500", "160422.557500", "160423.017500", "160423.477500", "160423.937500", "160424.397500", "160424.857500", "160425.317500", "160425.777500", "160426.237500", "160426.697500", "160427.157500", "160427.617500", "160428.077500", "160428.537500", "160428.997500", "160429.457500", "160429.917500", "160430.377500", "160430.837500", "160431.297500", "160431.757500", "160432.217500", "160432.677500", "160433.137500", "160433.597500", "160434.057500", "160434.517500", "160434.977500", "160435.437500", "160435.897500", "160436.357500", "160436.817500", "160437.277500", "160437.737500", "160438.197500", "160438.657500", "160439.117500", "160439.577500", "160440.037500", "160440.497500", "160440.957500", "160441.417500", "160441.877500", "160442.337500", "160442.797500", "160443.257500", "160443.717500", "160444.177500", "160444.637500", "160445.097500", "160445.557500", "160446.017500", "160446.477500", "160446.937500", "160447.397500", "160447.857500", "160448.317500", "160448.777500", "160449.237500", "160449.697500", "160450.157500", "160450.617500", "160451.077500", "160451.537500", "160451.997500", "160452.457500", "160452.917500", "160453.377500", "160453.837500", "160454.297500", "160454.757500", "160455.217500", "160455.677500", "160456.137500", "160456.597500", "160457.057500", "160457.517500", "160457.977500", "160458.437500", "160458.897500", "160459.357500", "160459.817500", "160500.277500", "160500.737500", "160501.197500", "160501.657500", "160502.117500", "160502.577500", "160503.037500", "160503.497500", "160503.957500", "160504.417500", "160504.877500", "160505.337500", "160505.797500", "160506.257500", "160506.717500", "160507.177500", "160507.637500", "160508.097500", "160508.557500", "160509.017500", "160509.477500", "160509.937500", "160510.397500", "160510.857500", "160511.317500", "160511.777500", "160512.237500", "160512.697500", "160513.157500", "160513.617500", "160514.077500", "160514.537500", "160514.997500", "160515.457500", "160515.917500", "160516.377500", "160516.837500", "160517.297500", "160517.757500", "160518.217500", "160518.677500", "160519.137500", "160519.597500", "160520.057500", "160520.517500", "160520.977500", "160521.437500", "160521.897500", "160522.357500", "160522.817500", "160523.277500", "160523.737500", "160524.197500", "160524.657500", "160525.117500", "160525.577500", "160526.037500", "160526.497500", "160526.957500", "160527.417500", "160527.877500", "160528.337500", "160528.797500", "160529.257500", "160529.717500", "160530.177500", "160530.637500", "160531.097500", "160531.557500", "160532.017500", "160532.477500", "160532.937500", "160533.397500", "160533.857500", "160534.317500", "160534.777500", "160535.237500", "160535.697500", "160536.157500", "160536.617500", "160537.077500", "160537.537500", "160537.997500", "160538.457500", "160538.917500", "160539.377500", "160539.837500", "160540.297500", "160540.757500", "160541.217500", "160541.677500", "160542.137500", "160542.597500", "160543.057500", "160543.517500", "160543.977500", "160544.437500", "160544.897500", "160545.357500", "160545.817500", "160546.277500", "160546.737500", "160547.197500", "160547.657500", "160548.117500", "160548.577500", "160549.037500", "160549.497500", "160549.957500", "160550.417500", "160550.877500", "160551.337500", "160551.797500", "160552.257500", "160552.717500", "160553.177500", "160553.637500", "160554.097500", "160554.557500", "160555.017500", "160555.477500", "160555.937500", "160556.397500", "160556.857500", "160557.317500", "160557.777500", "160558.237500", "160558.697500", "160559.157500", "160559.617500", "160600.077500", "160600.537500", "160600.997500", "160601.457500", "160601.917500", "160602.377500", "160602.837500", "160603.297500", "160603.757500", "160604.217500", "160604.677500", "160605.137500", "160605.597500", "160606.057500", "160606.517500", "160606.977500", "160607.437500", "160607.897500", "160608.357500", "160608.817500", "160609.277500", "160609.737500", "160610.197500", "160610.657500", "160611.117500", "160611.577500", "160612.037500", "160612.497500", "160612.957500", "160613.417500", "160613.877500", "160614.337500", "160614.797500", "160615.257500", "160615.717500", "160616.177500", "160616.637500", "160617.097500", "160617.557500", "160618.017500", "160618.477500", "160618.937500", "160619.397500", "160619.857500", "160620.317500", "160620.777500", "160621.237500", "160621.697500", "160622.157500", "160622.617500", "160623.077500", "160623.537500", "160623.997500", "160624.457500", "160624.917500", "160625.377500", "160625.837500", "160626.297500", "160626.757500", "160627.217500", "160627.677500", "160628.137500", "160628.597500", "160629.057500", "160629.517500", "160629.977500", "160630.437500", "160630.897500", "160631.357500", "160631.817500", "160632.277500", "160632.737500", "160633.197500", "160633.657500", "160634.117500", "160634.577500", "160635.037500", "160635.497500", "160635.957500", "160636.417500", "160636.877500", "160637.337500", "160637.797500", "160638.257500", "160638.717500", "160639.177500", "160639.637500", "160640.097500", "160640.557500", "160641.017500", "160641.477500", "160641.937500", "160642.397500", "160642.857500", "160643.317500", "160643.777500", "160644.237500", "160644.697500", "160645.157500", "160645.617500", "160646.077500", "160646.537500", "160646.997500", "160647.457500", "160647.917500", "160648.377500", "160648.837500", "160649.297500", "160649.757500", "160650.217500", "160650.677500", "160651.137500", "160651.597500", "160652.057500", "160652.517500", "160652.977500", "160653.437500", "160653.897500", "160654.357500", "160654.817500", "160655.277500", "160655.737500", "160656.197500", "160656.657500", "160657.117500", "160657.577500", "160658.037500", "160658.497500", "160658.957500", "160659.417500", "160659.877500", "160700.337500", "160700.797500", "160701.257500", "160701.717500", "160702.177500", "160702.637500", "160703.097500", "160703.557500", "160704.017500", "160704.477500", "160704.937500", "160705.397500", "160705.857500", "160706.317500", "160706.777500", "160707.237500", "160707.697500", "160708.157500", "160708.617500", "160709.077500", "160709.537500", "160709.997500", "160710.457500", "160710.917500", "160711.377500", "160711.837500", "160712.297500", "160712.757500", "160713.217500", "160713.677500", "160714.137500", "160714.597500", "160715.057500", "160715.517500", "160715.977500", "160716.437500", "160716.897500", "160717.357500", "160717.817500", "160718.277500", "160718.737500", "160719.197500", "160719.657500", "160720.117500", "160720.577500", "160721.037500", "160721.497500", "160721.957500", "160722.417500", "160722.877500", "160723.337500", "160723.797500", "160724.257500", "160724.717500", "160725.177500", "160725.637500", "160726.097500", "160726.557500", "160727.017500", "160727.477500", "160727.937500", "160728.397500", "160728.857500", "160729.317500", "160729.777500", "160730.237500", "160730.697500", "160731.157500", "160731.617500", "160732.077500", "160732.537500", "160732.997500", "160733.457500", "160733.917500", "160734.377500", "160734.837500", "160735.297500", "160735.757500", "160736.217500", "160736.677500", "160737.137500", "160737.597500", "160738.057500", "160738.517500", "160738.977500", "160739.437500", "160739.897500", "160740.357500", "160740.817500", "160741.277500", "160741.737500", "160742.197500", "160742.657500", "160743.117500", "160743.577500", "160744.037500", "160744.497500", "160744.957500", "160745.417500", "160745.877500", "160746.337500", "160746.797500", "160747.257500", "160747.717500", "160748.177500", "160748.637500", "160749.097500", "160749.557500", "160750.017500", "160750.477500", "160750.937500", "160751.397500", "160751.857500", "160752.317500", "160752.777500", "160753.237500", "160753.697500", "160754.157500", "160754.617500", "160755.077500", "160755.537500", "160755.997500", "160756.457500", "160756.917500", "160757.377500", "160757.837500", "160758.297500", "160758.757500", "160759.217500", "160759.677500", "160800.137500", "160800.597500", "160801.057500", "160801.517500", "160801.977500", "160802.437500", "160802.897500", "160803.357500", "160803.817500", "160804.277500", "160804.737500", "160805.197500", "160805.657500", "160806.117500", "160806.577500", "160807.037500", "160807.497500", "160807.957500", "160808.417500", "160808.877500", "160809.337500", "160809.797500", "160810.257500", "160810.717500", "160811.177500", "160811.637500", "160812.097500", "160812.557500", "160813.017500", "160813.477500", "160813.937500", "160814.397500", "160814.857500", "160815.317500", "160815.777500", "160816.237500", "160816.697500", "160817.157500", "160817.617500", "160818.077500", "160818.537500", "160818.997500", "160819.457500", "160819.917500", "160820.377500", "160820.837500", "160821.297500", "160821.757500", "160822.217500", "160822.677500", "160823.137500", "160823.597500", "160824.057500", "160824.517500", "160824.977500", "160825.437500", "160825.897500", "160826.357500", "160826.817500", "160827.277500", "160827.737500", "160828.197500", "160828.657500", "160829.117500", "160829.577500", "160830.037500", "160830.497500", "160830.957500", "160831.417500", "160831.877500", "160832.337500", "160832.797500", "160833.257500", "160833.717500", "160834.177500", "160834.637500", "160835.097500", "160835.557500", "160836.017500", "160836.477500", "160836.937500", "160837.397500", "160837.857500", "160838.317500", "160838.777500", "160839.237500", "160839.697500", "160840.157500", "160840.617500", "160841.077500", "160841.537500", "160841.997500", "160842.457500", "160842.917500", "160843.377500", "160843.837500", "160844.297500", "160844.757500", "160845.217500", "160845.677500", "160846.137500", "160846.597500", "160847.057500", "160847.517500", "160847.977500", "160848.437500", "160848.897500", "160849.357500", "160849.817500", "160850.277500", "160850.737500", "160851.197500", "160851.657500", "160852.117500", "160852.577500", "160853.037500", "160853.497500", "160853.957500", "160854.417500", "160854.877500", "160855.337500", "160855.797500", "160856.257500", "160856.717500", "160857.177500", "160857.637500", "160858.097500", "160858.557500", "160859.017500", "160859.477500", "160859.937500", "160900.397500", "160900.857500", "160901.317500", "160901.777500", "160902.237500", "160902.697500", "160903.157500", "160903.617500", "160904.077500", "160904.537500", "160904.997500", "160905.457500", "160905.917500", "160906.377500", "160906.837500", "160907.297500", "160907.757500", "160908.217500", "160908.677500", "160909.137500", "160909.597500", "160910.057500", "160910.517500", "160910.977500", "160911.437500", "160911.897500", "160912.357500", "160912.817500", "160913.277500", "160913.737500", "160914.197500", "160914.657500", "160915.117500", "160915.577500", "160916.037500", "160916.497500", "160916.957500", "160917.417500", "160917.877500", "160918.337500", "160918.797500", "160919.257500", "160919.717500", "160920.177500", "160920.637500", "160921.097500", "160921.557500", "160922.017500", "160922.477500", "160922.937500", "160923.397500", "160923.857500", "160924.317500", "160924.777500", "160925.237500", "160925.697500", "160926.157500", "160926.617500", "160927.077500", "160927.537500", "160927.997500", "160928.457500", "160928.917500", "160929.377500", "160929.837500", "160930.297500", "160930.757500", "160931.217500", "160931.677500", "160932.137500", "160932.597500", "160933.057500", "160933.517500", "160933.977500", "160934.437500", "160934.897500", "160935.357500", "160935.817500", "160936.277500", "160936.737500", "160937.197500", "160937.657500", "160938.117500", "160938.577500", "160939.037500", "160939.497500", "160939.957500", "160940.417500", "160940.877500", "160941.337500", "160941.797500", "160942.257500", "160942.717500", "160943.177500", "160943.637500", "160944.097500", "160944.557500", "160945.017500", "160945.477500", "160945.937500", "160946.397500", "160946.857500", "160947.317500", "160947.777500", "160948.237500", "160948.697500", "160949.157500", "160949.617500", "160950.077500", "160950.537500", "160950.997500", "160951.457500", "160951.917500", "160952.377500", "160952.837500", "160953.297500", "160953.757500", "160954.217500", "160954.677500", "160955.137500", "160955.597500", "160956.057500", "160956.517500", "160956.977500", "160957.437500", "160957.897500", "160958.357500", "160958.817500", "160959.277500", "160959.737500", "161000.197500", "161000.657500", "161001.117500", "161001.577500", "161002.037500", "161002.497500", "161002.957500", "161003.417500", "161003.877500", "161004.337500", "161004.797500", "161005.257500", "161005.717500", "161006.177500", "161006.637500", "161007.097500", "161007.557500", "161008.017500", "161008.477500", "161008.937500", "161009.397500", "161009.857500", "161010.317500", "161010.777500", "161011.237500", "161011.697500", "161012.157500", "161012.617500", "161013.077500", "161013.537500", "161013.997500", "161014.457500", "161014.917500", "161015.377500", "161015.837500", "161016.297500", "161016.757500", "161017.217500", "161017.677500", "161018.137500", "161018.597500", "161019.057500", "161019.517500", "161019.977500", "161020.437500", "161020.897500", "161021.357500", "161021.817500", "161022.277500", "161022.737500", "161023.197500", "161023.657500", "161024.117500", "161024.577500", "161025.037500", "161025.497500", "161025.957500", "161026.417500", "161026.877500", "161027.337500", "161027.797500", "161028.257500", "161028.717500", "161029.177500", "161029.637500", "161030.097500", "161030.557500", "161031.017500", "161031.477500", "161031.937500", "161032.397500", "161032.857500", "161033.317500", "161033.777500", "161034.237500", "161034.697500", "161035.157500", "161035.617500", "161036.077500", "161036.537500", "161036.997500", "161037.457500", "161037.917500", "161038.377500", "161038.837500", "161039.297500", "161039.757500", "161040.217500", "161040.677500", "161041.137500", "161041.597500", "161042.057500", "161042.517500", "161042.977500", "161043.437500", "161043.897500", "161044.357500", "161044.817500", "161045.277500", "161045.737500", "161046.197500", "161046.657500", "161047.117500", "161047.577500", "161048.037500", "161048.497500", "161048.957500", "161049.417500", "161049.877500", "161050.337500", "161050.797500", "161051.257500", "161051.717500", "161052.177500", "161052.637500", "161053.097500", "161053.557500", "161054.017500", "161054.477500"],
