{
  "AcquisitionMatrixPE": 82,
  "AcquisitionNumber": 1,
  "AcquisitionTime": "16:11:21.320000",
  "BandwidthPerPixelPhaseEncode": 24.888,
  "BaseResolution": 82,
  "BodyPartExamined": "BRAIN",
  "ConsistencyInfo": "N4_VE11E_LATEST_20181129",
  "ConversionSoftware": "dcm2niix",
  "ConversionSoftwareVersion": "v1.0.20201102",
  "DerivedVendorReportedEchoSpacing": 0.00049,
  "DeviceSerialNumber": "66112",
  "DwellTime": 2e-06,
  "EchoTime": 0.0272,
  "EchoTrainLength": 82,
  "EffectiveEchoSpacing": 0.00049,
  "FlipAngle": 44,
  "ImageComments": "Unaliased MB8/PE3",
  "ImageOrientationPatientDICOM": [0.995653, -0.0102174, -0.0925763, 0.00590837, 0.998891, -0.0467004],
  "ImageType": [
    "ORIGINAL",
    "PRIMARY",
    "M",
    "MB",
    "ND",
    "NORM",
    "MOSAIC"
],
  "ImagingFrequency": 123.259,
  "InPlanePhaseEncodingDirectionDICOM": "COL",
  "InstitutionAddress": "Maynard 3,Hanover,NH,US,03755",
  "InstitutionName": "Dartmouth College - PBS",
  "InstitutionalDepartmentName": "Department",
  "MRAcquisitionType": "2D",
  "MagneticFieldStrength": 3,
  "Manufacturer": "Siemens",
  "ManufacturersModelName": "Prisma",
  "Modality": "MR",
  "MultibandAccelerationFactor": 8,
  "PartialFourier": 1,
  "PatientPosition": "HFS",
  "PercentPhaseFOV": 100,
  "PercentSampling": 100,
  "PhaseEncodingDirection": "j-",
  "PhaseEncodingSteps": 82,
  "PhaseResolution": 1,
  "PixelBandwidth": 3050,
  "ProcedureStepDescription": "Wager_Wager^1076_spacetop",
  "ProtocolName": "func_run-03_task-social_acq-ap-mb8",
  "PulseSequenceDetails": "%CustomerSeq%\\cmrr_mbep2d_bold",
  "ReceiveCoilActiveElements": "HEA;HEP",
  "ReceiveCoilName": "Head_32",
  "ReconMatrixPE": 82,
  "RepetitionTime": 0.46,
  "SAR": 0.106945,
  "ScanOptions": "FS",
  "ScanningSequence": "EP",
  "SequenceName": "epfid2d1_82",
  "SequenceVariant": "SK\\SS",
  "SeriesDescription": "func_run-03_task-social_acq-ap-mb8",
  "SeriesNumber": 16,
  "ShimSetting": [4210, -7805, -7282, 233, -94, -77, -62, 105],
  "SliceThickness": 2.7,
  "SliceTiming": [0, 0.25, 0.0625, 0.3125, 0.125, 0.3775, 0.1875, 0, 0.25, 0.0625, 0.3125, 0.125, 0.3775, 0.1875, 0, 0.25, 0.0625, 0.3125, 0.125, 0.3775, 0.1875, 0, 0.25, 0.0625, 0.3125, 0.125, 0.3775, 0.1875, 0, 0.25, 0.0625, 0.3125, 0.125, 0.3775, 0.1875, 0, 0.25, 0.0625, 0.3125, 0.125, 0.3775, 0.1875, 0, 0.25, 0.0625, 0.3125, 0.125, 0.3775, 0.1875, 0, 0.25, 0.0625, 0.3125, 0.125, 0.3775, 0.1875],
  "SoftwareVersions": "syngo MR E11",
  "SpacingBetweenSlices": 2.7,
  "StationName": "AWP66112",
  "TaskName": "social",
  "TotalReadoutTime": 0.03969,
  "TxRefAmp": 260.66,
  "WipMemBlock": "d0177656-0a3a-49ff-b0c1-8520345a2a97||Sequence: R016 ve11e/master r/434b28f1; Aug  7 2019 18:53:46 by eja",
  "dcmmeta_affine": [
    [-2.6712646484375, 0.01585172303020954, -0.2509673237800598, 116.727783203125],
    [0.02741243690252304, 2.67995285987854, -0.12406609207391739, -96.28411865234375],
    [-0.2483755499124527, 0.12529370188713074, 2.6854465007781982, -70.35465240478516],
    [0.0, 0.0, 0.0, 1.0]
],
  "dcmmeta_reorient_transform": [
    [0.0, -1.0, 0.0, 81.0],
    [1.0, 0.0, 0.0, 0.0],
    [0.0, 0.0, 1.0, 0.0],
    [0.0, 0.0, 0.0, 1.0]
],
  "dcmmeta_shape": [82, 82, 56, 872],
  "dcmmeta_slice_dim": 2,
  "dcmmeta_version": 0.6,
  "global": {
    "const": {
      "AccessionNumber": "A004333",
      "AcquisitionMatrix": [82, 0, 0, 82],
      "AngioFlag": "N",
      "BitsAllocated": 16,
      "BitsStored": 16,
      "BodyPartExamined": "BRAIN",
      "Columns": 656,
      "EchoNumbers": 1,
      "EchoTime": 27.2,
      "EchoTrainLength": 82,
      "FlipAngle": 44.0,
      "HighBit": 15,
      "ImageOrientationPatient": [0.99565316618038, -0.0102173629046, -0.0925763369887, 0.00590836920284, 0.99889146841196, -0.0467003801608],
      "ImagePositionPatient": [-889.21417421077, -882.07113832909, 47.037215490811],
      "ImageType": [
        "ORIGINAL",
        "PRIMARY",
        "M",
        "MB",
        "ND",
        "NORM",
        "MOSAIC"
],
      "ImagedNucleus": "1H",
      "ImagingFrequency": 123.259123,
      "InPlanePhaseEncodingDirection": "COL",
      "MRAcquisitionType": "2D",
      "MagneticFieldStrength": 3.0,
      "Manufacturer": "SIEMENS",
      "ManufacturerModelName": "Prisma",
      "Modality": "MR",
      "NumberOfAverages": 1.0,
      "NumberOfPhaseEncodingSteps": 82,
      "PercentPhaseFieldOfView": 100.0,
      "PercentSampling": 100.0,
      "PerformedProcedureStepStartTime": "152822.246000",
      "PhotometricInterpretation": "MONOCHROME2",
      "PixelBandwidth": 3050.0,
      "PixelRepresentation": 0,
      "PixelSpacing": [2.6829268932343, 2.6829268932343],
      "ProtocolName": "func_run-03_task-social_acq-ap-mb8",
      "RepetitionTime": 460.0,
      "Rows": 656,
      "SAR": 0.10694524206063,
      "SamplesPerPixel": 1,
      "ScanOptions": "FS",
      "ScanningSequence": "EP",
      "SequenceName": "epfid2d1_82",
      "SequenceVariant": [
        "SK",
        "SS"
],
      "SeriesDescription": "func_run-03_task-social_acq-ap-mb8",
      "SeriesNumber": 16,
      "SeriesTime": "161137.512000",
      "SliceLocation": -76.401079874302,
      "SliceThickness": 2.7000000476837,
      "SmallestImagePixelValue": 0,
      "SoftwareVersions": "syngo MR E11",
      "SpacingBetweenSlices": 2.6999999274298,
      "SpecificCharacterSet": "ISO_IR 100",
      "StudyID": "1",
      "StudyTime": "152822.130000",
      "TransmitCoilName": "Body",
      "VariableFlipAngleFlag": "N",
      "WindowCenterWidthExplanation": "Algo1"
    },
    "slices": {}
  },
  "time": {
    "samples": {
      "AcquisitionNumber": [1, 2, 3, 4, 5, 6, 7, 8, 9, 10, 11, 12, 13, 14, 15, 16, 17, 18, 19, 20, 21, 22, 23, 24, 25, 26, 27, 28, 29, 30, 31, 32, 33, 34, 35, 36, 37, 38, 39, 40, 41, 42, 43, 44, 45, 46, 47, 48, 49, 50, 51, 52, 53, 54, 55, 56, 57, 58, 59, 60, 61, 62, 63, 64, 65, 66, 67, 68, 69, 70, 71, 72, 73, 74, 75, 76, 77, 78, 79, 80, 81, 82, 83, 84, 85, 86, 87, 88, 89, 90, 91, 92, 93, 94, 95, 96, 97, 98, 99, 100, 101, 102, 103, 104, 105, 106, 107, 108, 109, 110, 111, 112, 113, 114, 115, 116, 117, 118, 119, 120, 121, 122, 123, 124, 125, 126, 127, 128, 129, 130, 131, 132, 133, 134, 135, 136, 137, 138, 139, 140, 141, 142, 143, 144, 145, 146, 147, 148, 149, 150, 151, 152, 153, 154, 155, 156, 157, 158, 159, 160, 161, 162, 163, 164, 165, 166, 167, 168, 169, 170, 171, 172, 173, 174, 175, 176, 177, 178, 179, 180, 181, 182, 183, 184, 185, 186, 187, 188, 189, 190, 191, 192, 193, 194, 195, 196, 197, 198, 199, 200, 201, 202, 203, 204, 205, 206, 207, 208, 209, 210, 211, 212, 213, 214, 215, 216, 217, 218, 219, 220, 221, 222, 223, 224, 225, 226, 227, 228, 229, 230, 231, 232, 233, 234, 235, 236, 237, 238, 239, 240, 241, 242, 243, 244, 245, 246, 247, 248, 249, 250, 251, 252, 253, 254, 255, 256, 257, 258, 259, 260, 261, 262, 263, 264, 265, 266, 267, 268, 269, 270, 271, 272, 273, 274, 275, 276, 277, 278, 279, 280, 281, 282, 283, 284, 285, 286, 287, 288, 289, 290, 291, 292, 293, 294, 295, 296, 297, 298, 299, 300, 301, 302, 303, 304, 305, 306, 307, 308, 309, 310, 311, 312, 313, 314, 315, 316, 317, 318, 319, 320, 321, 322, 323, 324, 325, 326, 327, 328, 329, 330, 331, 332, 333, 334, 335, 336, 337, 338, 339, 340, 341, 342, 343, 344, 345, 346, 347, 348, 349, 350, 351, 352, 353, 354, 355, 356, 357, 358, 359, 360, 361, 362, 363, 364, 365, 366, 367, 368, 369, 370, 371, 372, 373, 374, 375, 376, 377, 378, 379, 380, 381, 382, 383, 384, 385, 386, 387, 388, 389, 390, 391, 392, 393, 394, 395, 396, 397, 398, 399, 400, 401, 402, 403, 404, 405, 406, 407, 408, 409, 410, 411, 412, 413, 414, 415, 416, 417, 418, 419, 420, 421, 422, 423, 424, 425, 426, 427, 428, 429, 430, 431, 432, 433, 434, 435, 436, 437, 438, 439, 440, 441, 442, 443, 444, 445, 446, 447, 448, 449, 450, 451, 452, 453, 454, 455, 456, 457, 458, 459, 460, 461, 462, 463, 464, 465, 466, 467, 468, 469, 470, 471, 472, 473, 474, 475, 476, 477, 478, 479, 480, 481, 482, 483, 484, 485, 486, 487, 488, 489, 490, 491, 492, 493, 494, 495, 496, 497, 498, 499, 500, 501, 502, 503, 504, 505, 506, 507, 508, 509, 510, 511, 512, 513, 514, 515, 516, 517, 518, 519, 520, 521, 522, 523, 524, 525, 526, 527, 528, 529, 530, 531, 532, 533, 534, 535, 536, 537, 538, 539, 540, 541, 542, 543, 544, 545, 546, 547, 548, 549, 550, 551, 552, 553, 554, 555, 556, 557, 558, 559, 560, 561, 562, 563, 564, 565, 566, 567, 568, 569, 570, 571, 572, 573, 574, 575, 576, 577, 578, 579, 580, 581, 582, 583, 584, 585, 586, 587, 588, 589, 590, 591, 592, 593, 594, 595, 596, 597, 598, 599, 600, 601, 602, 603, 604, 605, 606, 607, 608, 609, 610, 611, 612, 613, 614, 615, 616, 617, 618, 619, 620, 621, 622, 623, 624, 625, 626, 627, 628, 629, 630, 631, 632, 633, 634, 635, 636, 637, 638, 639, 640, 641, 642, 643, 644, 645, 646, 647, 648, 649, 650, 651, 652, 653, 654, 655, 656, 657, 658, 659, 660, 661, 662, 663, 664, 665, 666, 667, 668, 669, 670, 671, 672, 673, 674, 675, 676, 677, 678, 679, 680, 681, 682, 683, 684, 685, 686, 687, 688, 689, 690, 691, 692, 693, 694, 695, 696, 697, 698, 699, 700, 701, 702, 703, 704, 705, 706, 707, 708, 709, 710, 711, 712, 713, 714, 715, 716, 717, 718, 719, 720, 721, 722, 723, 724, 725, 726, 727, 728, 729, 730, 731, 732, 733, 734, 735, 736, 737, 738, 739, 740, 741, 742, 743, 744, 745, 746, 747, 748, 749, 750, 751, 752, 753, 754, 755, 756, 757, 758, 759, 760, 761, 762, 763, 764, 765, 766, 767, 768, 769, 770, 771, 772, 773, 774, 775, 776, 777, 778, 779, 780, 781, 782, 783, 784, 785, 786, 787, 788, 789, 790, 791, 792, 793, 794, 795, 796, 797, 798, 799, 800, 801, 802, 803, 804, 805, 806, 807, 808, 809, 810, 811, 812, 813, 814, 815, 816, 817, 818, 819, 820, 821, 822, 823, 824, 825, 826, 827, 828, 829, 830, 831, 832, 833, 834, 835, 836, 837, 838, 839, 840, 841, 842, 843, 844, 845, 846, 847, 848, 849, 850, 851, 852, 853, 854, 855, 856, 857, 858, 859, 860, 861, 862, 863, 864, 865, 866, 867, 868, 869, 870, 871, 872],
      "AcquisitionTime": ["161121.320000", "161121.780000", "161122.240000", "161122.700000", "161123.160000", "161123.620000", "161124.080000", "161124.540000", "161125.000000", "161125.460000", "161125.920000", "161126.380000", "161126.840000", "161127.300000", "161127.760000", "161128.220000", "161128.680000", "161129.140000", "161129.600000", "161130.060000", "161130.520000", "161130.980000", "161131.440000", "161131.900000", "161132.360000", "161132.820000", "161133.280000", "161133.740000", "161134.200000", "161134.660000", "161135.120000", "161135.580000", "161136.040000", "161136.500000", "161136.960000", "161137.420000", "161137.880000", "161138.340000", "161138.800000", "161139.260000", "161139.720000", "161140.180000", "161140.640000", "161141.100000", "161141.560000", "161142.020000", "161142.480000", "161142.940000", "161143.400000", "161143.860000", "161144.320000", "161144.780000", "161145.240000", "161145.700000", "161146.160000", "161146.620000", "161147.080000", "161147.540000", "161148.000000", "161148.460000", "161148.920000", "161149.380000", "161149.840000", "161150.300000", "161150.760000", "161151.220000", "161151.680000", "161152.140000", "161152.600000", "161153.060000", "161153.520000", "161153.980000", "161154.440000", "161154.900000", "161155.360000", "161155.820000", "161156.280000", "161156.740000", "161157.200000", "161157.660000", "161158.120000", "161158.580000", "161159.040000", "161159.500000", "161159.960000", "161200.420000", "161200.880000", "161201.340000", "161201.800000", "161202.260000", "161202.720000", "161203.180000", "161203.640000", "161204.100000", "161204.560000", "161205.020000", "161205.480000", "161205.940000", "161206.400000", "161206.860000", "161207.320000", "161207.780000", "161208.240000", "161208.700000", "161209.160000", "161209.620000", "161210.080000", "161210.540000", "161211.000000", "161211.460000", "161211.920000", "161212.380000", "161212.840000", "161213.300000", "161213.760000", "161214.220000", "161214.680000", "161215.140000", "161215.600000", "161216.060000", "161216.520000", "161216.980000", "161217.440000", "161217.900000", "161218.360000", "161218.820000", "161219.280000", "161219.740000", "161220.200000", "161220.660000", "161221.120000", "161221.580000", "161222.040000", "161222.500000", "161222.960000", "161223.420000", "161223.880000", "161224.340000", "161224.800000", "161225.260000", "161225.720000", "161226.180000", "161226.640000", "161227.100000", "161227.560000", "161228.020000", "161228.480000", "161228.940000", "161229.400000", "161229.860000", "161230.320000", "161230.780000", "161231.240000", "161231.700000", "161232.160000", "161232.620000", "161233.080000", "161233.540000", "161234.000000", "161234.460000", "161234.920000", "161235.380000", "161235.840000", "161236.300000", "161236.760000", "161237.220000", "161237.680000", "161238.140000", "161238.600000", "161239.060000", "161239.520000", "161239.980000", "161240.440000", "161240.900000", "161241.360000", "161241.820000", "161242.280000", "161242.740000", "161243.200000", "161243.660000", "161244.120000", "161244.580000", "161245.040000", "161245.500000", "161245.960000", "161246.420000", "161246.880000", "161247.340000", "161247.800000", "161248.260000", "161248.720000", "161249.180000", "161249.640000", "161250.100000", "161250.560000", "161251.020000", "161251.480000", "161251.940000", "161252.400000", "161252.860000", "161253.320000", "161253.780000", "161254.240000", "161254.700000", "161255.160000", "161255.620000", "161256.080000", "161256.540000", "161257.000000", "161257.460000", "161257.920000", "161258.380000", "161258.840000", "161259.300000", "161259.760000", "161300.220000", "161300.680000", "161301.140000", "161301.600000", "161302.060000", "161302.520000", "161302.980000", "161303.440000", "161303.900000", "161304.360000", "161304.820000", "161305.280000", "161305.740000", "161306.200000", "161306.660000", "161307.120000", "161307.580000", "161308.040000", "161308.500000", "161308.960000", "161309.420000", "161309.880000", "161310.340000", "161310.800000", "161311.260000", "161311.720000", "161312.180000", "161312.640000", "161313.100000", "161313.560000", "161314.020000", "161314.480000", "161314.940000", "161315.400000", "161315.860000", "161316.320000", "161316.780000", "161317.240000", "161317.700000", "161318.160000", "161318.620000", "161319.080000", "161319.540000", "161320.000000", "161320.460000", "161320.920000", "161321.380000", "161321.840000", "161322.300000", "161322.760000", "161323.220000", "161323.680000", "161324.140000", "161324.600000", "161325.060000", "161325.520000", "161325.980000", "161326.440000", "161326.900000", "161327.360000", "161327.820000", "161328.280000", "161328.740000", "161329.200000", "161329.660000", "161330.120000", "161330.580000", "161331.040000", "161331.500000", "161331.960000", "161332.420000", "161332.880000", "161333.340000", "161333.800000", "161334.260000", "161334.720000", "161335.180000", "161335.640000", "161336.100000", "161336.560000", "161337.020000", "161337.480000", "161337.940000", "161338.400000", "161338.860000", "161339.320000", "161339.780000", "161340.240000", "161340.700000", "161341.160000", "161341.620000", "161342.080000", "161342.540000", "161343.000000", "161343.460000", "161343.920000", "161344.380000", "161344.840000", "161345.300000", "161345.760000", "161346.220000", "161346.680000", "161347.140000", "161347.600000", "161348.060000", "161348.520000", "161348.980000", "161349.440000", "161349.900000", "161350.360000", "161350.820000", "161351.280000", "161351.740000", "161352.200000", "161352.660000", "161353.120000", "161353.580000", "161354.040000", "161354.500000", "161354.960000", "161355.420000", "161355.880000", "161356.340000", "161356.800000", "161357.260000", "161357.720000", "161358.180000", "161358.640000", "161359.100000", "161359.560000", "161400.020000", "161400.480000", "161400.940000", "161401.400000", "161401.860000", "161402.320000", "161402.780000", "161403.240000", "161403.700000", "161404.160000", "161404.620000", "161405.080000", "161405.540000", "161406.000000", "161406.460000", "161406.920000", "161407.380000", "161407.840000", "161408.300000", "161408.760000", "161409.220000", "161409.680000", "161410.140000", "161410.600000", "161411.060000", "161411.520000", "161411.980000", "161412.440000", "161412.900000", "161413.360000", "161413.820000", "161414.280000", "161414.740000", "161415.200000", "161415.660000", "161416.120000", "161416.580000", "161417.040000", "161417.500000", "161417.960000", "161418.420000", "161418.880000", "161419.340000", "161419.800000", "161420.260000", "161420.720000", "161421.180000", "161421.640000", "161422.100000", "161422.560000", "161423.020000", "161423.480000", "161423.940000", "161424.400000", "161424.860000", "161425.320000", "161425.780000", "161426.240000", "161426.700000", "161427.160000", "161427.620000", "161428.080000", "161428.540000", "161429.000000", "161429.460000", "161429.920000", "161430.380000", "161430.840000", "161431.300000", "161431.760000", "161432.220000", "161432.680000", "161433.140000", "161433.600000", "161434.060000", "161434.520000", "161434.980000", "161435.440000", "161435.900000", "161436.360000", "161436.820000", "161437.280000", "161437.740000", "161438.200000", "161438.660000", "161439.120000", "161439.580000", "161440.040000", "161440.500000", "161440.960000", "161441.420000", "161441.880000", "161442.340000", "161442.800000", "161443.260000", "161443.720000", "161444.180000", "161444.640000", "161445.100000", "161445.560000", "161446.020000", "161446.480000", "161446.940000", "161447.400000", "161447.860000", "161448.320000", "161448.780000", "161449.240000", "161449.700000", "161450.160000", "161450.620000", "161451.080000", "161451.540000", "161452.000000", "161452.460000", "161452.920000", "161453.380000", "161453.840000", "161454.300000", "161454.760000", "161455.220000", "161455.680000", "161456.140000", "161456.600000", "161457.060000", "161457.520000", "161457.980000", "161458.440000", "161458.900000", "161459.360000", "161459.820000", "161500.280000", "161500.740000", "161501.200000", "161501.660000", "161502.120000", "161502.580000", "161503.040000", "161503.500000", "161503.960000", "161504.420000", "161504.880000", "161505.340000", "161505.800000", "161506.260000", "161506.720000", "161507.180000", "161507.640000", "161508.100000", "161508.560000", "161509.020000", "161509.480000", "161509.940000", "161510.400000", "161510.860000", "161511.320000", "161511.780000", "161512.240000", "161512.700000", "161513.160000", "161513.620000", "161514.080000", "161514.540000", "161515.000000", "161515.460000", "161515.920000", "161516.380000", "161516.840000", "161517.300000", "161517.760000", "161518.220000", "161518.680000", "161519.140000", "161519.600000", "161520.060000", "161520.520000", "161520.980000", "161521.440000", "161521.900000", "161522.360000", "161522.820000", "161523.280000", "161523.740000", "161524.200000", "161524.660000", "161525.120000", "161525.580000", "161526.040000", "161526.500000", "161526.960000", "161527.420000", "161527.880000", "161528.340000", "161528.800000", "161529.260000", "161529.720000", "161530.180000", "161530.640000", "161531.100000", "161531.560000", "161532.020000", "161532.480000", "161532.940000", "161533.400000", "161533.860000", "161534.320000", "161534.780000", "161535.240000", "161535.700000", "161536.160000", "161536.620000", "161537.080000", "161537.540000", "161538.000000", "161538.460000", "161538.920000", "161539.380000", "161539.840000", "161540.300000", "161540.760000", "161541.220000", "161541.680000", "161542.140000", "161542.600000", "161543.060000", "161543.520000", "161543.980000", "161544.440000", "161544.900000", "161545.360000", "161545.820000", "161546.280000", "161546.740000", "161547.200000", "161547.660000", "161548.120000", "161548.580000", "161549.040000", "161549.500000", "161549.960000", "161550.420000", "161550.880000", "161551.340000", "161551.800000", "161552.260000", "161552.720000", "161553.180000", "161553.640000", "161554.100000", "161554.560000", "161555.020000", "161555.480000", "161555.940000", "161556.400000", "161556.860000", "161557.320000", "161557.780000", "161558.240000", "161558.700000", "161559.160000", "161559.620000", "161600.080000", "161600.540000", "161601.000000", "161601.460000", "161601.920000", "161602.380000", "161602.840000", "161603.300000", "161603.760000", "161604.220000", "161604.680000", "161605.140000", "161605.600000", "161606.060000", "161606.520000", "161606.980000", "161607.440000", "161607.900000", "161608.360000", "161608.820000", "161609.280000", "161609.740000", "161610.200000", "161610.660000", "161611.120000", "161611.580000", "161612.040000", "161612.500000", "161612.960000", "161613.420000", "161613.880000", "161614.340000", "161614.800000", "161615.260000", "161615.720000", "161616.180000", "161616.640000", "161617.100000", "161617.560000", "161618.020000", "161618.480000", "161618.940000", "161619.400000", "161619.860000", "161620.320000", "161620.780000", "161621.240000", "161621.700000", "161622.160000", "161622.620000", "161623.080000", "161623.540000", "161624.000000", "161624.460000", "161624.920000", "161625.380000", "161625.840000", "161626.300000", "161626.760000", "161627.220000", "161627.680000", "161628.140000", "161628.600000", "161629.060000", "161629.520000", "161629.980000", "161630.440000", "161630.900000", "161631.360000", "161631.820000", "161632.280000", "161632.740000", "161633.200000", "161633.660000", "161634.120000", "161634.580000", "161635.040000", "161635.500000", "161635.960000", "161636.420000", "161636.880000", "161637.340000", "161637.800000", "161638.260000", "161638.720000", "161639.180000", "161639.640000", "161640.100000", "161640.560000", "161641.020000", "161641.480000", "161641.940000", "161642.400000", "161642.860000", "161643.320000", "161643.780000", "161644.240000", "161644.700000", "161645.160000", "161645.620000", "161646.080000", "161646.540000", "161647.000000", "161647.460000", "161647.920000", "161648.380000", "161648.840000", "161649.300000", "161649.760000", "161650.220000", "161650.680000", "161651.140000", "161651.600000", "161652.060000", "161652.520000", "161652.980000", "161653.440000", "161653.900000", "161654.360000", "161654.820000", "161655.280000", "161655.740000", "161656.200000", "161656.660000", "161657.120000", "161657.580000", "161658.040000", "161658.500000", "161658.960000", "161659.420000", "161659.880000", "161700.340000", "161700.800000", "161701.260000", "161701.720000", "161702.180000", "161702.640000", "161703.100000", "161703.560000", "161704.020000", "161704.480000", "161704.940000", "161705.400000", "161705.860000", "161706.320000", "161706.780000", "161707.240000", "161707.700000", "161708.160000", "161708.620000", "161709.080000", "161709.540000", "161710.000000", "161710.460000", "161710.920000", "161711.380000", "161711.840000", "161712.300000", "161712.760000", "161713.220000", "161713.680000", "161714.140000", "161714.600000", "161715.060000", "161715.520000", "161715.980000", "161716.440000", "161716.900000", "161717.360000", "161717.820000", "161718.280000", "161718.740000", "161719.200000", "161719.660000", "161720.120000", "161720.580000", "161721.040000", "161721.500000", "161721.960000", "161722.420000", "161722.880000", "161723.340000", "161723.800000", "161724.260000", "161724.720000", "161725.180000", "161725.640000", "161726.100000", "161726.560000", "161727.020000", "161727.480000", "161727.940000", "161728.400000", "161728.860000", "161729.320000", "161729.780000", "161730.240000", "161730.700000", "161731.160000", "161731.620000", "161732.080000", "161732.540000", "161733.000000", "161733.460000", "161733.920000", "161734.380000", "161734.840000", "161735.300000", "161735.760000", "161736.220000", "161736.680000", "161737.140000", "161737.600000", "161738.060000", "161738.520000", "161738.980000", "161739.440000", "161739.900000", "161740.360000", "161740.820000", "161741.280000", "161741.740000", "161742.200000", "161742.660000", "161743.120000", "161743.580000", "161744.040000", "161744.500000", "161744.960000", "161745.420000", "161745.880000", "161746.340000", "161746.800000", "161747.260000", "161747.720000", "161748.180000", "161748.640000", "161749.100000", "161749.560000", "161750.020000", "161750.480000", "161750.940000", "161751.400000", "161751.860000", "161752.320000", "161752.780000", "161753.240000", "161753.700000", "161754.160000", "161754.620000", "161755.080000", "161755.540000", "161756.000000", "161756.460000", "161756.920000", "161757.380000", "161757.840000", "161758.300000", "161758.760000", "161759.220000", "161759.680000", "161800.140000", "161800.600000", "161801.060000", "161801.520000", "161801.980000"],
