{
  "AcquisitionMatrixPE": 82,
  "AcquisitionNumber": 1,
  "AcquisitionTime": "14:45:4.070000",
  "BandwidthPerPixelPhaseEncode": 24.888,
  "BaseResolution": 82,
  "BodyPartExamined": "BRAIN",
  "ConsistencyInfo": "N4_VE11E_LATEST_20181129",
  "ConversionSoftware": "dcm2niix",
  "ConversionSoftwareVersion": "v1.0.20201102",
  "DerivedVendorReportedEchoSpacing": 0.00049,
  "DeviceSerialNumber": "66112",
  "DwellTime": 2e-06,
  "EchoTime": 0.0272,
  "EchoTrainLength": 82,
  "EffectiveEchoSpacing": 0.00049,
  "FlipAngle": 44,
  "ImageComments": "Unaliased MB8/PE3",
  "ImageOrientationPatientDICOM": [0.998688, 0.0260359, 0.0440876, -0.0256283, 0.999624, -0.00978557],
  "ImageType": [
    "ORIGINAL",
    "PRIMARY",
    "M",
    "MB",
    "ND",
    "NORM",
    "MOSAIC"
],
  "ImagingFrequency": 123.252,
  "InPlanePhaseEncodingDirectionDICOM": "COL",
  "InstitutionAddress": "Maynard 3,Hanover,NH,US,03755",
  "InstitutionName": "Dartmouth College - PBS",
  "InstitutionalDepartmentName": "Department",
  "MRAcquisitionType": "2D",
  "MagneticFieldStrength": 3,
  "Manufacturer": "Siemens",
  "ManufacturersModelName": "Prisma",
  "Modality": "MR",
  "MultibandAccelerationFactor": 8,
  "PartialFourier": 1,
  "PatientPosition": "HFS",
  "PercentPhaseFOV": 100,
  "PercentSampling": 100,
  "PhaseEncodingDirection": "j-",
  "PhaseEncodingSteps": 82,
  "PhaseResolution": 1,
  "PixelBandwidth": 3050,
  "ProcedureStepDescription": "Wager_Wager^1076_spacetop",
  "ProtocolName": "func_run-02_task-social_acq-ap-mb8",
  "PulseSequenceDetails": "%CustomerSeq%\\cmrr_mbep2d_bold",
  "ReceiveCoilActiveElements": "HEA;HEP",
  "ReceiveCoilName": "Head_32",
  "ReconMatrixPE": 82,
  "RepetitionTime": 0.46,
  "SAR": 0.0901349,
  "ScanOptions": "FS",
  "ScanningSequence": "EP",
  "SequenceName": "epfid2d1_82",
  "SequenceVariant": "SK\\SS",
  "SeriesDescription": "func_run-02_task-social_acq-ap-mb8",
  "SeriesNumber": 14,
  "ShimSetting": [4151, -7788, -7267, 756, -75, -418, 311, 35],
  "SliceThickness": 2.7,
  "SliceTiming": [0, 0.2525, 0.0625, 0.315, 0.125, 0.3775, 0.1875, 0, 0.2525, 0.0625, 0.315, 0.125, 0.3775, 0.1875, 0, 0.2525, 0.0625, 0.315, 0.125, 0.3775, 0.1875, 0, 0.2525, 0.0625, 0.315, 0.125, 0.3775, 0.1875, 0, 0.2525, 0.0625, 0.315, 0.125, 0.3775, 0.1875, 0, 0.2525, 0.0625, 0.315, 0.125, 0.3775, 0.1875, 0, 0.2525, 0.0625, 0.315, 0.125, 0.3775, 0.1875, 0, 0.2525, 0.0625, 0.315, 0.125, 0.3775, 0.1875],
  "SoftwareVersions": "syngo MR E11",
  "SpacingBetweenSlices": 2.7,
  "StationName": "AWP66112",
  "TaskName": "social",
  "TotalReadoutTime": 0.03969,
  "TxRefAmp": 240.939,
  "WipMemBlock": "b17fdcaf-d05c-480c-83b5-b7317da35f88||Sequence: R016 ve11e/master r/434b28f1; Aug  7 2019 18:53:46 by eja",
  "dcmmeta_affine": [
    [-2.679407835006714, -0.0687587782740593, 0.11967960745096207, 110.11906433105469],
    [-0.06985235214233398, 2.681917190551758, -0.023335684090852737, -93.28150177001953],
    [0.11828380078077316, 0.026253968477249146, 2.6972453594207764, -74.25299835205078],
    [0.0, 0.0, 0.0, 1.0]
],
  "dcmmeta_reorient_transform": [
    [0.0, -1.0, 0.0, 81.0],
    [1.0, 0.0, 0.0, 0.0],
    [0.0, 0.0, 1.0, 0.0],
    [0.0, 0.0, 0.0, 1.0]
],
  "dcmmeta_shape": [82, 82, 56, 872],
  "dcmmeta_slice_dim": 2,
  "dcmmeta_version": 0.6,
  "global": {
    "const": {
      "AccessionNumber": "A003973",
      "AcquisitionMatrix": [82, 0, 0, 82],
      "AngioFlag": "N",
      "BitsAllocated": 16,
      "BitsStored": 16,
      "BodyPartExamined": "BRAIN",
      "Columns": 656,
      "EchoNumbers": 1,
      "EchoTime": 27.2,
      "EchoTrainLength": 82,
      "FlipAngle": 44.0,
      "HighBit": 15,
      "ImageOrientationPatient": [0.99868834828424, 0.02603587603151, 0.04408759644818, -0.0256282704462, 0.99962364636749, -0.0097855698301],
      "ImagePositionPatient": [-853.8058796262, -913.71164016769, -98.538986963391],
      "ImageType": [
        "ORIGINAL",
        "PRIMARY",
        "M",
        "MB",
        "ND",
        "NORM",
        "MOSAIC"
],
      "ImagedNucleus": "1H",
      "ImagingFrequency": 123.252208,
      "InPlanePhaseEncodingDirection": "COL",
      "MRAcquisitionType": "2D",
      "MagneticFieldStrength": 3.0,
      "Manufacturer": "SIEMENS",
      "ManufacturerModelName": "Prisma",
      "Modality": "MR",
      "NumberOfAverages": 1.0,
      "NumberOfPhaseEncodingSteps": 82,
      "PercentPhaseFieldOfView": 100.0,
      "PercentSampling": 100.0,
      "PerformedProcedureStepStartTime": "141113.162000",
      "PhotometricInterpretation": "MONOCHROME2",
      "PixelBandwidth": 3050.0,
      "PixelRepresentation": 0,
      "PixelSpacing": [2.6829268932343, 2.6829268932343],
      "ProtocolName": "func_run-02_task-social_acq-ap-mb8",
      "RepetitionTime": 460.0,
      "Rows": 656,
      "SAR": 0.09013486934986,
      "SamplesPerPixel": 1,
      "ScanOptions": "FS",
      "ScanningSequence": "EP",
      "SequenceName": "epfid2d1_82",
      "SequenceVariant": [
        "SK",
        "SS"
],
      "SeriesDescription": "func_run-02_task-social_acq-ap-mb8",
      "SeriesNumber": 14,
      "SeriesTime": "144533.763000",
      "SliceLocation": -68.489909177267,
      "SliceThickness": 2.7000000476837,
      "SmallestImagePixelValue": 0,
      "SoftwareVersions": "syngo MR E11",
      "SpacingBetweenSlices": 2.7000000671328,
      "SpecificCharacterSet": "ISO_IR 100",
      "StudyID": "1",
      "StudyTime": "141113.098000",
      "TransmitCoilName": "Body",
      "VariableFlipAngleFlag": "N",
      "WindowCenterWidthExplanation": "Algo1"
    },
    "slices": {}
  },
  "time": {
    "samples": {
      "AcquisitionNumber": [1, 2, 3, 4, 5, 6, 7, 8, 9, 10, 11, 12, 13, 14, 15, 16, 17, 18, 19, 20, 21, 22, 23, 24, 25, 26, 27, 28, 29, 30, 31, 32, 33, 34, 35, 36, 37, 38, 39, 40, 41, 42, 43, 44, 45, 46, 47, 48, 49, 50, 51, 52, 53, 54, 55, 56, 57, 58, 59, 60, 61, 62, 63, 64, 65, 66, 67, 68, 69, 70, 71, 72, 73, 74, 75, 76, 77, 78, 79, 80, 81, 82, 83, 84, 85, 86, 87, 88, 89, 90, 91, 92, 93, 94, 95, 96, 97, 98, 99, 100, 101, 102, 103, 104, 105, 106, 107, 108, 109, 110, 111, 112, 113, 114, 115, 116, 117, 118, 119, 120, 121, 122, 123, 124, 125, 126, 127, 128, 129, 130, 131, 132, 133, 134, 135, 136, 137, 138, 139, 140, 141, 142, 143, 144, 145, 146, 147, 148, 149, 150, 151, 152, 153, 154, 155, 156, 157, 158, 159, 160, 161, 162, 163, 164, 165, 166, 167, 168, 169, 170, 171, 172, 173, 174, 175, 176, 177, 178, 179, 180, 181, 182, 183, 184, 185, 186, 187, 188, 189, 190, 191, 192, 193, 194, 195, 196, 197, 198, 199, 200, 201, 202, 203, 204, 205, 206, 207, 208, 209, 210, 211, 212, 213, 214, 215, 216, 217, 218, 219, 220, 221, 222, 223, 224, 225, 226, 227, 228, 229, 230, 231, 232, 233, 234, 235, 236, 237, 238, 239, 240, 241, 242, 243, 244, 245, 246, 247, 248, 249, 250, 251, 252, 253, 254, 255, 256, 257, 258, 259, 260, 261, 262, 263, 264, 265, 266, 267, 268, 269, 270, 271, 272, 273, 274, 275, 276, 277, 278, 279, 280, 281, 282, 283, 284, 285, 286, 287, 288, 289, 290, 291, 292, 293, 294, 295, 296, 297, 298, 299, 300, 301, 302, 303, 304, 305, 306, 307, 308, 309, 310, 311, 312, 313, 314, 315, 316, 317, 318, 319, 320, 321, 322, 323, 324, 325, 326, 327, 328, 329, 330, 331, 332, 333, 334, 335, 336, 337, 338, 339, 340, 341, 342, 343, 344, 345, 346, 347, 348, 349, 350, 351, 352, 353, 354, 355, 356, 357, 358, 359, 360, 361, 362, 363, 364, 365, 366, 367, 368, 369, 370, 371, 372, 373, 374, 375, 376, 377, 378, 379, 380, 381, 382, 383, 384, 385, 386, 387, 388, 389, 390, 391, 392, 393, 394, 395, 396, 397, 398, 399, 400, 401, 402, 403, 404, 405, 406, 407, 408, 409, 410, 411, 412, 413, 414, 415, 416, 417, 418, 419, 420, 421, 422, 423, 424, 425, 426, 427, 428, 429, 430, 431, 432, 433, 434, 435, 436, 437, 438, 439, 440, 441, 442, 443, 444, 445, 446, 447, 448, 449, 450, 451, 452, 453, 454, 455, 456, 457, 458, 459, 460, 461, 462, 463, 464, 465, 466, 467, 468, 469, 470, 471, 472, 473, 474, 475, 476, 477, 478, 479, 480, 481, 482, 483, 484, 485, 486, 487, 488, 489, 490, 491, 492, 493, 494, 495, 496, 497, 498, 499, 500, 501, 502, 503, 504, 505, 506, 507, 508, 509, 510, 511, 512, 513, 514, 515, 516, 517, 518, 519, 520, 521, 522, 523, 524, 525, 526, 527, 528, 529, 530, 531, 532, 533, 534, 535, 536, 537, 538, 539, 540, 541, 542, 543, 544, 545, 546, 547, 548, 549, 550, 551, 552, 553, 554, 555, 556, 557, 558, 559, 560, 561, 562, 563, 564, 565, 566, 567, 568, 569, 570, 571, 572, 573, 574, 575, 576, 577, 578, 579, 580, 581, 582, 583, 584, 585, 586, 587, 588, 589, 590, 591, 592, 593, 594, 595, 596, 597, 598, 599, 600, 601, 602, 603, 604, 605, 606, 607, 608, 609, 610, 611, 612, 613, 614, 615, 616, 617, 618, 619, 620, 621, 622, 623, 624, 625, 626, 627, 628, 629, 630, 631, 632, 633, 634, 635, 636, 637, 638, 639, 640, 641, 642, 643, 644, 645, 646, 647, 648, 649, 650, 651, 652, 653, 654, 655, 656, 657, 658, 659, 660, 661, 662, 663, 664, 665, 666, 667, 668, 669, 670, 671, 672, 673, 674, 675, 676, 677, 678, 679, 680, 681, 682, 683, 684, 685, 686, 687, 688, 689, 690, 691, 692, 693, 694, 695, 696, 697, 698, 699, 700, 701, 702, 703, 704, 705, 706, 707, 708, 709, 710, 711, 712, 713, 714, 715, 716, 717, 718, 719, 720, 721, 722, 723, 724, 725, 726, 727, 728, 729, 730, 731, 732, 733, 734, 735, 736, 737, 738, 739, 740, 741, 742, 743, 744, 745, 746, 747, 748, 749, 750, 751, 752, 753, 754, 755, 756, 757, 758, 759, 760, 761, 762, 763, 764, 765, 766, 767, 768, 769, 770, 771, 772, 773, 774, 775, 776, 777, 778, 779, 780, 781, 782, 783, 784, 785, 786, 787, 788, 789, 790, 791, 792, 793, 794, 795, 796, 797, 798, 799, 800, 801, 802, 803, 804, 805, 806, 807, 808, 809, 810, 811, 812, 813, 814, 815, 816, 817, 818, 819, 820, 821, 822, 823, 824, 825, 826, 827, 828, 829, 830, 831, 832, 833, 834, 835, 836, 837, 838, 839, 840, 841, 842, 843, 844, 845, 846, 847, 848, 849, 850, 851, 852, 853, 854, 855, 856, 857, 858, 859, 860, 861, 862, 863, 864, 865, 866, 867, 868, 869, 870, 871, 872],
      "AcquisitionTime": ["144504.070000", "144504.530000", "144504.990000", "144505.450000", "144505.910000", "144506.370000", "144506.830000", "144507.290000", "144507.750000", "144508.210000", "144508.670000", "144509.130000", "144509.590000", "144510.050000", "144510.510000", "144510.970000", "144511.430000", "144511.890000", "144512.350000", "144512.810000", "144513.270000", "144513.730000", "144514.190000", "144514.650000", "144515.110000", "144515.570000", "144516.030000", "144516.490000", "144516.950000", "144517.410000", "144517.870000", "144518.330000", "144518.790000", "144519.250000", "144519.710000", "144520.170000", "144520.630000", "144521.090000", "144521.550000", "144522.010000", "144522.470000", "144522.930000", "144523.390000", "144523.850000", "144524.310000", "144524.770000", "144525.230000", "144525.690000", "144526.150000", "144526.610000", "144527.070000", "144527.530000", "144527.990000", "144528.450000", "144528.910000", "144529.370000", "144529.830000", "144530.290000", "144530.750000", "144531.210000", "144531.670000", "144532.130000", "144532.590000", "144533.050000", "144533.510000", "144533.970000", "144534.430000", "144534.890000", "144535.350000", "144535.810000", "144536.270000", "144536.730000", "144537.190000", "144537.650000", "144538.110000", "144538.570000", "144539.030000", "144539.490000", "144539.950000", "144540.410000", "144540.870000", "144541.330000", "144541.790000", "144542.250000", "144542.710000", "144543.170000", "144543.630000", "144544.090000", "144544.550000", "144545.010000", "144545.470000", "144545.930000", "144546.390000", "144546.850000", "144547.310000", "144547.770000", "144548.230000", "144548.690000", "144549.150000", "144549.610000", "144550.070000", "144550.530000", "144550.990000", "144551.450000", "144551.910000", "144552.370000", "144552.830000", "144553.290000", "144553.750000", "144554.210000", "144554.670000", "144555.130000", "144555.590000", "144556.050000", "144556.510000", "144556.970000", "144557.430000", "144557.890000", "144558.350000", "144558.810000", "144559.270000", "144559.730000", "144600.190000", "144600.650000", "144601.110000", "144601.570000", "144602.030000", "144602.490000", "144602.950000", "144603.410000", "144603.870000", "144604.330000", "144604.790000", "144605.250000", "144605.710000", "144606.170000", "144606.630000", "144607.090000", "144607.550000", "144608.010000", "144608.470000", "144608.930000", "144609.390000", "144609.850000", "144610.310000", "144610.770000", "144611.230000", "144611.690000", "144612.150000", "144612.610000", "144613.070000", "144613.530000", "144613.990000", "144614.450000", "144614.910000", "144615.370000", "144615.830000", "144616.290000", "144616.750000", "144617.210000", "144617.670000", "144618.130000", "144618.590000", "144619.050000", "144619.510000", "144619.970000", "144620.430000", "144620.890000", "144621.350000", "144621.810000", "144622.270000", "144622.730000", "144623.190000", "144623.650000", "144624.110000", "144624.570000", "144625.030000", "144625.490000", "144625.950000", "144626.410000", "144626.870000", "144627.330000", "144627.790000", "144628.250000", "144628.710000", "144629.170000", "144629.630000", "144630.090000", "144630.550000", "144631.010000", "144631.470000", "144631.930000", "144632.390000", "144632.850000", "144633.310000", "144633.770000", "144634.230000", "144634.690000", "144635.150000", "144635.610000", "144636.070000", "144636.530000", "144636.990000", "144637.450000", "144637.910000", "144638.370000", "144638.830000", "144639.290000", "144639.750000", "144640.210000", "144640.670000", "144641.130000", "144641.590000", "144642.050000", "144642.510000", "144642.970000", "144643.430000", "144643.890000", "144644.350000", "144644.810000", "144645.270000", "144645.730000", "144646.190000", "144646.650000", "144647.110000", "144647.570000", "144648.030000", "144648.490000", "144648.950000", "144649.410000", "144649.870000", "144650.330000", "144650.790000", "144651.250000", "144651.710000", "144652.170000", "144652.630000", "144653.090000", "144653.550000", "144654.010000", "144654.470000", "144654.930000", "144655.390000", "144655.850000", "144656.310000", "144656.770000", "144657.230000", "144657.690000", "144658.150000", "144658.610000", "144659.070000", "144659.530000", "144659.990000", "144700.450000", "144700.910000", "144701.370000", "144701.830000", "144702.290000", "144702.750000", "144703.210000", "144703.670000", "144704.130000", "144704.590000", "144705.050000", "144705.510000", "144705.970000", "144706.430000", "144706.890000", "144707.350000", "144707.810000", "144708.270000", "144708.730000", "144709.190000", "144709.650000", "144710.110000", "144710.570000", "144711.030000", "144711.490000", "144711.950000", "144712.410000", "144712.870000", "144713.330000", "144713.790000", "144714.250000", "144714.710000", "144715.170000", "144715.630000", "144716.090000", "144716.550000", "144717.010000", "144717.470000", "144717.930000", "144718.390000", "144718.850000", "144719.310000", "144719.770000", "144720.230000", "144720.690000", "144721.150000", "144721.610000", "144722.070000", "144722.530000", "144722.990000", "144723.450000", "144723.910000", "144724.370000", "144724.830000", "144725.290000", "144725.750000", "144726.210000", "144726.670000", "144727.130000", "144727.590000", "144728.050000", "144728.510000", "144728.970000", "144729.430000", "144729.890000", "144730.350000", "144730.810000", "144731.270000", "144731.730000", "144732.190000", "144732.650000", "144733.110000", "144733.570000", "144734.030000", "144734.490000", "144734.950000", "144735.410000", "144735.870000", "144736.330000", "144736.790000", "144737.250000", "144737.710000", "144738.170000", "144738.630000", "144739.090000", "144739.550000", "144740.010000", "144740.470000", "144740.930000", "144741.390000", "144741.850000", "144742.310000", "144742.770000", "144743.230000", "144743.690000", "144744.150000", "144744.610000", "144745.070000", "144745.530000", "144745.990000", "144746.450000", "144746.910000", "144747.370000", "144747.830000", "144748.290000", "144748.750000", "144749.210000", "144749.670000", "144750.130000", "144750.590000", "144751.050000", "144751.510000", "144751.970000", "144752.430000", "144752.890000", "144753.350000", "144753.810000", "144754.270000", "144754.730000", "144755.190000", "144755.650000", "144756.110000", "144756.570000", "144757.030000", "144757.490000", "144757.950000", "144758.410000", "144758.870000", "144759.330000", "144759.790000", "144800.250000", "144800.710000", "144801.170000", "144801.630000", "144802.090000", "144802.550000", "144803.010000", "144803.470000", "144803.930000", "144804.390000", "144804.850000", "144805.310000", "144805.770000", "144806.230000", "144806.690000", "144807.150000", "144807.610000", "144808.070000", "144808.530000", "144808.990000", "144809.450000", "144809.910000", "144810.370000", "144810.830000", "144811.290000", "144811.750000", "144812.210000", "144812.670000", "144813.130000", "144813.590000", "144814.050000", "144814.510000", "144814.970000", "144815.430000", "144815.890000", "144816.350000", "144816.810000", "144817.270000", "144817.730000", "144818.190000", "144818.650000", "144819.110000", "144819.570000", "144820.030000", "144820.490000", "144820.950000", "144821.410000", "144821.870000", "144822.330000", "144822.790000", "144823.250000", "144823.710000", "144824.170000", "144824.630000", "144825.090000", "144825.550000", "144826.010000", "144826.470000", "144826.930000", "144827.390000", "144827.850000", "144828.310000", "144828.770000", "144829.230000", "144829.690000", "144830.150000", "144830.610000", "144831.070000", "144831.530000", "144831.990000", "144832.450000", "144832.910000", "144833.370000", "144833.830000", "144834.290000", "144834.750000", "144835.210000", "144835.670000", "144836.130000", "144836.590000", "144837.050000", "144837.510000", "144837.970000", "144838.430000", "144838.890000", "144839.350000", "144839.810000", "144840.270000", "144840.730000", "144841.190000", "144841.650000", "144842.110000", "144842.570000", "144843.030000", "144843.490000", "144843.950000", "144844.410000", "144844.870000", "144845.330000", "144845.790000", "144846.250000", "144846.710000", "144847.170000", "144847.630000", "144848.090000", "144848.550000", "144849.010000", "144849.470000", "144849.930000", "144850.390000", "144850.850000", "144851.310000", "144851.770000", "144852.230000", "144852.690000", "144853.150000", "144853.610000", "144854.070000", "144854.530000", "144854.990000", "144855.450000", "144855.910000", "144856.370000", "144856.830000", "144857.290000", "144857.750000", "144858.210000", "144858.670000", "144859.130000", "144859.590000", "144900.050000", "144900.510000", "144900.970000", "144901.430000", "144901.890000", "144902.350000", "144902.810000", "144903.270000", "144903.730000", "144904.190000", "144904.650000", "144905.110000", "144905.570000", "144906.030000", "144906.490000", "144906.950000", "144907.410000", "144907.870000", "144908.330000", "144908.790000", "144909.250000", "144909.710000", "144910.170000", "144910.630000", "144911.090000", "144911.550000", "144912.010000", "144912.470000", "144912.930000", "144913.390000", "144913.850000", "144914.310000", "144914.770000", "144915.230000", "144915.690000", "144916.150000", "144916.610000", "144917.070000", "144917.530000", "144917.990000", "144918.450000", "144918.910000", "144919.370000", "144919.830000", "144920.290000", "144920.750000", "144921.210000", "144921.670000", "144922.130000", "144922.590000", "144923.050000", "144923.510000", "144923.970000", "144924.430000", "144924.890000", "144925.350000", "144925.810000", "144926.270000", "144926.730000", "144927.190000", "144927.650000", "144928.110000", "144928.570000", "144929.030000", "144929.490000", "144929.950000", "144930.410000", "144930.870000", "144931.330000", "144931.790000", "144932.250000", "144932.710000", "144933.170000", "144933.630000", "144934.090000", "144934.550000", "144935.010000", "144935.470000", "144935.930000", "144936.390000", "144936.850000", "144937.310000", "144937.770000", "144938.230000", "144938.690000", "144939.150000", "144939.610000", "144940.070000", "144940.530000", "144940.990000", "144941.450000", "144941.910000", "144942.370000", "144942.830000", "144943.290000", "144943.750000", "144944.210000", "144944.670000", "144945.130000", "144945.590000", "144946.050000", "144946.510000", "144946.970000", "144947.430000", "144947.890000", "144948.350000", "144948.810000", "144949.270000", "144949.730000", "144950.190000", "144950.650000", "144951.110000", "144951.570000", "144952.030000", "144952.490000", "144952.950000", "144953.410000", "144953.870000", "144954.330000", "144954.790000", "144955.250000", "144955.710000", "144956.170000", "144956.630000", "144957.090000", "144957.550000", "144958.010000", "144958.470000", "144958.930000", "144959.390000", "144959.850000", "145000.310000", "145000.770000", "145001.230000", "145001.690000", "145002.150000", "145002.610000", "145003.070000", "145003.530000", "145003.990000", "145004.450000", "145004.910000", "145005.370000", "145005.830000", "145006.290000", "145006.750000", "145007.210000", "145007.670000", "145008.130000", "145008.590000", "145009.050000", "145009.510000", "145009.970000", "145010.430000", "145010.890000", "145011.350000", "145011.810000", "145012.270000", "145012.730000", "145013.190000", "145013.650000", "145014.110000", "145014.570000", "145015.030000", "145015.490000", "145015.950000", "145016.410000", "145016.870000", "145017.330000", "145017.790000", "145018.250000", "145018.710000", "145019.170000", "145019.630000", "145020.090000", "145020.550000", "145021.010000", "145021.470000", "145021.930000", "145022.390000", "145022.850000", "145023.310000", "145023.770000", "145024.230000", "145024.690000", "145025.150000", "145025.610000", "145026.070000", "145026.530000", "145026.990000", "145027.450000", "145027.910000", "145028.370000", "145028.830000", "145029.290000", "145029.750000", "145030.210000", "145030.670000", "145031.130000", "145031.590000", "145032.050000", "145032.510000", "145032.970000", "145033.430000", "145033.890000", "145034.350000", "145034.810000", "145035.270000", "145035.730000", "145036.190000", "145036.650000", "145037.110000", "145037.570000", "145038.030000", "145038.490000", "145038.950000", "145039.410000", "145039.870000", "145040.330000", "145040.790000", "145041.250000", "145041.710000", "145042.170000", "145042.630000", "145043.090000", "145043.550000", "145044.010000", "145044.470000", "145044.930000", "145045.390000", "145045.850000", "145046.310000", "145046.770000", "145047.230000", "145047.690000", "145048.150000", "145048.610000", "145049.070000", "145049.530000", "145049.990000", "145050.450000", "145050.910000", "145051.370000", "145051.830000", "145052.290000", "145052.750000", "145053.210000", "145053.670000", "145054.130000", "145054.590000", "145055.050000", "145055.510000", "145055.970000", "145056.430000", "145056.890000", "145057.350000", "145057.810000", "145058.270000", "145058.730000", "145059.190000", "145059.650000", "145100.110000", "145100.570000", "145101.030000", "145101.490000", "145101.950000", "145102.410000", "145102.870000", "145103.330000", "145103.790000", "145104.250000", "145104.710000", "145105.170000", "145105.630000", "145106.090000", "145106.550000", "145107.010000", "145107.470000", "145107.930000", "145108.390000", "145108.850000", "145109.310000", "145109.770000", "145110.230000", "145110.690000", "145111.150000", "145111.610000", "145112.070000", "145112.530000", "145112.990000", "145113.450000", "145113.910000", "145114.370000", "145114.830000", "145115.290000", "145115.750000", "145116.210000", "145116.670000", "145117.130000", "145117.590000", "145118.050000", "145118.510000", "145118.970000", "145119.430000", "145119.890000", "145120.350000", "145120.810000", "145121.270000", "145121.730000", "145122.190000", "145122.650000", "145123.110000", "145123.570000", "145124.030000", "145124.490000", "145124.950000", "145125.410000", "145125.870000", "145126.330000", "145126.790000", "145127.250000", "145127.710000", "145128.170000", "145128.630000", "145129.090000", "145129.550000", "145130.010000", "145130.470000", "145130.930000", "145131.390000", "145131.850000", "145132.310000", "145132.770000", "145133.230000", "145133.690000", "145134.150000", "145134.610000", "145135.070000", "145135.530000", "145135.990000", "145136.450000", "145136.910000", "145137.370000", "145137.830000", "145138.290000", "145138.750000", "145139.210000", "145139.670000", "145140.130000", "145140.590000", "145141.050000", "145141.510000", "145141.970000", "145142.430000", "145142.890000", "145143.350000", "145143.810000", "145144.270000", "145144.730000"],
