{
  "AcquisitionMatrixPE": 82,
  "AcquisitionNumber": 1,
  "AcquisitionTime": "14:58:56.867500",
  "BandwidthPerPixelPhaseEncode": 24.888,
  "BaseResolution": 82,
  "BodyPartExamined": "BRAIN",
  "ConsistencyInfo": "N4_VE11E_LATEST_20181129",
  "ConversionSoftware": "dcm2niix",
  "ConversionSoftwareVersion": "v1.0.20201102",
  "DerivedVendorReportedEchoSpacing": 0.00049,
  "DeviceSerialNumber": "66112",
  "DwellTime": 2e-06,
  "EchoTime": 0.0272,
  "EchoTrainLength": 82,
  "EffectiveEchoSpacing": 0.00049,
  "FlipAngle": 44,
  "ImageComments": "Unaliased MB8/PE3",
  "ImageOrientationPatientDICOM": [0.998688, 0.0260359, 0.0440876, -0.0256283, 0.999624, -0.00978557],
  "ImageType": [
    "ORIGINAL",
    "PRIMARY",
    "M",
    "MB",
    "ND",
    "NORM",
    "MOSAIC"
],
  "ImagingFrequency": 123.252,
  "InPlanePhaseEncodingDirectionDICOM": "COL",
  "InstitutionAddress": "Maynard 3,Hanover,NH,US,03755",
  "InstitutionName": "Dartmouth College - PBS",
  "InstitutionalDepartmentName": "Department",
  "MRAcquisitionType": "2D",
  "MagneticFieldStrength": 3,
  "Manufacturer": "Siemens",
  "ManufacturersModelName": "Prisma",
  "Modality": "MR",
  "MultibandAccelerationFactor": 8,
  "PartialFourier": 1,
  "PatientPosition": "HFS",
  "PercentPhaseFOV": 100,
  "PercentSampling": 100,
  "PhaseEncodingDirection": "j-",
  "PhaseEncodingSteps": 82,
  "PhaseResolution": 1,
  "PixelBandwidth": 3050,
  "ProcedureStepDescription": "Wager_Wager^1076_spacetop",
  "ProtocolName": "func_run-04_task-social_acq-ap-mb8",
  "PulseSequenceDetails": "%CustomerSeq%\\cmrr_mbep2d_bold",
  "ReceiveCoilActiveElements": "HEA;HEP",
  "ReceiveCoilName": "Head_32",
  "ReconMatrixPE": 82,
  "RepetitionTime": 0.46,
  "SAR": 0.0901349,
  "ScanOptions": "FS",
  "ScanningSequence": "EP",
  "SequenceName": "epfid2d1_82",
  "SequenceVariant": "SK\\SS",
  "SeriesDescription": "func_run-04_task-social_acq-ap-mb8",
  "SeriesNumber": 18,
  "ShimSetting": [4151, -7788, -7267, 756, -75, -418, 311, 35],
  "SliceThickness": 2.7,
  "SliceTiming": [0, 0.2525, 0.0625, 0.315, 0.125, 0.3775, 0.19, 0, 0.2525, 0.0625, 0.315, 0.125, 0.3775, 0.19, 0, 0.2525, 0.0625, 0.315, 0.125, 0.3775, 0.19, 0, 0.2525, 0.0625, 0.315, 0.125, 0.3775, 0.19, 0, 0.2525, 0.0625, 0.315, 0.125, 0.3775, 0.19, 0, 0.2525, 0.0625, 0.315, 0.125, 0.3775, 0.19, 0, 0.2525, 0.0625, 0.315, 0.125, 0.3775, 0.19, 0, 0.2525, 0.0625, 0.315, 0.125, 0.3775, 0.19],
  "SoftwareVersions": "syngo MR E11",
  "SpacingBetweenSlices": 2.7,
  "StationName": "AWP66112",
  "TaskName": "social",
  "TotalReadoutTime": 0.03969,
  "TxRefAmp": 240.939,
  "WipMemBlock": "b41f33d3-cdc5-4dce-a54b-8e03005eb7ca||Sequence: R016 ve11e/master r/434b28f1; Aug  7 2019 18:53:46 by eja",
  "dcmmeta_affine": [
    [-2.679407835006714, -0.0687587782740593, 0.11967960745096207, 110.11906433105469],
    [-0.06985235214233398, 2.681917190551758, -0.023335684090852737, -93.28150177001953],
    [0.11828380078077316, 0.026253968477249146, 2.6972453594207764, -74.25299835205078],
    [0.0, 0.0, 0.0, 1.0]
],
  "dcmmeta_reorient_transform": [
    [0.0, -1.0, 0.0, 81.0],
    [1.0, 0.0, 0.0, 0.0],
    [0.0, 0.0, 1.0, 0.0],
    [0.0, 0.0, 0.0, 1.0]
],
  "dcmmeta_shape": [82, 82, 56, 872],
  "dcmmeta_slice_dim": 2,
  "dcmmeta_version": 0.6,
  "global": {
    "const": {
      "AccessionNumber": "A003973",
      "AcquisitionMatrix": [82, 0, 0, 82],
      "AngioFlag": "N",
      "BitsAllocated": 16,
      "BitsStored": 16,
      "BodyPartExamined": "BRAIN",
      "Columns": 656,
      "EchoNumbers": 1,
      "EchoTime": 27.2,
      "EchoTrainLength": 82,
      "FlipAngle": 44.0,
      "HighBit": 15,
      "ImageOrientationPatient": [0.99868834828424, 0.02603587603151, 0.04408759644818, -0.0256282704462, 0.99962364636749, -0.0097855698301],
      "ImagePositionPatient": [-853.8058796262, -913.71164016769, -98.538986963391],
      "ImageType": [
        "ORIGINAL",
        "PRIMARY",
        "M",
        "MB",
        "ND",
        "NORM",
        "MOSAIC"
],
      "ImagedNucleus": "1H",
      "ImagingFrequency": 123.252211,
      "InPlanePhaseEncodingDirection": "COL",
      "MRAcquisitionType": "2D",
      "MagneticFieldStrength": 3.0,
      "Manufacturer": "SIEMENS",
      "ManufacturerModelName": "Prisma",
      "Modality": "MR",
      "NumberOfAverages": 1.0,
      "NumberOfPhaseEncodingSteps": 82,
      "PercentPhaseFieldOfView": 100.0,
      "PercentSampling": 100.0,
      "PerformedProcedureStepStartTime": "141113.162000",
      "PhotometricInterpretation": "MONOCHROME2",
      "PixelBandwidth": 3050.0,
      "PixelRepresentation": 0,
      "PixelSpacing": [2.6829268932343, 2.6829268932343],
      "ProtocolName": "func_run-04_task-social_acq-ap-mb8",
      "RepetitionTime": 460.0,
      "Rows": 656,
      "SAR": 0.09013486934986,
      "SamplesPerPixel": 1,
      "ScanOptions": "FS",
      "ScanningSequence": "EP",
      "SequenceName": "epfid2d1_82",
      "SequenceVariant": [
        "SK",
        "SS"
],
      "SeriesDescription": "func_run-04_task-social_acq-ap-mb8",
      "SeriesNumber": 18,
      "SeriesTime": "145913.685000",
      "SliceLocation": -68.489909177267,
      "SliceThickness": 2.7000000476837,
      "SmallestImagePixelValue": 0,
      "SoftwareVersions": "syngo MR E11",
      "SpacingBetweenSlices": 2.7000000671328,
      "SpecificCharacterSet": "ISO_IR 100",
      "StudyID": "1",
      "StudyTime": "141113.098000",
      "TransmitCoilName": "Body",
      "VariableFlipAngleFlag": "N",
      "WindowCenterWidthExplanation": "Algo1"
    },
    "slices": {}
  },
  "time": {
    "samples": {
      "AcquisitionNumber": [1, 2, 3, 4, 5, 6, 7, 8, 9, 10, 11, 12, 13, 14, 15, 16, 17, 18, 19, 20, 21, 22, 23, 24, 25, 26, 27, 28, 29, 30, 31, 32, 33, 34, 35, 36, 37, 38, 39, 40, 41, 42, 43, 44, 45, 46, 47, 48, 49, 50, 51, 52, 53, 54, 55, 56, 57, 58, 59, 60, 61, 62, 63, 64, 65, 66, 67, 68, 69, 70, 71, 72, 73, 74, 75, 76, 77, 78, 79, 80, 81, 82, 83, 84, 85, 86, 87, 88, 89, 90, 91, 92, 93, 94, 95, 96, 97, 98, 99, 100, 101, 102, 103, 104, 105, 106, 107, 108, 109, 110, 111, 112, 113, 114, 115, 116, 117, 118, 119, 120, 121, 122, 123, 124, 125, 126, 127, 128, 129, 130, 131, 132, 133, 134, 135, 136, 137, 138, 139, 140, 141, 142, 143, 144, 145, 146, 147, 148, 149, 150, 151, 152, 153, 154, 155, 156, 157, 158, 159, 160, 161, 162, 163, 164, 165, 166, 167, 168, 169, 170, 171, 172, 173, 174, 175, 176, 177, 178, 179, 180, 181, 182, 183, 184, 185, 186, 187, 188, 189, 190, 191, 192, 193, 194, 195, 196, 197, 198, 199, 200, 201, 202, 203, 204, 205, 206, 207, 208, 209, 210, 211, 212, 213, 214, 215, 216, 217, 218, 219, 220, 221, 222, 223, 224, 225, 226, 227, 228, 229, 230, 231, 232, 233, 234, 235, 236, 237, 238, 239, 240, 241, 242, 243, 244, 245, 246, 247, 248, 249, 250, 251, 252, 253, 254, 255, 256, 257, 258, 259, 260, 261, 262, 263, 264, 265, 266, 267, 268, 269, 270, 271, 272, 273, 274, 275, 276, 277, 278, 279, 280, 281, 282, 283, 284, 285, 286, 287, 288, 289, 290, 291, 292, 293, 294, 295, 296, 297, 298, 299, 300, 301, 302, 303, 304, 305, 306, 307, 308, 309, 310, 311, 312, 313, 314, 315, 316, 317, 318, 319, 320, 321, 322, 323, 324, 325, 326, 327, 328, 329, 330, 331, 332, 333, 334, 335, 336, 337, 338, 339, 340, 341, 342, 343, 344, 345, 346, 347, 348, 349, 350, 351, 352, 353, 354, 355, 356, 357, 358, 359, 360, 361, 362, 363, 364, 365, 366, 367, 368, 369, 370, 371, 372, 373, 374, 375, 376, 377, 378, 379, 380, 381, 382, 383, 384, 385, 386, 387, 388, 389, 390, 391, 392, 393, 394, 395, 396, 397, 398, 399, 400, 401, 402, 403, 404, 405, 406, 407, 408, 409, 410, 411, 412, 413, 414, 415, 416, 417, 418, 419, 420, 421, 422, 423, 424, 425, 426, 427, 428, 429, 430, 431, 432, 433, 434, 435, 436, 437, 438, 439, 440, 441, 442, 443, 444, 445, 446, 447, 448, 449, 450, 451, 452, 453, 454, 455, 456, 457, 458, 459, 460, 461, 462, 463, 464, 465, 466, 467, 468, 469, 470, 471, 472, 473, 474, 475, 476, 477, 478, 479, 480, 481, 482, 483, 484, 485, 486, 487, 488, 489, 490, 491, 492, 493, 494, 495, 496, 497, 498, 499, 500, 501, 502, 503, 504, 505, 506, 507, 508, 509, 510, 511, 512, 513, 514, 515, 516, 517, 518, 519, 520, 521, 522, 523, 524, 525, 526, 527, 528, 529, 530, 531, 532, 533, 534, 535, 536, 537, 538, 539, 540, 541, 542, 543, 544, 545, 546, 547, 548, 549, 550, 551, 552, 553, 554, 555, 556, 557, 558, 559, 560, 561, 562, 563, 564, 565, 566, 567, 568, 569, 570, 571, 572, 573, 574, 575, 576, 577, 578, 579, 580, 581, 582, 583, 584, 585, 586, 587, 588, 589, 590, 591, 592, 593, 594, 595, 596, 597, 598, 599, 600, 601, 602, 603, 604, 605, 606, 607, 608, 609, 610, 611, 612, 613, 614, 615, 616, 617, 618, 619, 620, 621, 622, 623, 624, 625, 626, 627, 628, 629, 630, 631, 632, 633, 634, 635, 636, 637, 638, 639, 640, 641, 642, 643, 644, 645, 646, 647, 648, 649, 650, 651, 652, 653, 654, 655, 656, 657, 658, 659, 660, 661, 662, 663, 664, 665, 666, 667, 668, 669, 670, 671, 672, 673, 674, 675, 676, 677, 678, 679, 680, 681, 682, 683, 684, 685, 686, 687, 688, 689, 690, 691, 692, 693, 694, 695, 696, 697, 698, 699, 700, 701, 702, 703, 704, 705, 706, 707, 708, 709, 710, 711, 712, 713, 714, 715, 716, 717, 718, 719, 720, 721, 722, 723, 724, 725, 726, 727, 728, 729, 730, 731, 732, 733, 734, 735, 736, 737, 738, 739, 740, 741, 742, 743, 744, 745, 746, 747, 748, 749, 750, 751, 752, 753, 754, 755, 756, 757, 758, 759, 760, 761, 762, 763, 764, 765, 766, 767, 768, 769, 770, 771, 772, 773, 774, 775, 776, 777, 778, 779, 780, 781, 782, 783, 784, 785, 786, 787, 788, 789, 790, 791, 792, 793, 794, 795, 796, 797, 798, 799, 800, 801, 802, 803, 804, 805, 806, 807, 808, 809, 810, 811, 812, 813, 814, 815, 816, 817, 818, 819, 820, 821, 822, 823, 824, 825, 826, 827, 828, 829, 830, 831, 832, 833, 834, 835, 836, 837, 838, 839, 840, 841, 842, 843, 844, 845, 846, 847, 848, 849, 850, 851, 852, 853, 854, 855, 856, 857, 858, 859, 860, 861, 862, 863, 864, 865, 866, 867, 868, 869, 870, 871, 872],
      "AcquisitionTime": ["145856.867500", "145857.327500", "145857.787500", "145858.247500", "145858.707500", "145859.167500", "145859.627500", "145900.087500", "145900.547500", "145901.007500", "145901.467500", "145901.927500", "145902.387500", "145902.847500", "145903.307500", "145903.767500", "145904.227500", "145904.687500", "145905.147500", "145905.607500", "145906.067500", "145906.527500", "145906.987500", "145907.447500", "145907.907500", "145908.367500", "145908.827500", "145909.287500", "145909.747500", "145910.207500", "145910.667500", "145911.127500", "145911.587500", "145912.047500", "145912.507500", "145912.967500", "145913.427500", "145913.887500", "145914.347500", "145914.807500", "145915.267500", "145915.727500", "145916.187500", "145916.647500", "145917.107500", "145917.567500", "145918.027500", "145918.487500", "145918.947500", "145919.407500", "145919.867500", "145920.327500", "145920.787500", "145921.247500", "145921.707500", "145922.167500", "145922.627500", "145923.087500", "145923.547500", "145924.007500", "145924.467500", "145924.927500", "145925.387500", "145925.847500", "145926.307500", "145926.767500", "145927.227500", "145927.687500", "145928.147500", "145928.607500", "145929.067500", "145929.527500", "145929.987500", "145930.447500", "145930.907500", "145931.367500", "145931.827500", "145932.287500", "145932.747500", "145933.207500", "145933.667500", "145934.127500", "145934.587500", "145935.047500", "145935.507500", "145935.967500", "145936.427500", "145936.887500", "145937.347500", "145937.807500", "145938.267500", "145938.727500", "145939.187500", "145939.647500", "145940.107500", "145940.567500", "145941.027500", "145941.487500", "145941.947500", "145942.407500", "145942.867500", "145943.327500", "145943.787500", "145944.247500", "145944.707500", "145945.167500", "145945.627500", "145946.087500", "145946.547500", "145947.007500", "145947.467500", "145947.927500", "145948.387500", "145948.847500", "145949.307500", "145949.767500", "145950.227500", "145950.687500", "145951.147500", "145951.607500", "145952.067500", "145952.527500", "145952.987500", "145953.447500", "145953.907500", "145954.367500", "145954.827500", "145955.287500", "145955.747500", "145956.207500", "145956.667500", "145957.127500", "145957.587500", "145958.047500", "145958.507500", "145958.967500", "145959.427500", "145959.887500", "150000.347500", "150000.807500", "150001.267500", "150001.727500", "150002.187500", "150002.647500", "150003.107500", "150003.567500", "150004.027500", "150004.487500", "150004.947500", "150005.407500", "150005.867500", "150006.327500", "150006.787500", "150007.247500", "150007.707500", "150008.167500", "150008.627500", "150009.087500", "150009.547500", "150010.007500", "150010.467500", "150010.927500", "150011.387500", "150011.847500", "150012.307500", "150012.767500", "150013.227500", "150013.687500", "150014.147500", "150014.607500", "150015.067500", "150015.527500", "150015.987500", "150016.447500", "150016.907500", "150017.367500", "150017.827500", "150018.287500", "150018.747500", "150019.207500", "150019.667500", "150020.127500", "150020.587500", "150021.047500", "150021.507500", "150021.967500", "150022.427500", "150022.887500", "150023.347500", "150023.807500", "150024.267500", "150024.727500", "150025.187500", "150025.647500", "150026.107500", "150026.567500", "150027.027500", "150027.487500", "150027.947500", "150028.407500", "150028.867500", "150029.327500", "150029.787500", "150030.247500", "150030.707500", "150031.167500", "150031.627500", "150032.087500", "150032.547500", "150033.007500", "150033.467500", "150033.927500", "150034.387500", "150034.847500", "150035.307500", "150035.767500", "150036.227500", "150036.687500", "150037.147500", "150037.607500", "150038.067500", "150038.527500", "150038.987500", "150039.447500", "150039.907500", "150040.367500", "150040.827500", "150041.287500", "150041.747500", "150042.207500", "150042.667500", "150043.127500", "150043.587500", "150044.047500", "150044.507500", "150044.967500", "150045.427500", "150045.887500", "150046.347500", "150046.807500", "150047.267500", "150047.727500", "150048.187500", "150048.647500", "150049.107500", "150049.567500", "150050.027500", "150050.487500", "150050.947500", "150051.407500", "150051.867500", "150052.327500", "150052.787500", "150053.247500", "150053.707500", "150054.167500", "150054.627500", "150055.087500", "150055.547500", "150056.007500", "150056.467500", "150056.927500", "150057.387500", "150057.847500", "150058.307500", "150058.767500", "150059.227500", "150059.687500", "150100.147500", "150100.607500", "150101.067500", "150101.527500", "150101.987500", "150102.447500", "150102.907500", "150103.367500", "150103.827500", "150104.287500", "150104.747500", "150105.207500", "150105.667500", "150106.127500", "150106.587500", "150107.047500", "150107.507500", "150107.967500", "150108.427500", "150108.887500", "150109.347500", "150109.807500", "150110.267500", "150110.727500", "150111.187500", "150111.647500", "150112.107500", "150112.567500", "150113.027500", "150113.487500", "150113.947500", "150114.407500", "150114.867500", "150115.327500", "150115.787500", "150116.247500", "150116.707500", "150117.167500", "150117.627500", "150118.087500", "150118.547500", "150119.007500", "150119.467500", "150119.927500", "150120.387500", "150120.847500", "150121.307500", "150121.767500", "150122.227500", "150122.687500", "150123.147500", "150123.607500", "150124.067500", "150124.527500", "150124.987500", "150125.447500", "150125.907500", "150126.367500", "150126.827500", "150127.287500", "150127.747500", "150128.207500", "150128.667500", "150129.127500", "150129.587500", "150130.047500", "150130.507500", "150130.967500", "150131.427500", "150131.887500", "150132.347500", "150132.807500", "150133.267500", "150133.727500", "150134.187500", "150134.647500", "150135.107500", "150135.567500", "150136.027500", "150136.487500", "150136.947500", "150137.407500", "150137.867500", "150138.327500", "150138.787500", "150139.247500", "150139.707500", "150140.167500", "150140.627500", "150141.087500", "150141.547500", "150142.007500", "150142.467500", "150142.927500", "150143.387500", "150143.847500", "150144.307500", "150144.767500", "150145.227500", "150145.687500", "150146.147500", "150146.607500", "150147.067500", "150147.527500", "150147.987500", "150148.447500", "150148.907500", "150149.367500", "150149.827500", "150150.287500", "150150.747500", "150151.207500", "150151.667500", "150152.127500", "150152.587500", "150153.047500", "150153.507500", "150153.967500", "150154.427500", "150154.887500", "150155.347500", "150155.807500", "150156.267500", "150156.727500", "150157.187500", "150157.647500", "150158.107500", "150158.567500", "150159.027500", "150159.487500", "150159.947500", "150200.407500", "150200.867500", "150201.327500", "150201.787500", "150202.247500", "150202.707500", "150203.167500", "150203.627500", "150204.087500", "150204.547500", "150205.007500", "150205.467500", "150205.927500", "150206.387500", "150206.847500", "150207.307500", "150207.767500", "150208.227500", "150208.687500", "150209.147500", "150209.607500", "150210.067500", "150210.527500", "150210.987500", "150211.447500", "150211.907500", "150212.367500", "150212.827500", "150213.287500", "150213.747500", "150214.207500", "150214.667500", "150215.127500", "150215.587500", "150216.047500", "150216.507500", "150216.967500", "150217.427500", "150217.887500", "150218.347500", "150218.807500", "150219.267500", "150219.727500", "150220.187500", "150220.647500", "150221.107500", "150221.567500", "150222.027500", "150222.487500", "150222.947500", "150223.407500", "150223.867500", "150224.327500", "150224.787500", "150225.247500", "150225.707500", "150226.167500", "150226.627500", "150227.087500", "150227.547500", "150228.007500", "150228.467500", "150228.927500", "150229.387500", "150229.847500", "150230.307500", "150230.767500", "150231.227500", "150231.687500", "150232.147500", "150232.607500", "150233.067500", "150233.527500", "150233.987500", "150234.447500", "150234.907500", "150235.367500", "150235.827500", "150236.287500", "150236.747500", "150237.207500", "150237.667500", "150238.127500", "150238.587500", "150239.047500", "150239.507500", "150239.967500", "150240.427500", "150240.887500", "150241.347500", "150241.807500", "150242.267500", "150242.727500", "150243.187500", "150243.647500", "150244.107500", "150244.567500", "150245.027500", "150245.487500", "150245.947500", "150246.407500", "150246.867500", "150247.327500", "150247.787500", "150248.247500", "150248.707500", "150249.167500", "150249.627500", "150250.087500", "150250.547500", "150251.007500", "150251.467500", "150251.927500", "150252.387500", "150252.847500", "150253.307500", "150253.767500", "150254.227500", "150254.687500", "150255.147500", "150255.607500", "150256.067500", "150256.527500", "150256.987500", "150257.447500", "150257.907500", "150258.367500", "150258.827500", "150259.287500", "150259.747500", "150300.207500", "150300.667500", "150301.127500", "150301.587500", "150302.047500", "150302.507500", "150302.967500", "150303.427500", "150303.887500", "150304.347500", "150304.807500", "150305.267500", "150305.727500", "150306.187500", "150306.647500", "150307.107500", "150307.567500", "150308.027500", "150308.487500", "150308.947500", "150309.407500", "150309.867500", "150310.327500", "150310.787500", "150311.247500", "150311.707500", "150312.167500", "150312.627500", "150313.087500", "150313.547500", "150314.007500", "150314.467500", "150314.927500", "150315.387500", "150315.847500", "150316.307500", "150316.767500", "150317.227500", "150317.687500", "150318.147500", "150318.607500", "150319.067500", "150319.527500", "150319.987500", "150320.447500", "150320.907500", "150321.367500", "150321.827500", "150322.287500", "150322.747500", "150323.207500", "150323.667500", "150324.127500", "150324.587500", "150325.047500", "150325.507500", "150325.967500", "150326.427500", "150326.887500", "150327.347500", "150327.807500", "150328.267500", "150328.727500", "150329.187500", "150329.647500", "150330.107500", "150330.567500", "150331.027500", "150331.487500", "150331.947500", "150332.407500", "150332.867500", "150333.327500", "150333.787500", "150334.247500", "150334.707500", "150335.167500", "150335.627500", "150336.087500", "150336.547500", "150337.007500", "150337.467500", "150337.927500", "150338.387500", "150338.847500", "150339.307500", "150339.767500", "150340.227500", "150340.687500", "150341.147500", "150341.607500", "150342.067500", "150342.527500", "150342.987500", "150343.447500", "150343.907500", "150344.367500", "150344.827500", "150345.287500", "150345.747500", "150346.207500", "150346.667500", "150347.127500", "150347.587500", "150348.047500", "150348.507500", "150348.967500", "150349.427500", "150349.887500", "150350.347500", "150350.807500", "150351.267500", "150351.727500", "150352.187500", "150352.647500", "150353.107500", "150353.567500", "150354.027500", "150354.487500", "150354.947500", "150355.407500", "150355.867500", "150356.327500", "150356.787500", "150357.247500", "150357.707500", "150358.167500", "150358.627500", "150359.087500", "150359.547500", "150400.007500", "150400.467500", "150400.927500", "150401.387500", "150401.847500", "150402.307500", "150402.767500", "150403.227500", "150403.687500", "150404.147500", "150404.607500", "150405.067500", "150405.527500", "150405.987500", "150406.447500", "150406.907500", "150407.367500", "150407.827500", "150408.287500", "150408.747500", "150409.207500", "150409.667500", "150410.127500", "150410.587500", "150411.047500", "150411.507500", "150411.967500", "150412.427500", "150412.887500", "150413.347500", "150413.807500", "150414.267500", "150414.727500", "150415.187500", "150415.647500", "150416.107500", "150416.567500", "150417.027500", "150417.487500", "150417.947500", "150418.407500", "150418.867500", "150419.327500", "150419.787500", "150420.247500", "150420.707500", "150421.167500", "150421.627500", "150422.087500", "150422.547500", "150423.007500", "150423.467500", "150423.927500", "150424.387500", "150424.847500", "150425.307500", "150425.767500", "150426.227500", "150426.687500", "150427.147500", "150427.607500", "150428.067500", "150428.527500", "150428.987500", "150429.447500", "150429.907500", "150430.367500", "150430.827500", "150431.287500", "150431.747500", "150432.207500", "150432.667500", "150433.127500", "150433.587500", "150434.047500", "150434.507500", "150434.967500", "150435.427500", "150435.887500", "150436.347500", "150436.807500", "150437.267500", "150437.727500", "150438.187500", "150438.647500", "150439.107500", "150439.567500", "150440.027500", "150440.487500", "150440.947500", "150441.407500", "150441.867500", "150442.327500", "150442.787500", "150443.247500", "150443.707500", "150444.167500", "150444.627500", "150445.087500", "150445.547500", "150446.007500", "150446.467500", "150446.927500", "150447.387500", "150447.847500", "150448.307500", "150448.767500", "150449.227500", "150449.687500", "150450.147500", "150450.607500", "150451.067500", "150451.527500", "150451.987500", "150452.447500", "150452.907500", "150453.367500", "150453.827500", "150454.287500", "150454.747500", "150455.207500", "150455.667500", "150456.127500", "150456.587500", "150457.047500", "150457.507500", "150457.967500", "150458.427500", "150458.887500", "150459.347500", "150459.807500", "150500.267500", "150500.727500", "150501.187500", "150501.647500", "150502.107500", "150502.567500", "150503.027500", "150503.487500", "150503.947500", "150504.407500", "150504.867500", "150505.327500", "150505.787500", "150506.247500", "150506.707500", "150507.167500", "150507.627500", "150508.087500", "150508.547500", "150509.007500", "150509.467500", "150509.927500", "150510.387500", "150510.847500", "150511.307500", "150511.767500", "150512.227500", "150512.687500", "150513.147500", "150513.607500", "150514.067500", "150514.527500", "150514.987500", "150515.447500", "150515.907500", "150516.367500", "150516.827500", "150517.287500", "150517.747500", "150518.207500", "150518.667500", "150519.127500", "150519.587500", "150520.047500", "150520.507500", "150520.967500", "150521.427500", "150521.887500", "150522.347500", "150522.807500", "150523.267500", "150523.727500", "150524.187500", "150524.647500", "150525.107500", "150525.567500", "150526.027500", "150526.487500", "150526.947500", "150527.407500", "150527.867500", "150528.327500", "150528.787500", "150529.247500", "150529.707500", "150530.167500", "150530.627500", "150531.087500", "150531.547500", "150532.007500", "150532.467500", "150532.927500", "150533.387500", "150533.847500", "150534.307500", "150534.767500", "150535.227500", "150535.687500", "150536.147500", "150536.607500", "150537.067500", "150537.527500"],
