{
  "AcquisitionMatrixPE": 82,
  "AcquisitionNumber": 1,
  "AcquisitionTime": "14:38:2.285000",
  "BandwidthPerPixelPhaseEncode": 24.888,
  "BaseResolution": 82,
  "BodyPartExamined": "BRAIN",
  "ConsistencyInfo": "N4_VE11E_LATEST_20181129",
  "ConversionSoftware": "dcm2niix",
  "ConversionSoftwareVersion": "v1.0.20201102",
  "DerivedVendorReportedEchoSpacing": 0.00049,
  "DeviceSerialNumber": "66112",
  "DwellTime": 2e-06,
  "EchoTime": 0.0272,
  "EchoTrainLength": 82,
  "EffectiveEchoSpacing": 0.00049,
  "FlipAngle": 44,
  "ImageComments": "Unaliased MB8/PE3",
  "ImageOrientationPatientDICOM": [0.998688, 0.0260359, 0.0440876, -0.0256283, 0.999624, -0.00978557],
  "ImageType": [
    "ORIGINAL",
    "PRIMARY",
    "M",
    "MB",
    "ND",
    "NORM",
    "MOSAIC"
],
  "ImagingFrequency": 123.252,
  "InPlanePhaseEncodingDirectionDICOM": "COL",
  "InstitutionAddress": "Maynard 3,Hanover,NH,US,03755",
  "InstitutionName": "Dartmouth College - PBS",
  "InstitutionalDepartmentName": "Department",
  "MRAcquisitionType": "2D",
  "MagneticFieldStrength": 3,
  "Manufacturer": "Siemens",
  "ManufacturersModelName": "Prisma",
  "Modality": "MR",
  "MultibandAccelerationFactor": 8,
  "PartialFourier": 1,
  "PatientPosition": "HFS",
  "PercentPhaseFOV": 100,
  "PercentSampling": 100,
  "PhaseEncodingDirection": "j-",
  "PhaseEncodingSteps": 82,
  "PhaseResolution": 1,
  "PixelBandwidth": 3050,
  "ProcedureStepDescription": "Wager_Wager^1076_spacetop",
  "ProtocolName": "func_run-01_task-social_acq-ap-mb8",
  "PulseSequenceDetails": "%CustomerSeq%\\cmrr_mbep2d_bold",
  "ReceiveCoilActiveElements": "HEA;HEP",
  "ReceiveCoilName": "Head_32",
  "ReconMatrixPE": 82,
  "RepetitionTime": 0.46,
  "SAR": 0.0901349,
  "ScanOptions": "FS",
  "ScanningSequence": "EP",
  "SequenceName": "epfid2d1_82",
  "SequenceVariant": "SK\\SS",
  "SeriesDescription": "func_run-01_task-social_acq-ap-mb8",
  "SeriesNumber": 12,
  "ShimSetting": [4151, -7788, -7267, 756, -75, -418, 311, 35],
  "SliceThickness": 2.7,
  "SliceTiming": [0, 0.25, 0.0625, 0.3125, 0.125, 0.375, 0.1875, 0, 0.25, 0.0625, 0.3125, 0.125, 0.375, 0.1875, 0, 0.25, 0.0625, 0.3125, 0.125, 0.375, 0.1875, 0, 0.25, 0.0625, 0.3125, 0.125, 0.375, 0.1875, 0, 0.25, 0.0625, 0.3125, 0.125, 0.375, 0.1875, 0, 0.25, 0.0625, 0.3125, 0.125, 0.375, 0.1875, 0, 0.25, 0.0625, 0.3125, 0.125, 0.375, 0.1875, 0, 0.25, 0.0625, 0.3125, 0.125, 0.375, 0.1875],
  "SoftwareVersions": "syngo MR E11",
  "SpacingBetweenSlices": 2.7,
  "StationName": "AWP66112",
  "TaskName": "social",
  "TotalReadoutTime": 0.03969,
  "TxRefAmp": 240.939,
  "WipMemBlock": "ecac64c0-1066-4446-b0f8-13c56df6ef2e||Sequence: R016 ve11e/master r/434b28f1; Aug  7 2019 18:53:46 by eja",
  "dcmmeta_affine": [
    [-2.679407835006714, -0.0687587782740593, 0.11967960745096207, 110.11906433105469],
    [-0.06985235214233398, 2.681917190551758, -0.023335684090852737, -93.28150177001953],
    [0.11828380078077316, 0.026253968477249146, 2.6972453594207764, -74.25299835205078],
    [0.0, 0.0, 0.0, 1.0]
],
  "dcmmeta_reorient_transform": [
    [0.0, -1.0, 0.0, 81.0],
    [1.0, 0.0, 0.0, 0.0],
    [0.0, 0.0, 1.0, 0.0],
    [0.0, 0.0, 0.0, 1.0]
],
  "dcmmeta_shape": [82, 82, 56, 872],
  "dcmmeta_slice_dim": 2,
  "dcmmeta_version": 0.6,
  "global": {
    "const": {
      "AccessionNumber": "A003973",
      "AcquisitionMatrix": [82, 0, 0, 82],
      "AngioFlag": "N",
      "BitsAllocated": 16,
      "BitsStored": 16,
      "BodyPartExamined": "BRAIN",
      "Columns": 656,
      "EchoNumbers": 1,
      "EchoTime": 27.2,
      "EchoTrainLength": 82,
      "FlipAngle": 44.0,
      "HighBit": 15,
      "ImageOrientationPatient": [0.99868834828424, 0.02603587603151, 0.04408759644818, -0.0256282704462, 0.99962364636749, -0.0097855698301],
      "ImagePositionPatient": [-853.8058796262, -913.71164016769, -98.538986963391],
      "ImageType": [
        "ORIGINAL",
        "PRIMARY",
        "M",
        "MB",
        "ND",
        "NORM",
        "MOSAIC"
],
      "ImagedNucleus": "1H",
      "ImagingFrequency": 123.252201,
      "InPlanePhaseEncodingDirection": "COL",
      "MRAcquisitionType": "2D",
      "MagneticFieldStrength": 3.0,
      "Manufacturer": "SIEMENS",
      "ManufacturerModelName": "Prisma",
      "Modality": "MR",
      "NumberOfAverages": 1.0,
      "NumberOfPhaseEncodingSteps": 82,
      "PercentPhaseFieldOfView": 100.0,
      "PercentSampling": 100.0,
      "PerformedProcedureStepStartTime": "141113.162000",
      "PhotometricInterpretation": "MONOCHROME2",
      "PixelBandwidth": 3050.0,
      "PixelRepresentation": 0,
      "PixelSpacing": [2.6829268932343, 2.6829268932343],
      "ProtocolName": "func_run-01_task-social_acq-ap-mb8",
      "RepetitionTime": 460.0,
      "Rows": 656,
      "SAR": 0.09013486934986,
      "SamplesPerPixel": 1,
      "ScanOptions": "FS",
      "ScanningSequence": "EP",
      "SequenceName": "epfid2d1_82",
      "SequenceVariant": [
        "SK",
        "SS"
],
      "SeriesDescription": "func_run-01_task-social_acq-ap-mb8",
      "SeriesNumber": 12,
      "SeriesTime": "143813.692000",
      "SliceLocation": -68.489909177267,
      "SliceThickness": 2.7000000476837,
      "SmallestImagePixelValue": 0,
      "SoftwareVersions": "syngo MR E11",
      "SpacingBetweenSlices": 2.7000000671328,
      "SpecificCharacterSet": "ISO_IR 100",
      "StudyID": "1",
      "StudyTime": "141113.098000",
      "TransmitCoilName": "Body",
      "VariableFlipAngleFlag": "N",
      "WindowCenterWidthExplanation": "Algo1"
    },
    "slices": {}
  },
  "time": {
    "samples": {
      "AcquisitionNumber": [1, 2, 3, 4, 5, 6, 7, 8, 9, 10, 11, 12, 13, 14, 15, 16, 17, 18, 19, 20, 21, 22, 23, 24, 25, 26, 27, 28, 29, 30, 31, 32, 33, 34, 35, 36, 37, 38, 39, 40, 41, 42, 43, 44, 45, 46, 47, 48, 49, 50, 51, 52, 53, 54, 55, 56, 57, 58, 59, 60, 61, 62, 63, 64, 65, 66, 67, 68, 69, 70, 71, 72, 73, 74, 75, 76, 77, 78, 79, 80, 81, 82, 83, 84, 85, 86, 87, 88, 89, 90, 91, 92, 93, 94, 95, 96, 97, 98, 99, 100, 101, 102, 103, 104, 105, 106, 107, 108, 109, 110, 111, 112, 113, 114, 115, 116, 117, 118, 119, 120, 121, 122, 123, 124, 125, 126, 127, 128, 129, 130, 131, 132, 133, 134, 135, 136, 137, 138, 139, 140, 141, 142, 143, 144, 145, 146, 147, 148, 149, 150, 151, 152, 153, 154, 155, 156, 157, 158, 159, 160, 161, 162, 163, 164, 165, 166, 167, 168, 169, 170, 171, 172, 173, 174, 175, 176, 177, 178, 179, 180, 181, 182, 183, 184, 185, 186, 187, 188, 189, 190, 191, 192, 193, 194, 195, 196, 197, 198, 199, 200, 201, 202, 203, 204, 205, 206, 207, 208, 209, 210, 211, 212, 213, 214, 215, 216, 217, 218, 219, 220, 221, 222, 223, 224, 225, 226, 227, 228, 229, 230, 231, 232, 233, 234, 235, 236, 237, 238, 239, 240, 241, 242, 243, 244, 245, 246, 247, 248, 249, 250, 251, 252, 253, 254, 255, 256, 257, 258, 259, 260, 261, 262, 263, 264, 265, 266, 267, 268, 269, 270, 271, 272, 273, 274, 275, 276, 277, 278, 279, 280, 281, 282, 283, 284, 285, 286, 287, 288, 289, 290, 291, 292, 293, 294, 295, 296, 297, 298, 299, 300, 301, 302, 303, 304, 305, 306, 307, 308, 309, 310, 311, 312, 313, 314, 315, 316, 317, 318, 319, 320, 321, 322, 323, 324, 325, 326, 327, 328, 329, 330, 331, 332, 333, 334, 335, 336, 337, 338, 339, 340, 341, 342, 343, 344, 345, 346, 347, 348, 349, 350, 351, 352, 353, 354, 355, 356, 357, 358, 359, 360, 361, 362, 363, 364, 365, 366, 367, 368, 369, 370, 371, 372, 373, 374, 375, 376, 377, 378, 379, 380, 381, 382, 383, 384, 385, 386, 387, 388, 389, 390, 391, 392, 393, 394, 395, 396, 397, 398, 399, 400, 401, 402, 403, 404, 405, 406, 407, 408, 409, 410, 411, 412, 413, 414, 415, 416, 417, 418, 419, 420, 421, 422, 423, 424, 425, 426, 427, 428, 429, 430, 431, 432, 433, 434, 435, 436, 437, 438, 439, 440, 441, 442, 443, 444, 445, 446, 447, 448, 449, 450, 451, 452, 453, 454, 455, 456, 457, 458, 459, 460, 461, 462, 463, 464, 465, 466, 467, 468, 469, 470, 471, 472, 473, 474, 475, 476, 477, 478, 479, 480, 481, 482, 483, 484, 485, 486, 487, 488, 489, 490, 491, 492, 493, 494, 495, 496, 497, 498, 499, 500, 501, 502, 503, 504, 505, 506, 507, 508, 509, 510, 511, 512, 513, 514, 515, 516, 517, 518, 519, 520, 521, 522, 523, 524, 525, 526, 527, 528, 529, 530, 531, 532, 533, 534, 535, 536, 537, 538, 539, 540, 541, 542, 543, 544, 545, 546, 547, 548, 549, 550, 551, 552, 553, 554, 555, 556, 557, 558, 559, 560, 561, 562, 563, 564, 565, 566, 567, 568, 569, 570, 571, 572, 573, 574, 575, 576, 577, 578, 579, 580, 581, 582, 583, 584, 585, 586, 587, 588, 589, 590, 591, 592, 593, 594, 595, 596, 597, 598, 599, 600, 601, 602, 603, 604, 605, 606, 607, 608, 609, 610, 611, 612, 613, 614, 615, 616, 617, 618, 619, 620, 621, 622, 623, 624, 625, 626, 627, 628, 629, 630, 631, 632, 633, 634, 635, 636, 637, 638, 639, 640, 641, 642, 643, 644, 645, 646, 647, 648, 649, 650, 651, 652, 653, 654, 655, 656, 657, 658, 659, 660, 661, 662, 663, 664, 665, 666, 667, 668, 669, 670, 671, 672, 673, 674, 675, 676, 677, 678, 679, 680, 681, 682, 683, 684, 685, 686, 687, 688, 689, 690, 691, 692, 693, 694, 695, 696, 697, 698, 699, 700, 701, 702, 703, 704, 705, 706, 707, 708, 709, 710, 711, 712, 713, 714, 715, 716, 717, 718, 719, 720, 721, 722, 723, 724, 725, 726, 727, 728, 729, 730, 731, 732, 733, 734, 735, 736, 737, 738, 739, 740, 741, 742, 743, 744, 745, 746, 747, 748, 749, 750, 751, 752, 753, 754, 755, 756, 757, 758, 759, 760, 761, 762, 763, 764, 765, 766, 767, 768, 769, 770, 771, 772, 773, 774, 775, 776, 777, 778, 779, 780, 781, 782, 783, 784, 785, 786, 787, 788, 789, 790, 791, 792, 793, 794, 795, 796, 797, 798, 799, 800, 801, 802, 803, 804, 805, 806, 807, 808, 809, 810, 811, 812, 813, 814, 815, 816, 817, 818, 819, 820, 821, 822, 823, 824, 825, 826, 827, 828, 829, 830, 831, 832, 833, 834, 835, 836, 837, 838, 839, 840, 841, 842, 843, 844, 845, 846, 847, 848, 849, 850, 851, 852, 853, 854, 855, 856, 857, 858, 859, 860, 861, 862, 863, 864, 865, 866, 867, 868, 869, 870, 871, 872],
      "AcquisitionTime": ["143802.285000", "143802.745000", "143803.205000", "143803.665000", "143804.125000", "143804.585000", "143805.045000", "143805.505000", "143805.965000", "143806.425000", "143806.885000", "143807.345000", "143807.805000", "143808.265000", "143808.725000", "143809.185000", "143809.645000", "143810.105000", "143810.565000", "143811.025000", "143811.485000", "143811.945000", "143812.405000", "143812.865000", "143813.325000", "143813.785000", "143814.245000", "143814.705000", "143815.165000", "143815.625000", "143816.085000", "143816.545000", "143817.005000", "143817.465000", "143817.925000", "143818.385000", "143818.845000", "143819.305000", "143819.765000", "143820.225000", "143820.685000", "143821.145000", "143821.605000", "143822.065000", "143822.525000", "143822.985000", "143823.445000", "143823.905000", "143824.365000", "143824.825000", "143825.285000", "143825.745000", "143826.205000", "143826.665000", "143827.125000", "143827.585000", "143828.045000", "143828.505000", "143828.965000", "143829.425000", "143829.885000", "143830.345000", "143830.805000", "143831.265000", "143831.725000", "143832.185000", "143832.645000", "143833.105000", "143833.565000", "143834.025000", "143834.485000", "143834.945000", "143835.405000", "143835.865000", "143836.325000", "143836.785000", "143837.245000", "143837.705000", "143838.165000", "143838.625000", "143839.085000", "143839.545000", "143840.005000", "143840.465000", "143840.925000", "143841.385000", "143841.845000", "143842.305000", "143842.765000", "143843.225000", "143843.685000", "143844.145000", "143844.605000", "143845.065000", "143845.525000", "143845.985000", "143846.445000", "143846.905000", "143847.365000", "143847.825000", "143848.285000", "143848.745000", "143849.205000", "143849.665000", "143850.125000", "143850.585000", "143851.045000", "143851.505000", "143851.965000", "143852.425000", "143852.885000", "143853.345000", "143853.805000", "143854.265000", "143854.725000", "143855.185000", "143855.645000", "143856.105000", "143856.565000", "143857.025000", "143857.485000", "143857.945000", "143858.405000", "143858.865000", "143859.325000", "143859.785000", "143900.245000", "143900.705000", "143901.165000", "143901.625000", "143902.085000", "143902.545000", "143903.005000", "143903.465000", "143903.925000", "143904.385000", "143904.845000", "143905.305000", "143905.765000", "143906.225000", "143906.685000", "143907.145000", "143907.605000", "143908.065000", "143908.525000", "143908.985000", "143909.445000", "143909.905000", "143910.365000", "143910.825000", "143911.285000", "143911.745000", "143912.205000", "143912.665000", "143913.125000", "143913.585000", "143914.045000", "143914.505000", "143914.965000", "143915.425000", "143915.885000", "143916.345000", "143916.805000", "143917.265000", "143917.725000", "143918.185000", "143918.645000", "143919.105000", "143919.565000", "143920.025000", "143920.485000", "143920.945000", "143921.405000", "143921.865000", "143922.325000", "143922.785000", "143923.245000", "143923.705000", "143924.165000", "143924.625000", "143925.085000", "143925.545000", "143926.005000", "143926.465000", "143926.925000", "143927.385000", "143927.845000", "143928.305000", "143928.765000", "143929.225000", "143929.685000", "143930.145000", "143930.605000", "143931.065000", "143931.525000", "143931.985000", "143932.445000", "143932.905000", "143933.365000", "143933.825000", "143934.285000", "143934.745000", "143935.205000", "143935.665000", "143936.125000", "143936.585000", "143937.045000", "143937.505000", "143937.965000", "143938.425000", "143938.885000", "143939.345000", "143939.805000", "143940.265000", "143940.725000", "143941.185000", "143941.645000", "143942.105000", "143942.565000", "143943.025000", "143943.485000", "143943.945000", "143944.405000", "143944.865000", "143945.325000", "143945.785000", "143946.245000", "143946.705000", "143947.165000", "143947.625000", "143948.085000", "143948.545000", "143949.005000", "143949.465000", "143949.925000", "143950.385000", "143950.845000", "143951.305000", "143951.765000", "143952.225000", "143952.685000", "143953.145000", "143953.605000", "143954.065000", "143954.525000", "143954.985000", "143955.445000", "143955.905000", "143956.365000", "143956.825000", "143957.285000", "143957.745000", "143958.205000", "143958.665000", "143959.125000", "143959.585000", "144000.045000", "144000.505000", "144000.965000", "144001.425000", "144001.885000", "144002.345000", "144002.805000", "144003.265000", "144003.725000", "144004.185000", "144004.645000", "144005.105000", "144005.565000", "144006.025000", "144006.485000", "144006.945000", "144007.405000", "144007.865000", "144008.325000", "144008.785000", "144009.245000", "144009.705000", "144010.165000", "144010.625000", "144011.085000", "144011.545000", "144012.005000", "144012.465000", "144012.925000", "144013.385000", "144013.845000", "144014.305000", "144014.765000", "144015.225000", "144015.685000", "144016.145000", "144016.605000", "144017.065000", "144017.525000", "144017.985000", "144018.445000", "144018.905000", "144019.365000", "144019.825000", "144020.285000", "144020.745000", "144021.205000", "144021.665000", "144022.125000", "144022.585000", "144023.045000", "144023.505000", "144023.965000", "144024.425000", "144024.885000", "144025.345000", "144025.805000", "144026.265000", "144026.725000", "144027.185000", "144027.645000", "144028.105000", "144028.565000", "144029.025000", "144029.485000", "144029.945000", "144030.405000", "144030.865000", "144031.325000", "144031.785000", "144032.245000", "144032.705000", "144033.165000", "144033.625000", "144034.085000", "144034.545000", "144035.005000", "144035.465000", "144035.925000", "144036.385000", "144036.845000", "144037.305000", "144037.765000", "144038.225000", "144038.685000", "144039.145000", "144039.605000", "144040.065000", "144040.525000", "144040.985000", "144041.445000", "144041.905000", "144042.365000", "144042.825000", "144043.285000", "144043.745000", "144044.205000", "144044.665000", "144045.125000", "144045.585000", "144046.045000", "144046.505000", "144046.965000", "144047.425000", "144047.885000", "144048.345000", "144048.805000", "144049.265000", "144049.725000", "144050.185000", "144050.645000", "144051.105000", "144051.565000", "144052.025000", "144052.485000", "144052.945000", "144053.405000", "144053.865000", "144054.325000", "144054.785000", "144055.245000", "144055.705000", "144056.165000", "144056.625000", "144057.085000", "144057.545000", "144058.005000", "144058.465000", "144058.925000", "144059.385000", "144059.845000", "144100.305000", "144100.765000", "144101.225000", "144101.685000", "144102.145000", "144102.605000", "144103.065000", "144103.525000", "144103.985000", "144104.445000", "144104.905000", "144105.365000", "144105.825000", "144106.285000", "144106.745000", "144107.205000", "144107.665000", "144108.125000", "144108.585000", "144109.045000", "144109.505000", "144109.965000", "144110.425000", "144110.885000", "144111.345000", "144111.805000", "144112.265000", "144112.725000", "144113.185000", "144113.645000", "144114.105000", "144114.565000", "144115.025000", "144115.485000", "144115.945000", "144116.405000", "144116.865000", "144117.325000", "144117.785000", "144118.245000", "144118.705000", "144119.165000", "144119.625000", "144120.085000", "144120.545000", "144121.005000", "144121.465000", "144121.925000", "144122.385000", "144122.845000", "144123.305000", "144123.765000", "144124.225000", "144124.685000", "144125.145000", "144125.605000", "144126.065000", "144126.525000", "144126.985000", "144127.445000", "144127.905000", "144128.365000", "144128.825000", "144129.285000", "144129.745000", "144130.205000", "144130.665000", "144131.125000", "144131.585000", "144132.045000", "144132.505000", "144132.965000", "144133.425000", "144133.885000", "144134.345000", "144134.805000", "144135.265000", "144135.725000", "144136.185000", "144136.645000", "144137.105000", "144137.565000", "144138.025000", "144138.485000", "144138.945000", "144139.405000", "144139.865000", "144140.325000", "144140.785000", "144141.245000", "144141.705000", "144142.165000", "144142.625000", "144143.085000", "144143.545000", "144144.005000", "144144.465000", "144144.925000", "144145.385000", "144145.845000", "144146.305000", "144146.765000", "144147.225000", "144147.685000", "144148.145000", "144148.605000", "144149.065000", "144149.525000", "144149.985000", "144150.445000", "144150.905000", "144151.365000", "144151.825000", "144152.285000", "144152.745000", "144153.205000", "144153.665000", "144154.125000", "144154.585000", "144155.045000", "144155.505000", "144155.965000", "144156.425000", "144156.885000", "144157.345000", "144157.805000", "144158.265000", "144158.725000", "144159.185000", "144159.645000", "144200.105000", "144200.565000", "144201.025000", "144201.485000", "144201.945000", "144202.405000", "144202.865000", "144203.325000", "144203.785000", "144204.245000", "144204.705000", "144205.165000", "144205.625000", "144206.085000", "144206.545000", "144207.005000", "144207.465000", "144207.925000", "144208.385000", "144208.845000", "144209.305000", "144209.765000", "144210.225000", "144210.685000", "144211.145000", "144211.605000", "144212.065000", "144212.525000", "144212.985000", "144213.445000", "144213.905000", "144214.365000", "144214.825000", "144215.285000", "144215.745000", "144216.205000", "144216.665000", "144217.125000", "144217.585000", "144218.045000", "144218.505000", "144218.965000", "144219.425000", "144219.885000", "144220.345000", "144220.805000", "144221.265000", "144221.725000", "144222.185000", "144222.645000", "144223.105000", "144223.565000", "144224.025000", "144224.485000", "144224.945000", "144225.405000", "144225.865000", "144226.325000", "144226.785000", "144227.245000", "144227.705000", "144228.165000", "144228.625000", "144229.085000", "144229.545000", "144230.005000", "144230.465000", "144230.925000", "144231.385000", "144231.845000", "144232.305000", "144232.765000", "144233.225000", "144233.685000", "144234.145000", "144234.605000", "144235.065000", "144235.525000", "144235.985000", "144236.445000", "144236.905000", "144237.365000", "144237.825000", "144238.285000", "144238.745000", "144239.205000", "144239.665000", "144240.125000", "144240.585000", "144241.045000", "144241.505000", "144241.965000", "144242.425000", "144242.885000", "144243.345000", "144243.805000", "144244.265000", "144244.725000", "144245.185000", "144245.645000", "144246.105000", "144246.565000", "144247.025000", "144247.485000", "144247.945000", "144248.405000", "144248.865000", "144249.325000", "144249.785000", "144250.245000", "144250.705000", "144251.165000", "144251.625000", "144252.085000", "144252.545000", "144253.005000", "144253.465000", "144253.925000", "144254.385000", "144254.845000", "144255.305000", "144255.765000", "144256.225000", "144256.685000", "144257.145000", "144257.605000", "144258.065000", "144258.525000", "144258.985000", "144259.445000", "144259.905000", "144300.365000", "144300.825000", "144301.285000", "144301.745000", "144302.205000", "144302.665000", "144303.125000", "144303.585000", "144304.045000", "144304.505000", "144304.965000", "144305.425000", "144305.885000", "144306.345000", "144306.805000", "144307.265000", "144307.725000", "144308.185000", "144308.645000", "144309.105000", "144309.565000", "144310.025000", "144310.485000", "144310.945000", "144311.405000", "144311.865000", "144312.325000", "144312.785000", "144313.245000", "144313.705000", "144314.165000", "144314.625000", "144315.085000", "144315.545000", "144316.005000", "144316.465000", "144316.925000", "144317.385000", "144317.845000", "144318.305000", "144318.765000", "144319.225000", "144319.685000", "144320.145000", "144320.605000", "144321.065000", "144321.525000", "144321.985000", "144322.445000", "144322.905000", "144323.365000", "144323.825000", "144324.285000", "144324.745000", "144325.205000", "144325.665000", "144326.125000", "144326.585000", "144327.045000", "144327.505000", "144327.965000", "144328.425000", "144328.885000", "144329.345000", "144329.805000", "144330.265000", "144330.725000", "144331.185000", "144331.645000", "144332.105000", "144332.565000", "144333.025000", "144333.485000", "144333.945000", "144334.405000", "144334.865000", "144335.325000", "144335.785000", "144336.245000", "144336.705000", "144337.165000", "144337.625000", "144338.085000", "144338.545000", "144339.005000", "144339.465000", "144339.925000", "144340.385000", "144340.845000", "144341.305000", "144341.765000", "144342.225000", "144342.685000", "144343.145000", "144343.605000", "144344.065000", "144344.525000", "144344.985000", "144345.445000", "144345.905000", "144346.365000", "144346.825000", "144347.285000", "144347.745000", "144348.205000", "144348.665000", "144349.125000", "144349.585000", "144350.045000", "144350.505000", "144350.965000", "144351.425000", "144351.885000", "144352.345000", "144352.805000", "144353.265000", "144353.725000", "144354.185000", "144354.645000", "144355.105000", "144355.565000", "144356.025000", "144356.485000", "144356.945000", "144357.405000", "144357.865000", "144358.325000", "144358.785000", "144359.245000", "144359.705000", "144400.165000", "144400.625000", "144401.085000", "144401.545000", "144402.005000", "144402.465000", "144402.925000", "144403.385000", "144403.845000", "144404.305000", "144404.765000", "144405.225000", "144405.685000", "144406.145000", "144406.605000", "144407.065000", "144407.525000", "144407.985000", "144408.445000", "144408.905000", "144409.365000", "144409.825000", "144410.285000", "144410.745000", "144411.205000", "144411.665000", "144412.125000", "144412.585000", "144413.045000", "144413.505000", "144413.965000", "144414.425000", "144414.885000", "144415.345000", "144415.805000", "144416.265000", "144416.725000", "144417.185000", "144417.645000", "144418.105000", "144418.565000", "144419.025000", "144419.485000", "144419.945000", "144420.405000", "144420.865000", "144421.325000", "144421.785000", "144422.245000", "144422.705000", "144423.165000", "144423.625000", "144424.085000", "144424.545000", "144425.005000", "144425.465000", "144425.925000", "144426.385000", "144426.845000", "144427.305000", "144427.765000", "144428.225000", "144428.685000", "144429.145000", "144429.605000", "144430.065000", "144430.525000", "144430.985000", "144431.445000", "144431.905000", "144432.365000", "144432.825000", "144433.285000", "144433.745000", "144434.205000", "144434.665000", "144435.125000", "144435.585000", "144436.045000", "144436.505000", "144436.965000", "144437.425000", "144437.885000", "144438.345000", "144438.805000", "144439.265000", "144439.725000", "144440.185000", "144440.645000", "144441.105000", "144441.565000", "144442.025000", "144442.485000", "144442.945000"],
