{
  "AcquisitionMatrixPE": 82,
  "AcquisitionNumber": 1,
  "AcquisitionTime": "15:23:49.450000",
  "BandwidthPerPixelPhaseEncode": 24.888,
  "BaseResolution": 82,
  "BodyPartExamined": "BRAIN",
  "ConsistencyInfo": "N4_VE11E_LATEST_20181129",
  "ConversionSoftware": "dcm2niix",
  "ConversionSoftwareVersion": "v1.0.20201102",
  "DerivedVendorReportedEchoSpacing": 0.00049,
  "DeviceSerialNumber": "66112",
  "DwellTime": 2e-06,
  "EchoTime": 0.0272,
  "EchoTrainLength": 82,
  "EffectiveEchoSpacing": 0.00049,
  "FlipAngle": 44,
  "ImageComments": "Unaliased MB8/PE3",
  "ImageOrientationPatientDICOM": [0.998569, 0.0230758, 0.0482482, -0.0196965, 0.997396, -0.0693778],
  "ImageType": [
    "ORIGINAL",
    "PRIMARY",
    "M",
    "MB",
    "ND",
    "NORM",
    "MOSAIC"
],
  "ImagingFrequency": 123.252,
  "InPlanePhaseEncodingDirectionDICOM": "COL",
  "InstitutionAddress": "Maynard 3,Hanover,NH,US,03755",
  "InstitutionName": "Dartmouth College - PBS",
  "InstitutionalDepartmentName": "Department",
  "MRAcquisitionType": "2D",
  "MagneticFieldStrength": 3,
  "Manufacturer": "Siemens",
  "ManufacturersModelName": "Prisma",
  "Modality": "MR",
  "MultibandAccelerationFactor": 8,
  "PartialFourier": 1,
  "PatientPosition": "HFS",
  "PercentPhaseFOV": 100,
  "PercentSampling": 100,
  "PhaseEncodingDirection": "j-",
  "PhaseEncodingSteps": 82,
  "PhaseResolution": 1,
  "PixelBandwidth": 3050,
  "ProcedureStepDescription": "Wager_Wager^1076_spacetop",
  "ProtocolName": "func_run-01_task-alignvideo_acq-ap-mb8",
  "PulseSequenceDetails": "%CustomerSeq%\\cmrr_mbep2d_bold",
  "ReceiveCoilActiveElements": "HEA;HEP",
  "ReceiveCoilName": "Head_32",
  "ReconMatrixPE": 82,
  "RepetitionTime": 0.46,
  "SAR": 0.09024,
  "ScanOptions": "FS",
  "ScanningSequence": "EP",
  "SequenceName": "epfid2d1_82",
  "SequenceVariant": "SK\\SS",
  "SeriesDescription": "func_run-01_task-alignvideo_acq-ap-mb8",
  "SeriesNumber": 30,
  "ShimSetting": [4152, -7789, -7264, 775, -68, -428, 305, 34],
  "SliceThickness": 2.7,
  "SliceTiming": [0, 0.2525, 0.0625, 0.315, 0.125, 0.3775, 0.19, 0, 0.2525, 0.0625, 0.315, 0.125, 0.3775, 0.19, 0, 0.2525, 0.0625, 0.315, 0.125, 0.3775, 0.19, 0, 0.2525, 0.0625, 0.315, 0.125, 0.3775, 0.19, 0, 0.2525, 0.0625, 0.315, 0.125, 0.3775, 0.19, 0, 0.2525, 0.0625, 0.315, 0.125, 0.3775, 0.19, 0, 0.2525, 0.0625, 0.315, 0.125, 0.3775, 0.19, 0, 0.2525, 0.0625, 0.315, 0.125, 0.3775, 0.19],
  "SoftwareVersions": "syngo MR E11",
  "SpacingBetweenSlices": 2.7,
  "StationName": "AWP66112",
  "TaskName": "alignvideo",
  "TotalReadoutTime": 0.03969,
  "TxRefAmp": 240.939,
  "WipMemBlock": "050d048a-5353-48ef-a97b-b12840f4cc63||Sequence: R016 ve11e/master r/434b28f1; Aug  7 2019 18:53:46 by eja",
  "dcmmeta_affine": [
    [-2.6790871620178223, -0.052844393998384476, 0.13425353169441223, 109.28424072265625],
    [-0.061910685151815414, 2.67594051361084, -0.1844860464334488, -91.66020202636719],
    [0.12944644689559937, 0.18613551557064056, 2.6903421878814697, -83.24929809570312],
    [0.0, 0.0, 0.0, 1.0]
],
  "dcmmeta_reorient_transform": [
    [0.0, -1.0, 0.0, 81.0],
    [1.0, 0.0, 0.0, 0.0],
    [0.0, 0.0, 1.0, 0.0],
    [0.0, 0.0, 0.0, 1.0]
],
  "dcmmeta_shape": [82, 82, 56, 1073],
  "dcmmeta_slice_dim": 2,
  "dcmmeta_version": 0.6,
  "global": {
    "const": {
      "AccessionNumber": "A003973",
      "AcquisitionMatrix": [82, 0, 0, 82],
      "AngioFlag": "N",
      "BitsAllocated": 16,
      "BitsStored": 16,
      "BodyPartExamined": "BRAIN",
      "Columns": 656,
      "EchoNumbers": 1,
      "EchoTime": 27.2,
      "EchoTrainLength": 82,
      "FlipAngle": 44.0,
      "HighBit": 15,
      "ImageOrientationPatient": [0.99856878411481, 0.02307580065765, 0.04824822085304, -0.0196965466845, 0.99739599439745, -0.0693777803668],
      "ImagePositionPatient": [-858.73548464071, -910.85428186938, -51.902561586424],
      "ImageType": [
        "ORIGINAL",
        "PRIMARY",
        "M",
        "MB",
        "ND",
        "NORM",
        "MOSAIC"
],
      "ImagedNucleus": "1H",
      "ImagingFrequency": 123.252206,
      "InPlanePhaseEncodingDirection": "COL",
      "MRAcquisitionType": "2D",
      "MagneticFieldStrength": 3.0,
      "Manufacturer": "SIEMENS",
      "ManufacturerModelName": "Prisma",
      "Modality": "MR",
      "NumberOfAverages": 1.0,
      "NumberOfPhaseEncodingSteps": 82,
      "PercentPhaseFieldOfView": 100.0,
      "PercentSampling": 100.0,
      "PerformedProcedureStepStartTime": "141113.162000",
      "PhotometricInterpretation": "MONOCHROME2",
      "PixelBandwidth": 3050.0,
      "PixelRepresentation": 0,
      "PixelSpacing": [2.6829268932343, 2.6829268932343],
      "ProtocolName": "func_run-01_task-alignvideo_acq-ap-mb8",
      "RepetitionTime": 460.0,
      "Rows": 656,
      "SAR": 0.09023998436601,
      "SamplesPerPixel": 1,
      "ScanOptions": "FS",
      "ScanningSequence": "EP",
      "SequenceName": "epfid2d1_82",
      "SequenceVariant": [
        "SK",
        "SS"
],
      "SeriesDescription": "func_run-01_task-alignvideo_acq-ap-mb8",
      "SeriesNumber": 30,
      "SeriesTime": "152413.704000",
      "SliceLocation": -71.254546778465,
      "SliceThickness": 2.7000000476837,
      "SmallestImagePixelValue": 0,
      "SoftwareVersions": "syngo MR E11",
      "SpacingBetweenSlices": 2.700000005742,
      "SpecificCharacterSet": "ISO_IR 100",
      "StudyID": "1",
      "StudyTime": "141113.098000",
      "TransmitCoilName": "Body",
      "VariableFlipAngleFlag": "N",
      "WindowCenterWidthExplanation": "Algo1"
    },
    "slices": {}
  },
  "time": {
    "samples": {
      "AcquisitionNumber": [1, 2, 3, 4, 5, 6, 7, 8, 9, 10, 11, 12, 13, 14, 15, 16, 17, 18, 19, 20, 21, 22, 23, 24, 25, 26, 27, 28, 29, 30, 31, 32, 33, 34, 35, 36, 37, 38, 39, 40, 41, 42, 43, 44, 45, 46, 47, 48, 49, 50, 51, 52, 53, 54, 55, 56, 57, 58, 59, 60, 61, 62, 63, 64, 65, 66, 67, 68, 69, 70, 71, 72, 73, 74, 75, 76, 77, 78, 79, 80, 81, 82, 83, 84, 85, 86, 87, 88, 89, 90, 91, 92, 93, 94, 95, 96, 97, 98, 99, 100, 101, 102, 103, 104, 105, 106, 107, 108, 109, 110, 111, 112, 113, 114, 115, 116, 117, 118, 119, 120, 121, 122, 123, 124, 125, 126, 127, 128, 129, 130, 131, 132, 133, 134, 135, 136, 137, 138, 139, 140, 141, 142, 143, 144, 145, 146, 147, 148, 149, 150, 151, 152, 153, 154, 155, 156, 157, 158, 159, 160, 161, 162, 163, 164, 165, 166, 167, 168, 169, 170, 171, 172, 173, 174, 175, 176, 177, 178, 179, 180, 181, 182, 183, 184, 185, 186, 187, 188, 189, 190, 191, 192, 193, 194, 195, 196, 197, 198, 199, 200, 201, 202, 203, 204, 205, 206, 207, 208, 209, 210, 211, 212, 213, 214, 215, 216, 217, 218, 219, 220, 221, 222, 223, 224, 225, 226, 227, 228, 229, 230, 231, 232, 233, 234, 235, 236, 237, 238, 239, 240, 241, 242, 243, 244, 245, 246, 247, 248, 249, 250, 251, 252, 253, 254, 255, 256, 257, 258, 259, 260, 261, 262, 263, 264, 265, 266, 267, 268, 269, 270, 271, 272, 273, 274, 275, 276, 277, 278, 279, 280, 281, 282, 283, 284, 285, 286, 287, 288, 289, 290, 291, 292, 293, 294, 295, 296, 297, 298, 299, 300, 301, 302, 303, 304, 305, 306, 307, 308, 309, 310, 311, 312, 313, 314, 315, 316, 317, 318, 319, 320, 321, 322, 323, 324, 325, 326, 327, 328, 329, 330, 331, 332, 333, 334, 335, 336, 337, 338, 339, 340, 341, 342, 343, 344, 345, 346, 347, 348, 349, 350, 351, 352, 353, 354, 355, 356, 357, 358, 359, 360, 361, 362, 363, 364, 365, 366, 367, 368, 369, 370, 371, 372, 373, 374, 375, 376, 377, 378, 379, 380, 381, 382, 383, 384, 385, 386, 387, 388, 389, 390, 391, 392, 393, 394, 395, 396, 397, 398, 399, 400, 401, 402, 403, 404, 405, 406, 407, 408, 409, 410, 411, 412, 413, 414, 415, 416, 417, 418, 419, 420, 421, 422, 423, 424, 425, 426, 427, 428, 429, 430, 431, 432, 433, 434, 435, 436, 437, 438, 439, 440, 441, 442, 443, 444, 445, 446, 447, 448, 449, 450, 451, 452, 453, 454, 455, 456, 457, 458, 459, 460, 461, 462, 463, 464, 465, 466, 467, 468, 469, 470, 471, 472, 473, 474, 475, 476, 477, 478, 479, 480, 481, 482, 483, 484, 485, 486, 487, 488, 489, 490, 491, 492, 493, 494, 495, 496, 497, 498, 499, 500, 501, 502, 503, 504, 505, 506, 507, 508, 509, 510, 511, 512, 513, 514, 515, 516, 517, 518, 519, 520, 521, 522, 523, 524, 525, 526, 527, 528, 529, 530, 531, 532, 533, 534, 535, 536, 537, 538, 539, 540, 541, 542, 543, 544, 545, 546, 547, 548, 549, 550, 551, 552, 553, 554, 555, 556, 557, 558, 559, 560, 561, 562, 563, 564, 565, 566, 567, 568, 569, 570, 571, 572, 573, 574, 575, 576, 577, 578, 579, 580, 581, 582, 583, 584, 585, 586, 587, 588, 589, 590, 591, 592, 593, 594, 595, 596, 597, 598, 599, 600, 601, 602, 603, 604, 605, 606, 607, 608, 609, 610, 611, 612, 613, 614, 615, 616, 617, 618, 619, 620, 621, 622, 623, 624, 625, 626, 627, 628, 629, 630, 631, 632, 633, 634, 635, 636, 637, 638, 639, 640, 641, 642, 643, 644, 645, 646, 647, 648, 649, 650, 651, 652, 653, 654, 655, 656, 657, 658, 659, 660, 661, 662, 663, 664, 665, 666, 667, 668, 669, 670, 671, 672, 673, 674, 675, 676, 677, 678, 679, 680, 681, 682, 683, 684, 685, 686, 687, 688, 689, 690, 691, 692, 693, 694, 695, 696, 697, 698, 699, 700, 701, 702, 703, 704, 705, 706, 707, 708, 709, 710, 711, 712, 713, 714, 715, 716, 717, 718, 719, 720, 721, 722, 723, 724, 725, 726, 727, 728, 729, 730, 731, 732, 733, 734, 735, 736, 737, 738, 739, 740, 741, 742, 743, 744, 745, 746, 747, 748, 749, 750, 751, 752, 753, 754, 755, 756, 757, 758, 759, 760, 761, 762, 763, 764, 765, 766, 767, 768, 769, 770, 771, 772, 773, 774, 775, 776, 777, 778, 779, 780, 781, 782, 783, 784, 785, 786, 787, 788, 789, 790, 791, 792, 793, 794, 795, 796, 797, 798, 799, 800, 801, 802, 803, 804, 805, 806, 807, 808, 809, 810, 811, 812, 813, 814, 815, 816, 817, 818, 819, 820, 821, 822, 823, 824, 825, 826, 827, 828, 829, 830, 831, 832, 833, 834, 835, 836, 837, 838, 839, 840, 841, 842, 843, 844, 845, 846, 847, 848, 849, 850, 851, 852, 853, 854, 855, 856, 857, 858, 859, 860, 861, 862, 863, 864, 865, 866, 867, 868, 869, 870, 871, 872, 873, 874, 875, 876, 877, 878, 879, 880, 881, 882, 883, 884, 885, 886, 887, 888, 889, 890, 891, 892, 893, 894, 895, 896, 897, 898, 899, 900, 901, 902, 903, 904, 905, 906, 907, 908, 909, 910, 911, 912, 913, 914, 915, 916, 917, 918, 919, 920, 921, 922, 923, 924, 925, 926, 927, 928, 929, 930, 931, 932, 933, 934, 935, 936, 937, 938, 939, 940, 941, 942, 943, 944, 945, 946, 947, 948, 949, 950, 951, 952, 953, 954, 955, 956, 957, 958, 959, 960, 961, 962, 963, 964, 965, 966, 967, 968, 969, 970, 971, 972, 973, 974, 975, 976, 977, 978, 979, 980, 981, 982, 983, 984, 985, 986, 987, 988, 989, 990, 991, 992, 993, 994, 995, 996, 997, 998, 999, 1000, 1001, 1002, 1003, 1004, 1005, 1006, 1007, 1008, 1009, 1010, 1011, 1012, 1013, 1014, 1015, 1016, 1017, 1018, 1019, 1020, 1021, 1022, 1023, 1024, 1025, 1026, 1027, 1028, 1029, 1030, 1031, 1032, 1033, 1034, 1035, 1036, 1037, 1038, 1039, 1040, 1041, 1042, 1043, 1044, 1045, 1046, 1047, 1048, 1049, 1050, 1051, 1052, 1053, 1054, 1055, 1056, 1057, 1058, 1059, 1060, 1061, 1062, 1063, 1064, 1065, 1066, 1067, 1068, 1069, 1070, 1071, 1072, 1073],
      "AcquisitionTime": ["152349.450000", "152349.910000", "152350.370000", "152350.830000", "152351.290000", "152351.750000", "152352.210000", "152352.670000", "152353.130000", "152353.590000", "152354.050000", "152354.510000", "152354.970000", "152355.430000", "152355.890000", "152356.350000", "152356.810000", "152357.270000", "152357.730000", "152358.190000", "152358.650000", "152359.110000", "152359.570000", "152400.030000", "152400.490000", "152400.950000", "152401.410000", "152401.870000", "152402.330000", "152402.790000", "152403.250000", "152403.710000", "152404.170000", "152404.630000", "152405.090000", "152405.550000", "152406.010000", "152406.470000", "152406.930000", "152407.390000", "152407.850000", "152408.310000", "152408.770000", "152409.230000", "152409.690000", "152410.150000", "152410.610000", "152411.070000", "152411.530000", "152411.990000", "152412.450000", "152412.910000", "152413.370000", "152413.830000", "152414.290000", "152414.750000", "152415.210000", "152415.670000", "152416.130000", "152416.590000", "152417.050000", "152417.510000", "152417.970000", "152418.430000", "152418.890000", "152419.350000", "152419.810000", "152420.270000", "152420.730000", "152421.190000", "152421.650000", "152422.110000", "152422.570000", "152423.030000", "152423.490000", "152423.950000", "152424.410000", "152424.870000", "152425.330000", "152425.790000", "152426.250000", "152426.710000", "152427.170000", "152427.630000", "152428.090000", "152428.550000", "152429.010000", "152429.470000", "152429.930000", "152430.390000", "152430.850000", "152431.310000", "152431.770000", "152432.230000", "152432.690000", "152433.150000", "152433.610000", "152434.070000", "152434.530000", "152434.990000", "152435.450000", "152435.910000", "152436.370000", "152436.830000", "152437.290000", "152437.750000", "152438.210000", "152438.670000", "152439.130000", "152439.590000", "152440.050000", "152440.510000", "152440.970000", "152441.430000", "152441.890000", "152442.350000", "152442.810000", "152443.270000", "152443.730000", "152444.190000", "152444.650000", "152445.110000", "152445.570000", "152446.030000", "152446.490000", "152446.950000", "152447.410000", "152447.870000", "152448.330000", "152448.790000", "152449.250000", "152449.710000", "152450.170000", "152450.630000", "152451.090000", "152451.550000", "152452.010000", "152452.470000", "152452.930000", "152453.390000", "152453.850000", "152454.310000", "152454.770000", "152455.230000", "152455.690000", "152456.150000", "152456.610000", "152457.070000", "152457.530000", "152457.990000", "152458.450000", "152458.910000", "152459.370000", "152459.830000", "152500.290000", "152500.750000", "152501.210000", "152501.670000", "152502.130000", "152502.590000", "152503.050000", "152503.510000", "152503.970000", "152504.430000", "152504.890000", "152505.350000", "152505.810000", "152506.270000", "152506.730000", "152507.190000", "152507.650000", "152508.110000", "152508.570000", "152509.030000", "152509.490000", "152509.950000", "152510.410000", "152510.870000", "152511.330000", "152511.790000", "152512.250000", "152512.710000", "152513.170000", "152513.630000", "152514.090000", "152514.550000", "152515.010000", "152515.470000", "152515.930000", "152516.390000", "152516.850000", "152517.310000", "152517.770000", "152518.230000", "152518.690000", "152519.150000", "152519.610000", "152520.070000", "152520.530000", "152520.990000", "152521.450000", "152521.910000", "152522.370000", "152522.830000", "152523.290000", "152523.750000", "152524.210000", "152524.670000", "152525.130000", "152525.590000", "152526.050000", "152526.510000", "152526.970000", "152527.430000", "152527.890000", "152528.350000", "152528.810000", "152529.270000", "152529.730000", "152530.190000", "152530.650000", "152531.110000", "152531.570000", "152532.030000", "152532.490000", "152532.950000", "152533.410000", "152533.870000", "152534.330000", "152534.790000", "152535.250000", "152535.710000", "152536.170000", "152536.630000", "152537.090000", "152537.550000", "152538.010000", "152538.470000", "152538.930000", "152539.390000", "152539.850000", "152540.310000", "152540.770000", "152541.230000", "152541.690000", "152542.150000", "152542.610000", "152543.070000", "152543.530000", "152543.990000", "152544.450000", "152544.910000", "152545.370000", "152545.830000", "152546.290000", "152546.750000", "152547.210000", "152547.670000", "152548.130000", "152548.590000", "152549.050000", "152549.510000", "152549.970000", "152550.430000", "152550.890000", "152551.350000", "152551.810000", "152552.270000", "152552.730000", "152553.190000", "152553.650000", "152554.110000", "152554.570000", "152555.030000", "152555.490000", "152555.950000", "152556.410000", "152556.870000", "152557.330000", "152557.790000", "152558.250000", "152558.710000", "152559.170000", "152559.630000", "152600.090000", "152600.550000", "152601.010000", "152601.470000", "152601.930000", "152602.390000", "152602.850000", "152603.310000", "152603.770000", "152604.230000", "152604.690000", "152605.150000", "152605.610000", "152606.070000", "152606.530000", "152606.990000", "152607.450000", "152607.910000", "152608.370000", "152608.830000", "152609.290000", "152609.750000", "152610.210000", "152610.670000", "152611.130000", "152611.590000", "152612.050000", "152612.510000", "152612.970000", "152613.430000", "152613.890000", "152614.350000", "152614.810000", "152615.270000", "152615.730000", "152616.190000", "152616.650000", "152617.110000", "152617.570000", "152618.030000", "152618.490000", "152618.950000", "152619.410000", "152619.870000", "152620.330000", "152620.790000", "152621.250000", "152621.710000", "152622.170000", "152622.630000", "152623.090000", "152623.550000", "152624.010000", "152624.470000", "152624.930000", "152625.390000", "152625.850000", "152626.310000", "152626.770000", "152627.230000", "152627.690000", "152628.150000", "152628.610000", "152629.070000", "152629.530000", "152629.990000", "152630.450000", "152630.910000", "152631.370000", "152631.830000", "152632.290000", "152632.750000", "152633.210000", "152633.670000", "152634.130000", "152634.590000", "152635.050000", "152635.510000", "152635.970000", "152636.430000", "152636.890000", "152637.350000", "152637.810000", "152638.270000", "152638.730000", "152639.190000", "152639.650000", "152640.110000", "152640.570000", "152641.030000", "152641.490000", "152641.950000", "152642.410000", "152642.870000", "152643.330000", "152643.790000", "152644.250000", "152644.710000", "152645.170000", "152645.630000", "152646.090000", "152646.550000", "152647.010000", "152647.470000", "152647.930000", "152648.390000", "152648.850000", "152649.310000", "152649.770000", "152650.230000", "152650.690000", "152651.150000", "152651.610000", "152652.070000", "152652.530000", "152652.990000", "152653.450000", "152653.910000", "152654.370000", "152654.830000", "152655.290000", "152655.750000", "152656.210000", "152656.670000", "152657.130000", "152657.590000", "152658.050000", "152658.510000", "152658.970000", "152659.430000", "152659.890000", "152700.350000", "152700.810000", "152701.270000", "152701.730000", "152702.190000", "152702.650000", "152703.110000", "152703.570000", "152704.030000", "152704.490000", "152704.950000", "152705.410000", "152705.870000", "152706.330000", "152706.790000", "152707.250000", "152707.710000", "152708.170000", "152708.630000", "152709.090000", "152709.550000", "152710.010000", "152710.470000", "152710.930000", "152711.390000", "152711.850000", "152712.310000", "152712.770000", "152713.230000", "152713.690000", "152714.150000", "152714.610000", "152715.070000", "152715.530000", "152715.990000", "152716.450000", "152716.910000", "152717.370000", "152717.830000", "152718.290000", "152718.750000", "152719.210000", "152719.670000", "152720.130000", "152720.590000", "152721.050000", "152721.510000", "152721.970000", "152722.430000", "152722.890000", "152723.350000", "152723.810000", "152724.270000", "152724.730000", "152725.190000", "152725.650000", "152726.110000", "152726.570000", "152727.030000", "152727.490000", "152727.950000", "152728.410000", "152728.870000", "152729.330000", "152729.790000", "152730.250000", "152730.710000", "152731.170000", "152731.630000", "152732.090000", "152732.550000", "152733.010000", "152733.470000", "152733.930000", "152734.390000", "152734.850000", "152735.310000", "152735.770000", "152736.230000", "152736.690000", "152737.150000", "152737.610000", "152738.070000", "152738.530000", "152738.990000", "152739.450000", "152739.910000", "152740.370000", "152740.830000", "152741.290000", "152741.750000", "152742.210000", "152742.670000", "152743.130000", "152743.590000", "152744.050000", "152744.510000", "152744.970000", "152745.430000", "152745.890000", "152746.350000", "152746.810000", "152747.270000", "152747.730000", "152748.190000", "152748.650000", "152749.110000", "152749.570000", "152750.030000", "152750.490000", "152750.950000", "152751.410000", "152751.870000", "152752.330000", "152752.790000", "152753.250000", "152753.710000", "152754.170000", "152754.630000", "152755.090000", "152755.550000", "152756.010000", "152756.470000", "152756.930000", "152757.390000", "152757.850000", "152758.310000", "152758.770000", "152759.230000", "152759.690000", "152800.150000", "152800.610000", "152801.070000", "152801.530000", "152801.990000", "152802.450000", "152802.910000", "152803.370000", "152803.830000", "152804.290000", "152804.750000", "152805.210000", "152805.670000", "152806.130000", "152806.590000", "152807.050000", "152807.510000", "152807.970000", "152808.430000", "152808.890000", "152809.350000", "152809.810000", "152810.270000", "152810.730000", "152811.190000", "152811.650000", "152812.110000", "152812.570000", "152813.030000", "152813.490000", "152813.950000", "152814.410000", "152814.870000", "152815.330000", "152815.790000", "152816.250000", "152816.710000", "152817.170000", "152817.630000", "152818.090000", "152818.550000", "152819.010000", "152819.470000", "152819.930000", "152820.390000", "152820.850000", "152821.310000", "152821.770000", "152822.230000", "152822.690000", "152823.150000", "152823.610000", "152824.070000", "152824.530000", "152824.990000", "152825.450000", "152825.910000", "152826.370000", "152826.830000", "152827.290000", "152827.750000", "152828.210000", "152828.670000", "152829.130000", "152829.590000", "152830.050000", "152830.510000", "152830.970000", "152831.430000", "152831.890000", "152832.350000", "152832.810000", "152833.270000", "152833.730000", "152834.190000", "152834.650000", "152835.110000", "152835.570000", "152836.030000", "152836.490000", "152836.950000", "152837.410000", "152837.870000", "152838.330000", "152838.790000", "152839.250000", "152839.710000", "152840.170000", "152840.630000", "152841.090000", "152841.550000", "152842.010000", "152842.470000", "152842.930000", "152843.390000", "152843.850000", "152844.310000", "152844.770000", "152845.230000", "152845.690000", "152846.150000", "152846.610000", "152847.070000", "152847.530000", "152847.990000", "152848.450000", "152848.910000", "152849.370000", "152849.830000", "152850.290000", "152850.750000", "152851.210000", "152851.670000", "152852.130000", "152852.590000", "152853.050000", "152853.510000", "152853.970000", "152854.430000", "152854.890000", "152855.350000", "152855.810000", "152856.270000", "152856.730000", "152857.190000", "152857.650000", "152858.110000", "152858.570000", "152859.030000", "152859.490000", "152859.950000", "152900.410000", "152900.870000", "152901.330000", "152901.790000", "152902.250000", "152902.710000", "152903.170000", "152903.630000", "152904.090000", "152904.550000", "152905.010000", "152905.470000", "152905.930000", "152906.390000", "152906.850000", "152907.310000", "152907.770000", "152908.230000", "152908.690000", "152909.150000", "152909.610000", "152910.070000", "152910.530000", "152910.990000", "152911.450000", "152911.910000", "152912.370000", "152912.830000", "152913.290000", "152913.750000", "152914.210000", "152914.670000", "152915.130000", "152915.590000", "152916.050000", "152916.510000", "152916.970000", "152917.430000", "152917.890000", "152918.350000", "152918.810000", "152919.270000", "152919.730000", "152920.190000", "152920.650000", "152921.110000", "152921.570000", "152922.030000", "152922.490000", "152922.950000", "152923.410000", "152923.870000", "152924.330000", "152924.790000", "152925.250000", "152925.710000", "152926.170000", "152926.630000", "152927.090000", "152927.550000", "152928.010000", "152928.470000", "152928.930000", "152929.390000", "152929.850000", "152930.310000", "152930.770000", "152931.230000", "152931.690000", "152932.150000", "152932.610000", "152933.070000", "152933.530000", "152933.990000", "152934.450000", "152934.910000", "152935.370000", "152935.830000", "152936.290000", "152936.750000", "152937.210000", "152937.670000", "152938.130000", "152938.590000", "152939.050000", "152939.510000", "152939.970000", "152940.430000", "152940.890000", "152941.350000", "152941.810000", "152942.270000", "152942.730000", "152943.190000", "152943.650000", "152944.110000", "152944.570000", "152945.030000", "152945.490000", "152945.950000", "152946.410000", "152946.870000", "152947.330000", "152947.790000", "152948.250000", "152948.710000", "152949.170000", "152949.630000", "152950.090000", "152950.550000", "152951.010000", "152951.470000", "152951.930000", "152952.390000", "152952.850000", "152953.310000", "152953.770000", "152954.230000", "152954.690000", "152955.150000", "152955.610000", "152956.070000", "152956.530000", "152956.990000", "152957.450000", "152957.910000", "152958.370000", "152958.830000", "152959.290000", "152959.750000", "153000.210000", "153000.670000", "153001.130000", "153001.590000", "153002.050000", "153002.510000", "153002.970000", "153003.430000", "153003.890000", "153004.350000", "153004.810000", "153005.270000", "153005.730000", "153006.190000", "153006.650000", "153007.110000", "153007.570000", "153008.030000", "153008.490000", "153008.950000", "153009.410000", "153009.870000", "153010.330000", "153010.790000", "153011.250000", "153011.710000", "153012.170000", "153012.630000", "153013.090000", "153013.550000", "153014.010000", "153014.470000", "153014.930000", "153015.390000", "153015.850000", "153016.310000", "153016.770000", "153017.230000", "153017.690000", "153018.150000", "153018.610000", "153019.070000", "153019.530000", "153019.990000", "153020.450000", "153020.910000", "153021.370000", "153021.830000", "153022.290000", "153022.750000", "153023.210000", "153023.670000", "153024.130000", "153024.590000", "153025.050000", "153025.510000", "153025.970000", "153026.430000", "153026.890000", "153027.350000", "153027.810000", "153028.270000", "153028.730000", "153029.190000", "153029.650000", "153030.110000", "153030.570000", "153031.030000", "153031.490000", "153031.950000", "153032.410000", "153032.870000", "153033.330000", "153033.790000", "153034.250000", "153034.710000", "153035.170000", "153035.630000", "153036.090000", "153036.550000", "153037.010000", "153037.470000", "153037.930000", "153038.390000", "153038.850000", "153039.310000", "153039.770000", "153040.230000", "153040.690000", "153041.150000", "153041.610000", "153042.070000", "153042.530000", "153042.990000", "153043.450000", "153043.910000", "153044.370000", "153044.830000", "153045.290000", "153045.750000", "153046.210000", "153046.670000", "153047.130000", "153047.590000", "153048.050000", "153048.510000", "153048.970000", "153049.430000", "153049.890000", "153050.350000", "153050.810000", "153051.270000", "153051.730000", "153052.190000", "153052.650000", "153053.110000", "153053.570000", "153054.030000", "153054.490000", "153054.950000", "153055.410000", "153055.870000", "153056.330000", "153056.790000", "153057.250000", "153057.710000", "153058.170000", "153058.630000", "153059.090000", "153059.550000", "153100.010000", "153100.470000", "153100.930000", "153101.390000", "153101.850000", "153102.310000", "153102.770000", "153103.230000", "153103.690000", "153104.150000", "153104.610000", "153105.070000", "153105.530000", "153105.990000", "153106.450000", "153106.910000", "153107.370000", "153107.830000", "153108.290000", "153108.750000", "153109.210000", "153109.670000", "153110.130000", "153110.590000", "153111.050000", "153111.510000", "153111.970000", "153112.430000", "153112.890000", "153113.350000", "153113.810000", "153114.270000", "153114.730000", "153115.190000", "153115.650000", "153116.110000", "153116.570000", "153117.030000", "153117.490000", "153117.950000", "153118.410000", "153118.870000", "153119.330000", "153119.790000", "153120.250000", "153120.710000", "153121.170000", "153121.630000", "153122.090000", "153122.550000", "153123.010000", "153123.470000", "153123.930000", "153124.390000", "153124.850000", "153125.310000", "153125.770000", "153126.230000", "153126.690000", "153127.150000", "153127.610000", "153128.070000", "153128.530000", "153128.990000", "153129.450000", "153129.910000", "153130.370000", "153130.830000", "153131.290000", "153131.750000", "153132.210000", "153132.670000", "153133.130000", "153133.590000", "153134.050000", "153134.510000", "153134.970000", "153135.430000", "153135.890000", "153136.350000", "153136.810000", "153137.270000", "153137.730000", "153138.190000", "153138.650000", "153139.110000", "153139.570000", "153140.030000", "153140.490000", "153140.950000", "153141.410000", "153141.870000", "153142.330000", "153142.790000", "153143.250000", "153143.710000", "153144.170000", "153144.630000", "153145.090000", "153145.550000", "153146.010000", "153146.470000", "153146.930000", "153147.390000", "153147.850000", "153148.310000", "153148.770000", "153149.230000", "153149.690000", "153150.150000", "153150.610000", "153151.070000", "153151.530000", "153151.990000", "153152.450000", "153152.910000", "153153.370000", "153153.830000", "153154.290000", "153154.750000", "153155.210000", "153155.670000", "153156.130000", "153156.590000", "153157.050000", "153157.510000", "153157.970000", "153158.430000", "153158.890000", "153159.350000", "153159.810000", "153200.270000", "153200.730000", "153201.190000", "153201.650000", "153202.110000", "153202.570000"],
