{
  "AcquisitionMatrixPE": 140,
  "AcquisitionNumber": 1,
  "AcquisitionTime": "13:01:13.112500",
  "BandwidthPerPixelPhaseEncode": 10.352,
  "BaseResolution": 140,
  "BodyPartExamined": "BRAIN",
  "ConsistencyInfo": "N4_VE11C_LATEST_20160120",
  "ConversionSoftware": "dcm2niix",
  "ConversionSoftwareVersion": "v1.0.20201102",
  "DerivedVendorReportedEchoSpacing": 0.000689998,
  "DeviceSerialNumber": "66112",
  "DiffusionScheme": "Monopolar",
  "DwellTime": 2.1e-06,
  "EchoTime": 0.0884,
  "EchoTrainLength": 105,
  "EffectiveEchoSpacing": 0.000689998,
  "FlipAngle": 90,
  "ImageComments": "Unaliased MB3/PE3 SENSE1",
  "ImageOrientationPatientDICOM": [0.999341, 0.0361993, -0.00248006, -0.0359457, 0.997018, 0.0682829],
  "ImageType": [
    "ORIGINAL",
    "PRIMARY",
    "DIFFUSION",
    "NONE",
    "MB",
    "ND",
    "MOSAIC"
],
  "ImagingFrequency": 123.252,
  "InPlanePhaseEncodingDirectionDICOM": "COL",
  "InstitutionAddress": "Maynard 3,Hanover,NH,US,03755",
  "InstitutionName": "Dartmouth College - PBS",
  "InstitutionalDepartmentName": "Department",
  "MRAcquisitionType": "2D",
  "MagneticFieldStrength": 3,
  "Manufacturer": "Siemens",
  "ManufacturersModelName": "Prisma",
  "Modality": "MR",
  "MultibandAccelerationFactor": 3,
  "PartialFourier": 0.75,
  "PatientPosition": "HFS",
  "PercentPhaseFOV": 100,
  "PercentSampling": 100,
  "PhaseEncodingDirection": "j-",
  "PhaseEncodingSteps": 105,
  "PhaseResolution": 1,
  "PixelBandwidth": 1700,
  "ProcedureStepDescription": "Wager_Wager^1076_spacetop",
  "ProtocolName": "dwi_acq-96dir-6b0-mb",
  "PulseSequenceDetails": "%CustomerSeq%\\cmrr_mbep2d_diff",
  "ReceiveCoilActiveElements": "HEA;HEP",
  "ReceiveCoilName": "Head_32",
  "ReconMatrixPE": 140,
  "RepetitionTime": 4.11,
  "SAR": 0.298358,
  "ScanOptions": "PFP\\FS",
  "ScanningSequence": "EP",
  "SequenceName": "ep_b5#1",
  "SequenceVariant": "SK\\SS",
  "SeriesDescription": "dwi_acq-96dir-6b0-mb",
  "SeriesNumber": 8,
  "ShimSetting": [4169, -7704, -7242, 326, -46, -53, 15, 69],
  "SliceThickness": 1.7,
  "SliceTiming": [0, 2.12, 0.15, 2.2725, 0.3025, 2.4225, 0.4525, 2.575, 0.605, 2.725, 0.7575, 2.8775, 0.9075, 3.03, 1.06, 3.18, 1.21, 3.3325, 1.3625, 3.4825, 1.515, 3.635, 1.665, 3.785, 1.8175, 3.9375, 1.9675, 0, 2.12, 0.15, 2.2725, 0.3025, 2.4225, 0.4525, 2.575, 0.605, 2.725, 0.7575, 2.8775, 0.9075, 3.03, 1.06, 3.18, 1.21, 3.3325, 1.3625, 3.4825, 1.515, 3.635, 1.665, 3.785, 1.8175, 3.9375, 1.9675, 0, 2.12, 0.15, 2.2725, 0.3025, 2.4225, 0.4525, 2.575, 0.605, 2.725, 0.7575, 2.8775, 0.9075, 3.03, 1.06, 3.18, 1.21, 3.3325, 1.3625, 3.4825, 1.515, 3.635, 1.665, 3.785, 1.8175, 3.9375, 1.9675],
  "SoftwareVersions": "syngo MR E11",
  "SpacingBetweenSlices": 1.7,
  "StationName": "AWP66112",
  "TotalReadoutTime": 0.0959097,
  "TxRefAmp": 300.573,
  "WipMemBlock": "5b185521-160b-46ea-bcf3-9cb8ea9ad387||Sequence: R016 ve11c/master r/e634e98; Dec 19 2017 11:11:25 by eja",
  "dcmmeta_affine": [
    [-1.7131569385528564, -0.061621133238077164, -0.008405575528740883, 126.45669555664062],
    [-0.06205590069293976, 1.7091741561889648, 0.11585301160812378, -88.82304382324219],
    [-0.0042515285313129425, -0.1170564666390419, 1.6960269212722778, -36.99937057495117],
    [0.0, 0.0, 0.0, 1.0]
],
  "dcmmeta_reorient_transform": [
    [0.0, -1.0, 0.0, 139.0],
    [1.0, 0.0, 0.0, 0.0],
    [0.0, 0.0, 1.0, 0.0],
    [0.0, 0.0, 0.0, 1.0]
],
  "dcmmeta_shape": [140, 140, 81, 103],
  "dcmmeta_slice_dim": 2,
  "dcmmeta_version": 0.6,
  "global": {
    "const": {
      "AccessionNumber": "A003797",
      "AcquisitionMatrix": [140, 0, 0, 140],
      "AngioFlag": "N",
      "BitsAllocated": 16,
      "BitsStored": 16,
      "BodyPartExamined": "BRAIN",
      "Columns": 1260,
      "EchoNumbers": 1,
      "EchoTime": 88.4,
      "EchoTrainLength": 105,
      "FlipAngle": 90.0,
      "HighBit": 15,
      "ImageOrientationPatient": [0.99934151410979, 0.03619927468895, -0.0024800582163, -0.0359456607985, 0.99701822933359, 0.06828293964282],
      "ImagePositionPatient": [-1042.75138592, -1140.640969583, -116.44098731093],
      "ImageType": [
        "ORIGINAL",
        "PRIMARY",
        "DIFFUSION",
        "NONE",
        "MB",
        "ND",
        "MOSAIC"
],
      "ImagedNucleus": "1H",
      "ImagingFrequency": 123.252128,
      "InPlanePhaseEncodingDirection": "COL",
      "MRAcquisitionType": "2D",
      "MagneticFieldStrength": 3.0,
      "Manufacturer": "SIEMENS",
      "ManufacturerModelName": "Prisma",
      "Modality": "MR",
      "NumberOfAverages": 1.0,
      "NumberOfPhaseEncodingSteps": 105,
      "PercentPhaseFieldOfView": 100.0,
      "PercentSampling": 100.0,
      "PerformedProcedureStepStartTime": "122831.472000",
      "PhotometricInterpretation": "MONOCHROME2",
      "PixelBandwidth": 1700.0,
      "PixelRepresentation": 0,
      "PixelSpacing": [1.7142857313156, 1.7142857313156],
      "ProtocolName": "dwi_acq-96dir-6b0-mb",
      "RepetitionTime": 4110.0,
      "Rows": 1260,
      "SAR": 0.29835759001983,
      "SamplesPerPixel": 1,
      "ScanOptions": [
        "PFP",
        "FS"
],
      "ScanningSequence": "EP",
      "SequenceVariant": [
        "SK",
        "SS"
],
      "SeriesDescription": "dwi_acq-96dir-6b0-mb",
      "SeriesNumber": 8,
      "SeriesTime": "130237.709000",
      "SliceLocation": -43.591346833033,
      "SliceThickness": 1.7000000476837,
      "SmallestImagePixelValue": 0,
      "SoftwareVersions": "syngo MR E11",
      "SpacingBetweenSlices": 1.6999999910907,
      "SpecificCharacterSet": "ISO_IR 100",
      "StudyID": "1",
      "StudyTime": "122831.380000",
      "TransmitCoilName": "Body",
      "VariableFlipAngleFlag": "N",
      "WindowCenterWidthExplanation": "Algo1",
      "dBdt": 0.0},
    "slices": {}
  },
  "time": {
    "samples": {
      "AcquisitionNumber": [1, 2, 3, 4, 5, 6, 7, 8, 9, 10, 11, 12, 13, 14, 15, 16, 17, 18, 19, 20, 21, 22, 23, 24, 25, 26, 27, 28, 29, 30, 31, 32, 33, 34, 35, 36, 37, 38, 39, 40, 41, 42, 43, 44, 45, 46, 47, 48, 49, 50, 51, 52, 53, 54, 55, 56, 57, 58, 59, 60, 61, 62, 63, 64, 65, 66, 67, 68, 69, 70, 71, 72, 73, 74, 75, 76, 77, 78, 79, 80, 81, 82, 83, 84, 85, 86, 87, 88, 89, 90, 91, 92, 93, 94, 95, 96, 97, 98, 99, 100, 101, 102, 103],
      "AcquisitionTime": ["130113.112500", "130117.222500", "130121.332500", "130125.442500", "130129.552500", "130133.662500", "130137.772500", "130141.882500", "130145.992500", "130150.102500", "130154.212500", "130158.322500", "130202.432500", "130206.542500", "130210.652500", "130214.762500", "130218.872500", "130222.982500", "130227.092500", "130231.202500", "130235.312500", "130239.422500", "130243.532500", "130247.642500", "130251.752500", "130255.862500", "130259.972500", "130304.082500", "130308.192500", "130312.302500", "130316.412500", "130320.522500", "130324.632500", "130328.742500", "130332.852500", "130336.962500", "130341.072500", "130345.182500", "130349.292500", "130353.402500", "130357.512500", "130401.622500", "130405.732500", "130409.842500", "130413.952500", "130418.062500", "130422.172500", "130426.282500", "130430.392500", "130434.502500", "130438.612500", "130442.722500", "130446.832500", "130450.942500", "130455.052500", "130459.162500", "130503.272500", "130507.382500", "130511.492500", "130515.602500", "130519.712500", "130523.822500", "130527.932500", "130532.042500", "130536.152500", "130540.262500", "130544.372500", "130548.482500", "130552.592500", "130556.702500", "130600.812500", "130604.922500", "130609.032500", "130613.142500", "130617.252500", "130621.362500", "130625.472500", "130629.582500", "130633.692500", "130637.802500", "130641.912500", "130646.022500", "130650.132500", "130654.242500", "130658.352500", "130702.462500", "130706.572500", "130710.682500", "130714.792500", "130718.902500", "130723.012500", "130727.122500", "130731.232500", "130735.342500", "130739.452500", "130743.562500", "130747.672500", "130751.782500", "130755.892500", "130800.002500", "130804.112500", "130808.222500", "130812.332500"],
      "ContentTime": ["130237.713000", "130237.717000", "130237.720000", "130237.724000", "130237.727000", "130237.730000", "130237.733000", "130237.745000", "130237.749000", "130237.752000", "130237.755000", "130237.758000", "130237.762000", "130237.765000", "130237.768000", "130237.772000", "130237.775000", "130237.778000", "130237.781000", "130237.785000", "130417.708000", "130417.712000", "130417.715000", "130417.718000", "130417.722000", "130417.725000", "130417.728000", "130417.732000", "130417.735000", "130417.738000", "130417.741000", "130417.744000", "130417.748000", "130417.751000", "130417.754000", "130417.757000", "130417.761000", "130417.764000", "130417.767000", "130417.770000", "130417.774000", "130417.777000", "130417.780000", "130417.784000", "130537.708000", "130537.712000", "130537.715000", "130537.718000", "130537.722000", "130537.725000", "130537.728000", "130537.731000", "130537.735000", "130537.738000", "130537.741000", "130537.744000", "130537.747000", "130537.751000", "130537.754000", "130537.757000", "130537.760000", "130537.764000", "130537.767000", "130537.770000", "130717.708000", "130717.712000", "130717.715000", "130717.718000", "130717.721000", "130717.725000", "130717.728000", "130717.731000", "130717.734000", "130717.738000", "130717.741000", "130717.744000", "130717.747000", "130717.751000", "130717.754000", "130717.757000", "130717.760000", "130717.763000", "130717.767000", "130717.792000", "130717.796000", "130717.799000", "130717.802000", "130717.805000", "130816.911000", "130816.918000", "130816.921000", "130816.924000", "130816.928000", "130816.931000", "130816.935000", "130816.938000", "130816.942000", "130816.946000", "130816.950000", "130816.954000", "130816.959000", "130816.963000", "130816.967000"],
      "InstanceCreationTime": ["130237.713000", "130237.717000", "130237.720000", "130237.724000", "130237.727000", "130237.730000", "130237.733000", "130237.745000", "130237.749000", "130237.752000", "130237.755000", "130237.758000", "130237.762000", "130237.765000", "130237.768000", "130237.772000", "130237.775000", "130237.778000", "130237.781000", "130237.785000", "130417.708000", "130417.712000", "130417.715000", "130417.718000", "130417.722000", "130417.725000", "130417.728000", "130417.732000", "130417.735000", "130417.738000", "130417.741000", "130417.744000", "130417.748000", "130417.751000", "130417.754000", "130417.757000", "130417.761000", "130417.764000", "130417.767000", "130417.770000", "130417.774000", "130417.777000", "130417.780000", "130417.784000", "130537.708000", "130537.712000", "130537.715000", "130537.718000", "130537.722000", "130537.725000", "130537.728000", "130537.731000", "130537.735000", "130537.738000", "130537.741000", "130537.744000", "130537.747000", "130537.751000", "130537.754000", "130537.757000", "130537.760000", "130537.764000", "130537.767000", "130537.770000", "130717.708000", "130717.712000", "130717.715000", "130717.718000", "130717.721000", "130717.725000", "130717.728000", "130717.731000", "130717.734000", "130717.738000", "130717.741000", "130717.744000", "130717.747000", "130717.751000", "130717.754000", "130717.757000", "130717.760000", "130717.763000", "130717.767000", "130717.792000", "130717.796000", "130717.799000", "130717.802000", "130717.805000", "130816.911000", "130816.918000", "130816.921000", "130816.924000", "130816.928000", "130816.931000", "130816.935000", "130816.938000", "130816.942000", "130816.946000", "130816.950000", "130816.954000", "130816.959000", "130816.963000", "130816.967000"],
      "InstanceNumber": [1, 2, 3, 4, 5, 6, 7, 8, 9, 10, 11, 12, 13, 14, 15, 16, 17, 18, 19, 20, 21, 22, 23, 24, 25, 26, 27, 28, 29, 30, 31, 32, 33, 34, 35, 36, 37, 38, 39, 40, 41, 42, 43, 44, 45, 46, 47, 48, 49, 50, 51, 52, 53, 54, 55, 56, 57, 58, 59, 60, 61, 62, 63, 64, 65, 66, 67, 68, 69, 70, 71, 72, 73, 74, 75, 76, 77, 78, 79, 80, 81, 82, 83, 84, 85, 86, 87, 88, 89, 90, 91, 92, 93, 94, 95, 96, 97, 98, 99, 100, 101, 102, 103],
      "LargestImagePixelValue": [65535, 65535, 64864, 64750, 65511, 64928, 63509, 65072, 65535, 44559, 47140, 47643, 44727, 46122, 41363, 41037, 45016, 48319, 46476, 44306, 42619, 44444, 50277, 45208, 65535, 24030, 25860, 22533, 23593, 21931, 25008, 23098, 28946, 20515, 23966, 25916, 21298, 23372, 21270, 22670, 65535, 15740, 16711, 16412, 15525, 12695, 12792, 12545, 14243, 14533, 13466, 13667, 13727, 14570, 15566, 12901, 16774, 14562, 15605, 16305, 14092, 16653, 12233, 14506, 13442, 14236, 14480, 12008, 12125, 14378, 14764, 13478, 13095, 65535, 13518, 14158, 12669, 13142, 14351, 15903, 12936, 17000, 12038, 15549, 15190, 14509, 15432, 12678, 14796, 14172, 16243, 15252, 17006, 11916, 15771, 15907, 12152, 12677, 14446, 11820, 15130, 14327, 65535],
      "SequenceName": [
 "ep_b5#1",
 "ep_b5#1",
 "ep_b500#2",
 "ep_b495#3",
 "ep_b500#4",
 "ep_b505#5",
 "ep_b495#6",
 "ep_b500#7",
 "ep_b5#8",
 "ep_b1000#9",
 "ep_b1005#10",
 "ep_b995#11",
 "ep_b1005#12",
 "ep_b995#13",
 "ep_b995#14",
 "ep_b1005#15",
 "ep_b1000#16",
 "ep_b1005#17",
 "ep_b995#18",
 "ep_b1000#19",
 "ep_b995#20",
 "ep_b1000#21",
 "ep_b1005#22",
 "ep_b1005#23",
 "ep_b5#24",
 "ep_b2000#25",
 "ep_b1995#26",
 "ep_b1990#27",
 "ep_b1995#28",
 "ep_b2005#29",
 "ep_b2010#30",
 "ep_b2000#31",
 "ep_b2010#32",
 "ep_b1995#33",
 "ep_b1995#34",
 "ep_b1995#35",
 "ep_b2005#36",
 "ep_b2000#37",
 "ep_b2005#38",
 "ep_b1995#39",
 "ep_b5#40",
 "ep_b3000#41",
 "ep_b3005#42",
 "ep_b3010#43",
 "ep_b3010#44",
 "ep_b3000#45",
 "ep_b3000#46",
 "ep_b2990#47",
 "ep_b3005#48",
 "ep_b3000#49",
 "ep_b2990#50",
 "ep_b2990#51",
 "ep_b2995#52",
 "ep_b2995#53",
 "ep_b3010#54",
 "ep_b3000#55",
 "ep_b2995#56",
 "ep_b2995#57",
 "ep_b2990#58",
 "ep_b2990#59",
 "ep_b3000#60",
 "ep_b2990#61",
 "ep_b2990#62",
 "ep_b2995#63",
 "ep_b3000#64",
 "ep_b3010#65",
 "ep_b3000#66",
 "ep_b3005#67",
 "ep_b3010#68",
 "ep_b3005#69",
 "ep_b3005#70",
 "ep_b3005#71",
 "ep_b2990#72",
 "ep_b5#73",
 "ep_b3010#74",
 "ep_b3000#75",
 "ep_b3005#76",
 "ep_b3000#77",
 "ep_b2990#78",
 "ep_b3005#79",
 "ep_b2995#80",
 "ep_b3010#81",
 "ep_b3005#82",
 "ep_b3005#83",
 "ep_b3000#84",
 "ep_b3000#85",
 "ep_b3010#86",
 "ep_b3010#87",
 "ep_b2990#88",
 "ep_b3010#89",
 "ep_b2995#90",
 "ep_b2995#91",
 "ep_b2990#92",
 "ep_b2995#93",
 "ep_b3005#94",
 "ep_b3005#95",
 "ep_b2995#96",
 "ep_b3000#97",
 "ep_b2990#98",
 "ep_b3000#99",
 "ep_b2995#100",
 "ep_b2995#101",
 "ep_b5#102"
],
      "WindowCenter": [11057.0, 11055.0, 7657.0, 7684.0, 7673.0, 7598.0, 7704.0, 7680.0, 11051.0, 5706.0, 5681.0, 5737.0, 5655.0, 5713.0, 5694.0, 5659.0, 5752.0, 5737.0, 5748.0, 5708.0, 5758.0, 5696.0, 5748.0, 5740.0, 11067.0, 3648.0, 3680.0, 3590.0, 3727.0, 3606.0, 3623.0, 3617.0, 3673.0, 3643.0, 3699.0, 3697.0, 3575.0, 3641.0, 3642.0, 3615.0, 11043.0, 2610.0, 2596.0, 2633.0, 2606.0, 2579.0, 2591.0, 2597.0, 2549.0, 2561.0, 2545.0, 2588.0, 2588.0, 2620.0, 2637.0, 2520.0, 2637.0, 2588.0, 2652.0, 2631.0, 2579.0, 2645.0, 2627.0, 2637.0, 2614.0, 2630.0, 2570.0, 2569.0, 2558.0, 2592.0, 2578.0, 2645.0, 2606.0, 11058.0, 2560.0, 2580.0, 2488.0, 2543.0, 2551.0, 2599.0, 2507.0, 2601.0, 2585.0, 2580.0, 2601.0, 2559.0, 2562.0, 2506.0, 2585.0, 2557.0, 2652.0, 2574.0, 2625.0, 2574.0, 2593.0, 2624.0, 2626.0, 2533.0, 2613.0, 2481.0, 2601.0, 2641.0, 11055.0],
      "WindowWidth": [25122.0, 25128.0, 16239.0, 16289.0, 16250.0, 16134.0, 16344.0, 16282.0, 25125.0, 12272.0, 12230.0, 12319.0, 12197.0, 12298.0, 12286.0, 12209.0, 12353.0, 12328.0, 12341.0, 12268.0, 12381.0, 12242.0, 12335.0, 12309.0, 25175.0, 8247.0, 8294.0, 8156.0, 8394.0, 8192.0, 8199.0, 8189.0, 8281.0, 8267.0, 8352.0, 8331.0, 8132.0, 8231.0, 8253.0, 8187.0, 25099.0, 6213.0, 6157.0, 6243.0, 6180.0, 6175.0, 6200.0, 6209.0, 6085.0, 6129.0, 6081.0, 6162.0, 6185.0, 6253.0, 6264.0, 6053.0, 6262.0, 6152.0, 6287.0, 6226.0, 6147.0, 6257.0, 6282.0, 6270.0, 6233.0, 6262.0, 6133.0, 6167.0, 6142.0, 6200.0, 6172.0, 6301.0, 6214.0, 25128.0, 6114.0, 6154.0, 5980.0, 6087.0, 6082.0, 6168.0, 6024.0, 6169.0, 6197.0, 6147.0, 6203.0, 6123.0, 6103.0, 6017.0, 6160.0, 6103.0, 6294.0, 6122.0, 6206.0, 6188.0, 6169.0, 6239.0, 6289.0, 6074.0, 6216.0, 5979.0, 6200.0, 6287.0, 25116.0]
    },
    "slices": {}
  }
}