{
  "AcquisitionMatrixPE": 82,
  "AcquisitionNumber": 1,
  "AcquisitionTime": "11:48:40.482500",
  "BandwidthPerPixelPhaseEncode": 24.888,
  "BaseResolution": 82,
  "BodyPartExamined": "BRAIN",
  "ConsistencyInfo": "N4_VE11C_LATEST_20160120",
  "ConversionSoftware": "dcm2niix",
  "ConversionSoftwareVersion": "v1.0.20201102",
  "DerivedVendorReportedEchoSpacing": 0.00049,
  "DeviceSerialNumber": "66112",
  "DwellTime": 2e-06,
  "EchoTime": 0.0272,
  "EchoTrainLength": 82,
  "EffectiveEchoSpacing": 0.00049,
  "FlipAngle": 44,
  "ImageComments": "Unaliased MB8/PE3",
  "ImageOrientationPatientDICOM": [0.99922, 0.0221494, 0.0326986, -0.02285, 0.999514, 0.0212076],
  "ImageType": [
    "ORIGINAL",
    "PRIMARY",
    "M",
    "MB",
    "ND",
    "NORM",
    "MOSAIC"
],
  "ImagingFrequency": 123.252,
  "InPlanePhaseEncodingDirectionDICOM": "COL",
  "InstitutionAddress": "Maynard 3,Hanover,NH,US,03755",
  "InstitutionName": "Dartmouth College - PBS",
  "InstitutionalDepartmentName": "Department",
  "MRAcquisitionType": "2D",
  "MagneticFieldStrength": 3,
  "Manufacturer": "Siemens",
  "ManufacturersModelName": "Prisma",
  "Modality": "MR",
  "MultibandAccelerationFactor": 8,
  "PartialFourier": 1,
  "PatientPosition": "HFS",
  "PercentPhaseFOV": 100,
  "PercentSampling": 100,
  "PhaseEncodingDirection": "j-",
  "PhaseEncodingSteps": 82,
  "PhaseResolution": 1,
  "PixelBandwidth": 3050,
  "ProcedureStepDescription": "Wager_Wager^1076_spacetop",
  "ProtocolName": "func_run-01_task-social_acq-ap-mb8",
  "PulseSequenceDetails": "%CustomerSeq%\\cmrr_mbep2d_bold",
  "ReceiveCoilActiveElements": "HEA;HEP",
  "ReceiveCoilName": "Head_32",
  "ReconMatrixPE": 82,
  "RepetitionTime": 0.46,
  "SAR": 0.107501,
  "ScanOptions": "FS",
  "ScanningSequence": "EP",
  "SequenceName": "epfid2d1_82",
  "SequenceVariant": "SK\\SS",
  "SeriesDescription": "func_run-01_task-social_acq-ap-mb8",
  "SeriesNumber": 12,
  "ShimSetting": [4135, -7744, -7220, 536, -51, -113, -49, 47],
  "SliceThickness": 2.7,
  "SliceTiming": [0, 0.25, 0.0625, 0.3125, 0.125, 0.375, 0.1875, 0, 0.25, 0.0625, 0.3125, 0.125, 0.375, 0.1875, 0, 0.25, 0.0625, 0.3125, 0.125, 0.375, 0.1875, 0, 0.25, 0.0625, 0.3125, 0.125, 0.375, 0.1875, 0, 0.25, 0.0625, 0.3125, 0.125, 0.375, 0.1875, 0, 0.25, 0.0625, 0.3125, 0.125, 0.375, 0.1875, 0, 0.25, 0.0625, 0.3125, 0.125, 0.375, 0.1875, 0, 0.25, 0.0625, 0.3125, 0.125, 0.375, 0.1875],
  "SoftwareVersions": "syngo MR E11",
  "SpacingBetweenSlices": 2.7,
  "StationName": "AWP66112",
  "TaskName": "social",
  "TotalReadoutTime": 0.03969,
  "TxRefAmp": 305.823,
  "WipMemBlock": "63b928f7-282f-490b-85aa-83e6cc9b434e||Sequence: R016 ve11c/master r/e634e98; Dec 19 2017 11:00:25 by eja",
  "dcmmeta_affine": [
    [-2.680833578109741, -0.061304789036512375, 0.08697506040334702, 113.9730224609375],
    [-0.059425342828035355, 2.6816227436065674, 0.05923321843147278, -78.80175018310547],
    [0.08772799372673035, -0.05689847469329834, 2.697948694229126, -67.36090850830078],
    [0.0, 0.0, 0.0, 1.0]
],
  "dcmmeta_reorient_transform": [
    [0.0, -1.0, 0.0, 81.0],
    [1.0, 0.0, 0.0, 0.0],
    [0.0, 0.0, 1.0, 0.0],
    [0.0, 0.0, 0.0, 1.0]
],
  "dcmmeta_shape": [82, 82, 56, 872],
  "dcmmeta_slice_dim": 2,
  "dcmmeta_version": 0.6,
  "global": {
    "const": {
      "AccessionNumber": "A003663",
      "AcquisitionMatrix": [82, 0, 0, 82],
      "AngioFlag": "N",
      "BitsAllocated": 16,
      "BitsStored": 16,
      "BodyPartExamined": "BRAIN",
      "Columns": 656,
      "EchoNumbers": 1,
      "EchoTime": 27.2,
      "EchoTrainLength": 82,
      "FlipAngle": 44.0,
      "HighBit": 15,
      "ImageOrientationPatient": [0.9992197969672, 0.02214944542207, 0.03269861489903, -0.0228499666302, 0.99951393997079, 0.02120761252638],
      "ImagePositionPatient": [-860.81212189175, -925.09052635011, -113.47748218088],
      "ImageType": [
        "ORIGINAL",
        "PRIMARY",
        "M",
        "MB",
        "ND",
        "NORM",
        "MOSAIC"
],
      "ImagedNucleus": "1H",
      "ImagingFrequency": 123.252125,
      "InPlanePhaseEncodingDirection": "COL",
      "MRAcquisitionType": "2D",
      "MagneticFieldStrength": 3.0,
      "Manufacturer": "SIEMENS",
      "ManufacturerModelName": "Prisma",
      "Modality": "MR",
      "NumberOfAverages": 1.0,
      "NumberOfPhaseEncodingSteps": 82,
      "PercentPhaseFieldOfView": 100.0,
      "PercentSampling": 100.0,
      "PerformedProcedureStepStartTime": "105731.170000",
      "PhotometricInterpretation": "MONOCHROME2",
      "PixelBandwidth": 3050.0,
      "PixelRepresentation": 0,
      "PixelSpacing": [2.6829268932343, 2.6829268932343],
      "ProtocolName": "func_run-01_task-social_acq-ap-mb8",
      "RepetitionTime": 460.0,
      "Rows": 656,
      "SAR": 0.10750119111637,
      "SamplesPerPixel": 1,
      "ScanOptions": "FS",
      "ScanningSequence": "EP",
      "SequenceName": "epfid2d1_82",
      "SequenceVariant": [
        "SK",
        "SS"
],
      "SeriesDescription": "func_run-01_task-social_acq-ap-mb8",
      "SeriesNumber": 12,
      "SeriesTime": "114857.820000",
      "SliceLocation": -65.367090448062,
      "SliceThickness": 2.7000000476837,
      "SmallestImagePixelValue": 0,
      "SoftwareVersions": "syngo MR E11",
      "SpacingBetweenSlices": 2.7000000424404,
      "SpecificCharacterSet": "ISO_IR 100",
      "StudyID": "1",
      "StudyTime": "105731.122000",
      "TransmitCoilName": "Body",
      "VariableFlipAngleFlag": "N",
      "WindowCenterWidthExplanation": "Algo1",
      "dBdt": 0.0},
    "slices": {}
  },
  "time": {
    "samples": {
      "AcquisitionNumber": [1, 2, 3, 4, 5, 6, 7, 8, 9, 10, 11, 12, 13, 14, 15, 16, 17, 18, 19, 20, 21, 22, 23, 24, 25, 26, 27, 28, 29, 30, 31, 32, 33, 34, 35, 36, 37, 38, 39, 40, 41, 42, 43, 44, 45, 46, 47, 48, 49, 50, 51, 52, 53, 54, 55, 56, 57, 58, 59, 60, 61, 62, 63, 64, 65, 66, 67, 68, 69, 70, 71, 72, 73, 74, 75, 76, 77, 78, 79, 80, 81, 82, 83, 84, 85, 86, 87, 88, 89, 90, 91, 92, 93, 94, 95, 96, 97, 98, 99, 100, 101, 102, 103, 104, 105, 106, 107, 108, 109, 110, 111, 112, 113, 114, 115, 116, 117, 118, 119, 120, 121, 122, 123, 124, 125, 126, 127, 128, 129, 130, 131, 132, 133, 134, 135, 136, 137, 138, 139, 140, 141, 142, 143, 144, 145, 146, 147, 148, 149, 150, 151, 152, 153, 154, 155, 156, 157, 158, 159, 160, 161, 162, 163, 164, 165, 166, 167, 168, 169, 170, 171, 172, 173, 174, 175, 176, 177, 178, 179, 180, 181, 182, 183, 184, 185, 186, 187, 188, 189, 190, 191, 192, 193, 194, 195, 196, 197, 198, 199, 200, 201, 202, 203, 204, 205, 206, 207, 208, 209, 210, 211, 212, 213, 214, 215, 216, 217, 218, 219, 220, 221, 222, 223, 224, 225, 226, 227, 228, 229, 230, 231, 232, 233, 234, 235, 236, 237, 238, 239, 240, 241, 242, 243, 244, 245, 246, 247, 248, 249, 250, 251, 252, 253, 254, 255, 256, 257, 258, 259, 260, 261, 262, 263, 264, 265, 266, 267, 268, 269, 270, 271, 272, 273, 274, 275, 276, 277, 278, 279, 280, 281, 282, 283, 284, 285, 286, 287, 288, 289, 290, 291, 292, 293, 294, 295, 296, 297, 298, 299, 300, 301, 302, 303, 304, 305, 306, 307, 308, 309, 310, 311, 312, 313, 314, 315, 316, 317, 318, 319, 320, 321, 322, 323, 324, 325, 326, 327, 328, 329, 330, 331, 332, 333, 334, 335, 336, 337, 338, 339, 340, 341, 342, 343, 344, 345, 346, 347, 348, 349, 350, 351, 352, 353, 354, 355, 356, 357, 358, 359, 360, 361, 362, 363, 364, 365, 366, 367, 368, 369, 370, 371, 372, 373, 374, 375, 376, 377, 378, 379, 380, 381, 382, 383, 384, 385, 386, 387, 388, 389, 390, 391, 392, 393, 394, 395, 396, 397, 398, 399, 400, 401, 402, 403, 404, 405, 406, 407, 408, 409, 410, 411, 412, 413, 414, 415, 416, 417, 418, 419, 420, 421, 422, 423, 424, 425, 426, 427, 428, 429, 430, 431, 432, 433, 434, 435, 436, 437, 438, 439, 440, 441, 442, 443, 444, 445, 446, 447, 448, 449, 450, 451, 452, 453, 454, 455, 456, 457, 458, 459, 460, 461, 462, 463, 464, 465, 466, 467, 468, 469, 470, 471, 472, 473, 474, 475, 476, 477, 478, 479, 480, 481, 482, 483, 484, 485, 486, 487, 488, 489, 490, 491, 492, 493, 494, 495, 496, 497, 498, 499, 500, 501, 502, 503, 504, 505, 506, 507, 508, 509, 510, 511, 512, 513, 514, 515, 516, 517, 518, 519, 520, 521, 522, 523, 524, 525, 526, 527, 528, 529, 530, 531, 532, 533, 534, 535, 536, 537, 538, 539, 540, 541, 542, 543, 544, 545, 546, 547, 548, 549, 550, 551, 552, 553, 554, 555, 556, 557, 558, 559, 560, 561, 562, 563, 564, 565, 566, 567, 568, 569, 570, 571, 572, 573, 574, 575, 576, 577, 578, 579, 580, 581, 582, 583, 584, 585, 586, 587, 588, 589, 590, 591, 592, 593, 594, 595, 596, 597, 598, 599, 600, 601, 602, 603, 604, 605, 606, 607, 608, 609, 610, 611, 612, 613, 614, 615, 616, 617, 618, 619, 620, 621, 622, 623, 624, 625, 626, 627, 628, 629, 630, 631, 632, 633, 634, 635, 636, 637, 638, 639, 640, 641, 642, 643, 644, 645, 646, 647, 648, 649, 650, 651, 652, 653, 654, 655, 656, 657, 658, 659, 660, 661, 662, 663, 664, 665, 666, 667, 668, 669, 670, 671, 672, 673, 674, 675, 676, 677, 678, 679, 680, 681, 682, 683, 684, 685, 686, 687, 688, 689, 690, 691, 692, 693, 694, 695, 696, 697, 698, 699, 700, 701, 702, 703, 704, 705, 706, 707, 708, 709, 710, 711, 712, 713, 714, 715, 716, 717, 718, 719, 720, 721, 722, 723, 724, 725, 726, 727, 728, 729, 730, 731, 732, 733, 734, 735, 736, 737, 738, 739, 740, 741, 742, 743, 744, 745, 746, 747, 748, 749, 750, 751, 752, 753, 754, 755, 756, 757, 758, 759, 760, 761, 762, 763, 764, 765, 766, 767, 768, 769, 770, 771, 772, 773, 774, 775, 776, 777, 778, 779, 780, 781, 782, 783, 784, 785, 786, 787, 788, 789, 790, 791, 792, 793, 794, 795, 796, 797, 798, 799, 800, 801, 802, 803, 804, 805, 806, 807, 808, 809, 810, 811, 812, 813, 814, 815, 816, 817, 818, 819, 820, 821, 822, 823, 824, 825, 826, 827, 828, 829, 830, 831, 832, 833, 834, 835, 836, 837, 838, 839, 840, 841, 842, 843, 844, 845, 846, 847, 848, 849, 850, 851, 852, 853, 854, 855, 856, 857, 858, 859, 860, 861, 862, 863, 864, 865, 866, 867, 868, 869, 870, 871, 872],
      "AcquisitionTime": ["114840.482500", "114840.942500", "114841.402500", "114841.862500", "114842.322500", "114842.782500", "114843.242500", "114843.702500", "114844.162500", "114844.622500", "114845.082500", "114845.542500", "114846.002500", "114846.462500", "114846.922500", "114847.382500", "114847.842500", "114848.302500", "114848.762500", "114849.222500", "114849.682500", "114850.142500", "114850.602500", "114851.062500", "114851.522500", "114851.982500", "114852.442500", "114852.902500", "114853.362500", "114853.822500", "114854.282500", "114854.742500", "114855.202500", "114855.662500", "114856.122500", "114856.582500", "114857.042500", "114857.502500", "114857.962500", "114858.422500", "114858.882500", "114859.342500", "114859.802500", "114900.262500", "114900.722500", "114901.182500", "114901.642500", "114902.102500", "114902.562500", "114903.022500", "114903.482500", "114903.942500", "114904.402500", "114904.862500", "114905.322500", "114905.782500", "114906.242500", "114906.702500", "114907.162500", "114907.622500", "114908.082500", "114908.542500", "114909.002500", "114909.462500", "114909.922500", "114910.382500", "114910.842500", "114911.302500", "114911.762500", "114912.222500", "114912.682500", "114913.142500", "114913.602500", "114914.062500", "114914.522500", "114914.982500", "114915.442500", "114915.902500", "114916.362500", "114916.822500", "114917.282500", "114917.742500", "114918.202500", "114918.662500", "114919.122500", "114919.582500", "114920.042500", "114920.502500", "114920.962500", "114921.422500", "114921.882500", "114922.342500", "114922.802500", "114923.262500", "114923.722500", "114924.182500", "114924.642500", "114925.102500", "114925.562500", "114926.022500", "114926.482500", "114926.942500", "114927.402500", "114927.862500", "114928.322500", "114928.782500", "114929.242500", "114929.702500", "114930.162500", "114930.622500", "114931.082500", "114931.542500", "114932.002500", "114932.462500", "114932.922500", "114933.382500", "114933.842500", "114934.302500", "114934.762500", "114935.222500", "114935.682500", "114936.142500", "114936.602500", "114937.062500", "114937.522500", "114937.982500", "114938.442500", "114938.902500", "114939.362500", "114939.822500", "114940.282500", "114940.742500", "114941.202500", "114941.662500", "114942.122500", "114942.582500", "114943.042500", "114943.502500", "114943.962500", "114944.422500", "114944.882500", "114945.342500", "114945.802500", "114946.262500", "114946.722500", "114947.182500", "114947.642500", "114948.102500", "114948.562500", "114949.022500", "114949.482500", "114949.942500", "114950.402500", "114950.862500", "114951.322500", "114951.782500", "114952.242500", "114952.702500", "114953.162500", "114953.622500", "114954.082500", "114954.542500", "114955.002500", "114955.462500", "114955.922500", "114956.382500", "114956.842500", "114957.302500", "114957.762500", "114958.222500", "114958.682500", "114959.142500", "114959.602500", "115000.062500", "115000.522500", "115000.982500", "115001.442500", "115001.902500", "115002.362500", "115002.822500", "115003.282500", "115003.742500", "115004.202500", "115004.662500", "115005.122500", "115005.582500", "115006.042500", "115006.502500", "115006.962500", "115007.422500", "115007.882500", "115008.342500", "115008.802500", "115009.262500", "115009.722500", "115010.182500", "115010.642500", "115011.102500", "115011.562500", "115012.022500", "115012.482500", "115012.942500", "115013.402500", "115013.862500", "115014.322500", "115014.782500", "115015.242500", "115015.702500", "115016.162500", "115016.622500", "115017.082500", "115017.542500", "115018.002500", "115018.462500", "115018.922500", "115019.382500", "115019.842500", "115020.302500", "115020.762500", "115021.222500", "115021.682500", "115022.142500", "115022.602500", "115023.062500", "115023.522500", "115023.982500", "115024.442500", "115024.902500", "115025.362500", "115025.822500", "115026.282500", "115026.742500", "115027.202500", "115027.662500", "115028.122500", "115028.582500", "115029.042500", "115029.502500", "115029.962500", "115030.422500", "115030.882500", "115031.342500", "115031.802500", "115032.262500", "115032.722500", "115033.182500", "115033.642500", "115034.102500", "115034.562500", "115035.022500", "115035.482500", "115035.942500", "115036.402500", "115036.862500", "115037.322500", "115037.782500", "115038.242500", "115038.702500", "115039.162500", "115039.622500", "115040.082500", "115040.542500", "115041.002500", "115041.462500", "115041.922500", "115042.382500", "115042.842500", "115043.302500", "115043.762500", "115044.222500", "115044.682500", "115045.142500", "115045.602500", "115046.062500", "115046.522500", "115046.982500", "115047.442500", "115047.902500", "115048.362500", "115048.822500", "115049.282500", "115049.742500", "115050.202500", "115050.662500", "115051.122500", "115051.582500", "115052.042500", "115052.502500", "115052.962500", "115053.422500", "115053.882500", "115054.342500", "115054.802500", "115055.262500", "115055.722500", "115056.182500", "115056.642500", "115057.102500", "115057.562500", "115058.022500", "115058.482500", "115058.942500", "115059.402500", "115059.862500", "115100.322500", "115100.782500", "115101.242500", "115101.702500", "115102.162500", "115102.622500", "115103.082500", "115103.542500", "115104.002500", "115104.462500", "115104.922500", "115105.382500", "115105.842500", "115106.302500", "115106.762500", "115107.222500", "115107.682500", "115108.142500", "115108.602500", "115109.062500", "115109.522500", "115109.982500", "115110.442500", "115110.902500", "115111.362500", "115111.822500", "115112.282500", "115112.742500", "115113.202500", "115113.662500", "115114.122500", "115114.582500", "115115.042500", "115115.502500", "115115.962500", "115116.422500", "115116.882500", "115117.342500", "115117.802500", "115118.262500", "115118.722500", "115119.182500", "115119.642500", "115120.102500", "115120.562500", "115121.022500", "115121.482500", "115121.942500", "115122.402500", "115122.862500", "115123.322500", "115123.782500", "115124.242500", "115124.702500", "115125.162500", "115125.622500", "115126.082500", "115126.542500", "115127.002500", "115127.462500", "115127.922500", "115128.382500", "115128.842500", "115129.302500", "115129.762500", "115130.222500", "115130.682500", "115131.142500", "115131.602500", "115132.062500", "115132.522500", "115132.982500", "115133.442500", "115133.902500", "115134.362500", "115134.822500", "115135.282500", "115135.742500", "115136.202500", "115136.662500", "115137.122500", "115137.582500", "115138.042500", "115138.502500", "115138.962500", "115139.422500", "115139.882500", "115140.342500", "115140.802500", "115141.262500", "115141.722500", "115142.182500", "115142.642500", "115143.102500", "115143.562500", "115144.022500", "115144.482500", "115144.942500", "115145.402500", "115145.862500", "115146.322500", "115146.782500", "115147.242500", "115147.702500", "115148.162500", "115148.622500", "115149.082500", "115149.542500", "115150.002500", "115150.462500", "115150.922500", "115151.382500", "115151.842500", "115152.302500", "115152.762500", "115153.222500", "115153.682500", "115154.142500", "115154.602500", "115155.062500", "115155.522500", "115155.982500", "115156.442500", "115156.902500", "115157.362500", "115157.822500", "115158.282500", "115158.742500", "115159.202500", "115159.662500", "115200.122500", "115200.582500", "115201.042500", "115201.502500", "115201.962500", "115202.422500", "115202.882500", "115203.342500", "115203.802500", "115204.262500", "115204.722500", "115205.182500", "115205.642500", "115206.102500", "115206.562500", "115207.022500", "115207.482500", "115207.942500", "115208.402500", "115208.862500", "115209.322500", "115209.782500", "115210.242500", "115210.702500", "115211.162500", "115211.622500", "115212.082500", "115212.542500", "115213.002500", "115213.462500", "115213.922500", "115214.382500", "115214.842500", "115215.302500", "115215.762500", "115216.222500", "115216.682500", "115217.142500", "115217.602500", "115218.062500", "115218.522500", "115218.982500", "115219.442500", "115219.902500", "115220.362500", "115220.822500", "115221.282500", "115221.742500", "115222.202500", "115222.662500", "115223.122500", "115223.582500", "115224.042500", "115224.502500", "115224.962500", "115225.422500", "115225.882500", "115226.342500", "115226.802500", "115227.262500", "115227.722500", "115228.182500", "115228.642500", "115229.102500", "115229.562500", "115230.022500", "115230.482500", "115230.942500", "115231.402500", "115231.862500", "115232.322500", "115232.782500", "115233.242500", "115233.702500", "115234.162500", "115234.622500", "115235.082500", "115235.542500", "115236.002500", "115236.462500", "115236.922500", "115237.382500", "115237.842500", "115238.302500", "115238.762500", "115239.222500", "115239.682500", "115240.142500", "115240.602500", "115241.062500", "115241.522500", "115241.982500", "115242.442500", "115242.902500", "115243.362500", "115243.822500", "115244.282500", "115244.742500", "115245.202500", "115245.662500", "115246.122500", "115246.582500", "115247.042500", "115247.502500", "115247.962500", "115248.422500", "115248.882500", "115249.342500", "115249.802500", "115250.262500", "115250.722500", "115251.182500", "115251.642500", "115252.102500", "115252.562500", "115253.022500", "115253.482500", "115253.942500", "115254.402500", "115254.862500", "115255.322500", "115255.782500", "115256.242500", "115256.702500", "115257.162500", "115257.622500", "115258.082500", "115258.542500", "115259.002500", "115259.462500", "115259.922500", "115300.382500", "115300.842500", "115301.302500", "115301.762500", "115302.222500", "115302.682500", "115303.142500", "115303.602500", "115304.062500", "115304.522500", "115304.982500", "115305.442500", "115305.902500", "115306.362500", "115306.822500", "115307.282500", "115307.742500", "115308.202500", "115308.662500", "115309.122500", "115309.582500", "115310.042500", "115310.502500", "115310.962500", "115311.422500", "115311.882500", "115312.342500", "115312.802500", "115313.262500", "115313.722500", "115314.182500", "115314.642500", "115315.102500", "115315.562500", "115316.022500", "115316.482500", "115316.942500", "115317.402500", "115317.862500", "115318.322500", "115318.782500", "115319.242500", "115319.702500", "115320.162500", "115320.622500", "115321.082500", "115321.542500", "115322.002500", "115322.462500", "115322.922500", "115323.382500", "115323.842500", "115324.302500", "115324.762500", "115325.222500", "115325.682500", "115326.142500", "115326.602500", "115327.062500", "115327.522500", "115327.982500", "115328.442500", "115328.902500", "115329.362500", "115329.822500", "115330.282500", "115330.742500", "115331.202500", "115331.662500", "115332.122500", "115332.582500", "115333.042500", "115333.502500", "115333.962500", "115334.422500", "115334.882500", "115335.342500", "115335.802500", "115336.262500", "115336.722500", "115337.182500", "115337.642500", "115338.102500", "115338.562500", "115339.022500", "115339.482500", "115339.942500", "115340.402500", "115340.862500", "115341.322500", "115341.782500", "115342.242500", "115342.702500", "115343.162500", "115343.622500", "115344.082500", "115344.542500", "115345.002500", "115345.462500", "115345.922500", "115346.382500", "115346.842500", "115347.302500", "115347.762500", "115348.222500", "115348.682500", "115349.142500", "115349.602500", "115350.062500", "115350.522500", "115350.982500", "115351.442500", "115351.902500", "115352.362500", "115352.822500", "115353.282500", "115353.742500", "115354.202500", "115354.662500", "115355.122500", "115355.582500", "115356.042500", "115356.502500", "115356.962500", "115357.422500", "115357.882500", "115358.342500", "115358.802500", "115359.262500", "115359.722500", "115400.182500", "115400.642500", "115401.102500", "115401.562500", "115402.022500", "115402.482500", "115402.942500", "115403.402500", "115403.862500", "115404.322500", "115404.782500", "115405.242500", "115405.702500", "115406.162500", "115406.622500", "115407.082500", "115407.542500", "115408.002500", "115408.462500", "115408.922500", "115409.382500", "115409.842500", "115410.302500", "115410.762500", "115411.222500", "115411.682500", "115412.142500", "115412.602500", "115413.062500", "115413.522500", "115413.982500", "115414.442500", "115414.902500", "115415.362500", "115415.822500", "115416.282500", "115416.742500", "115417.202500", "115417.662500", "115418.122500", "115418.582500", "115419.042500", "115419.502500", "115419.962500", "115420.422500", "115420.882500", "115421.342500", "115421.802500", "115422.262500", "115422.722500", "115423.182500", "115423.642500", "115424.102500", "115424.562500", "115425.022500", "115425.482500", "115425.942500", "115426.402500", "115426.862500", "115427.322500", "115427.782500", "115428.242500", "115428.702500", "115429.162500", "115429.622500", "115430.082500", "115430.542500", "115431.002500", "115431.462500", "115431.922500", "115432.382500", "115432.842500", "115433.302500", "115433.762500", "115434.222500", "115434.682500", "115435.142500", "115435.602500", "115436.062500", "115436.522500", "115436.982500", "115437.442500", "115437.902500", "115438.362500", "115438.822500", "115439.282500", "115439.742500", "115440.202500", "115440.662500", "115441.122500", "115441.582500", "115442.042500", "115442.502500", "115442.962500", "115443.422500", "115443.882500", "115444.342500", "115444.802500", "115445.262500", "115445.722500", "115446.182500", "115446.642500", "115447.102500", "115447.562500", "115448.022500", "115448.482500", "115448.942500", "115449.402500", "115449.862500", "115450.322500", "115450.782500", "115451.242500", "115451.702500", "115452.162500", "115452.622500", "115453.082500", "115453.542500", "115454.002500", "115454.462500", "115454.922500", "115455.382500", "115455.842500", "115456.302500", "115456.762500", "115457.222500", "115457.682500", "115458.142500", "115458.602500", "115459.062500", "115459.522500", "115459.982500", "115500.442500", "115500.902500", "115501.362500", "115501.822500", "115502.282500", "115502.742500", "115503.202500", "115503.662500", "115504.122500", "115504.582500", "115505.042500", "115505.502500", "115505.962500", "115506.422500", "115506.882500", "115507.342500", "115507.802500", "115508.262500", "115508.722500", "115509.182500", "115509.642500", "115510.102500", "115510.562500", "115511.022500", "115511.482500", "115511.942500", "115512.402500", "115512.862500", "115513.322500", "115513.782500", "115514.242500", "115514.702500", "115515.162500", "115515.622500", "115516.082500", "115516.542500", "115517.002500", "115517.462500", "115517.922500", "115518.382500", "115518.842500", "115519.302500", "115519.762500", "115520.222500", "115520.682500", "115521.142500"],
