{
  "AcquisitionMatrixPE": 82,
  "AcquisitionNumber": 1,
  "AcquisitionTime": "12:22:12.880000",
  "BandwidthPerPixelPhaseEncode": 24.888,
  "BaseResolution": 82,
  "BodyPartExamined": "BRAIN",
  "ConsistencyInfo": "N4_VE11C_LATEST_20160120",
  "ConversionSoftware": "dcm2niix",
  "ConversionSoftwareVersion": "v1.0.20201102",
  "DerivedVendorReportedEchoSpacing": 0.00049,
  "DeviceSerialNumber": "66112",
  "DwellTime": 2e-06,
  "EchoTime": 0.0272,
  "EchoTrainLength": 82,
  "EffectiveEchoSpacing": 0.00049,
  "FlipAngle": 44,
  "ImageComments": "Unaliased MB8/PE3",
  "ImageOrientationPatientDICOM": [0.99922, 0.0221494, 0.0326986, -0.02285, 0.999514, 0.0212076],
  "ImageType": [
    "ORIGINAL",
    "PRIMARY",
    "M",
    "MB",
    "ND",
    "NORM",
    "MOSAIC"
],
  "ImagingFrequency": 123.252,
  "InPlanePhaseEncodingDirectionDICOM": "COL",
  "InstitutionAddress": "Maynard 3,Hanover,NH,US,03755",
  "InstitutionName": "Dartmouth College - PBS",
  "InstitutionalDepartmentName": "Department",
  "MRAcquisitionType": "2D",
  "MagneticFieldStrength": 3,
  "Manufacturer": "Siemens",
  "ManufacturersModelName": "Prisma",
  "Modality": "MR",
  "MultibandAccelerationFactor": 8,
  "PartialFourier": 1,
  "PatientPosition": "HFS",
  "PercentPhaseFOV": 100,
  "PercentSampling": 100,
  "PhaseEncodingDirection": "j-",
  "PhaseEncodingSteps": 82,
  "PhaseResolution": 1,
  "PixelBandwidth": 3050,
  "ProcedureStepDescription": "Wager_Wager^1076_spacetop",
  "ProtocolName": "func_run-05_task-social_acq-ap-mb8",
  "PulseSequenceDetails": "%CustomerSeq%\\cmrr_mbep2d_bold",
  "ReceiveCoilActiveElements": "HEA;HEP",
  "ReceiveCoilName": "Head_32",
  "ReconMatrixPE": 82,
  "RepetitionTime": 0.46,
  "SAR": 0.104211,
  "ScanOptions": "FS",
  "ScanningSequence": "EP",
  "SequenceName": "epfid2d1_82",
  "SequenceVariant": "SK\\SS",
  "SeriesDescription": "func_run-05_task-social_acq-ap-mb8",
  "SeriesNumber": 20,
  "ShimSetting": [4136, -7758, -7227, 542, -63, -137, -32, 22],
  "SliceThickness": 2.7,
  "SliceTiming": [0, 0.2525, 0.0625, 0.315, 0.125, 0.3775, 0.19, 0, 0.2525, 0.0625, 0.315, 0.125, 0.3775, 0.19, 0, 0.2525, 0.0625, 0.315, 0.125, 0.3775, 0.19, 0, 0.2525, 0.0625, 0.315, 0.125, 0.3775, 0.19, 0, 0.2525, 0.0625, 0.315, 0.125, 0.3775, 0.19, 0, 0.2525, 0.0625, 0.315, 0.125, 0.3775, 0.19, 0, 0.2525, 0.0625, 0.315, 0.125, 0.3775, 0.19, 0, 0.2525, 0.0625, 0.315, 0.125, 0.3775, 0.19],
  "SoftwareVersions": "syngo MR E11",
  "SpacingBetweenSlices": 2.7,
  "StationName": "AWP66112",
  "TaskName": "social",
  "TotalReadoutTime": 0.03969,
  "TxRefAmp": 301.387,
  "WipMemBlock": "30aef028-dda0-4a8c-abea-54acf92be721||Sequence: R016 ve11c/master r/e634e98; Dec 19 2017 11:00:25 by eja",
  "dcmmeta_affine": [
    [-2.680833578109741, -0.061304789036512375, 0.08697506040334702, 113.9730224609375],
    [-0.059425342828035355, 2.6816227436065674, 0.05923321843147278, -78.80175018310547],
    [0.08772799372673035, -0.05689847469329834, 2.697948694229126, -67.36090850830078],
    [0.0, 0.0, 0.0, 1.0]
],
  "dcmmeta_reorient_transform": [
    [0.0, -1.0, 0.0, 81.0],
    [1.0, 0.0, 0.0, 0.0],
    [0.0, 0.0, 1.0, 0.0],
    [0.0, 0.0, 0.0, 1.0]
],
  "dcmmeta_shape": [82, 82, 56, 872],
  "dcmmeta_slice_dim": 2,
  "dcmmeta_version": 0.6,
  "global": {
    "const": {
      "AccessionNumber": "A003663",
      "AcquisitionMatrix": [82, 0, 0, 82],
      "AngioFlag": "N",
      "BitsAllocated": 16,
      "BitsStored": 16,
      "BodyPartExamined": "BRAIN",
      "Columns": 656,
      "EchoNumbers": 1,
      "EchoTime": 27.2,
      "EchoTrainLength": 82,
      "FlipAngle": 44.0,
      "HighBit": 15,
      "ImageOrientationPatient": [0.9992197969672, 0.02214944542207, 0.03269861489903, -0.0228499666302, 0.99951393997079, 0.02120761252638],
      "ImagePositionPatient": [-860.81212189175, -925.09052635011, -113.47748218088],
      "ImageType": [
        "ORIGINAL",
        "PRIMARY",
        "M",
        "MB",
        "ND",
        "NORM",
        "MOSAIC"
],
      "ImagedNucleus": "1H",
      "ImagingFrequency": 123.252133,
      "InPlanePhaseEncodingDirection": "COL",
      "MRAcquisitionType": "2D",
      "MagneticFieldStrength": 3.0,
      "Manufacturer": "SIEMENS",
      "ManufacturerModelName": "Prisma",
      "Modality": "MR",
      "NumberOfAverages": 1.0,
      "NumberOfPhaseEncodingSteps": 82,
      "PercentPhaseFieldOfView": 100.0,
      "PercentSampling": 100.0,
      "PerformedProcedureStepStartTime": "105731.170000",
      "PhotometricInterpretation": "MONOCHROME2",
      "PixelBandwidth": 3050.0,
      "PixelRepresentation": 0,
      "PixelSpacing": [2.6829268932343, 2.6829268932343],
      "ProtocolName": "func_run-05_task-social_acq-ap-mb8",
      "RepetitionTime": 460.0,
      "Rows": 656,
      "SAR": 0.10421100183022,
      "SamplesPerPixel": 1,
      "ScanOptions": "FS",
      "ScanningSequence": "EP",
      "SequenceName": "epfid2d1_82",
      "SequenceVariant": [
        "SK",
        "SS"
],
      "SeriesDescription": "func_run-05_task-social_acq-ap-mb8",
      "SeriesNumber": 20,
      "SeriesTime": "122238.069000",
      "SliceLocation": -65.367090448062,
      "SliceThickness": 2.7000000476837,
      "SmallestImagePixelValue": 0,
      "SoftwareVersions": "syngo MR E11",
      "SpacingBetweenSlices": 2.7000000424404,
      "SpecificCharacterSet": "ISO_IR 100",
      "StudyID": "1",
      "StudyTime": "105731.122000",
      "TransmitCoilName": "Body",
      "VariableFlipAngleFlag": "N",
      "WindowCenterWidthExplanation": "Algo1",
      "dBdt": 0.0},
    "slices": {}
  },
  "time": {
    "samples": {
      "AcquisitionNumber": [1, 2, 3, 4, 5, 6, 7, 8, 9, 10, 11, 12, 13, 14, 15, 16, 17, 18, 19, 20, 21, 22, 23, 24, 25, 26, 27, 28, 29, 30, 31, 32, 33, 34, 35, 36, 37, 38, 39, 40, 41, 42, 43, 44, 45, 46, 47, 48, 49, 50, 51, 52, 53, 54, 55, 56, 57, 58, 59, 60, 61, 62, 63, 64, 65, 66, 67, 68, 69, 70, 71, 72, 73, 74, 75, 76, 77, 78, 79, 80, 81, 82, 83, 84, 85, 86, 87, 88, 89, 90, 91, 92, 93, 94, 95, 96, 97, 98, 99, 100, 101, 102, 103, 104, 105, 106, 107, 108, 109, 110, 111, 112, 113, 114, 115, 116, 117, 118, 119, 120, 121, 122, 123, 124, 125, 126, 127, 128, 129, 130, 131, 132, 133, 134, 135, 136, 137, 138, 139, 140, 141, 142, 143, 144, 145, 146, 147, 148, 149, 150, 151, 152, 153, 154, 155, 156, 157, 158, 159, 160, 161, 162, 163, 164, 165, 166, 167, 168, 169, 170, 171, 172, 173, 174, 175, 176, 177, 178, 179, 180, 181, 182, 183, 184, 185, 186, 187, 188, 189, 190, 191, 192, 193, 194, 195, 196, 197, 198, 199, 200, 201, 202, 203, 204, 205, 206, 207, 208, 209, 210, 211, 212, 213, 214, 215, 216, 217, 218, 219, 220, 221, 222, 223, 224, 225, 226, 227, 228, 229, 230, 231, 232, 233, 234, 235, 236, 237, 238, 239, 240, 241, 242, 243, 244, 245, 246, 247, 248, 249, 250, 251, 252, 253, 254, 255, 256, 257, 258, 259, 260, 261, 262, 263, 264, 265, 266, 267, 268, 269, 270, 271, 272, 273, 274, 275, 276, 277, 278, 279, 280, 281, 282, 283, 284, 285, 286, 287, 288, 289, 290, 291, 292, 293, 294, 295, 296, 297, 298, 299, 300, 301, 302, 303, 304, 305, 306, 307, 308, 309, 310, 311, 312, 313, 314, 315, 316, 317, 318, 319, 320, 321, 322, 323, 324, 325, 326, 327, 328, 329, 330, 331, 332, 333, 334, 335, 336, 337, 338, 339, 340, 341, 342, 343, 344, 345, 346, 347, 348, 349, 350, 351, 352, 353, 354, 355, 356, 357, 358, 359, 360, 361, 362, 363, 364, 365, 366, 367, 368, 369, 370, 371, 372, 373, 374, 375, 376, 377, 378, 379, 380, 381, 382, 383, 384, 385, 386, 387, 388, 389, 390, 391, 392, 393, 394, 395, 396, 397, 398, 399, 400, 401, 402, 403, 404, 405, 406, 407, 408, 409, 410, 411, 412, 413, 414, 415, 416, 417, 418, 419, 420, 421, 422, 423, 424, 425, 426, 427, 428, 429, 430, 431, 432, 433, 434, 435, 436, 437, 438, 439, 440, 441, 442, 443, 444, 445, 446, 447, 448, 449, 450, 451, 452, 453, 454, 455, 456, 457, 458, 459, 460, 461, 462, 463, 464, 465, 466, 467, 468, 469, 470, 471, 472, 473, 474, 475, 476, 477, 478, 479, 480, 481, 482, 483, 484, 485, 486, 487, 488, 489, 490, 491, 492, 493, 494, 495, 496, 497, 498, 499, 500, 501, 502, 503, 504, 505, 506, 507, 508, 509, 510, 511, 512, 513, 514, 515, 516, 517, 518, 519, 520, 521, 522, 523, 524, 525, 526, 527, 528, 529, 530, 531, 532, 533, 534, 535, 536, 537, 538, 539, 540, 541, 542, 543, 544, 545, 546, 547, 548, 549, 550, 551, 552, 553, 554, 555, 556, 557, 558, 559, 560, 561, 562, 563, 564, 565, 566, 567, 568, 569, 570, 571, 572, 573, 574, 575, 576, 577, 578, 579, 580, 581, 582, 583, 584, 585, 586, 587, 588, 589, 590, 591, 592, 593, 594, 595, 596, 597, 598, 599, 600, 601, 602, 603, 604, 605, 606, 607, 608, 609, 610, 611, 612, 613, 614, 615, 616, 617, 618, 619, 620, 621, 622, 623, 624, 625, 626, 627, 628, 629, 630, 631, 632, 633, 634, 635, 636, 637, 638, 639, 640, 641, 642, 643, 644, 645, 646, 647, 648, 649, 650, 651, 652, 653, 654, 655, 656, 657, 658, 659, 660, 661, 662, 663, 664, 665, 666, 667, 668, 669, 670, 671, 672, 673, 674, 675, 676, 677, 678, 679, 680, 681, 682, 683, 684, 685, 686, 687, 688, 689, 690, 691, 692, 693, 694, 695, 696, 697, 698, 699, 700, 701, 702, 703, 704, 705, 706, 707, 708, 709, 710, 711, 712, 713, 714, 715, 716, 717, 718, 719, 720, 721, 722, 723, 724, 725, 726, 727, 728, 729, 730, 731, 732, 733, 734, 735, 736, 737, 738, 739, 740, 741, 742, 743, 744, 745, 746, 747, 748, 749, 750, 751, 752, 753, 754, 755, 756, 757, 758, 759, 760, 761, 762, 763, 764, 765, 766, 767, 768, 769, 770, 771, 772, 773, 774, 775, 776, 777, 778, 779, 780, 781, 782, 783, 784, 785, 786, 787, 788, 789, 790, 791, 792, 793, 794, 795, 796, 797, 798, 799, 800, 801, 802, 803, 804, 805, 806, 807, 808, 809, 810, 811, 812, 813, 814, 815, 816, 817, 818, 819, 820, 821, 822, 823, 824, 825, 826, 827, 828, 829, 830, 831, 832, 833, 834, 835, 836, 837, 838, 839, 840, 841, 842, 843, 844, 845, 846, 847, 848, 849, 850, 851, 852, 853, 854, 855, 856, 857, 858, 859, 860, 861, 862, 863, 864, 865, 866, 867, 868, 869, 870, 871, 872],
      "AcquisitionTime": ["122212.880000", "122213.340000", "122213.800000", "122214.260000", "122214.720000", "122215.180000", "122215.640000", "122216.100000", "122216.560000", "122217.020000", "122217.480000", "122217.940000", "122218.400000", "122218.860000", "122219.320000", "122219.780000", "122220.240000", "122220.700000", "122221.160000", "122221.620000", "122222.080000", "122222.540000", "122223.000000", "122223.460000", "122223.920000", "122224.380000", "122224.840000", "122225.300000", "122225.760000", "122226.220000", "122226.680000", "122227.140000", "122227.600000", "122228.060000", "122228.520000", "122228.980000", "122229.440000", "122229.900000", "122230.360000", "122230.820000", "122231.280000", "122231.740000", "122232.200000", "122232.660000", "122233.120000", "122233.580000", "122234.040000", "122234.500000", "122234.960000", "122235.420000", "122235.880000", "122236.340000", "122236.800000", "122237.260000", "122237.720000", "122238.180000", "122238.640000", "122239.100000", "122239.560000", "122240.020000", "122240.480000", "122240.940000", "122241.400000", "122241.860000", "122242.320000", "122242.780000", "122243.240000", "122243.700000", "122244.160000", "122244.620000", "122245.080000", "122245.540000", "122246.000000", "122246.460000", "122246.920000", "122247.380000", "122247.840000", "122248.300000", "122248.760000", "122249.220000", "122249.680000", "122250.140000", "122250.600000", "122251.060000", "122251.520000", "122251.980000", "122252.440000", "122252.900000", "122253.360000", "122253.820000", "122254.280000", "122254.740000", "122255.200000", "122255.660000", "122256.120000", "122256.580000", "122257.040000", "122257.500000", "122257.960000", "122258.420000", "122258.880000", "122259.340000", "122259.800000", "122300.260000", "122300.720000", "122301.180000", "122301.640000", "122302.100000", "122302.560000", "122303.020000", "122303.480000", "122303.940000", "122304.400000", "122304.860000", "122305.320000", "122305.780000", "122306.240000", "122306.700000", "122307.160000", "122307.620000", "122308.080000", "122308.540000", "122309.000000", "122309.460000", "122309.920000", "122310.380000", "122310.840000", "122311.300000", "122311.760000", "122312.220000", "122312.680000", "122313.140000", "122313.600000", "122314.060000", "122314.520000", "122314.980000", "122315.440000", "122315.900000", "122316.360000", "122316.820000", "122317.280000", "122317.740000", "122318.200000", "122318.660000", "122319.120000", "122319.580000", "122320.040000", "122320.500000", "122320.960000", "122321.420000", "122321.880000", "122322.340000", "122322.800000", "122323.260000", "122323.720000", "122324.180000", "122324.640000", "122325.100000", "122325.560000", "122326.020000", "122326.480000", "122326.940000", "122327.400000", "122327.860000", "122328.320000", "122328.780000", "122329.240000", "122329.700000", "122330.160000", "122330.620000", "122331.080000", "122331.540000", "122332.000000", "122332.460000", "122332.920000", "122333.380000", "122333.840000", "122334.300000", "122334.760000", "122335.220000", "122335.680000", "122336.140000", "122336.600000", "122337.060000", "122337.520000", "122337.980000", "122338.440000", "122338.900000", "122339.360000", "122339.820000", "122340.280000", "122340.740000", "122341.200000", "122341.660000", "122342.120000", "122342.580000", "122343.040000", "122343.500000", "122343.960000", "122344.420000", "122344.880000", "122345.340000", "122345.800000", "122346.260000", "122346.720000", "122347.180000", "122347.640000", "122348.100000", "122348.560000", "122349.020000", "122349.480000", "122349.940000", "122350.400000", "122350.860000", "122351.320000", "122351.780000", "122352.240000", "122352.700000", "122353.160000", "122353.620000", "122354.080000", "122354.540000", "122355.000000", "122355.460000", "122355.920000", "122356.380000", "122356.840000", "122357.300000", "122357.760000", "122358.220000", "122358.680000", "122359.140000", "122359.600000", "122400.060000", "122400.520000", "122400.980000", "122401.440000", "122401.900000", "122402.360000", "122402.820000", "122403.280000", "122403.740000", "122404.200000", "122404.660000", "122405.120000", "122405.580000", "122406.040000", "122406.500000", "122406.960000", "122407.420000", "122407.880000", "122408.340000", "122408.800000", "122409.260000", "122409.720000", "122410.180000", "122410.640000", "122411.100000", "122411.560000", "122412.020000", "122412.480000", "122412.940000", "122413.400000", "122413.860000", "122414.320000", "122414.780000", "122415.240000", "122415.700000", "122416.160000", "122416.620000", "122417.080000", "122417.540000", "122418.000000", "122418.460000", "122418.920000", "122419.380000", "122419.840000", "122420.300000", "122420.760000", "122421.220000", "122421.680000", "122422.140000", "122422.600000", "122423.060000", "122423.520000", "122423.980000", "122424.440000", "122424.900000", "122425.360000", "122425.820000", "122426.280000", "122426.740000", "122427.200000", "122427.660000", "122428.120000", "122428.580000", "122429.040000", "122429.500000", "122429.960000", "122430.420000", "122430.880000", "122431.340000", "122431.800000", "122432.260000", "122432.720000", "122433.180000", "122433.640000", "122434.100000", "122434.560000", "122435.020000", "122435.480000", "122435.940000", "122436.400000", "122436.860000", "122437.320000", "122437.780000", "122438.240000", "122438.700000", "122439.160000", "122439.620000", "122440.080000", "122440.540000", "122441.000000", "122441.460000", "122441.920000", "122442.380000", "122442.840000", "122443.300000", "122443.760000", "122444.220000", "122444.680000", "122445.140000", "122445.600000", "122446.060000", "122446.520000", "122446.980000", "122447.440000", "122447.900000", "122448.360000", "122448.820000", "122449.280000", "122449.740000", "122450.200000", "122450.660000", "122451.120000", "122451.580000", "122452.040000", "122452.500000", "122452.960000", "122453.420000", "122453.880000", "122454.340000", "122454.800000", "122455.260000", "122455.720000", "122456.180000", "122456.640000", "122457.100000", "122457.560000", "122458.020000", "122458.480000", "122458.940000", "122459.400000", "122459.860000", "122500.320000", "122500.780000", "122501.240000", "122501.700000", "122502.160000", "122502.620000", "122503.080000", "122503.540000", "122504.000000", "122504.460000", "122504.920000", "122505.380000", "122505.840000", "122506.300000", "122506.760000", "122507.220000", "122507.680000", "122508.140000", "122508.600000", "122509.060000", "122509.520000", "122509.980000", "122510.440000", "122510.900000", "122511.360000", "122511.820000", "122512.280000", "122512.740000", "122513.200000", "122513.660000", "122514.120000", "122514.580000", "122515.040000", "122515.500000", "122515.960000", "122516.420000", "122516.880000", "122517.340000", "122517.800000", "122518.260000", "122518.720000", "122519.180000", "122519.640000", "122520.100000", "122520.560000", "122521.020000", "122521.480000", "122521.940000", "122522.400000", "122522.860000", "122523.320000", "122523.780000", "122524.240000", "122524.700000", "122525.160000", "122525.620000", "122526.080000", "122526.540000", "122527.000000", "122527.460000", "122527.920000", "122528.380000", "122528.840000", "122529.300000", "122529.760000", "122530.220000", "122530.680000", "122531.140000", "122531.600000", "122532.060000", "122532.520000", "122532.980000", "122533.440000", "122533.900000", "122534.360000", "122534.820000", "122535.280000", "122535.740000", "122536.200000", "122536.660000", "122537.120000", "122537.580000", "122538.040000", "122538.500000", "122538.960000", "122539.420000", "122539.880000", "122540.340000", "122540.800000", "122541.260000", "122541.720000", "122542.180000", "122542.640000", "122543.100000", "122543.560000", "122544.020000", "122544.480000", "122544.940000", "122545.400000", "122545.860000", "122546.320000", "122546.780000", "122547.240000", "122547.700000", "122548.160000", "122548.620000", "122549.080000", "122549.540000", "122550.000000", "122550.460000", "122550.920000", "122551.380000", "122551.840000", "122552.300000", "122552.760000", "122553.220000", "122553.680000", "122554.140000", "122554.600000", "122555.060000", "122555.520000", "122555.980000", "122556.440000", "122556.900000", "122557.360000", "122557.820000", "122558.280000", "122558.740000", "122559.200000", "122559.660000", "122600.120000", "122600.580000", "122601.040000", "122601.500000", "122601.960000", "122602.420000", "122602.880000", "122603.340000", "122603.800000", "122604.260000", "122604.720000", "122605.180000", "122605.640000", "122606.100000", "122606.560000", "122607.020000", "122607.480000", "122607.940000", "122608.400000", "122608.860000", "122609.320000", "122609.780000", "122610.240000", "122610.700000", "122611.160000", "122611.620000", "122612.080000", "122612.540000", "122613.000000", "122613.460000", "122613.920000", "122614.380000", "122614.840000", "122615.300000", "122615.760000", "122616.220000", "122616.680000", "122617.140000", "122617.600000", "122618.060000", "122618.520000", "122618.980000", "122619.440000", "122619.900000", "122620.360000", "122620.820000", "122621.280000", "122621.740000", "122622.200000", "122622.660000", "122623.120000", "122623.580000", "122624.040000", "122624.500000", "122624.960000", "122625.420000", "122625.880000", "122626.340000", "122626.800000", "122627.260000", "122627.720000", "122628.180000", "122628.640000", "122629.100000", "122629.560000", "122630.020000", "122630.480000", "122630.940000", "122631.400000", "122631.860000", "122632.320000", "122632.780000", "122633.240000", "122633.700000", "122634.160000", "122634.620000", "122635.080000", "122635.540000", "122636.000000", "122636.460000", "122636.920000", "122637.380000", "122637.840000", "122638.300000", "122638.760000", "122639.220000", "122639.680000", "122640.140000", "122640.600000", "122641.060000", "122641.520000", "122641.980000", "122642.440000", "122642.900000", "122643.360000", "122643.820000", "122644.280000", "122644.740000", "122645.200000", "122645.660000", "122646.120000", "122646.580000", "122647.040000", "122647.500000", "122647.960000", "122648.420000", "122648.880000", "122649.340000", "122649.800000", "122650.260000", "122650.720000", "122651.180000", "122651.640000", "122652.100000", "122652.560000", "122653.020000", "122653.480000", "122653.940000", "122654.400000", "122654.860000", "122655.320000", "122655.780000", "122656.240000", "122656.700000", "122657.160000", "122657.620000", "122658.080000", "122658.540000", "122659.000000", "122659.460000", "122659.920000", "122700.380000", "122700.840000", "122701.300000", "122701.760000", "122702.220000", "122702.680000", "122703.140000", "122703.600000", "122704.060000", "122704.520000", "122704.980000", "122705.440000", "122705.900000", "122706.360000", "122706.820000", "122707.280000", "122707.740000", "122708.200000", "122708.660000", "122709.120000", "122709.580000", "122710.040000", "122710.500000", "122710.960000", "122711.420000", "122711.880000", "122712.340000", "122712.800000", "122713.260000", "122713.720000", "122714.180000", "122714.640000", "122715.100000", "122715.560000", "122716.020000", "122716.480000", "122716.940000", "122717.400000", "122717.860000", "122718.320000", "122718.780000", "122719.240000", "122719.700000", "122720.160000", "122720.620000", "122721.080000", "122721.540000", "122722.000000", "122722.460000", "122722.920000", "122723.380000", "122723.840000", "122724.300000", "122724.760000", "122725.220000", "122725.680000", "122726.140000", "122726.600000", "122727.060000", "122727.520000", "122727.980000", "122728.440000", "122728.900000", "122729.360000", "122729.820000", "122730.280000", "122730.740000", "122731.200000", "122731.660000", "122732.120000", "122732.580000", "122733.040000", "122733.500000", "122733.960000", "122734.420000", "122734.880000", "122735.340000", "122735.800000", "122736.260000", "122736.720000", "122737.180000", "122737.640000", "122738.100000", "122738.560000", "122739.020000", "122739.480000", "122739.940000", "122740.400000", "122740.860000", "122741.320000", "122741.780000", "122742.240000", "122742.700000", "122743.160000", "122743.620000", "122744.080000", "122744.540000", "122745.000000", "122745.460000", "122745.920000", "122746.380000", "122746.840000", "122747.300000", "122747.760000", "122748.220000", "122748.680000", "122749.140000", "122749.600000", "122750.060000", "122750.520000", "122750.980000", "122751.440000", "122751.900000", "122752.360000", "122752.820000", "122753.280000", "122753.740000", "122754.200000", "122754.660000", "122755.120000", "122755.580000", "122756.040000", "122756.500000", "122756.960000", "122757.420000", "122757.880000", "122758.340000", "122758.800000", "122759.260000", "122759.720000", "122800.180000", "122800.640000", "122801.100000", "122801.560000", "122802.020000", "122802.480000", "122802.940000", "122803.400000", "122803.860000", "122804.320000", "122804.780000", "122805.240000", "122805.700000", "122806.160000", "122806.620000", "122807.080000", "122807.540000", "122808.000000", "122808.460000", "122808.920000", "122809.380000", "122809.840000", "122810.300000", "122810.760000", "122811.220000", "122811.680000", "122812.140000", "122812.600000", "122813.060000", "122813.520000", "122813.980000", "122814.440000", "122814.900000", "122815.360000", "122815.820000", "122816.280000", "122816.740000", "122817.200000", "122817.660000", "122818.120000", "122818.580000", "122819.040000", "122819.500000", "122819.960000", "122820.420000", "122820.880000", "122821.340000", "122821.800000", "122822.260000", "122822.720000", "122823.180000", "122823.640000", "122824.100000", "122824.560000", "122825.020000", "122825.480000", "122825.940000", "122826.400000", "122826.860000", "122827.320000", "122827.780000", "122828.240000", "122828.700000", "122829.160000", "122829.620000", "122830.080000", "122830.540000", "122831.000000", "122831.460000", "122831.920000", "122832.380000", "122832.840000", "122833.300000", "122833.760000", "122834.220000", "122834.680000", "122835.140000", "122835.600000", "122836.060000", "122836.520000", "122836.980000", "122837.440000", "122837.900000", "122838.360000", "122838.820000", "122839.280000", "122839.740000", "122840.200000", "122840.660000", "122841.120000", "122841.580000", "122842.040000", "122842.500000", "122842.960000", "122843.420000", "122843.880000", "122844.340000", "122844.800000", "122845.260000", "122845.720000", "122846.180000", "122846.640000", "122847.100000", "122847.560000", "122848.020000", "122848.480000", "122848.940000", "122849.400000", "122849.860000", "122850.320000", "122850.780000", "122851.240000", "122851.700000", "122852.160000", "122852.620000", "122853.080000", "122853.540000"],
