{
  "AcquisitionMatrixPE": 82,
  "AcquisitionNumber": 1,
  "AcquisitionTime": "12:07:42.122500",
  "BandwidthPerPixelPhaseEncode": 24.888,
  "BaseResolution": 82,
  "BodyPartExamined": "BRAIN",
  "ConsistencyInfo": "N4_VE11C_LATEST_20160120",
  "ConversionSoftware": "dcm2niix",
  "ConversionSoftwareVersion": "v1.0.20201102",
  "DerivedVendorReportedEchoSpacing": 0.00049,
  "DeviceSerialNumber": "66112",
  "DwellTime": 2e-06,
  "EchoTime": 0.0272,
  "EchoTrainLength": 82,
  "EffectiveEchoSpacing": 0.00049,
  "FlipAngle": 44,
  "ImageComments": "Unaliased MB8/PE3",
  "ImageOrientationPatientDICOM": [0.99922, 0.0221494, 0.0326986, -0.02285, 0.999514, 0.0212076],
  "ImageType": [
    "ORIGINAL",
    "PRIMARY",
    "M",
    "MB",
    "ND",
    "NORM",
    "MOSAIC"
],
  "ImagingFrequency": 123.252,
  "InPlanePhaseEncodingDirectionDICOM": "COL",
  "InstitutionAddress": "Maynard 3,Hanover,NH,US,03755",
  "InstitutionName": "Dartmouth College - PBS",
  "InstitutionalDepartmentName": "Department",
  "MRAcquisitionType": "2D",
  "MagneticFieldStrength": 3,
  "Manufacturer": "Siemens",
  "ManufacturersModelName": "Prisma",
  "Modality": "MR",
  "MultibandAccelerationFactor": 8,
  "PartialFourier": 1,
  "PatientPosition": "HFS",
  "PercentPhaseFOV": 100,
  "PercentSampling": 100,
  "PhaseEncodingDirection": "j-",
  "PhaseEncodingSteps": 82,
  "PhaseResolution": 1,
  "PixelBandwidth": 3050,
  "ProcedureStepDescription": "Wager_Wager^1076_spacetop",
  "ProtocolName": "func_run-03_task-social_acq-ap-mb8",
  "PulseSequenceDetails": "%CustomerSeq%\\cmrr_mbep2d_bold",
  "ReceiveCoilActiveElements": "HEA;HEP",
  "ReceiveCoilName": "Head_32",
  "ReconMatrixPE": 82,
  "RepetitionTime": 0.46,
  "SAR": 0.107501,
  "ScanOptions": "FS",
  "ScanningSequence": "EP",
  "SequenceName": "epfid2d1_82",
  "SequenceVariant": "SK\\SS",
  "SeriesDescription": "func_run-03_task-social_acq-ap-mb8",
  "SeriesNumber": 16,
  "ShimSetting": [4135, -7744, -7220, 536, -51, -113, -49, 47],
  "SliceThickness": 2.7,
  "SliceTiming": [0, 0.2525, 0.0625, 0.315, 0.125, 0.3775, 0.19, 0, 0.2525, 0.0625, 0.315, 0.125, 0.3775, 0.19, 0, 0.2525, 0.0625, 0.315, 0.125, 0.3775, 0.19, 0, 0.2525, 0.0625, 0.315, 0.125, 0.3775, 0.19, 0, 0.2525, 0.0625, 0.315, 0.125, 0.3775, 0.19, 0, 0.2525, 0.0625, 0.315, 0.125, 0.3775, 0.19, 0, 0.2525, 0.0625, 0.315, 0.125, 0.3775, 0.19, 0, 0.2525, 0.0625, 0.315, 0.125, 0.3775, 0.19],
  "SoftwareVersions": "syngo MR E11",
  "SpacingBetweenSlices": 2.7,
  "StationName": "AWP66112",
  "TaskName": "social",
  "TotalReadoutTime": 0.03969,
  "TxRefAmp": 305.823,
  "WipMemBlock": "823cbcc3-ab72-4069-bd89-b620ecf198c0||Sequence: R016 ve11c/master r/e634e98; Dec 19 2017 11:00:25 by eja",
  "dcmmeta_affine": [
    [-2.680833578109741, -0.061304789036512375, 0.08697506040334702, 113.9730224609375],
    [-0.059425342828035355, 2.6816227436065674, 0.05923321843147278, -78.80175018310547],
    [0.08772799372673035, -0.05689847469329834, 2.697948694229126, -67.36090850830078],
    [0.0, 0.0, 0.0, 1.0]
],
  "dcmmeta_reorient_transform": [
    [0.0, -1.0, 0.0, 81.0],
    [1.0, 0.0, 0.0, 0.0],
    [0.0, 0.0, 1.0, 0.0],
    [0.0, 0.0, 0.0, 1.0]
],
  "dcmmeta_shape": [82, 82, 56, 872],
  "dcmmeta_slice_dim": 2,
  "dcmmeta_version": 0.6,
  "global": {
    "const": {
      "AccessionNumber": "A003663",
      "AcquisitionMatrix": [82, 0, 0, 82],
      "AngioFlag": "N",
      "BitsAllocated": 16,
      "BitsStored": 16,
      "BodyPartExamined": "BRAIN",
      "Columns": 656,
      "EchoNumbers": 1,
      "EchoTime": 27.2,
      "EchoTrainLength": 82,
      "FlipAngle": 44.0,
      "HighBit": 15,
      "ImageOrientationPatient": [0.9992197969672, 0.02214944542207, 0.03269861489903, -0.0228499666302, 0.99951393997079, 0.02120761252638],
      "ImagePositionPatient": [-860.81212189175, -925.09052635011, -113.47748218088],
      "ImageType": [
        "ORIGINAL",
        "PRIMARY",
        "M",
        "MB",
        "ND",
        "NORM",
        "MOSAIC"
],
      "ImagedNucleus": "1H",
      "ImagingFrequency": 123.25213,
      "InPlanePhaseEncodingDirection": "COL",
      "MRAcquisitionType": "2D",
      "MagneticFieldStrength": 3.0,
      "Manufacturer": "SIEMENS",
      "ManufacturerModelName": "Prisma",
      "Modality": "MR",
      "NumberOfAverages": 1.0,
      "NumberOfPhaseEncodingSteps": 82,
      "PercentPhaseFieldOfView": 100.0,
      "PercentSampling": 100.0,
      "PerformedProcedureStepStartTime": "105731.170000",
      "PhotometricInterpretation": "MONOCHROME2",
      "PixelBandwidth": 3050.0,
      "PixelRepresentation": 0,
      "PixelSpacing": [2.6829268932343, 2.6829268932343],
      "ProtocolName": "func_run-03_task-social_acq-ap-mb8",
      "RepetitionTime": 460.0,
      "Rows": 656,
      "SAR": 0.10750119111637,
      "SamplesPerPixel": 1,
      "ScanOptions": "FS",
      "ScanningSequence": "EP",
      "SequenceName": "epfid2d1_82",
      "SequenceVariant": [
        "SK",
        "SS"
],
      "SeriesDescription": "func_run-03_task-social_acq-ap-mb8",
      "SeriesNumber": 16,
      "SeriesTime": "120758.015000",
      "SliceLocation": -65.367090448062,
      "SliceThickness": 2.7000000476837,
      "SmallestImagePixelValue": 0,
      "SoftwareVersions": "syngo MR E11",
      "SpacingBetweenSlices": 2.7000000424404,
      "SpecificCharacterSet": "ISO_IR 100",
      "StudyID": "1",
      "StudyTime": "105731.122000",
      "TransmitCoilName": "Body",
      "VariableFlipAngleFlag": "N",
      "WindowCenterWidthExplanation": "Algo1",
      "dBdt": 0.0},
    "slices": {}
  },
  "time": {
    "samples": {
      "AcquisitionNumber": [1, 2, 3, 4, 5, 6, 7, 8, 9, 10, 11, 12, 13, 14, 15, 16, 17, 18, 19, 20, 21, 22, 23, 24, 25, 26, 27, 28, 29, 30, 31, 32, 33, 34, 35, 36, 37, 38, 39, 40, 41, 42, 43, 44, 45, 46, 47, 48, 49, 50, 51, 52, 53, 54, 55, 56, 57, 58, 59, 60, 61, 62, 63, 64, 65, 66, 67, 68, 69, 70, 71, 72, 73, 74, 75, 76, 77, 78, 79, 80, 81, 82, 83, 84, 85, 86, 87, 88, 89, 90, 91, 92, 93, 94, 95, 96, 97, 98, 99, 100, 101, 102, 103, 104, 105, 106, 107, 108, 109, 110, 111, 112, 113, 114, 115, 116, 117, 118, 119, 120, 121, 122, 123, 124, 125, 126, 127, 128, 129, 130, 131, 132, 133, 134, 135, 136, 137, 138, 139, 140, 141, 142, 143, 144, 145, 146, 147, 148, 149, 150, 151, 152, 153, 154, 155, 156, 157, 158, 159, 160, 161, 162, 163, 164, 165, 166, 167, 168, 169, 170, 171, 172, 173, 174, 175, 176, 177, 178, 179, 180, 181, 182, 183, 184, 185, 186, 187, 188, 189, 190, 191, 192, 193, 194, 195, 196, 197, 198, 199, 200, 201, 202, 203, 204, 205, 206, 207, 208, 209, 210, 211, 212, 213, 214, 215, 216, 217, 218, 219, 220, 221, 222, 223, 224, 225, 226, 227, 228, 229, 230, 231, 232, 233, 234, 235, 236, 237, 238, 239, 240, 241, 242, 243, 244, 245, 246, 247, 248, 249, 250, 251, 252, 253, 254, 255, 256, 257, 258, 259, 260, 261, 262, 263, 264, 265, 266, 267, 268, 269, 270, 271, 272, 273, 274, 275, 276, 277, 278, 279, 280, 281, 282, 283, 284, 285, 286, 287, 288, 289, 290, 291, 292, 293, 294, 295, 296, 297, 298, 299, 300, 301, 302, 303, 304, 305, 306, 307, 308, 309, 310, 311, 312, 313, 314, 315, 316, 317, 318, 319, 320, 321, 322, 323, 324, 325, 326, 327, 328, 329, 330, 331, 332, 333, 334, 335, 336, 337, 338, 339, 340, 341, 342, 343, 344, 345, 346, 347, 348, 349, 350, 351, 352, 353, 354, 355, 356, 357, 358, 359, 360, 361, 362, 363, 364, 365, 366, 367, 368, 369, 370, 371, 372, 373, 374, 375, 376, 377, 378, 379, 380, 381, 382, 383, 384, 385, 386, 387, 388, 389, 390, 391, 392, 393, 394, 395, 396, 397, 398, 399, 400, 401, 402, 403, 404, 405, 406, 407, 408, 409, 410, 411, 412, 413, 414, 415, 416, 417, 418, 419, 420, 421, 422, 423, 424, 425, 426, 427, 428, 429, 430, 431, 432, 433, 434, 435, 436, 437, 438, 439, 440, 441, 442, 443, 444, 445, 446, 447, 448, 449, 450, 451, 452, 453, 454, 455, 456, 457, 458, 459, 460, 461, 462, 463, 464, 465, 466, 467, 468, 469, 470, 471, 472, 473, 474, 475, 476, 477, 478, 479, 480, 481, 482, 483, 484, 485, 486, 487, 488, 489, 490, 491, 492, 493, 494, 495, 496, 497, 498, 499, 500, 501, 502, 503, 504, 505, 506, 507, 508, 509, 510, 511, 512, 513, 514, 515, 516, 517, 518, 519, 520, 521, 522, 523, 524, 525, 526, 527, 528, 529, 530, 531, 532, 533, 534, 535, 536, 537, 538, 539, 540, 541, 542, 543, 544, 545, 546, 547, 548, 549, 550, 551, 552, 553, 554, 555, 556, 557, 558, 559, 560, 561, 562, 563, 564, 565, 566, 567, 568, 569, 570, 571, 572, 573, 574, 575, 576, 577, 578, 579, 580, 581, 582, 583, 584, 585, 586, 587, 588, 589, 590, 591, 592, 593, 594, 595, 596, 597, 598, 599, 600, 601, 602, 603, 604, 605, 606, 607, 608, 609, 610, 611, 612, 613, 614, 615, 616, 617, 618, 619, 620, 621, 622, 623, 624, 625, 626, 627, 628, 629, 630, 631, 632, 633, 634, 635, 636, 637, 638, 639, 640, 641, 642, 643, 644, 645, 646, 647, 648, 649, 650, 651, 652, 653, 654, 655, 656, 657, 658, 659, 660, 661, 662, 663, 664, 665, 666, 667, 668, 669, 670, 671, 672, 673, 674, 675, 676, 677, 678, 679, 680, 681, 682, 683, 684, 685, 686, 687, 688, 689, 690, 691, 692, 693, 694, 695, 696, 697, 698, 699, 700, 701, 702, 703, 704, 705, 706, 707, 708, 709, 710, 711, 712, 713, 714, 715, 716, 717, 718, 719, 720, 721, 722, 723, 724, 725, 726, 727, 728, 729, 730, 731, 732, 733, 734, 735, 736, 737, 738, 739, 740, 741, 742, 743, 744, 745, 746, 747, 748, 749, 750, 751, 752, 753, 754, 755, 756, 757, 758, 759, 760, 761, 762, 763, 764, 765, 766, 767, 768, 769, 770, 771, 772, 773, 774, 775, 776, 777, 778, 779, 780, 781, 782, 783, 784, 785, 786, 787, 788, 789, 790, 791, 792, 793, 794, 795, 796, 797, 798, 799, 800, 801, 802, 803, 804, 805, 806, 807, 808, 809, 810, 811, 812, 813, 814, 815, 816, 817, 818, 819, 820, 821, 822, 823, 824, 825, 826, 827, 828, 829, 830, 831, 832, 833, 834, 835, 836, 837, 838, 839, 840, 841, 842, 843, 844, 845, 846, 847, 848, 849, 850, 851, 852, 853, 854, 855, 856, 857, 858, 859, 860, 861, 862, 863, 864, 865, 866, 867, 868, 869, 870, 871, 872],
      "AcquisitionTime": ["120742.122500", "120742.582500", "120743.042500", "120743.502500", "120743.962500", "120744.422500", "120744.882500", "120745.342500", "120745.802500", "120746.262500", "120746.722500", "120747.182500", "120747.642500", "120748.102500", "120748.562500", "120749.022500", "120749.482500", "120749.942500", "120750.402500", "120750.862500", "120751.322500", "120751.782500", "120752.242500", "120752.702500", "120753.162500", "120753.622500", "120754.082500", "120754.542500", "120755.002500", "120755.462500", "120755.922500", "120756.382500", "120756.842500", "120757.302500", "120757.762500", "120758.222500", "120758.682500", "120759.142500", "120759.602500", "120800.062500", "120800.522500", "120800.982500", "120801.442500", "120801.902500", "120802.362500", "120802.822500", "120803.282500", "120803.742500", "120804.202500", "120804.662500", "120805.122500", "120805.582500", "120806.042500", "120806.502500", "120806.962500", "120807.422500", "120807.882500", "120808.342500", "120808.802500", "120809.262500", "120809.722500", "120810.182500", "120810.642500", "120811.102500", "120811.562500", "120812.022500", "120812.482500", "120812.942500", "120813.402500", "120813.862500", "120814.322500", "120814.782500", "120815.242500", "120815.702500", "120816.162500", "120816.622500", "120817.082500", "120817.542500", "120818.002500", "120818.462500", "120818.922500", "120819.382500", "120819.842500", "120820.302500", "120820.762500", "120821.222500", "120821.682500", "120822.142500", "120822.602500", "120823.062500", "120823.522500", "120823.982500", "120824.442500", "120824.902500", "120825.362500", "120825.822500", "120826.282500", "120826.742500", "120827.202500", "120827.662500", "120828.122500", "120828.582500", "120829.042500", "120829.502500", "120829.962500", "120830.422500", "120830.882500", "120831.342500", "120831.802500", "120832.262500", "120832.722500", "120833.182500", "120833.642500", "120834.102500", "120834.562500", "120835.022500", "120835.482500", "120835.942500", "120836.402500", "120836.862500", "120837.322500", "120837.782500", "120838.242500", "120838.702500", "120839.162500", "120839.622500", "120840.082500", "120840.542500", "120841.002500", "120841.462500", "120841.922500", "120842.382500", "120842.842500", "120843.302500", "120843.762500", "120844.222500", "120844.682500", "120845.142500", "120845.602500", "120846.062500", "120846.522500", "120846.982500", "120847.442500", "120847.902500", "120848.362500", "120848.822500", "120849.282500", "120849.742500", "120850.202500", "120850.662500", "120851.122500", "120851.582500", "120852.042500", "120852.502500", "120852.962500", "120853.422500", "120853.882500", "120854.342500", "120854.802500", "120855.262500", "120855.722500", "120856.182500", "120856.642500", "120857.102500", "120857.562500", "120858.022500", "120858.482500", "120858.942500", "120859.402500", "120859.862500", "120900.322500", "120900.782500", "120901.242500", "120901.702500", "120902.162500", "120902.622500", "120903.082500", "120903.542500", "120904.002500", "120904.462500", "120904.922500", "120905.382500", "120905.842500", "120906.302500", "120906.762500", "120907.222500", "120907.682500", "120908.142500", "120908.602500", "120909.062500", "120909.522500", "120909.982500", "120910.442500", "120910.902500", "120911.362500", "120911.822500", "120912.282500", "120912.742500", "120913.202500", "120913.662500", "120914.122500", "120914.582500", "120915.042500", "120915.502500", "120915.962500", "120916.422500", "120916.882500", "120917.342500", "120917.802500", "120918.262500", "120918.722500", "120919.182500", "120919.642500", "120920.102500", "120920.562500", "120921.022500", "120921.482500", "120921.942500", "120922.402500", "120922.862500", "120923.322500", "120923.782500", "120924.242500", "120924.702500", "120925.162500", "120925.622500", "120926.082500", "120926.542500", "120927.002500", "120927.462500", "120927.922500", "120928.382500", "120928.842500", "120929.302500", "120929.762500", "120930.222500", "120930.682500", "120931.142500", "120931.602500", "120932.062500", "120932.522500", "120932.982500", "120933.442500", "120933.902500", "120934.362500", "120934.822500", "120935.282500", "120935.742500", "120936.202500", "120936.662500", "120937.122500", "120937.582500", "120938.042500", "120938.502500", "120938.962500", "120939.422500", "120939.882500", "120940.342500", "120940.802500", "120941.262500", "120941.722500", "120942.182500", "120942.642500", "120943.102500", "120943.562500", "120944.022500", "120944.482500", "120944.942500", "120945.402500", "120945.862500", "120946.322500", "120946.782500", "120947.242500", "120947.702500", "120948.162500", "120948.622500", "120949.082500", "120949.542500", "120950.002500", "120950.462500", "120950.922500", "120951.382500", "120951.842500", "120952.302500", "120952.762500", "120953.222500", "120953.682500", "120954.142500", "120954.602500", "120955.062500", "120955.522500", "120955.982500", "120956.442500", "120956.902500", "120957.362500", "120957.822500", "120958.282500", "120958.742500", "120959.202500", "120959.662500", "121000.122500", "121000.582500", "121001.042500", "121001.502500", "121001.962500", "121002.422500", "121002.882500", "121003.342500", "121003.802500", "121004.262500", "121004.722500", "121005.182500", "121005.642500", "121006.102500", "121006.562500", "121007.022500", "121007.482500", "121007.942500", "121008.402500", "121008.862500", "121009.322500", "121009.782500", "121010.242500", "121010.702500", "121011.162500", "121011.622500", "121012.082500", "121012.542500", "121013.002500", "121013.462500", "121013.922500", "121014.382500", "121014.842500", "121015.302500", "121015.762500", "121016.222500", "121016.682500", "121017.142500", "121017.602500", "121018.062500", "121018.522500", "121018.982500", "121019.442500", "121019.902500", "121020.362500", "121020.822500", "121021.282500", "121021.742500", "121022.202500", "121022.662500", "121023.122500", "121023.582500", "121024.042500", "121024.502500", "121024.962500", "121025.422500", "121025.882500", "121026.342500", "121026.802500", "121027.262500", "121027.722500", "121028.182500", "121028.642500", "121029.102500", "121029.562500", "121030.022500", "121030.482500", "121030.942500", "121031.402500", "121031.862500", "121032.322500", "121032.782500", "121033.242500", "121033.702500", "121034.162500", "121034.622500", "121035.082500", "121035.542500", "121036.002500", "121036.462500", "121036.922500", "121037.382500", "121037.842500", "121038.302500", "121038.762500", "121039.222500", "121039.682500", "121040.142500", "121040.602500", "121041.062500", "121041.522500", "121041.982500", "121042.442500", "121042.902500", "121043.362500", "121043.822500", "121044.282500", "121044.742500", "121045.202500", "121045.662500", "121046.122500", "121046.582500", "121047.042500", "121047.502500", "121047.962500", "121048.422500", "121048.882500", "121049.342500", "121049.802500", "121050.262500", "121050.722500", "121051.182500", "121051.642500", "121052.102500", "121052.562500", "121053.022500", "121053.482500", "121053.942500", "121054.402500", "121054.862500", "121055.322500", "121055.782500", "121056.242500", "121056.702500", "121057.162500", "121057.622500", "121058.082500", "121058.542500", "121059.002500", "121059.462500", "121059.922500", "121100.382500", "121100.842500", "121101.302500", "121101.762500", "121102.222500", "121102.682500", "121103.142500", "121103.602500", "121104.062500", "121104.522500", "121104.982500", "121105.442500", "121105.902500", "121106.362500", "121106.822500", "121107.282500", "121107.742500", "121108.202500", "121108.662500", "121109.122500", "121109.582500", "121110.042500", "121110.502500", "121110.962500", "121111.422500", "121111.882500", "121112.342500", "121112.802500", "121113.262500", "121113.722500", "121114.182500", "121114.642500", "121115.102500", "121115.562500", "121116.022500", "121116.482500", "121116.942500", "121117.402500", "121117.862500", "121118.322500", "121118.782500", "121119.242500", "121119.702500", "121120.162500", "121120.622500", "121121.082500", "121121.542500", "121122.002500", "121122.462500", "121122.922500", "121123.382500", "121123.842500", "121124.302500", "121124.762500", "121125.222500", "121125.682500", "121126.142500", "121126.602500", "121127.062500", "121127.522500", "121127.982500", "121128.442500", "121128.902500", "121129.362500", "121129.822500", "121130.282500", "121130.742500", "121131.202500", "121131.662500", "121132.122500", "121132.582500", "121133.042500", "121133.502500", "121133.962500", "121134.422500", "121134.882500", "121135.342500", "121135.802500", "121136.262500", "121136.722500", "121137.182500", "121137.642500", "121138.102500", "121138.562500", "121139.022500", "121139.482500", "121139.942500", "121140.402500", "121140.862500", "121141.322500", "121141.782500", "121142.242500", "121142.702500", "121143.162500", "121143.622500", "121144.082500", "121144.542500", "121145.002500", "121145.462500", "121145.922500", "121146.382500", "121146.842500", "121147.302500", "121147.762500", "121148.222500", "121148.682500", "121149.142500", "121149.602500", "121150.062500", "121150.522500", "121150.982500", "121151.442500", "121151.902500", "121152.362500", "121152.822500", "121153.282500", "121153.742500", "121154.202500", "121154.662500", "121155.122500", "121155.582500", "121156.042500", "121156.502500", "121156.962500", "121157.422500", "121157.882500", "121158.342500", "121158.802500", "121159.262500", "121159.722500", "121200.182500", "121200.642500", "121201.102500", "121201.562500", "121202.022500", "121202.482500", "121202.942500", "121203.402500", "121203.862500", "121204.322500", "121204.782500", "121205.242500", "121205.702500", "121206.162500", "121206.622500", "121207.082500", "121207.542500", "121208.002500", "121208.462500", "121208.922500", "121209.382500", "121209.842500", "121210.302500", "121210.762500", "121211.222500", "121211.682500", "121212.142500", "121212.602500", "121213.062500", "121213.522500", "121213.982500", "121214.442500", "121214.902500", "121215.362500", "121215.822500", "121216.282500", "121216.742500", "121217.202500", "121217.662500", "121218.122500", "121218.582500", "121219.042500", "121219.502500", "121219.962500", "121220.422500", "121220.882500", "121221.342500", "121221.802500", "121222.262500", "121222.722500", "121223.182500", "121223.642500", "121224.102500", "121224.562500", "121225.022500", "121225.482500", "121225.942500", "121226.402500", "121226.862500", "121227.322500", "121227.782500", "121228.242500", "121228.702500", "121229.162500", "121229.622500", "121230.082500", "121230.542500", "121231.002500", "121231.462500", "121231.922500", "121232.382500", "121232.842500", "121233.302500", "121233.762500", "121234.222500", "121234.682500", "121235.142500", "121235.602500", "121236.062500", "121236.522500", "121236.982500", "121237.442500", "121237.902500", "121238.362500", "121238.822500", "121239.282500", "121239.742500", "121240.202500", "121240.662500", "121241.122500", "121241.582500", "121242.042500", "121242.502500", "121242.962500", "121243.422500", "121243.882500", "121244.342500", "121244.802500", "121245.262500", "121245.722500", "121246.182500", "121246.642500", "121247.102500", "121247.562500", "121248.022500", "121248.482500", "121248.942500", "121249.402500", "121249.862500", "121250.322500", "121250.782500", "121251.242500", "121251.702500", "121252.162500", "121252.622500", "121253.082500", "121253.542500", "121254.002500", "121254.462500", "121254.922500", "121255.382500", "121255.842500", "121256.302500", "121256.762500", "121257.222500", "121257.682500", "121258.142500", "121258.602500", "121259.062500", "121259.522500", "121259.982500", "121300.442500", "121300.902500", "121301.362500", "121301.822500", "121302.282500", "121302.742500", "121303.202500", "121303.662500", "121304.122500", "121304.582500", "121305.042500", "121305.502500", "121305.962500", "121306.422500", "121306.882500", "121307.342500", "121307.802500", "121308.262500", "121308.722500", "121309.182500", "121309.642500", "121310.102500", "121310.562500", "121311.022500", "121311.482500", "121311.942500", "121312.402500", "121312.862500", "121313.322500", "121313.782500", "121314.242500", "121314.702500", "121315.162500", "121315.622500", "121316.082500", "121316.542500", "121317.002500", "121317.462500", "121317.922500", "121318.382500", "121318.842500", "121319.302500", "121319.762500", "121320.222500", "121320.682500", "121321.142500", "121321.602500", "121322.062500", "121322.522500", "121322.982500", "121323.442500", "121323.902500", "121324.362500", "121324.822500", "121325.282500", "121325.742500", "121326.202500", "121326.662500", "121327.122500", "121327.582500", "121328.042500", "121328.502500", "121328.962500", "121329.422500", "121329.882500", "121330.342500", "121330.802500", "121331.262500", "121331.722500", "121332.182500", "121332.642500", "121333.102500", "121333.562500", "121334.022500", "121334.482500", "121334.942500", "121335.402500", "121335.862500", "121336.322500", "121336.782500", "121337.242500", "121337.702500", "121338.162500", "121338.622500", "121339.082500", "121339.542500", "121340.002500", "121340.462500", "121340.922500", "121341.382500", "121341.842500", "121342.302500", "121342.762500", "121343.222500", "121343.682500", "121344.142500", "121344.602500", "121345.062500", "121345.522500", "121345.982500", "121346.442500", "121346.902500", "121347.362500", "121347.822500", "121348.282500", "121348.742500", "121349.202500", "121349.662500", "121350.122500", "121350.582500", "121351.042500", "121351.502500", "121351.962500", "121352.422500", "121352.882500", "121353.342500", "121353.802500", "121354.262500", "121354.722500", "121355.182500", "121355.642500", "121356.102500", "121356.562500", "121357.022500", "121357.482500", "121357.942500", "121358.402500", "121358.862500", "121359.322500", "121359.782500", "121400.242500", "121400.702500", "121401.162500", "121401.622500", "121402.082500", "121402.542500", "121403.002500", "121403.462500", "121403.922500", "121404.382500", "121404.842500", "121405.302500", "121405.762500", "121406.222500", "121406.682500", "121407.142500", "121407.602500", "121408.062500", "121408.522500", "121408.982500", "121409.442500", "121409.902500", "121410.362500", "121410.822500", "121411.282500", "121411.742500", "121412.202500", "121412.662500", "121413.122500", "121413.582500", "121414.042500", "121414.502500", "121414.962500", "121415.422500", "121415.882500", "121416.342500", "121416.802500", "121417.262500", "121417.722500", "121418.182500", "121418.642500", "121419.102500", "121419.562500", "121420.022500", "121420.482500", "121420.942500", "121421.402500", "121421.862500", "121422.322500", "121422.782500"],
