{
  "AcquisitionMatrixPE": 82,
  "AcquisitionNumber": 1,
  "AcquisitionTime": "11:42:8.895000",
  "BandwidthPerPixelPhaseEncode": 24.888,
  "BaseResolution": 82,
  "BodyPartExamined": "BRAIN",
  "ConsistencyInfo": "N4_VE11E_LATEST_20181129",
  "ConversionSoftware": "dcm2niix",
  "ConversionSoftwareVersion": "v1.0.20201102",
  "DerivedVendorReportedEchoSpacing": 0.00049,
  "DeviceSerialNumber": "66112",
  "DwellTime": 2e-06,
  "EchoTime": 0.0272,
  "EchoTrainLength": 82,
  "EffectiveEchoSpacing": 0.00049,
  "FlipAngle": 44,
  "ImageComments": "Unaliased MB8/PE3",
  "ImageOrientationPatientDICOM": [0.997825, 0.0656022, 0.00652134, -0.0640018, 0.987678, -0.142811],
  "ImageType": [
    "ORIGINAL",
    "PRIMARY",
    "M",
    "MB",
    "ND",
    "NORM",
    "MOSAIC"
],
  "ImagingFrequency": 123.259,
  "InPlanePhaseEncodingDirectionDICOM": "COL",
  "InstitutionAddress": "Maynard 3,Hanover,NH,US,03755",
  "InstitutionName": "Dartmouth College - PBS",
  "InstitutionalDepartmentName": "Department",
  "MRAcquisitionType": "2D",
  "MagneticFieldStrength": 3,
  "Manufacturer": "Siemens",
  "ManufacturersModelName": "Prisma",
  "Modality": "MR",
  "MultibandAccelerationFactor": 8,
  "PartialFourier": 1,
  "PatientPosition": "HFS",
  "PercentPhaseFOV": 100,
  "PercentSampling": 100,
  "PhaseEncodingDirection": "j-",
  "PhaseEncodingSteps": 82,
  "PhaseResolution": 1,
  "PixelBandwidth": 3050,
  "ProcedureStepDescription": "Wager_Wager^1076_spacetop",
  "ProtocolName": "func_run-01_task-faces_acq-ap-mb8",
  "PulseSequenceDetails": "%CustomerSeq%\\cmrr_mbep2d_bold",
  "ReceiveCoilActiveElements": "HEA;HEP",
  "ReceiveCoilName": "Head_32",
  "ReconMatrixPE": 82,
  "RepetitionTime": 0.46,
  "SAR": 0.11532,
  "ScanOptions": "FS",
  "ScanningSequence": "EP",
  "SequenceName": "epfid2d1_82",
  "SequenceVariant": "SK\\SS",
  "SeriesDescription": "func_run-01_task-faces_acq-ap-mb8",
  "SeriesNumber": 18,
  "ShimSetting": [4219, -7780, -7243, 137, -181, -64, 77, 117],
  "SliceThickness": 2.7,
  "SliceTiming": [0, 0.2525, 0.0625, 0.315, 0.125, 0.3775, 0.1875, 0, 0.2525, 0.0625, 0.315, 0.125, 0.3775, 0.1875, 0, 0.2525, 0.0625, 0.315, 0.125, 0.3775, 0.1875, 0, 0.2525, 0.0625, 0.315, 0.125, 0.3775, 0.1875, 0, 0.2525, 0.0625, 0.315, 0.125, 0.3775, 0.1875, 0, 0.2525, 0.0625, 0.315, 0.125, 0.3775, 0.1875, 0, 0.2525, 0.0625, 0.315, 0.125, 0.3775, 0.1875, 0, 0.2525, 0.0625, 0.315, 0.125, 0.3775, 0.1875],
  "SoftwareVersions": "syngo MR E11",
  "SpacingBetweenSlices": 2.7,
  "StationName": "AWP66112",
  "TaskName": "faces",
  "TotalReadoutTime": 0.03969,
  "TxRefAmp": 304.5,
  "WipMemBlock": "606bd9fa-d927-44ea-b41a-fb1eb2f8d9d1||Sequence: R016 ve11e/master r/434b28f1; Aug  7 2019 18:53:46 by eja",
  "dcmmeta_affine": [
    [-2.6770904064178467, -0.17171218991279602, 0.04268624261021614, 121.3066177368164],
    [-0.17600597441196442, 2.649869203567505, -0.383624404668808, -85.1888656616211],
    [0.01749628409743309, 0.38315191864967346, 2.672266960144043, -99.80449676513672],
    [0.0, 0.0, 0.0, 1.0]
],
  "dcmmeta_reorient_transform": [
    [0.0, -1.0, 0.0, 81.0],
    [1.0, 0.0, 0.0, 0.0],
    [0.0, 0.0, 1.0, 0.0],
    [0.0, 0.0, 0.0, 1.0]
],
  "dcmmeta_shape": [82, 82, 56, 914],
  "dcmmeta_slice_dim": 2,
  "dcmmeta_version": 0.6,
  "global": {
    "const": {
      "AccessionNumber": "A004317",
      "AcquisitionMatrix": [82, 0, 0, 82],
      "AngioFlag": "N",
      "BitsAllocated": 16,
      "BitsStored": 16,
      "BodyPartExamined": "BRAIN",
      "Columns": 656,
      "EchoNumbers": 1,
      "EchoTime": 27.2,
      "EchoTrainLength": 82,
      "FlipAngle": 44.0,
      "HighBit": 15,
      "ImageOrientationPatient": [0.99782454382497, 0.06560222434638, 0.0065213419859, -0.0640018165009, 0.98767845861074, -0.142811168614],
      "ImagePositionPatient": [-826.44144692947, -940.47667993081, 36.173980040748],
      "ImageType": [
        "ORIGINAL",
        "PRIMARY",
        "M",
        "MB",
        "ND",
        "NORM",
        "MOSAIC"
],
      "ImagedNucleus": "1H",
      "ImagingFrequency": 123.259088,
      "InPlanePhaseEncodingDirection": "COL",
      "MRAcquisitionType": "2D",
      "MagneticFieldStrength": 3.0,
      "Manufacturer": "SIEMENS",
      "ManufacturerModelName": "Prisma",
      "Modality": "MR",
      "NumberOfAverages": 1.0,
      "NumberOfPhaseEncodingSteps": 82,
      "PercentPhaseFieldOfView": 100.0,
      "PercentSampling": 100.0,
      "PerformedProcedureStepStartTime": "104206.667000",
      "PhotometricInterpretation": "MONOCHROME2",
      "PixelBandwidth": 3050.0,
      "PixelRepresentation": 0,
      "PixelSpacing": [2.6829268932343, 2.6829268932343],
      "ProtocolName": "func_run-01_task-faces_acq-ap-mb8",
      "RepetitionTime": 460.0,
      "Rows": 656,
      "SAR": 0.11532001610321,
      "SamplesPerPixel": 1,
      "ScanOptions": "FS",
      "ScanningSequence": "EP",
      "SequenceName": "epfid2d1_82",
      "SequenceVariant": [
        "SK",
        "SS"
],
      "SeriesDescription": "func_run-01_task-faces_acq-ap-mb8",
      "SeriesNumber": 18,
      "SeriesTime": "114218.666000",
      "SliceLocation": -84.757627729404,
      "SliceThickness": 2.7000000476837,
      "SmallestImagePixelValue": 0,
      "SoftwareVersions": "syngo MR E11",
      "SpacingBetweenSlices": 2.700000079182,
      "SpecificCharacterSet": "ISO_IR 100",
      "StudyID": "2",
      "StudyTime": "104206.585000",
      "TransmitCoilName": "Body",
      "VariableFlipAngleFlag": "N",
      "WindowCenterWidthExplanation": "Algo1"
    },
    "slices": {}
  },
  "time": {
    "samples": {
      "AcquisitionNumber": [1, 2, 3, 4, 5, 6, 7, 8, 9, 10, 11, 12, 13, 14, 15, 16, 17, 18, 19, 20, 21, 22, 23, 24, 25, 26, 27, 28, 29, 30, 31, 32, 33, 34, 35, 36, 37, 38, 39, 40, 41, 42, 43, 44, 45, 46, 47, 48, 49, 50, 51, 52, 53, 54, 55, 56, 57, 58, 59, 60, 61, 62, 63, 64, 65, 66, 67, 68, 69, 70, 71, 72, 73, 74, 75, 76, 77, 78, 79, 80, 81, 82, 83, 84, 85, 86, 87, 88, 89, 90, 91, 92, 93, 94, 95, 96, 97, 98, 99, 100, 101, 102, 103, 104, 105, 106, 107, 108, 109, 110, 111, 112, 113, 114, 115, 116, 117, 118, 119, 120, 121, 122, 123, 124, 125, 126, 127, 128, 129, 130, 131, 132, 133, 134, 135, 136, 137, 138, 139, 140, 141, 142, 143, 144, 145, 146, 147, 148, 149, 150, 151, 152, 153, 154, 155, 156, 157, 158, 159, 160, 161, 162, 163, 164, 165, 166, 167, 168, 169, 170, 171, 172, 173, 174, 175, 176, 177, 178, 179, 180, 181, 182, 183, 184, 185, 186, 187, 188, 189, 190, 191, 192, 193, 194, 195, 196, 197, 198, 199, 200, 201, 202, 203, 204, 205, 206, 207, 208, 209, 210, 211, 212, 213, 214, 215, 216, 217, 218, 219, 220, 221, 222, 223, 224, 225, 226, 227, 228, 229, 230, 231, 232, 233, 234, 235, 236, 237, 238, 239, 240, 241, 242, 243, 244, 245, 246, 247, 248, 249, 250, 251, 252, 253, 254, 255, 256, 257, 258, 259, 260, 261, 262, 263, 264, 265, 266, 267, 268, 269, 270, 271, 272, 273, 274, 275, 276, 277, 278, 279, 280, 281, 282, 283, 284, 285, 286, 287, 288, 289, 290, 291, 292, 293, 294, 295, 296, 297, 298, 299, 300, 301, 302, 303, 304, 305, 306, 307, 308, 309, 310, 311, 312, 313, 314, 315, 316, 317, 318, 319, 320, 321, 322, 323, 324, 325, 326, 327, 328, 329, 330, 331, 332, 333, 334, 335, 336, 337, 338, 339, 340, 341, 342, 343, 344, 345, 346, 347, 348, 349, 350, 351, 352, 353, 354, 355, 356, 357, 358, 359, 360, 361, 362, 363, 364, 365, 366, 367, 368, 369, 370, 371, 372, 373, 374, 375, 376, 377, 378, 379, 380, 381, 382, 383, 384, 385, 386, 387, 388, 389, 390, 391, 392, 393, 394, 395, 396, 397, 398, 399, 400, 401, 402, 403, 404, 405, 406, 407, 408, 409, 410, 411, 412, 413, 414, 415, 416, 417, 418, 419, 420, 421, 422, 423, 424, 425, 426, 427, 428, 429, 430, 431, 432, 433, 434, 435, 436, 437, 438, 439, 440, 441, 442, 443, 444, 445, 446, 447, 448, 449, 450, 451, 452, 453, 454, 455, 456, 457, 458, 459, 460, 461, 462, 463, 464, 465, 466, 467, 468, 469, 470, 471, 472, 473, 474, 475, 476, 477, 478, 479, 480, 481, 482, 483, 484, 485, 486, 487, 488, 489, 490, 491, 492, 493, 494, 495, 496, 497, 498, 499, 500, 501, 502, 503, 504, 505, 506, 507, 508, 509, 510, 511, 512, 513, 514, 515, 516, 517, 518, 519, 520, 521, 522, 523, 524, 525, 526, 527, 528, 529, 530, 531, 532, 533, 534, 535, 536, 537, 538, 539, 540, 541, 542, 543, 544, 545, 546, 547, 548, 549, 550, 551, 552, 553, 554, 555, 556, 557, 558, 559, 560, 561, 562, 563, 564, 565, 566, 567, 568, 569, 570, 571, 572, 573, 574, 575, 576, 577, 578, 579, 580, 581, 582, 583, 584, 585, 586, 587, 588, 589, 590, 591, 592, 593, 594, 595, 596, 597, 598, 599, 600, 601, 602, 603, 604, 605, 606, 607, 608, 609, 610, 611, 612, 613, 614, 615, 616, 617, 618, 619, 620, 621, 622, 623, 624, 625, 626, 627, 628, 629, 630, 631, 632, 633, 634, 635, 636, 637, 638, 639, 640, 641, 642, 643, 644, 645, 646, 647, 648, 649, 650, 651, 652, 653, 654, 655, 656, 657, 658, 659, 660, 661, 662, 663, 664, 665, 666, 667, 668, 669, 670, 671, 672, 673, 674, 675, 676, 677, 678, 679, 680, 681, 682, 683, 684, 685, 686, 687, 688, 689, 690, 691, 692, 693, 694, 695, 696, 697, 698, 699, 700, 701, 702, 703, 704, 705, 706, 707, 708, 709, 710, 711, 712, 713, 714, 715, 716, 717, 718, 719, 720, 721, 722, 723, 724, 725, 726, 727, 728, 729, 730, 731, 732, 733, 734, 735, 736, 737, 738, 739, 740, 741, 742, 743, 744, 745, 746, 747, 748, 749, 750, 751, 752, 753, 754, 755, 756, 757, 758, 759, 760, 761, 762, 763, 764, 765, 766, 767, 768, 769, 770, 771, 772, 773, 774, 775, 776, 777, 778, 779, 780, 781, 782, 783, 784, 785, 786, 787, 788, 789, 790, 791, 792, 793, 794, 795, 796, 797, 798, 799, 800, 801, 802, 803, 804, 805, 806, 807, 808, 809, 810, 811, 812, 813, 814, 815, 816, 817, 818, 819, 820, 821, 822, 823, 824, 825, 826, 827, 828, 829, 830, 831, 832, 833, 834, 835, 836, 837, 838, 839, 840, 841, 842, 843, 844, 845, 846, 847, 848, 849, 850, 851, 852, 853, 854, 855, 856, 857, 858, 859, 860, 861, 862, 863, 864, 865, 866, 867, 868, 869, 870, 871, 872, 873, 874, 875, 876, 877, 878, 879, 880, 881, 882, 883, 884, 885, 886, 887, 888, 889, 890, 891, 892, 893, 894, 895, 896, 897, 898, 899, 900, 901, 902, 903, 904, 905, 906, 907, 908, 909, 910, 911, 912, 913, 914],
      "AcquisitionTime": ["114208.895000", "114209.355000", "114209.815000", "114210.275000", "114210.735000", "114211.195000", "114211.655000", "114212.115000", "114212.575000", "114213.035000", "114213.495000", "114213.955000", "114214.415000", "114214.875000", "114215.335000", "114215.795000", "114216.255000", "114216.715000", "114217.175000", "114217.635000", "114218.095000", "114218.555000", "114219.015000", "114219.475000", "114219.935000", "114220.395000", "114220.855000", "114221.315000", "114221.775000", "114222.235000", "114222.695000", "114223.155000", "114223.615000", "114224.075000", "114224.535000", "114224.995000", "114225.455000", "114225.915000", "114226.375000", "114226.835000", "114227.295000", "114227.755000", "114228.215000", "114228.675000", "114229.135000", "114229.595000", "114230.055000", "114230.515000", "114230.975000", "114231.435000", "114231.895000", "114232.355000", "114232.815000", "114233.275000", "114233.735000", "114234.195000", "114234.655000", "114235.115000", "114235.575000", "114236.035000", "114236.495000", "114236.955000", "114237.415000", "114237.875000", "114238.335000", "114238.795000", "114239.255000", "114239.715000", "114240.175000", "114240.635000", "114241.095000", "114241.555000", "114242.015000", "114242.475000", "114242.935000", "114243.395000", "114243.855000", "114244.315000", "114244.775000", "114245.235000", "114245.695000", "114246.155000", "114246.615000", "114247.075000", "114247.535000", "114247.995000", "114248.455000", "114248.915000", "114249.375000", "114249.835000", "114250.295000", "114250.755000", "114251.215000", "114251.675000", "114252.135000", "114252.595000", "114253.055000", "114253.515000", "114253.975000", "114254.435000", "114254.895000", "114255.355000", "114255.815000", "114256.275000", "114256.735000", "114257.195000", "114257.655000", "114258.115000", "114258.575000", "114259.035000", "114259.495000", "114259.955000", "114300.415000", "114300.875000", "114301.335000", "114301.795000", "114302.255000", "114302.715000", "114303.175000", "114303.635000", "114304.095000", "114304.555000", "114305.015000", "114305.475000", "114305.935000", "114306.395000", "114306.855000", "114307.315000", "114307.775000", "114308.235000", "114308.695000", "114309.155000", "114309.615000", "114310.075000", "114310.535000", "114310.995000", "114311.455000", "114311.915000", "114312.375000", "114312.835000", "114313.295000", "114313.755000", "114314.215000", "114314.675000", "114315.135000", "114315.595000", "114316.055000", "114316.515000", "114316.975000", "114317.435000", "114317.895000", "114318.355000", "114318.815000", "114319.275000", "114319.735000", "114320.195000", "114320.655000", "114321.115000", "114321.575000", "114322.035000", "114322.495000", "114322.955000", "114323.415000", "114323.875000", "114324.335000", "114324.795000", "114325.255000", "114325.715000", "114326.175000", "114326.635000", "114327.095000", "114327.555000", "114328.015000", "114328.475000", "114328.935000", "114329.395000", "114329.855000", "114330.315000", "114330.775000", "114331.235000", "114331.695000", "114332.155000", "114332.615000", "114333.075000", "114333.535000", "114333.995000", "114334.455000", "114334.915000", "114335.375000", "114335.835000", "114336.295000", "114336.755000", "114337.215000", "114337.675000", "114338.135000", "114338.595000", "114339.055000", "114339.515000", "114339.975000", "114340.435000", "114340.895000", "114341.355000", "114341.815000", "114342.275000", "114342.735000", "114343.195000", "114343.655000", "114344.115000", "114344.575000", "114345.035000", "114345.495000", "114345.955000", "114346.415000", "114346.875000", "114347.335000", "114347.795000", "114348.255000", "114348.715000", "114349.175000", "114349.635000", "114350.095000", "114350.555000", "114351.015000", "114351.475000", "114351.935000", "114352.395000", "114352.855000", "114353.315000", "114353.775000", "114354.235000", "114354.695000", "114355.155000", "114355.615000", "114356.075000", "114356.535000", "114356.995000", "114357.455000", "114357.915000", "114358.375000", "114358.835000", "114359.295000", "114359.755000", "114400.215000", "114400.675000", "114401.135000", "114401.595000", "114402.055000", "114402.515000", "114402.975000", "114403.435000", "114403.895000", "114404.355000", "114404.815000", "114405.275000", "114405.735000", "114406.195000", "114406.655000", "114407.115000", "114407.575000", "114408.035000", "114408.495000", "114408.955000", "114409.415000", "114409.875000", "114410.335000", "114410.795000", "114411.255000", "114411.715000", "114412.175000", "114412.635000", "114413.095000", "114413.555000", "114414.015000", "114414.475000", "114414.935000", "114415.395000", "114415.855000", "114416.315000", "114416.775000", "114417.235000", "114417.695000", "114418.155000", "114418.615000", "114419.075000", "114419.535000", "114419.995000", "114420.455000", "114420.915000", "114421.375000", "114421.835000", "114422.295000", "114422.755000", "114423.215000", "114423.675000", "114424.135000", "114424.595000", "114425.055000", "114425.515000", "114425.975000", "114426.435000", "114426.895000", "114427.355000", "114427.815000", "114428.275000", "114428.735000", "114429.195000", "114429.655000", "114430.115000", "114430.575000", "114431.035000", "114431.495000", "114431.955000", "114432.415000", "114432.875000", "114433.335000", "114433.795000", "114434.255000", "114434.715000", "114435.175000", "114435.635000", "114436.095000", "114436.555000", "114437.015000", "114437.475000", "114437.935000", "114438.395000", "114438.855000", "114439.315000", "114439.775000", "114440.235000", "114440.695000", "114441.155000", "114441.615000", "114442.075000", "114442.535000", "114442.995000", "114443.455000", "114443.915000", "114444.375000", "114444.835000", "114445.295000", "114445.755000", "114446.215000", "114446.675000", "114447.135000", "114447.595000", "114448.055000", "114448.515000", "114448.975000", "114449.435000", "114449.895000", "114450.355000", "114450.815000", "114451.275000", "114451.735000", "114452.195000", "114452.655000", "114453.115000", "114453.575000", "114454.035000", "114454.495000", "114454.955000", "114455.415000", "114455.875000", "114456.335000", "114456.795000", "114457.255000", "114457.715000", "114458.175000", "114458.635000", "114459.095000", "114459.555000", "114500.015000", "114500.475000", "114500.935000", "114501.395000", "114501.855000", "114502.315000", "114502.775000", "114503.235000", "114503.695000", "114504.155000", "114504.615000", "114505.075000", "114505.535000", "114505.995000", "114506.455000", "114506.915000", "114507.375000", "114507.835000", "114508.295000", "114508.755000", "114509.215000", "114509.675000", "114510.135000", "114510.595000", "114511.055000", "114511.515000", "114511.975000", "114512.435000", "114512.895000", "114513.355000", "114513.815000", "114514.275000", "114514.735000", "114515.195000", "114515.655000", "114516.115000", "114516.575000", "114517.035000", "114517.495000", "114517.955000", "114518.415000", "114518.875000", "114519.335000", "114519.795000", "114520.255000", "114520.715000", "114521.175000", "114521.635000", "114522.095000", "114522.555000", "114523.015000", "114523.475000", "114523.935000", "114524.395000", "114524.855000", "114525.315000", "114525.775000", "114526.235000", "114526.695000", "114527.155000", "114527.615000", "114528.075000", "114528.535000", "114528.995000", "114529.455000", "114529.915000", "114530.375000", "114530.835000", "114531.295000", "114531.755000", "114532.215000", "114532.675000", "114533.135000", "114533.595000", "114534.055000", "114534.515000", "114534.975000", "114535.435000", "114535.895000", "114536.355000", "114536.815000", "114537.275000", "114537.735000", "114538.195000", "114538.655000", "114539.115000", "114539.575000", "114540.035000", "114540.495000", "114540.955000", "114541.415000", "114541.875000", "114542.335000", "114542.795000", "114543.255000", "114543.715000", "114544.175000", "114544.635000", "114545.095000", "114545.555000", "114546.015000", "114546.475000", "114546.935000", "114547.395000", "114547.855000", "114548.315000", "114548.775000", "114549.235000", "114549.695000", "114550.155000", "114550.615000", "114551.075000", "114551.535000", "114551.995000", "114552.455000", "114552.915000", "114553.375000", "114553.835000", "114554.295000", "114554.755000", "114555.215000", "114555.675000", "114556.135000", "114556.595000", "114557.055000", "114557.515000", "114557.975000", "114558.435000", "114558.895000", "114559.355000", "114559.815000", "114600.275000", "114600.735000", "114601.195000", "114601.655000", "114602.115000", "114602.575000", "114603.035000", "114603.495000", "114603.955000", "114604.415000", "114604.875000", "114605.335000", "114605.795000", "114606.255000", "114606.715000", "114607.175000", "114607.635000", "114608.095000", "114608.555000", "114609.015000", "114609.475000", "114609.935000", "114610.395000", "114610.855000", "114611.315000", "114611.775000", "114612.235000", "114612.695000", "114613.155000", "114613.615000", "114614.075000", "114614.535000", "114614.995000", "114615.455000", "114615.915000", "114616.375000", "114616.835000", "114617.295000", "114617.755000", "114618.215000", "114618.675000", "114619.135000", "114619.595000", "114620.055000", "114620.515000", "114620.975000", "114621.435000", "114621.895000", "114622.355000", "114622.815000", "114623.275000", "114623.735000", "114624.195000", "114624.655000", "114625.115000", "114625.575000", "114626.035000", "114626.495000", "114626.955000", "114627.415000", "114627.875000", "114628.335000", "114628.795000", "114629.255000", "114629.715000", "114630.175000", "114630.635000", "114631.095000", "114631.555000", "114632.015000", "114632.475000", "114632.935000", "114633.395000", "114633.855000", "114634.315000", "114634.775000", "114635.235000", "114635.695000", "114636.155000", "114636.615000", "114637.075000", "114637.535000", "114637.995000", "114638.455000", "114638.915000", "114639.375000", "114639.835000", "114640.295000", "114640.755000", "114641.215000", "114641.675000", "114642.135000", "114642.595000", "114643.055000", "114643.515000", "114643.975000", "114644.435000", "114644.895000", "114645.355000", "114645.815000", "114646.275000", "114646.735000", "114647.195000", "114647.655000", "114648.115000", "114648.575000", "114649.035000", "114649.495000", "114649.955000", "114650.415000", "114650.875000", "114651.335000", "114651.795000", "114652.255000", "114652.715000", "114653.175000", "114653.635000", "114654.095000", "114654.555000", "114655.015000", "114655.475000", "114655.935000", "114656.395000", "114656.855000", "114657.315000", "114657.775000", "114658.235000", "114658.695000", "114659.155000", "114659.615000", "114700.075000", "114700.535000", "114700.995000", "114701.455000", "114701.915000", "114702.375000", "114702.835000", "114703.295000", "114703.755000", "114704.215000", "114704.675000", "114705.135000", "114705.595000", "114706.055000", "114706.515000", "114706.975000", "114707.435000", "114707.895000", "114708.355000", "114708.815000", "114709.275000", "114709.735000", "114710.195000", "114710.655000", "114711.115000", "114711.575000", "114712.035000", "114712.495000", "114712.955000", "114713.415000", "114713.875000", "114714.335000", "114714.795000", "114715.255000", "114715.715000", "114716.175000", "114716.635000", "114717.095000", "114717.555000", "114718.015000", "114718.475000", "114718.935000", "114719.395000", "114719.855000", "114720.315000", "114720.775000", "114721.235000", "114721.695000", "114722.155000", "114722.615000", "114723.075000", "114723.535000", "114723.995000", "114724.455000", "114724.915000", "114725.375000", "114725.835000", "114726.295000", "114726.755000", "114727.215000", "114727.675000", "114728.135000", "114728.595000", "114729.055000", "114729.515000", "114729.975000", "114730.435000", "114730.895000", "114731.355000", "114731.815000", "114732.275000", "114732.735000", "114733.195000", "114733.655000", "114734.115000", "114734.575000", "114735.035000", "114735.495000", "114735.955000", "114736.415000", "114736.875000", "114737.335000", "114737.795000", "114738.255000", "114738.715000", "114739.175000", "114739.635000", "114740.095000", "114740.555000", "114741.015000", "114741.475000", "114741.935000", "114742.395000", "114742.855000", "114743.315000", "114743.775000", "114744.235000", "114744.695000", "114745.155000", "114745.615000", "114746.075000", "114746.535000", "114746.995000", "114747.455000", "114747.915000", "114748.375000", "114748.835000", "114749.295000", "114749.755000", "114750.215000", "114750.675000", "114751.135000", "114751.595000", "114752.055000", "114752.515000", "114752.975000", "114753.435000", "114753.895000", "114754.355000", "114754.815000", "114755.275000", "114755.735000", "114756.195000", "114756.655000", "114757.115000", "114757.575000", "114758.035000", "114758.495000", "114758.955000", "114759.415000", "114759.875000", "114800.335000", "114800.795000", "114801.255000", "114801.715000", "114802.175000", "114802.635000", "114803.095000", "114803.555000", "114804.015000", "114804.475000", "114804.935000", "114805.395000", "114805.855000", "114806.315000", "114806.775000", "114807.235000", "114807.695000", "114808.155000", "114808.615000", "114809.075000", "114809.535000", "114809.995000", "114810.455000", "114810.915000", "114811.375000", "114811.835000", "114812.295000", "114812.755000", "114813.215000", "114813.675000", "114814.135000", "114814.595000", "114815.055000", "114815.515000", "114815.975000", "114816.435000", "114816.895000", "114817.355000", "114817.815000", "114818.275000", "114818.735000", "114819.195000", "114819.655000", "114820.115000", "114820.575000", "114821.035000", "114821.495000", "114821.955000", "114822.415000", "114822.875000", "114823.335000", "114823.795000", "114824.255000", "114824.715000", "114825.175000", "114825.635000", "114826.095000", "114826.555000", "114827.015000", "114827.475000", "114827.935000", "114828.395000", "114828.855000", "114829.315000", "114829.775000", "114830.235000", "114830.695000", "114831.155000", "114831.615000", "114832.075000", "114832.535000", "114832.995000", "114833.455000", "114833.915000", "114834.375000", "114834.835000", "114835.295000", "114835.755000", "114836.215000", "114836.675000", "114837.135000", "114837.595000", "114838.055000", "114838.515000", "114838.975000", "114839.435000", "114839.895000", "114840.355000", "114840.815000", "114841.275000", "114841.735000", "114842.195000", "114842.655000", "114843.115000", "114843.575000", "114844.035000", "114844.495000", "114844.955000", "114845.415000", "114845.875000", "114846.335000", "114846.795000", "114847.255000", "114847.715000", "114848.175000", "114848.635000", "114849.095000", "114849.555000", "114850.015000", "114850.475000", "114850.935000", "114851.395000", "114851.855000", "114852.315000", "114852.775000", "114853.235000", "114853.695000", "114854.155000", "114854.615000", "114855.075000", "114855.535000", "114855.995000", "114856.455000", "114856.915000", "114857.375000", "114857.835000", "114858.295000", "114858.755000", "114859.215000", "114859.675000", "114900.135000", "114900.595000", "114901.055000", "114901.515000", "114901.975000", "114902.435000", "114902.895000", "114903.355000", "114903.815000", "114904.275000", "114904.735000", "114905.195000", "114905.655000", "114906.115000", "114906.575000", "114907.035000", "114907.495000", "114907.955000", "114908.415000", "114908.875000"],
