{
  "AcquisitionMatrixPE": 82,
  "AcquisitionNumber": 1,
  "AcquisitionTime": "12:01:58.800000",
  "BandwidthPerPixelPhaseEncode": 24.888,
  "BaseResolution": 82,
  "BodyPartExamined": "BRAIN",
  "ConsistencyInfo": "N4_VE11E_LATEST_20181129",
  "ConversionSoftware": "dcm2niix",
  "ConversionSoftwareVersion": "v1.0.20201102",
  "DerivedVendorReportedEchoSpacing": 0.00049,
  "DeviceSerialNumber": "66112",
  "DwellTime": 2e-06,
  "EchoTime": 0.0272,
  "EchoTrainLength": 82,
  "EffectiveEchoSpacing": 0.00049,
  "FlipAngle": 44,
  "ImageComments": "Unaliased MB8/PE3",
  "ImageOrientationPatientDICOM": [0.997825, 0.0656022, 0.00652134, -0.0640018, 0.987678, -0.142811],
  "ImageType": [
    "ORIGINAL",
    "PRIMARY",
    "M",
    "MB",
    "ND",
    "NORM",
    "MOSAIC"
],
  "ImagingFrequency": 123.259,
  "InPlanePhaseEncodingDirectionDICOM": "COL",
  "InstitutionAddress": "Maynard 3,Hanover,NH,US,03755",
  "InstitutionName": "Dartmouth College - PBS",
  "InstitutionalDepartmentName": "Department",
  "MRAcquisitionType": "2D",
  "MagneticFieldStrength": 3,
  "Manufacturer": "Siemens",
  "ManufacturersModelName": "Prisma",
  "Modality": "MR",
  "MultibandAccelerationFactor": 8,
  "PartialFourier": 1,
  "PatientPosition": "HFS",
  "PercentPhaseFOV": 100,
  "PercentSampling": 100,
  "PhaseEncodingDirection": "j-",
  "PhaseEncodingSteps": 82,
  "PhaseResolution": 1,
  "PixelBandwidth": 3050,
  "ProcedureStepDescription": "Wager_Wager^1076_spacetop",
  "ProtocolName": "func_run-03_task-faces_acq-ap-mb8",
  "PulseSequenceDetails": "%CustomerSeq%\\cmrr_mbep2d_bold",
  "ReceiveCoilActiveElements": "HEA;HEP",
  "ReceiveCoilName": "Head_32",
  "ReconMatrixPE": 82,
  "RepetitionTime": 0.46,
  "SAR": 0.11532,
  "ScanOptions": "FS",
  "ScanningSequence": "EP",
  "SequenceName": "epfid2d1_82",
  "SequenceVariant": "SK\\SS",
  "SeriesDescription": "func_run-03_task-faces_acq-ap-mb8",
  "SeriesNumber": 22,
  "ShimSetting": [4219, -7780, -7243, 137, -181, -64, 77, 117],
  "SliceThickness": 2.7,
  "SliceTiming": [0, 0.2525, 0.0625, 0.315, 0.125, 0.3775, 0.1875, 0, 0.2525, 0.0625, 0.315, 0.125, 0.3775, 0.1875, 0, 0.2525, 0.0625, 0.315, 0.125, 0.3775, 0.1875, 0, 0.2525, 0.0625, 0.315, 0.125, 0.3775, 0.1875, 0, 0.2525, 0.0625, 0.315, 0.125, 0.3775, 0.1875, 0, 0.2525, 0.0625, 0.315, 0.125, 0.3775, 0.1875, 0, 0.2525, 0.0625, 0.315, 0.125, 0.3775, 0.1875, 0, 0.2525, 0.0625, 0.315, 0.125, 0.3775, 0.1875],
  "SoftwareVersions": "syngo MR E11",
  "SpacingBetweenSlices": 2.7,
  "StationName": "AWP66112",
  "TaskName": "faces",
  "TotalReadoutTime": 0.03969,
  "TxRefAmp": 304.5,
  "WipMemBlock": "234128eb-61ca-48f9-818e-d72a9d41cccb||Sequence: R016 ve11e/master r/434b28f1; Aug  7 2019 18:53:46 by eja",
  "dcmmeta_affine": [
    [-2.6770904064178467, -0.17171218991279602, 0.04268624261021614, 121.3066177368164],
    [-0.17600597441196442, 2.649869203567505, -0.383624404668808, -85.1888656616211],
    [0.01749628409743309, 0.38315191864967346, 2.672266960144043, -99.80449676513672],
    [0.0, 0.0, 0.0, 1.0]
],
  "dcmmeta_reorient_transform": [
    [0.0, -1.0, 0.0, 81.0],
    [1.0, 0.0, 0.0, 0.0],
    [0.0, 0.0, 1.0, 0.0],
    [0.0, 0.0, 0.0, 1.0]
],
  "dcmmeta_shape": [82, 82, 56, 914],
  "dcmmeta_slice_dim": 2,
  "dcmmeta_version": 0.6,
  "global": {
    "const": {
      "AccessionNumber": "A004317",
      "AcquisitionMatrix": [82, 0, 0, 82],
      "AngioFlag": "N",
      "BitsAllocated": 16,
      "BitsStored": 16,
      "BodyPartExamined": "BRAIN",
      "Columns": 656,
      "EchoNumbers": 1,
      "EchoTime": 27.2,
      "EchoTrainLength": 82,
      "FlipAngle": 44.0,
      "HighBit": 15,
      "ImageOrientationPatient": [0.99782454382497, 0.06560222434638, 0.0065213419859, -0.0640018165009, 0.98767845861074, -0.142811168614],
      "ImagePositionPatient": [-826.44144692947, -940.47667993081, 36.173980040748],
      "ImageType": [
        "ORIGINAL",
        "PRIMARY",
        "M",
        "MB",
        "ND",
        "NORM",
        "MOSAIC"
],
      "ImagedNucleus": "1H",
      "ImagingFrequency": 123.259097,
      "InPlanePhaseEncodingDirection": "COL",
      "MRAcquisitionType": "2D",
      "MagneticFieldStrength": 3.0,
      "Manufacturer": "SIEMENS",
      "ManufacturerModelName": "Prisma",
      "Modality": "MR",
      "NumberOfAverages": 1.0,
      "NumberOfPhaseEncodingSteps": 82,
      "PercentPhaseFieldOfView": 100.0,
      "PercentSampling": 100.0,
      "PerformedProcedureStepStartTime": "104206.667000",
      "PhotometricInterpretation": "MONOCHROME2",
      "PixelBandwidth": 3050.0,
      "PixelRepresentation": 0,
      "PixelSpacing": [2.6829268932343, 2.6829268932343],
      "ProtocolName": "func_run-03_task-faces_acq-ap-mb8",
      "RepetitionTime": 460.0,
      "Rows": 656,
      "SAR": 0.11532001610321,
      "SamplesPerPixel": 1,
      "ScanOptions": "FS",
      "ScanningSequence": "EP",
      "SequenceName": "epfid2d1_82",
      "SequenceVariant": [
        "SK",
        "SS"
],
      "SeriesDescription": "func_run-03_task-faces_acq-ap-mb8",
      "SeriesNumber": 22,
      "SeriesTime": "120218.837000",
      "SliceLocation": -84.757627729404,
      "SliceThickness": 2.7000000476837,
      "SmallestImagePixelValue": 0,
      "SoftwareVersions": "syngo MR E11",
      "SpacingBetweenSlices": 2.700000079182,
      "SpecificCharacterSet": "ISO_IR 100",
      "StudyID": "2",
      "StudyTime": "104206.585000",
      "TransmitCoilName": "Body",
      "VariableFlipAngleFlag": "N",
      "WindowCenterWidthExplanation": "Algo1"
    },
    "slices": {}
  },
  "time": {
    "samples": {
      "AcquisitionNumber": [1, 2, 3, 4, 5, 6, 7, 8, 9, 10, 11, 12, 13, 14, 15, 16, 17, 18, 19, 20, 21, 22, 23, 24, 25, 26, 27, 28, 29, 30, 31, 32, 33, 34, 35, 36, 37, 38, 39, 40, 41, 42, 43, 44, 45, 46, 47, 48, 49, 50, 51, 52, 53, 54, 55, 56, 57, 58, 59, 60, 61, 62, 63, 64, 65, 66, 67, 68, 69, 70, 71, 72, 73, 74, 75, 76, 77, 78, 79, 80, 81, 82, 83, 84, 85, 86, 87, 88, 89, 90, 91, 92, 93, 94, 95, 96, 97, 98, 99, 100, 101, 102, 103, 104, 105, 106, 107, 108, 109, 110, 111, 112, 113, 114, 115, 116, 117, 118, 119, 120, 121, 122, 123, 124, 125, 126, 127, 128, 129, 130, 131, 132, 133, 134, 135, 136, 137, 138, 139, 140, 141, 142, 143, 144, 145, 146, 147, 148, 149, 150, 151, 152, 153, 154, 155, 156, 157, 158, 159, 160, 161, 162, 163, 164, 165, 166, 167, 168, 169, 170, 171, 172, 173, 174, 175, 176, 177, 178, 179, 180, 181, 182, 183, 184, 185, 186, 187, 188, 189, 190, 191, 192, 193, 194, 195, 196, 197, 198, 199, 200, 201, 202, 203, 204, 205, 206, 207, 208, 209, 210, 211, 212, 213, 214, 215, 216, 217, 218, 219, 220, 221, 222, 223, 224, 225, 226, 227, 228, 229, 230, 231, 232, 233, 234, 235, 236, 237, 238, 239, 240, 241, 242, 243, 244, 245, 246, 247, 248, 249, 250, 251, 252, 253, 254, 255, 256, 257, 258, 259, 260, 261, 262, 263, 264, 265, 266, 267, 268, 269, 270, 271, 272, 273, 274, 275, 276, 277, 278, 279, 280, 281, 282, 283, 284, 285, 286, 287, 288, 289, 290, 291, 292, 293, 294, 295, 296, 297, 298, 299, 300, 301, 302, 303, 304, 305, 306, 307, 308, 309, 310, 311, 312, 313, 314, 315, 316, 317, 318, 319, 320, 321, 322, 323, 324, 325, 326, 327, 328, 329, 330, 331, 332, 333, 334, 335, 336, 337, 338, 339, 340, 341, 342, 343, 344, 345, 346, 347, 348, 349, 350, 351, 352, 353, 354, 355, 356, 357, 358, 359, 360, 361, 362, 363, 364, 365, 366, 367, 368, 369, 370, 371, 372, 373, 374, 375, 376, 377, 378, 379, 380, 381, 382, 383, 384, 385, 386, 387, 388, 389, 390, 391, 392, 393, 394, 395, 396, 397, 398, 399, 400, 401, 402, 403, 404, 405, 406, 407, 408, 409, 410, 411, 412, 413, 414, 415, 416, 417, 418, 419, 420, 421, 422, 423, 424, 425, 426, 427, 428, 429, 430, 431, 432, 433, 434, 435, 436, 437, 438, 439, 440, 441, 442, 443, 444, 445, 446, 447, 448, 449, 450, 451, 452, 453, 454, 455, 456, 457, 458, 459, 460, 461, 462, 463, 464, 465, 466, 467, 468, 469, 470, 471, 472, 473, 474, 475, 476, 477, 478, 479, 480, 481, 482, 483, 484, 485, 486, 487, 488, 489, 490, 491, 492, 493, 494, 495, 496, 497, 498, 499, 500, 501, 502, 503, 504, 505, 506, 507, 508, 509, 510, 511, 512, 513, 514, 515, 516, 517, 518, 519, 520, 521, 522, 523, 524, 525, 526, 527, 528, 529, 530, 531, 532, 533, 534, 535, 536, 537, 538, 539, 540, 541, 542, 543, 544, 545, 546, 547, 548, 549, 550, 551, 552, 553, 554, 555, 556, 557, 558, 559, 560, 561, 562, 563, 564, 565, 566, 567, 568, 569, 570, 571, 572, 573, 574, 575, 576, 577, 578, 579, 580, 581, 582, 583, 584, 585, 586, 587, 588, 589, 590, 591, 592, 593, 594, 595, 596, 597, 598, 599, 600, 601, 602, 603, 604, 605, 606, 607, 608, 609, 610, 611, 612, 613, 614, 615, 616, 617, 618, 619, 620, 621, 622, 623, 624, 625, 626, 627, 628, 629, 630, 631, 632, 633, 634, 635, 636, 637, 638, 639, 640, 641, 642, 643, 644, 645, 646, 647, 648, 649, 650, 651, 652, 653, 654, 655, 656, 657, 658, 659, 660, 661, 662, 663, 664, 665, 666, 667, 668, 669, 670, 671, 672, 673, 674, 675, 676, 677, 678, 679, 680, 681, 682, 683, 684, 685, 686, 687, 688, 689, 690, 691, 692, 693, 694, 695, 696, 697, 698, 699, 700, 701, 702, 703, 704, 705, 706, 707, 708, 709, 710, 711, 712, 713, 714, 715, 716, 717, 718, 719, 720, 721, 722, 723, 724, 725, 726, 727, 728, 729, 730, 731, 732, 733, 734, 735, 736, 737, 738, 739, 740, 741, 742, 743, 744, 745, 746, 747, 748, 749, 750, 751, 752, 753, 754, 755, 756, 757, 758, 759, 760, 761, 762, 763, 764, 765, 766, 767, 768, 769, 770, 771, 772, 773, 774, 775, 776, 777, 778, 779, 780, 781, 782, 783, 784, 785, 786, 787, 788, 789, 790, 791, 792, 793, 794, 795, 796, 797, 798, 799, 800, 801, 802, 803, 804, 805, 806, 807, 808, 809, 810, 811, 812, 813, 814, 815, 816, 817, 818, 819, 820, 821, 822, 823, 824, 825, 826, 827, 828, 829, 830, 831, 832, 833, 834, 835, 836, 837, 838, 839, 840, 841, 842, 843, 844, 845, 846, 847, 848, 849, 850, 851, 852, 853, 854, 855, 856, 857, 858, 859, 860, 861, 862, 863, 864, 865, 866, 867, 868, 869, 870, 871, 872, 873, 874, 875, 876, 877, 878, 879, 880, 881, 882, 883, 884, 885, 886, 887, 888, 889, 890, 891, 892, 893, 894, 895, 896, 897, 898, 899, 900, 901, 902, 903, 904, 905, 906, 907, 908, 909, 910, 911, 912, 913, 914],
      "AcquisitionTime": ["120158.800000", "120159.260000", "120159.720000", "120200.180000", "120200.640000", "120201.100000", "120201.560000", "120202.020000", "120202.480000", "120202.940000", "120203.400000", "120203.860000", "120204.320000", "120204.780000", "120205.240000", "120205.700000", "120206.160000", "120206.620000", "120207.080000", "120207.540000", "120208.000000", "120208.460000", "120208.920000", "120209.380000", "120209.840000", "120210.300000", "120210.760000", "120211.220000", "120211.680000", "120212.140000", "120212.600000", "120213.060000", "120213.520000", "120213.980000", "120214.440000", "120214.900000", "120215.360000", "120215.820000", "120216.280000", "120216.740000", "120217.200000", "120217.660000", "120218.120000", "120218.580000", "120219.040000", "120219.500000", "120219.960000", "120220.420000", "120220.880000", "120221.340000", "120221.800000", "120222.260000", "120222.720000", "120223.180000", "120223.640000", "120224.100000", "120224.560000", "120225.020000", "120225.480000", "120225.940000", "120226.400000", "120226.860000", "120227.320000", "120227.780000", "120228.240000", "120228.700000", "120229.160000", "120229.620000", "120230.080000", "120230.540000", "120231.000000", "120231.460000", "120231.920000", "120232.380000", "120232.840000", "120233.300000", "120233.760000", "120234.220000", "120234.680000", "120235.140000", "120235.600000", "120236.060000", "120236.520000", "120236.980000", "120237.440000", "120237.900000", "120238.360000", "120238.820000", "120239.280000", "120239.740000", "120240.200000", "120240.660000", "120241.120000", "120241.580000", "120242.040000", "120242.500000", "120242.960000", "120243.420000", "120243.880000", "120244.340000", "120244.800000", "120245.260000", "120245.720000", "120246.180000", "120246.640000", "120247.100000", "120247.560000", "120248.020000", "120248.480000", "120248.940000", "120249.400000", "120249.860000", "120250.320000", "120250.780000", "120251.240000", "120251.700000", "120252.160000", "120252.620000", "120253.080000", "120253.540000", "120254.000000", "120254.460000", "120254.920000", "120255.380000", "120255.840000", "120256.300000", "120256.760000", "120257.220000", "120257.680000", "120258.140000", "120258.600000", "120259.060000", "120259.520000", "120259.980000", "120300.440000", "120300.900000", "120301.360000", "120301.820000", "120302.280000", "120302.740000", "120303.200000", "120303.660000", "120304.120000", "120304.580000", "120305.040000", "120305.500000", "120305.960000", "120306.420000", "120306.880000", "120307.340000", "120307.800000", "120308.260000", "120308.720000", "120309.180000", "120309.640000", "120310.100000", "120310.560000", "120311.020000", "120311.480000", "120311.940000", "120312.400000", "120312.860000", "120313.320000", "120313.780000", "120314.240000", "120314.700000", "120315.160000", "120315.620000", "120316.080000", "120316.540000", "120317.000000", "120317.460000", "120317.920000", "120318.380000", "120318.840000", "120319.300000", "120319.760000", "120320.220000", "120320.680000", "120321.140000", "120321.600000", "120322.060000", "120322.520000", "120322.980000", "120323.440000", "120323.900000", "120324.360000", "120324.820000", "120325.280000", "120325.740000", "120326.200000", "120326.660000", "120327.120000", "120327.580000", "120328.040000", "120328.500000", "120328.960000", "120329.420000", "120329.880000", "120330.340000", "120330.800000", "120331.260000", "120331.720000", "120332.180000", "120332.640000", "120333.100000", "120333.560000", "120334.020000", "120334.480000", "120334.940000", "120335.400000", "120335.860000", "120336.320000", "120336.780000", "120337.240000", "120337.700000", "120338.160000", "120338.620000", "120339.080000", "120339.540000", "120340.000000", "120340.460000", "120340.920000", "120341.380000", "120341.840000", "120342.300000", "120342.760000", "120343.220000", "120343.680000", "120344.140000", "120344.600000", "120345.060000", "120345.520000", "120345.980000", "120346.440000", "120346.900000", "120347.360000", "120347.820000", "120348.280000", "120348.740000", "120349.200000", "120349.660000", "120350.120000", "120350.580000", "120351.040000", "120351.500000", "120351.960000", "120352.420000", "120352.880000", "120353.340000", "120353.800000", "120354.260000", "120354.720000", "120355.180000", "120355.640000", "120356.100000", "120356.560000", "120357.020000", "120357.480000", "120357.940000", "120358.400000", "120358.860000", "120359.320000", "120359.780000", "120400.240000", "120400.700000", "120401.160000", "120401.620000", "120402.080000", "120402.540000", "120403.000000", "120403.460000", "120403.920000", "120404.380000", "120404.840000", "120405.300000", "120405.760000", "120406.220000", "120406.680000", "120407.140000", "120407.600000", "120408.060000", "120408.520000", "120408.980000", "120409.440000", "120409.900000", "120410.360000", "120410.820000", "120411.280000", "120411.740000", "120412.200000", "120412.660000", "120413.120000", "120413.580000", "120414.040000", "120414.500000", "120414.960000", "120415.420000", "120415.880000", "120416.340000", "120416.800000", "120417.260000", "120417.720000", "120418.180000", "120418.640000", "120419.100000", "120419.560000", "120420.020000", "120420.480000", "120420.940000", "120421.400000", "120421.860000", "120422.320000", "120422.780000", "120423.240000", "120423.700000", "120424.160000", "120424.620000", "120425.080000", "120425.540000", "120426.000000", "120426.460000", "120426.920000", "120427.380000", "120427.840000", "120428.300000", "120428.760000", "120429.220000", "120429.680000", "120430.140000", "120430.600000", "120431.060000", "120431.520000", "120431.980000", "120432.440000", "120432.900000", "120433.360000", "120433.820000", "120434.280000", "120434.740000", "120435.200000", "120435.660000", "120436.120000", "120436.580000", "120437.040000", "120437.500000", "120437.960000", "120438.420000", "120438.880000", "120439.340000", "120439.800000", "120440.260000", "120440.720000", "120441.180000", "120441.640000", "120442.100000", "120442.560000", "120443.020000", "120443.480000", "120443.940000", "120444.400000", "120444.860000", "120445.320000", "120445.780000", "120446.240000", "120446.700000", "120447.160000", "120447.620000", "120448.080000", "120448.540000", "120449.000000", "120449.460000", "120449.920000", "120450.380000", "120450.840000", "120451.300000", "120451.760000", "120452.220000", "120452.680000", "120453.140000", "120453.600000", "120454.060000", "120454.520000", "120454.980000", "120455.440000", "120455.900000", "120456.360000", "120456.820000", "120457.280000", "120457.740000", "120458.200000", "120458.660000", "120459.120000", "120459.580000", "120500.040000", "120500.500000", "120500.960000", "120501.420000", "120501.880000", "120502.340000", "120502.800000", "120503.260000", "120503.720000", "120504.180000", "120504.640000", "120505.100000", "120505.560000", "120506.020000", "120506.480000", "120506.940000", "120507.400000", "120507.860000", "120508.320000", "120508.780000", "120509.240000", "120509.700000", "120510.160000", "120510.620000", "120511.080000", "120511.540000", "120512.000000", "120512.460000", "120512.920000", "120513.380000", "120513.840000", "120514.300000", "120514.760000", "120515.220000", "120515.680000", "120516.140000", "120516.600000", "120517.060000", "120517.520000", "120517.980000", "120518.440000", "120518.900000", "120519.360000", "120519.820000", "120520.280000", "120520.740000", "120521.200000", "120521.660000", "120522.120000", "120522.580000", "120523.040000", "120523.500000", "120523.960000", "120524.420000", "120524.880000", "120525.340000", "120525.800000", "120526.260000", "120526.720000", "120527.180000", "120527.640000", "120528.100000", "120528.560000", "120529.020000", "120529.480000", "120529.940000", "120530.400000", "120530.860000", "120531.320000", "120531.780000", "120532.240000", "120532.700000", "120533.160000", "120533.620000", "120534.080000", "120534.540000", "120535.000000", "120535.460000", "120535.920000", "120536.380000", "120536.840000", "120537.300000", "120537.760000", "120538.220000", "120538.680000", "120539.140000", "120539.600000", "120540.060000", "120540.520000", "120540.980000", "120541.440000", "120541.900000", "120542.360000", "120542.820000", "120543.280000", "120543.740000", "120544.200000", "120544.660000", "120545.120000", "120545.580000", "120546.040000", "120546.500000", "120546.960000", "120547.420000", "120547.880000", "120548.340000", "120548.800000", "120549.260000", "120549.720000", "120550.180000", "120550.640000", "120551.100000", "120551.560000", "120552.020000", "120552.480000", "120552.940000", "120553.400000", "120553.860000", "120554.320000", "120554.780000", "120555.240000", "120555.700000", "120556.160000", "120556.620000", "120557.080000", "120557.540000", "120558.000000", "120558.460000", "120558.920000", "120559.380000", "120559.840000", "120600.300000", "120600.760000", "120601.220000", "120601.680000", "120602.140000", "120602.600000", "120603.060000", "120603.520000", "120603.980000", "120604.440000", "120604.900000", "120605.360000", "120605.820000", "120606.280000", "120606.740000", "120607.200000", "120607.660000", "120608.120000", "120608.580000", "120609.040000", "120609.500000", "120609.960000", "120610.420000", "120610.880000", "120611.340000", "120611.800000", "120612.260000", "120612.720000", "120613.180000", "120613.640000", "120614.100000", "120614.560000", "120615.020000", "120615.480000", "120615.940000", "120616.400000", "120616.860000", "120617.320000", "120617.780000", "120618.240000", "120618.700000", "120619.160000", "120619.620000", "120620.080000", "120620.540000", "120621.000000", "120621.460000", "120621.920000", "120622.380000", "120622.840000", "120623.300000", "120623.760000", "120624.220000", "120624.680000", "120625.140000", "120625.600000", "120626.060000", "120626.520000", "120626.980000", "120627.440000", "120627.900000", "120628.360000", "120628.820000", "120629.280000", "120629.740000", "120630.200000", "120630.660000", "120631.120000", "120631.580000", "120632.040000", "120632.500000", "120632.960000", "120633.420000", "120633.880000", "120634.340000", "120634.800000", "120635.260000", "120635.720000", "120636.180000", "120636.640000", "120637.100000", "120637.560000", "120638.020000", "120638.480000", "120638.940000", "120639.400000", "120639.860000", "120640.320000", "120640.780000", "120641.240000", "120641.700000", "120642.160000", "120642.620000", "120643.080000", "120643.540000", "120644.000000", "120644.460000", "120644.920000", "120645.380000", "120645.840000", "120646.300000", "120646.760000", "120647.220000", "120647.680000", "120648.140000", "120648.600000", "120649.060000", "120649.520000", "120649.980000", "120650.440000", "120650.900000", "120651.360000", "120651.820000", "120652.280000", "120652.740000", "120653.200000", "120653.660000", "120654.120000", "120654.580000", "120655.040000", "120655.500000", "120655.960000", "120656.420000", "120656.880000", "120657.340000", "120657.800000", "120658.260000", "120658.720000", "120659.180000", "120659.640000", "120700.100000", "120700.560000", "120701.020000", "120701.480000", "120701.940000", "120702.400000", "120702.860000", "120703.320000", "120703.780000", "120704.240000", "120704.700000", "120705.160000", "120705.620000", "120706.080000", "120706.540000", "120707.000000", "120707.460000", "120707.920000", "120708.380000", "120708.840000", "120709.300000", "120709.760000", "120710.220000", "120710.680000", "120711.140000", "120711.600000", "120712.060000", "120712.520000", "120712.980000", "120713.440000", "120713.900000", "120714.360000", "120714.820000", "120715.280000", "120715.740000", "120716.200000", "120716.660000", "120717.120000", "120717.580000", "120718.040000", "120718.500000", "120718.960000", "120719.420000", "120719.880000", "120720.340000", "120720.800000", "120721.260000", "120721.720000", "120722.180000", "120722.640000", "120723.100000", "120723.560000", "120724.020000", "120724.480000", "120724.940000", "120725.400000", "120725.860000", "120726.320000", "120726.780000", "120727.240000", "120727.700000", "120728.160000", "120728.620000", "120729.080000", "120729.540000", "120730.000000", "120730.460000", "120730.920000", "120731.380000", "120731.840000", "120732.300000", "120732.760000", "120733.220000", "120733.680000", "120734.140000", "120734.600000", "120735.060000", "120735.520000", "120735.980000", "120736.440000", "120736.900000", "120737.360000", "120737.820000", "120738.280000", "120738.740000", "120739.200000", "120739.660000", "120740.120000", "120740.580000", "120741.040000", "120741.500000", "120741.960000", "120742.420000", "120742.880000", "120743.340000", "120743.800000", "120744.260000", "120744.720000", "120745.180000", "120745.640000", "120746.100000", "120746.560000", "120747.020000", "120747.480000", "120747.940000", "120748.400000", "120748.860000", "120749.320000", "120749.780000", "120750.240000", "120750.700000", "120751.160000", "120751.620000", "120752.080000", "120752.540000", "120753.000000", "120753.460000", "120753.920000", "120754.380000", "120754.840000", "120755.300000", "120755.760000", "120756.220000", "120756.680000", "120757.140000", "120757.600000", "120758.060000", "120758.520000", "120758.980000", "120759.440000", "120759.900000", "120800.360000", "120800.820000", "120801.280000", "120801.740000", "120802.200000", "120802.660000", "120803.120000", "120803.580000", "120804.040000", "120804.500000", "120804.960000", "120805.420000", "120805.880000", "120806.340000", "120806.800000", "120807.260000", "120807.720000", "120808.180000", "120808.640000", "120809.100000", "120809.560000", "120810.020000", "120810.480000", "120810.940000", "120811.400000", "120811.860000", "120812.320000", "120812.780000", "120813.240000", "120813.700000", "120814.160000", "120814.620000", "120815.080000", "120815.540000", "120816.000000", "120816.460000", "120816.920000", "120817.380000", "120817.840000", "120818.300000", "120818.760000", "120819.220000", "120819.680000", "120820.140000", "120820.600000", "120821.060000", "120821.520000", "120821.980000", "120822.440000", "120822.900000", "120823.360000", "120823.820000", "120824.280000", "120824.740000", "120825.200000", "120825.660000", "120826.120000", "120826.580000", "120827.040000", "120827.500000", "120827.960000", "120828.420000", "120828.880000", "120829.340000", "120829.800000", "120830.260000", "120830.720000", "120831.180000", "120831.640000", "120832.100000", "120832.560000", "120833.020000", "120833.480000", "120833.940000", "120834.400000", "120834.860000", "120835.320000", "120835.780000", "120836.240000", "120836.700000", "120837.160000", "120837.620000", "120838.080000", "120838.540000", "120839.000000", "120839.460000", "120839.920000", "120840.380000", "120840.840000", "120841.300000", "120841.760000", "120842.220000", "120842.680000", "120843.140000", "120843.600000", "120844.060000", "120844.520000", "120844.980000", "120845.440000", "120845.900000", "120846.360000", "120846.820000", "120847.280000", "120847.740000", "120848.200000", "120848.660000", "120849.120000", "120849.580000", "120850.040000", "120850.500000", "120850.960000", "120851.420000", "120851.880000", "120852.340000", "120852.800000", "120853.260000", "120853.720000", "120854.180000", "120854.640000", "120855.100000", "120855.560000", "120856.020000", "120856.480000", "120856.940000", "120857.400000", "120857.860000", "120858.320000", "120858.780000"],
