{
  "AcquisitionMatrixPE": 82,
  "AcquisitionNumber": 1,
  "AcquisitionTime": "12:35:5.935000",
  "BandwidthPerPixelPhaseEncode": 24.888,
  "BaseResolution": 82,
  "BodyPartExamined": "BRAIN",
  "ConsistencyInfo": "N4_VE11C_LATEST_20160120",
  "ConversionSoftware": "dcm2niix",
  "ConversionSoftwareVersion": "v1.0.20201102",
  "DerivedVendorReportedEchoSpacing": 0.00049,
  "DeviceSerialNumber": "66112",
  "DwellTime": 2e-06,
  "EchoTime": 0.0272,
  "EchoTrainLength": 82,
  "EffectiveEchoSpacing": 0.00049,
  "FlipAngle": 44,
  "ImageComments": "Unaliased MB8/PE3",
  "ImageOrientationPatientDICOM": [0.996364, 0.0852036, -0.000280984, -0.0845427, 0.989034, 0.121094],
  "ImageType": [
    "ORIGINAL",
    "PRIMARY",
    "M",
    "MB",
    "ND",
    "NORM",
    "MOSAIC"
],
  "ImagingFrequency": 123.252,
  "InPlanePhaseEncodingDirectionDICOM": "COL",
  "InstitutionAddress": "Maynard 3,Hanover,NH,US,03755",
  "InstitutionName": "Dartmouth College - PBS",
  "InstitutionalDepartmentName": "Department",
  "MRAcquisitionType": "2D",
  "MagneticFieldStrength": 3,
  "Manufacturer": "Siemens",
  "ManufacturersModelName": "Prisma",
  "Modality": "MR",
  "MultibandAccelerationFactor": 8,
  "PartialFourier": 1,
  "PatientPosition": "HFS",
  "PercentPhaseFOV": 100,
  "PercentSampling": 100,
  "PhaseEncodingDirection": "j-",
  "PhaseEncodingSteps": 82,
  "PhaseResolution": 1,
  "PixelBandwidth": 3050,
  "ProcedureStepDescription": "Wager_Wager^1076_spacetop",
  "ProtocolName": "func_run-03_task-alignvideo_acq-ap-mb8",
  "PulseSequenceDetails": "%CustomerSeq%\\cmrr_mbep2d_bold",
  "ReceiveCoilActiveElements": "HEA;HEP",
  "ReceiveCoilName": "Head_32",
  "ReconMatrixPE": 82,
  "RepetitionTime": 0.46,
  "SAR": 0.101801,
  "ScanOptions": "FS",
  "ScanningSequence": "EP",
  "SequenceName": "epfid2d1_82",
  "SequenceVariant": "SK\\SS",
  "SeriesDescription": "func_run-03_task-alignvideo_acq-ap-mb8",
  "SeriesNumber": 32,
  "ShimSetting": [4147, -7807, -7173, 525, -43, -207, 126, -2],
  "SliceThickness": 2.7,
  "SliceTiming": [0, 0.25, 0.0625, 0.3125, 0.125, 0.3775, 0.1875, 0, 0.25, 0.0625, 0.3125, 0.125, 0.3775, 0.1875, 0, 0.25, 0.0625, 0.3125, 0.125, 0.3775, 0.1875, 0, 0.25, 0.0625, 0.3125, 0.125, 0.3775, 0.1875, 0, 0.25, 0.0625, 0.3125, 0.125, 0.3775, 0.1875, 0, 0.25, 0.0625, 0.3125, 0.125, 0.3775, 0.1875, 0, 0.25, 0.0625, 0.3125, 0.125, 0.3775, 0.1875, 0, 0.25, 0.0625, 0.3125, 0.125, 0.3775, 0.1875],
  "SoftwareVersions": "syngo MR E11",
  "SpacingBetweenSlices": 2.7,
  "StationName": "AWP66112",
  "TaskName": "alignvideo",
  "TotalReadoutTime": 0.03969,
  "TxRefAmp": 265.328,
  "WipMemBlock": "71f6d014-a168-48a7-9366-817ecce99ec3||Sequence: R016 ve11c/master r/e634e98; Dec 19 2017 11:00:25 by eja",
  "dcmmeta_affine": [
    [-2.673170566558838, -0.22682194411754608, -0.028607938438653946, 124.46585845947266],
    [-0.22859510779380798, 2.6535067558288574, 0.3257001042366028, -87.03208923339844],
    [-0.0007538600475527346, -0.324885755777359, 2.68013072013855, -26.285154342651367],
    [0.0, 0.0, 0.0, 1.0]
],
  "dcmmeta_reorient_transform": [
    [0.0, -1.0, 0.0, 81.0],
    [1.0, 0.0, 0.0, 0.0],
    [0.0, 0.0, 1.0, 0.0],
    [0.0, 0.0, 0.0, 1.0]
],
  "dcmmeta_shape": [82, 82, 56, 1065],
  "dcmmeta_slice_dim": 2,
  "dcmmeta_version": 0.6,
  "global": {
    "const": {
      "AccessionNumber": "A003849",
      "AcquisitionMatrix": [82, 0, 0, 82],
      "AngioFlag": "N",
      "BitsAllocated": 16,
      "BitsStored": 16,
      "BodyPartExamined": "BRAIN",
      "Columns": 656,
      "EchoNumbers": 1,
      "EchoTime": 27.2,
      "EchoTrainLength": 82,
      "FlipAngle": 44.0,
      "HighBit": 15,
      "ImageOrientationPatient": [0.9963635191799, 0.08520363076378, -0.0002809841901, -0.0845427249076, 0.98903428870543, 0.12109377948571],
      "ImagePositionPatient": [-808.19530972855, -955.06516952623, -145.62675531483],
      "ImageType": [
        "ORIGINAL",
        "PRIMARY",
        "M",
        "MB",
        "ND",
        "NORM",
        "MOSAIC"
],
      "ImagedNucleus": "1H",
      "ImagingFrequency": 123.25212,
      "InPlanePhaseEncodingDirection": "COL",
      "MRAcquisitionType": "2D",
      "MagneticFieldStrength": 3.0,
      "Manufacturer": "SIEMENS",
      "ManufacturerModelName": "Prisma",
      "Modality": "MR",
      "NumberOfAverages": 1.0,
      "NumberOfPhaseEncodingSteps": 82,
      "PercentPhaseFieldOfView": 100.0,
      "PercentSampling": 100.0,
      "PerformedProcedureStepStartTime": "103842.172000",
      "PhotometricInterpretation": "MONOCHROME2",
      "PixelBandwidth": 3050.0,
      "PixelRepresentation": 0,
      "PixelSpacing": [2.6829268932343, 2.6829268932343],
      "ProtocolName": "func_run-03_task-alignvideo_acq-ap-mb8",
      "RepetitionTime": 460.0,
      "Rows": 656,
      "SAR": 0.10180103675672,
      "SamplesPerPixel": 1,
      "ScanOptions": "FS",
      "ScanningSequence": "EP",
      "SequenceName": "epfid2d1_82",
      "SequenceVariant": [
        "SK",
        "SS"
],
      "SeriesDescription": "func_run-03_task-alignvideo_acq-ap-mb8",
      "SeriesNumber": 32,
      "SeriesTime": "123525.698000",
      "SliceLocation": -37.909157056816,
      "SliceThickness": 2.7000000476837,
      "SmallestImagePixelValue": 0,
      "SoftwareVersions": "syngo MR E11",
      "SpacingBetweenSlices": 2.7000000528251,
      "SpecificCharacterSet": "ISO_IR 100",
      "StudyID": "1",
      "StudyTime": "103842.038000",
      "TransmitCoilName": "Body",
      "VariableFlipAngleFlag": "N",
      "WindowCenterWidthExplanation": "Algo1",
      "dBdt": 0.0},
    "slices": {}
  },
  "time": {
    "samples": {
      "AcquisitionNumber": [1, 2, 3, 4, 5, 6, 7, 8, 9, 10, 11, 12, 13, 14, 15, 16, 17, 18, 19, 20, 21, 22, 23, 24, 25, 26, 27, 28, 29, 30, 31, 32, 33, 34, 35, 36, 37, 38, 39, 40, 41, 42, 43, 44, 45, 46, 47, 48, 49, 50, 51, 52, 53, 54, 55, 56, 57, 58, 59, 60, 61, 62, 63, 64, 65, 66, 67, 68, 69, 70, 71, 72, 73, 74, 75, 76, 77, 78, 79, 80, 81, 82, 83, 84, 85, 86, 87, 88, 89, 90, 91, 92, 93, 94, 95, 96, 97, 98, 99, 100, 101, 102, 103, 104, 105, 106, 107, 108, 109, 110, 111, 112, 113, 114, 115, 116, 117, 118, 119, 120, 121, 122, 123, 124, 125, 126, 127, 128, 129, 130, 131, 132, 133, 134, 135, 136, 137, 138, 139, 140, 141, 142, 143, 144, 145, 146, 147, 148, 149, 150, 151, 152, 153, 154, 155, 156, 157, 158, 159, 160, 161, 162, 163, 164, 165, 166, 167, 168, 169, 170, 171, 172, 173, 174, 175, 176, 177, 178, 179, 180, 181, 182, 183, 184, 185, 186, 187, 188, 189, 190, 191, 192, 193, 194, 195, 196, 197, 198, 199, 200, 201, 202, 203, 204, 205, 206, 207, 208, 209, 210, 211, 212, 213, 214, 215, 216, 217, 218, 219, 220, 221, 222, 223, 224, 225, 226, 227, 228, 229, 230, 231, 232, 233, 234, 235, 236, 237, 238, 239, 240, 241, 242, 243, 244, 245, 246, 247, 248, 249, 250, 251, 252, 253, 254, 255, 256, 257, 258, 259, 260, 261, 262, 263, 264, 265, 266, 267, 268, 269, 270, 271, 272, 273, 274, 275, 276, 277, 278, 279, 280, 281, 282, 283, 284, 285, 286, 287, 288, 289, 290, 291, 292, 293, 294, 295, 296, 297, 298, 299, 300, 301, 302, 303, 304, 305, 306, 307, 308, 309, 310, 311, 312, 313, 314, 315, 316, 317, 318, 319, 320, 321, 322, 323, 324, 325, 326, 327, 328, 329, 330, 331, 332, 333, 334, 335, 336, 337, 338, 339, 340, 341, 342, 343, 344, 345, 346, 347, 348, 349, 350, 351, 352, 353, 354, 355, 356, 357, 358, 359, 360, 361, 362, 363, 364, 365, 366, 367, 368, 369, 370, 371, 372, 373, 374, 375, 376, 377, 378, 379, 380, 381, 382, 383, 384, 385, 386, 387, 388, 389, 390, 391, 392, 393, 394, 395, 396, 397, 398, 399, 400, 401, 402, 403, 404, 405, 406, 407, 408, 409, 410, 411, 412, 413, 414, 415, 416, 417, 418, 419, 420, 421, 422, 423, 424, 425, 426, 427, 428, 429, 430, 431, 432, 433, 434, 435, 436, 437, 438, 439, 440, 441, 442, 443, 444, 445, 446, 447, 448, 449, 450, 451, 452, 453, 454, 455, 456, 457, 458, 459, 460, 461, 462, 463, 464, 465, 466, 467, 468, 469, 470, 471, 472, 473, 474, 475, 476, 477, 478, 479, 480, 481, 482, 483, 484, 485, 486, 487, 488, 489, 490, 491, 492, 493, 494, 495, 496, 497, 498, 499, 500, 501, 502, 503, 504, 505, 506, 507, 508, 509, 510, 511, 512, 513, 514, 515, 516, 517, 518, 519, 520, 521, 522, 523, 524, 525, 526, 527, 528, 529, 530, 531, 532, 533, 534, 535, 536, 537, 538, 539, 540, 541, 542, 543, 544, 545, 546, 547, 548, 549, 550, 551, 552, 553, 554, 555, 556, 557, 558, 559, 560, 561, 562, 563, 564, 565, 566, 567, 568, 569, 570, 571, 572, 573, 574, 575, 576, 577, 578, 579, 580, 581, 582, 583, 584, 585, 586, 587, 588, 589, 590, 591, 592, 593, 594, 595, 596, 597, 598, 599, 600, 601, 602, 603, 604, 605, 606, 607, 608, 609, 610, 611, 612, 613, 614, 615, 616, 617, 618, 619, 620, 621, 622, 623, 624, 625, 626, 627, 628, 629, 630, 631, 632, 633, 634, 635, 636, 637, 638, 639, 640, 641, 642, 643, 644, 645, 646, 647, 648, 649, 650, 651, 652, 653, 654, 655, 656, 657, 658, 659, 660, 661, 662, 663, 664, 665, 666, 667, 668, 669, 670, 671, 672, 673, 674, 675, 676, 677, 678, 679, 680, 681, 682, 683, 684, 685, 686, 687, 688, 689, 690, 691, 692, 693, 694, 695, 696, 697, 698, 699, 700, 701, 702, 703, 704, 705, 706, 707, 708, 709, 710, 711, 712, 713, 714, 715, 716, 717, 718, 719, 720, 721, 722, 723, 724, 725, 726, 727, 728, 729, 730, 731, 732, 733, 734, 735, 736, 737, 738, 739, 740, 741, 742, 743, 744, 745, 746, 747, 748, 749, 750, 751, 752, 753, 754, 755, 756, 757, 758, 759, 760, 761, 762, 763, 764, 765, 766, 767, 768, 769, 770, 771, 772, 773, 774, 775, 776, 777, 778, 779, 780, 781, 782, 783, 784, 785, 786, 787, 788, 789, 790, 791, 792, 793, 794, 795, 796, 797, 798, 799, 800, 801, 802, 803, 804, 805, 806, 807, 808, 809, 810, 811, 812, 813, 814, 815, 816, 817, 818, 819, 820, 821, 822, 823, 824, 825, 826, 827, 828, 829, 830, 831, 832, 833, 834, 835, 836, 837, 838, 839, 840, 841, 842, 843, 844, 845, 846, 847, 848, 849, 850, 851, 852, 853, 854, 855, 856, 857, 858, 859, 860, 861, 862, 863, 864, 865, 866, 867, 868, 869, 870, 871, 872, 873, 874, 875, 876, 877, 878, 879, 880, 881, 882, 883, 884, 885, 886, 887, 888, 889, 890, 891, 892, 893, 894, 895, 896, 897, 898, 899, 900, 901, 902, 903, 904, 905, 906, 907, 908, 909, 910, 911, 912, 913, 914, 915, 916, 917, 918, 919, 920, 921, 922, 923, 924, 925, 926, 927, 928, 929, 930, 931, 932, 933, 934, 935, 936, 937, 938, 939, 940, 941, 942, 943, 944, 945, 946, 947, 948, 949, 950, 951, 952, 953, 954, 955, 956, 957, 958, 959, 960, 961, 962, 963, 964, 965, 966, 967, 968, 969, 970, 971, 972, 973, 974, 975, 976, 977, 978, 979, 980, 981, 982, 983, 984, 985, 986, 987, 988, 989, 990, 991, 992, 993, 994, 995, 996, 997, 998, 999, 1000, 1001, 1002, 1003, 1004, 1005, 1006, 1007, 1008, 1009, 1010, 1011, 1012, 1013, 1014, 1015, 1016, 1017, 1018, 1019, 1020, 1021, 1022, 1023, 1024, 1025, 1026, 1027, 1028, 1029, 1030, 1031, 1032, 1033, 1034, 1035, 1036, 1037, 1038, 1039, 1040, 1041, 1042, 1043, 1044, 1045, 1046, 1047, 1048, 1049, 1050, 1051, 1052, 1053, 1054, 1055, 1056, 1057, 1058, 1059, 1060, 1061, 1062, 1063, 1064, 1065],
      "AcquisitionTime": ["123505.935000", "123506.395000", "123506.855000", "123507.315000", "123507.775000", "123508.235000", "123508.695000", "123509.155000", "123509.615000", "123510.075000", "123510.535000", "123510.995000", "123511.455000", "123511.915000", "123512.375000", "123512.835000", "123513.295000", "123513.755000", "123514.215000", "123514.675000", "123515.135000", "123515.595000", "123516.055000", "123516.515000", "123516.975000", "123517.435000", "123517.895000", "123518.355000", "123518.815000", "123519.275000", "123519.735000", "123520.195000", "123520.655000", "123521.115000", "123521.575000", "123522.035000", "123522.495000", "123522.955000", "123523.415000", "123523.875000", "123524.335000", "123524.795000", "123525.255000", "123525.715000", "123526.175000", "123526.635000", "123527.095000", "123527.555000", "123528.015000", "123528.475000", "123528.935000", "123529.395000", "123529.855000", "123530.315000", "123530.775000", "123531.235000", "123531.695000", "123532.155000", "123532.615000", "123533.075000", "123533.535000", "123533.995000", "123534.455000", "123534.915000", "123535.375000", "123535.835000", "123536.295000", "123536.755000", "123537.215000", "123537.675000", "123538.135000", "123538.595000", "123539.055000", "123539.515000", "123539.975000", "123540.435000", "123540.895000", "123541.355000", "123541.815000", "123542.275000", "123542.735000", "123543.195000", "123543.655000", "123544.115000", "123544.575000", "123545.035000", "123545.495000", "123545.955000", "123546.415000", "123546.875000", "123547.335000", "123547.795000", "123548.255000", "123548.715000", "123549.175000", "123549.635000", "123550.095000", "123550.555000", "123551.015000", "123551.475000", "123551.935000", "123552.395000", "123552.855000", "123553.315000", "123553.775000", "123554.235000", "123554.695000", "123555.155000", "123555.615000", "123556.075000", "123556.535000", "123556.995000", "123557.455000", "123557.915000", "123558.375000", "123558.835000", "123559.295000", "123559.755000", "123600.215000", "123600.675000", "123601.135000", "123601.595000", "123602.055000", "123602.515000", "123602.975000", "123603.435000", "123603.895000", "123604.355000", "123604.815000", "123605.275000", "123605.735000", "123606.195000", "123606.655000", "123607.115000", "123607.575000", "123608.035000", "123608.495000", "123608.955000", "123609.415000", "123609.875000", "123610.335000", "123610.795000", "123611.255000", "123611.715000", "123612.175000", "123612.635000", "123613.095000", "123613.555000", "123614.015000", "123614.475000", "123614.935000", "123615.395000", "123615.855000", "123616.315000", "123616.775000", "123617.235000", "123617.695000", "123618.155000", "123618.615000", "123619.075000", "123619.535000", "123619.995000", "123620.455000", "123620.915000", "123621.375000", "123621.835000", "123622.295000", "123622.755000", "123623.215000", "123623.675000", "123624.135000", "123624.595000", "123625.055000", "123625.515000", "123625.975000", "123626.435000", "123626.895000", "123627.355000", "123627.815000", "123628.275000", "123628.735000", "123629.195000", "123629.655000", "123630.115000", "123630.575000", "123631.035000", "123631.495000", "123631.955000", "123632.415000", "123632.875000", "123633.335000", "123633.795000", "123634.255000", "123634.715000", "123635.175000", "123635.635000", "123636.095000", "123636.555000", "123637.015000", "123637.475000", "123637.935000", "123638.395000", "123638.855000", "123639.315000", "123639.775000", "123640.235000", "123640.695000", "123641.155000", "123641.615000", "123642.075000", "123642.535000", "123642.995000", "123643.455000", "123643.915000", "123644.375000", "123644.835000", "123645.295000", "123645.755000", "123646.215000", "123646.675000", "123647.135000", "123647.595000", "123648.055000", "123648.515000", "123648.975000", "123649.435000", "123649.895000", "123650.355000", "123650.815000", "123651.275000", "123651.735000", "123652.195000", "123652.655000", "123653.115000", "123653.575000", "123654.035000", "123654.495000", "123654.955000", "123655.415000", "123655.875000", "123656.335000", "123656.795000", "123657.255000", "123657.715000", "123658.175000", "123658.635000", "123659.095000", "123659.555000", "123700.015000", "123700.475000", "123700.935000", "123701.395000", "123701.855000", "123702.315000", "123702.775000", "123703.235000", "123703.695000", "123704.155000", "123704.615000", "123705.075000", "123705.535000", "123705.995000", "123706.455000", "123706.915000", "123707.375000", "123707.835000", "123708.295000", "123708.755000", "123709.215000", "123709.675000", "123710.135000", "123710.595000", "123711.055000", "123711.515000", "123711.975000", "123712.435000", "123712.895000", "123713.355000", "123713.815000", "123714.275000", "123714.735000", "123715.195000", "123715.655000", "123716.115000", "123716.575000", "123717.035000", "123717.495000", "123717.955000", "123718.415000", "123718.875000", "123719.335000", "123719.795000", "123720.255000", "123720.715000", "123721.175000", "123721.635000", "123722.095000", "123722.555000", "123723.015000", "123723.475000", "123723.935000", "123724.395000", "123724.855000", "123725.315000", "123725.775000", "123726.235000", "123726.695000", "123727.155000", "123727.615000", "123728.075000", "123728.535000", "123728.995000", "123729.455000", "123729.915000", "123730.375000", "123730.835000", "123731.295000", "123731.755000", "123732.215000", "123732.675000", "123733.135000", "123733.595000", "123734.055000", "123734.515000", "123734.975000", "123735.435000", "123735.895000", "123736.355000", "123736.815000", "123737.275000", "123737.735000", "123738.195000", "123738.655000", "123739.115000", "123739.575000", "123740.035000", "123740.495000", "123740.955000", "123741.415000", "123741.875000", "123742.335000", "123742.795000", "123743.255000", "123743.715000", "123744.175000", "123744.635000", "123745.095000", "123745.555000", "123746.015000", "123746.475000", "123746.935000", "123747.395000", "123747.855000", "123748.315000", "123748.775000", "123749.235000", "123749.695000", "123750.155000", "123750.615000", "123751.075000", "123751.535000", "123751.995000", "123752.455000", "123752.915000", "123753.375000", "123753.835000", "123754.295000", "123754.755000", "123755.215000", "123755.675000", "123756.135000", "123756.595000", "123757.055000", "123757.515000", "123757.975000", "123758.435000", "123758.895000", "123759.355000", "123759.815000", "123800.275000", "123800.735000", "123801.195000", "123801.655000", "123802.115000", "123802.575000", "123803.035000", "123803.495000", "123803.955000", "123804.415000", "123804.875000", "123805.335000", "123805.795000", "123806.255000", "123806.715000", "123807.175000", "123807.635000", "123808.095000", "123808.555000", "123809.015000", "123809.475000", "123809.935000", "123810.395000", "123810.855000", "123811.315000", "123811.775000", "123812.235000", "123812.695000", "123813.155000", "123813.615000", "123814.075000", "123814.535000", "123814.995000", "123815.455000", "123815.915000", "123816.375000", "123816.835000", "123817.295000", "123817.755000", "123818.215000", "123818.675000", "123819.135000", "123819.595000", "123820.055000", "123820.515000", "123820.975000", "123821.435000", "123821.895000", "123822.355000", "123822.815000", "123823.275000", "123823.735000", "123824.195000", "123824.655000", "123825.115000", "123825.575000", "123826.035000", "123826.495000", "123826.955000", "123827.415000", "123827.875000", "123828.335000", "123828.795000", "123829.255000", "123829.715000", "123830.175000", "123830.635000", "123831.095000", "123831.555000", "123832.015000", "123832.475000", "123832.935000", "123833.395000", "123833.855000", "123834.315000", "123834.775000", "123835.235000", "123835.695000", "123836.155000", "123836.615000", "123837.075000", "123837.535000", "123837.995000", "123838.455000", "123838.915000", "123839.375000", "123839.835000", "123840.295000", "123840.755000", "123841.215000", "123841.675000", "123842.135000", "123842.595000", "123843.055000", "123843.515000", "123843.975000", "123844.435000", "123844.895000", "123845.355000", "123845.815000", "123846.275000", "123846.735000", "123847.195000", "123847.655000", "123848.115000", "123848.575000", "123849.035000", "123849.495000", "123849.955000", "123850.415000", "123850.875000", "123851.335000", "123851.795000", "123852.255000", "123852.715000", "123853.175000", "123853.635000", "123854.095000", "123854.555000", "123855.015000", "123855.475000", "123855.935000", "123856.395000", "123856.855000", "123857.315000", "123857.775000", "123858.235000", "123858.695000", "123859.155000", "123859.615000", "123900.075000", "123900.535000", "123900.995000", "123901.455000", "123901.915000", "123902.375000", "123902.835000", "123903.295000", "123903.755000", "123904.215000", "123904.675000", "123905.135000", "123905.595000", "123906.055000", "123906.515000", "123906.975000", "123907.435000", "123907.895000", "123908.355000", "123908.815000", "123909.275000", "123909.735000", "123910.195000", "123910.655000", "123911.115000", "123911.575000", "123912.035000", "123912.495000", "123912.955000", "123913.415000", "123913.875000", "123914.335000", "123914.795000", "123915.255000", "123915.715000", "123916.175000", "123916.635000", "123917.095000", "123917.555000", "123918.015000", "123918.475000", "123918.935000", "123919.395000", "123919.855000", "123920.315000", "123920.775000", "123921.235000", "123921.695000", "123922.155000", "123922.615000", "123923.075000", "123923.535000", "123923.995000", "123924.455000", "123924.915000", "123925.375000", "123925.835000", "123926.295000", "123926.755000", "123927.215000", "123927.675000", "123928.135000", "123928.595000", "123929.055000", "123929.515000", "123929.975000", "123930.435000", "123930.895000", "123931.355000", "123931.815000", "123932.275000", "123932.735000", "123933.195000", "123933.655000", "123934.115000", "123934.575000", "123935.035000", "123935.495000", "123935.955000", "123936.415000", "123936.875000", "123937.335000", "123937.795000", "123938.255000", "123938.715000", "123939.175000", "123939.635000", "123940.095000", "123940.555000", "123941.015000", "123941.475000", "123941.935000", "123942.395000", "123942.855000", "123943.315000", "123943.775000", "123944.235000", "123944.695000", "123945.155000", "123945.615000", "123946.075000", "123946.535000", "123946.995000", "123947.455000", "123947.915000", "123948.375000", "123948.835000", "123949.295000", "123949.755000", "123950.215000", "123950.675000", "123951.135000", "123951.595000", "123952.055000", "123952.515000", "123952.975000", "123953.435000", "123953.895000", "123954.355000", "123954.815000", "123955.275000", "123955.735000", "123956.195000", "123956.655000", "123957.115000", "123957.575000", "123958.035000", "123958.495000", "123958.955000", "123959.415000", "123959.875000", "124000.335000", "124000.795000", "124001.255000", "124001.715000", "124002.175000", "124002.635000", "124003.095000", "124003.555000", "124004.015000", "124004.475000", "124004.935000", "124005.395000", "124005.855000", "124006.315000", "124006.775000", "124007.235000", "124007.695000", "124008.155000", "124008.615000", "124009.075000", "124009.535000", "124009.995000", "124010.455000", "124010.915000", "124011.375000", "124011.835000", "124012.295000", "124012.755000", "124013.215000", "124013.675000", "124014.135000", "124014.595000", "124015.055000", "124015.515000", "124015.975000", "124016.435000", "124016.895000", "124017.355000", "124017.815000", "124018.275000", "124018.735000", "124019.195000", "124019.655000", "124020.115000", "124020.575000", "124021.035000", "124021.495000", "124021.955000", "124022.415000", "124022.875000", "124023.335000", "124023.795000", "124024.255000", "124024.715000", "124025.175000", "124025.635000", "124026.095000", "124026.555000", "124027.015000", "124027.475000", "124027.935000", "124028.395000", "124028.855000", "124029.315000", "124029.775000", "124030.235000", "124030.695000", "124031.155000", "124031.615000", "124032.075000", "124032.535000", "124032.995000", "124033.455000", "124033.915000", "124034.375000", "124034.835000", "124035.295000", "124035.755000", "124036.215000", "124036.675000", "124037.135000", "124037.595000", "124038.055000", "124038.515000", "124038.975000", "124039.435000", "124039.895000", "124040.355000", "124040.815000", "124041.275000", "124041.735000", "124042.195000", "124042.655000", "124043.115000", "124043.575000", "124044.035000", "124044.495000", "124044.955000", "124045.415000", "124045.875000", "124046.335000", "124046.795000", "124047.255000", "124047.715000", "124048.175000", "124048.635000", "124049.095000", "124049.555000", "124050.015000", "124050.475000", "124050.935000", "124051.395000", "124051.855000", "124052.315000", "124052.775000", "124053.235000", "124053.695000", "124054.155000", "124054.615000", "124055.075000", "124055.535000", "124055.995000", "124056.455000", "124056.915000", "124057.375000", "124057.835000", "124058.295000", "124058.755000", "124059.215000", "124059.675000", "124100.135000", "124100.595000", "124101.055000", "124101.515000", "124101.975000", "124102.435000", "124102.895000", "124103.355000", "124103.815000", "124104.275000", "124104.735000", "124105.195000", "124105.655000", "124106.115000", "124106.575000", "124107.035000", "124107.495000", "124107.955000", "124108.415000", "124108.875000", "124109.335000", "124109.795000", "124110.255000", "124110.715000", "124111.175000", "124111.635000", "124112.095000", "124112.555000", "124113.015000", "124113.475000", "124113.935000", "124114.395000", "124114.855000", "124115.315000", "124115.775000", "124116.235000", "124116.695000", "124117.155000", "124117.615000", "124118.075000", "124118.535000", "124118.995000", "124119.455000", "124119.915000", "124120.375000", "124120.835000", "124121.295000", "124121.755000", "124122.215000", "124122.675000", "124123.135000", "124123.595000", "124124.055000", "124124.515000", "124124.975000", "124125.435000", "124125.895000", "124126.355000", "124126.815000", "124127.275000", "124127.735000", "124128.195000", "124128.655000", "124129.115000", "124129.575000", "124130.035000", "124130.495000", "124130.955000", "124131.415000", "124131.875000", "124132.335000", "124132.795000", "124133.255000", "124133.715000", "124134.175000", "124134.635000", "124135.095000", "124135.555000", "124136.015000", "124136.475000", "124136.935000", "124137.395000", "124137.855000", "124138.315000", "124138.775000", "124139.235000", "124139.695000", "124140.155000", "124140.615000", "124141.075000", "124141.535000", "124141.995000", "124142.455000", "124142.915000", "124143.375000", "124143.835000", "124144.295000", "124144.755000", "124145.215000", "124145.675000", "124146.135000", "124146.595000", "124147.055000", "124147.515000", "124147.975000", "124148.435000", "124148.895000", "124149.355000", "124149.815000", "124150.275000", "124150.735000", "124151.195000", "124151.655000", "124152.115000", "124152.575000", "124153.035000", "124153.495000", "124153.955000", "124154.415000", "124154.875000", "124155.335000", "124155.795000", "124156.255000", "124156.715000", "124157.175000", "124157.635000", "124158.095000", "124158.555000", "124159.015000", "124159.475000", "124159.935000", "124200.395000", "124200.855000", "124201.315000", "124201.775000", "124202.235000", "124202.695000", "124203.155000", "124203.615000", "124204.075000", "124204.535000", "124204.995000", "124205.455000", "124205.915000", "124206.375000", "124206.835000", "124207.295000", "124207.755000", "124208.215000", "124208.675000", "124209.135000", "124209.595000", "124210.055000", "124210.515000", "124210.975000", "124211.435000", "124211.895000", "124212.355000", "124212.815000", "124213.275000", "124213.735000", "124214.195000", "124214.655000", "124215.115000", "124215.575000", "124216.035000", "124216.495000", "124216.955000", "124217.415000", "124217.875000", "124218.335000", "124218.795000", "124219.255000", "124219.715000", "124220.175000", "124220.635000", "124221.095000", "124221.555000", "124222.015000", "124222.475000", "124222.935000", "124223.395000", "124223.855000", "124224.315000", "124224.775000", "124225.235000", "124225.695000", "124226.155000", "124226.615000", "124227.075000", "124227.535000", "124227.995000", "124228.455000", "124228.915000", "124229.375000", "124229.835000", "124230.295000", "124230.755000", "124231.215000", "124231.675000", "124232.135000", "124232.595000", "124233.055000", "124233.515000", "124233.975000", "124234.435000", "124234.895000", "124235.355000", "124235.815000", "124236.275000", "124236.735000", "124237.195000", "124237.655000", "124238.115000", "124238.575000", "124239.035000", "124239.495000", "124239.955000", "124240.415000", "124240.875000", "124241.335000", "124241.795000", "124242.255000", "124242.715000", "124243.175000", "124243.635000", "124244.095000", "124244.555000", "124245.015000", "124245.475000", "124245.935000", "124246.395000", "124246.855000", "124247.315000", "124247.775000", "124248.235000", "124248.695000", "124249.155000", "124249.615000", "124250.075000", "124250.535000", "124250.995000", "124251.455000", "124251.915000", "124252.375000", "124252.835000", "124253.295000", "124253.755000", "124254.215000", "124254.675000", "124255.135000", "124255.595000", "124256.055000", "124256.515000", "124256.975000", "124257.435000", "124257.895000", "124258.355000", "124258.815000", "124259.275000", "124259.735000", "124300.195000", "124300.655000", "124301.115000", "124301.575000", "124302.035000", "124302.495000", "124302.955000", "124303.415000", "124303.875000", "124304.335000", "124304.795000", "124305.255000", "124305.715000", "124306.175000", "124306.635000", "124307.095000", "124307.555000", "124308.015000", "124308.475000", "124308.935000", "124309.395000", "124309.855000", "124310.315000", "124310.775000", "124311.235000", "124311.695000", "124312.155000", "124312.615000", "124313.075000", "124313.535000", "124313.995000", "124314.455000", "124314.915000", "124315.375000"],
