{
  "AcquisitionMatrixPE": 82,
  "AcquisitionNumber": 1,
  "AcquisitionTime": "13:24:2.452500",
  "BandwidthPerPixelPhaseEncode": 24.888,
  "BaseResolution": 82,
  "BodyPartExamined": "BRAIN",
  "ConsistencyInfo": "N4_VE11C_LATEST_20160120",
  "ConversionSoftware": "dcm2niix",
  "ConversionSoftwareVersion": "v1.0.20201102",
  "DerivedVendorReportedEchoSpacing": 0.00049,
  "DeviceSerialNumber": "66112",
  "DwellTime": 2e-06,
  "EchoTime": 0.0272,
  "EchoTrainLength": 82,
  "EffectiveEchoSpacing": 0.00049,
  "FlipAngle": 44,
  "ImageComments": "Unaliased MB8/PE3",
  "ImageOrientationPatientDICOM": [0.993762, -0.0593739, 0.0943986, 0.0694906, 0.991744, -0.107771],
  "ImageType": [
    "ORIGINAL",
    "PRIMARY",
    "M",
    "MB",
    "ND",
    "NORM",
    "MOSAIC"
],
  "ImagingFrequency": 123.252,
  "InPlanePhaseEncodingDirectionDICOM": "COL",
  "InstitutionAddress": "Maynard 3,Hanover,NH,US,03755",
  "InstitutionName": "Dartmouth College - PBS",
  "InstitutionalDepartmentName": "Department",
  "MRAcquisitionType": "2D",
  "MagneticFieldStrength": 3,
  "Manufacturer": "Siemens",
  "ManufacturersModelName": "Prisma",
  "Modality": "MR",
  "MultibandAccelerationFactor": 8,
  "PartialFourier": 1,
  "PatientPosition": "HFS",
  "PercentPhaseFOV": 100,
  "PercentSampling": 100,
  "PhaseEncodingDirection": "j-",
  "PhaseEncodingSteps": 82,
  "PhaseResolution": 1,
  "PixelBandwidth": 3050,
  "ProcedureStepDescription": "Wager_Wager^1076_spacetop",
  "ProtocolName": "func_run-03_task-social_acq-ap-mb8",
  "PulseSequenceDetails": "%CustomerSeq%\\cmrr_mbep2d_bold",
  "ReceiveCoilActiveElements": "HEA;HEP",
  "ReceiveCoilName": "Head_32",
  "ReconMatrixPE": 82,
  "RepetitionTime": 0.46,
  "SAR": 0.0896896,
  "ScanOptions": "FS",
  "ScanningSequence": "EP",
  "SequenceName": "epfid2d1_82",
  "SequenceVariant": "SK\\SS",
  "SeriesDescription": "func_run-03_task-social_acq-ap-mb8",
  "SeriesNumber": 12,
  "ShimSetting": [4158, -7781, -7216, 595, -149, -185, -102, 5],
  "SliceThickness": 2.7,
  "SliceTiming": [0, 0.25, 0.0625, 0.3125, 0.125, 0.375, 0.1875, 0, 0.25, 0.0625, 0.3125, 0.125, 0.375, 0.1875, 0, 0.25, 0.0625, 0.3125, 0.125, 0.375, 0.1875, 0, 0.25, 0.0625, 0.3125, 0.125, 0.375, 0.1875, 0, 0.25, 0.0625, 0.3125, 0.125, 0.375, 0.1875, 0, 0.25, 0.0625, 0.3125, 0.125, 0.375, 0.1875, 0, 0.25, 0.0625, 0.3125, 0.125, 0.375, 0.1875, 0, 0.25, 0.0625, 0.3125, 0.125, 0.375, 0.1875],
  "SoftwareVersions": "syngo MR E11",
  "SpacingBetweenSlices": 2.7,
  "StationName": "AWP66112",
  "TaskName": "social",
  "TotalReadoutTime": 0.03969,
  "TxRefAmp": 242.278,
  "WipMemBlock": "c9e57278-084a-46a3-b0d0-60ad6abf8dbb||Sequence: R016 ve11c/master r/e634e98; Dec 19 2017 11:00:25 by eja",
  "dcmmeta_affine": [
    [-2.666191816329956, 0.18643832206726074, 0.23549532890319824, 98.18782806396484],
    [0.15929588675498962, 2.6607770919799805, -0.3068787157535553, -101.95337677001953],
    [0.2532646358013153, 0.2891422510147095, 2.6721465587615967, -86.41835021972656],
    [0.0, 0.0, 0.0, 1.0]
],
  "dcmmeta_reorient_transform": [
    [0.0, -1.0, 0.0, 81.0],
    [1.0, 0.0, 0.0, 0.0],
    [0.0, 0.0, 1.0, 0.0],
    [0.0, 0.0, 0.0, 1.0]
],
  "dcmmeta_shape": [82, 82, 56, 872],
  "dcmmeta_slice_dim": 2,
  "dcmmeta_version": 0.6,
  "global": {
    "const": {
      "AccessionNumber": "A003850",
      "AcquisitionMatrix": [82, 0, 0, 82],
      "AngioFlag": "N",
      "BitsAllocated": 16,
      "BitsStored": 16,
      "BodyPartExamined": "BRAIN",
      "Columns": 656,
      "EchoNumbers": 1,
      "EchoTime": 27.2,
      "EchoTrainLength": 82,
      "FlipAngle": 44.0,
      "HighBit": 15,
      "ImageOrientationPatient": [0.99376236398154, -0.0593739174409, 0.09439863273127, 0.06949064513481, 0.99174412991914, -0.1077711974958],
      "ImagePositionPatient": [-931.99416728429, -831.49464424261, -52.700953761813],
      "ImageType": [
        "ORIGINAL",
        "PRIMARY",
        "M",
        "MB",
        "ND",
        "NORM",
        "MOSAIC"
],
      "ImagedNucleus": "1H",
      "ImagingFrequency": 123.252188,
      "InPlanePhaseEncodingDirection": "COL",
      "MRAcquisitionType": "2D",
      "MagneticFieldStrength": 3.0,
      "Manufacturer": "SIEMENS",
      "ManufacturerModelName": "Prisma",
      "Modality": "MR",
      "NumberOfAverages": 1.0,
      "NumberOfPhaseEncodingSteps": 82,
      "PercentPhaseFieldOfView": 100.0,
      "PercentSampling": 100.0,
      "PerformedProcedureStepStartTime": "125425.154000",
      "PhotometricInterpretation": "MONOCHROME2",
      "PixelBandwidth": 3050.0,
      "PixelRepresentation": 0,
      "PixelSpacing": [2.6829268932343, 2.6829268932343],
      "ProtocolName": "func_run-03_task-social_acq-ap-mb8",
      "RepetitionTime": 460.0,
      "Rows": 656,
      "SAR": 0.0896896061649,
      "SamplesPerPixel": 1,
      "ScanOptions": "FS",
      "ScanningSequence": "EP",
      "SequenceName": "epfid2d1_82",
      "SequenceVariant": [
        "SK",
        "SS"
],
      "SeriesDescription": "func_run-03_task-social_acq-ap-mb8",
      "SeriesNumber": 12,
      "SeriesTime": "132425.780000",
      "SliceLocation": -65.374965528506,
      "SliceThickness": 2.7000000476837,
      "SmallestImagePixelValue": 0,
      "SoftwareVersions": "syngo MR E11",
      "SpacingBetweenSlices": 2.7000000150847,
      "SpecificCharacterSet": "ISO_IR 100",
      "StudyID": "1",
      "StudyTime": "125425.017000",
      "TransmitCoilName": "Body",
      "VariableFlipAngleFlag": "N",
      "WindowCenterWidthExplanation": "Algo1",
      "dBdt": 0.0},
    "slices": {}
  },
  "time": {
    "samples": {
      "AcquisitionNumber": [1, 2, 3, 4, 5, 6, 7, 8, 9, 10, 11, 12, 13, 14, 15, 16, 17, 18, 19, 20, 21, 22, 23, 24, 25, 26, 27, 28, 29, 30, 31, 32, 33, 34, 35, 36, 37, 38, 39, 40, 41, 42, 43, 44, 45, 46, 47, 48, 49, 50, 51, 52, 53, 54, 55, 56, 57, 58, 59, 60, 61, 62, 63, 64, 65, 66, 67, 68, 69, 70, 71, 72, 73, 74, 75, 76, 77, 78, 79, 80, 81, 82, 83, 84, 85, 86, 87, 88, 89, 90, 91, 92, 93, 94, 95, 96, 97, 98, 99, 100, 101, 102, 103, 104, 105, 106, 107, 108, 109, 110, 111, 112, 113, 114, 115, 116, 117, 118, 119, 120, 121, 122, 123, 124, 125, 126, 127, 128, 129, 130, 131, 132, 133, 134, 135, 136, 137, 138, 139, 140, 141, 142, 143, 144, 145, 146, 147, 148, 149, 150, 151, 152, 153, 154, 155, 156, 157, 158, 159, 160, 161, 162, 163, 164, 165, 166, 167, 168, 169, 170, 171, 172, 173, 174, 175, 176, 177, 178, 179, 180, 181, 182, 183, 184, 185, 186, 187, 188, 189, 190, 191, 192, 193, 194, 195, 196, 197, 198, 199, 200, 201, 202, 203, 204, 205, 206, 207, 208, 209, 210, 211, 212, 213, 214, 215, 216, 217, 218, 219, 220, 221, 222, 223, 224, 225, 226, 227, 228, 229, 230, 231, 232, 233, 234, 235, 236, 237, 238, 239, 240, 241, 242, 243, 244, 245, 246, 247, 248, 249, 250, 251, 252, 253, 254, 255, 256, 257, 258, 259, 260, 261, 262, 263, 264, 265, 266, 267, 268, 269, 270, 271, 272, 273, 274, 275, 276, 277, 278, 279, 280, 281, 282, 283, 284, 285, 286, 287, 288, 289, 290, 291, 292, 293, 294, 295, 296, 297, 298, 299, 300, 301, 302, 303, 304, 305, 306, 307, 308, 309, 310, 311, 312, 313, 314, 315, 316, 317, 318, 319, 320, 321, 322, 323, 324, 325, 326, 327, 328, 329, 330, 331, 332, 333, 334, 335, 336, 337, 338, 339, 340, 341, 342, 343, 344, 345, 346, 347, 348, 349, 350, 351, 352, 353, 354, 355, 356, 357, 358, 359, 360, 361, 362, 363, 364, 365, 366, 367, 368, 369, 370, 371, 372, 373, 374, 375, 376, 377, 378, 379, 380, 381, 382, 383, 384, 385, 386, 387, 388, 389, 390, 391, 392, 393, 394, 395, 396, 397, 398, 399, 400, 401, 402, 403, 404, 405, 406, 407, 408, 409, 410, 411, 412, 413, 414, 415, 416, 417, 418, 419, 420, 421, 422, 423, 424, 425, 426, 427, 428, 429, 430, 431, 432, 433, 434, 435, 436, 437, 438, 439, 440, 441, 442, 443, 444, 445, 446, 447, 448, 449, 450, 451, 452, 453, 454, 455, 456, 457, 458, 459, 460, 461, 462, 463, 464, 465, 466, 467, 468, 469, 470, 471, 472, 473, 474, 475, 476, 477, 478, 479, 480, 481, 482, 483, 484, 485, 486, 487, 488, 489, 490, 491, 492, 493, 494, 495, 496, 497, 498, 499, 500, 501, 502, 503, 504, 505, 506, 507, 508, 509, 510, 511, 512, 513, 514, 515, 516, 517, 518, 519, 520, 521, 522, 523, 524, 525, 526, 527, 528, 529, 530, 531, 532, 533, 534, 535, 536, 537, 538, 539, 540, 541, 542, 543, 544, 545, 546, 547, 548, 549, 550, 551, 552, 553, 554, 555, 556, 557, 558, 559, 560, 561, 562, 563, 564, 565, 566, 567, 568, 569, 570, 571, 572, 573, 574, 575, 576, 577, 578, 579, 580, 581, 582, 583, 584, 585, 586, 587, 588, 589, 590, 591, 592, 593, 594, 595, 596, 597, 598, 599, 600, 601, 602, 603, 604, 605, 606, 607, 608, 609, 610, 611, 612, 613, 614, 615, 616, 617, 618, 619, 620, 621, 622, 623, 624, 625, 626, 627, 628, 629, 630, 631, 632, 633, 634, 635, 636, 637, 638, 639, 640, 641, 642, 643, 644, 645, 646, 647, 648, 649, 650, 651, 652, 653, 654, 655, 656, 657, 658, 659, 660, 661, 662, 663, 664, 665, 666, 667, 668, 669, 670, 671, 672, 673, 674, 675, 676, 677, 678, 679, 680, 681, 682, 683, 684, 685, 686, 687, 688, 689, 690, 691, 692, 693, 694, 695, 696, 697, 698, 699, 700, 701, 702, 703, 704, 705, 706, 707, 708, 709, 710, 711, 712, 713, 714, 715, 716, 717, 718, 719, 720, 721, 722, 723, 724, 725, 726, 727, 728, 729, 730, 731, 732, 733, 734, 735, 736, 737, 738, 739, 740, 741, 742, 743, 744, 745, 746, 747, 748, 749, 750, 751, 752, 753, 754, 755, 756, 757, 758, 759, 760, 761, 762, 763, 764, 765, 766, 767, 768, 769, 770, 771, 772, 773, 774, 775, 776, 777, 778, 779, 780, 781, 782, 783, 784, 785, 786, 787, 788, 789, 790, 791, 792, 793, 794, 795, 796, 797, 798, 799, 800, 801, 802, 803, 804, 805, 806, 807, 808, 809, 810, 811, 812, 813, 814, 815, 816, 817, 818, 819, 820, 821, 822, 823, 824, 825, 826, 827, 828, 829, 830, 831, 832, 833, 834, 835, 836, 837, 838, 839, 840, 841, 842, 843, 844, 845, 846, 847, 848, 849, 850, 851, 852, 853, 854, 855, 856, 857, 858, 859, 860, 861, 862, 863, 864, 865, 866, 867, 868, 869, 870, 871, 872],
      "AcquisitionTime": ["132402.452500", "132402.912500", "132403.372500", "132403.832500", "132404.292500", "132404.752500", "132405.212500", "132405.672500", "132406.132500", "132406.592500", "132407.052500", "132407.512500", "132407.972500", "132408.432500", "132408.892500", "132409.352500", "132409.812500", "132410.272500", "132410.732500", "132411.192500", "132411.652500", "132412.112500", "132412.572500", "132413.032500", "132413.492500", "132413.952500", "132414.412500", "132414.872500", "132415.332500", "132415.792500", "132416.252500", "132416.712500", "132417.172500", "132417.632500", "132418.092500", "132418.552500", "132419.012500", "132419.472500", "132419.932500", "132420.392500", "132420.852500", "132421.312500", "132421.772500", "132422.232500", "132422.692500", "132423.152500", "132423.612500", "132424.072500", "132424.532500", "132424.992500", "132425.452500", "132425.912500", "132426.372500", "132426.832500", "132427.292500", "132427.752500", "132428.212500", "132428.672500", "132429.132500", "132429.592500", "132430.052500", "132430.512500", "132430.972500", "132431.432500", "132431.892500", "132432.352500", "132432.812500", "132433.272500", "132433.732500", "132434.192500", "132434.652500", "132435.112500", "132435.572500", "132436.032500", "132436.492500", "132436.952500", "132437.412500", "132437.872500", "132438.332500", "132438.792500", "132439.252500", "132439.712500", "132440.172500", "132440.632500", "132441.092500", "132441.552500", "132442.012500", "132442.472500", "132442.932500", "132443.392500", "132443.852500", "132444.312500", "132444.772500", "132445.232500", "132445.692500", "132446.152500", "132446.612500", "132447.072500", "132447.532500", "132447.992500", "132448.452500", "132448.912500", "132449.372500", "132449.832500", "132450.292500", "132450.752500", "132451.212500", "132451.672500", "132452.132500", "132452.592500", "132453.052500", "132453.512500", "132453.972500", "132454.432500", "132454.892500", "132455.352500", "132455.812500", "132456.272500", "132456.732500", "132457.192500", "132457.652500", "132458.112500", "132458.572500", "132459.032500", "132459.492500", "132459.952500", "132500.412500", "132500.872500", "132501.332500", "132501.792500", "132502.252500", "132502.712500", "132503.172500", "132503.632500", "132504.092500", "132504.552500", "132505.012500", "132505.472500", "132505.932500", "132506.392500", "132506.852500", "132507.312500", "132507.772500", "132508.232500", "132508.692500", "132509.152500", "132509.612500", "132510.072500", "132510.532500", "132510.992500", "132511.452500", "132511.912500", "132512.372500", "132512.832500", "132513.292500", "132513.752500", "132514.212500", "132514.672500", "132515.132500", "132515.592500", "132516.052500", "132516.512500", "132516.972500", "132517.432500", "132517.892500", "132518.352500", "132518.812500", "132519.272500", "132519.732500", "132520.192500", "132520.652500", "132521.112500", "132521.572500", "132522.032500", "132522.492500", "132522.952500", "132523.412500", "132523.872500", "132524.332500", "132524.792500", "132525.252500", "132525.712500", "132526.172500", "132526.632500", "132527.092500", "132527.552500", "132528.012500", "132528.472500", "132528.932500", "132529.392500", "132529.852500", "132530.312500", "132530.772500", "132531.232500", "132531.692500", "132532.152500", "132532.612500", "132533.072500", "132533.532500", "132533.992500", "132534.452500", "132534.912500", "132535.372500", "132535.832500", "132536.292500", "132536.752500", "132537.212500", "132537.672500", "132538.132500", "132538.592500", "132539.052500", "132539.512500", "132539.972500", "132540.432500", "132540.892500", "132541.352500", "132541.812500", "132542.272500", "132542.732500", "132543.192500", "132543.652500", "132544.112500", "132544.572500", "132545.032500", "132545.492500", "132545.952500", "132546.412500", "132546.872500", "132547.332500", "132547.792500", "132548.252500", "132548.712500", "132549.172500", "132549.632500", "132550.092500", "132550.552500", "132551.012500", "132551.472500", "132551.932500", "132552.392500", "132552.852500", "132553.312500", "132553.772500", "132554.232500", "132554.692500", "132555.152500", "132555.612500", "132556.072500", "132556.532500", "132556.992500", "132557.452500", "132557.912500", "132558.372500", "132558.832500", "132559.292500", "132559.752500", "132600.212500", "132600.672500", "132601.132500", "132601.592500", "132602.052500", "132602.512500", "132602.972500", "132603.432500", "132603.892500", "132604.352500", "132604.812500", "132605.272500", "132605.732500", "132606.192500", "132606.652500", "132607.112500", "132607.572500", "132608.032500", "132608.492500", "132608.952500", "132609.412500", "132609.872500", "132610.332500", "132610.792500", "132611.252500", "132611.712500", "132612.172500", "132612.632500", "132613.092500", "132613.552500", "132614.012500", "132614.472500", "132614.932500", "132615.392500", "132615.852500", "132616.312500", "132616.772500", "132617.232500", "132617.692500", "132618.152500", "132618.612500", "132619.072500", "132619.532500", "132619.992500", "132620.452500", "132620.912500", "132621.372500", "132621.832500", "132622.292500", "132622.752500", "132623.212500", "132623.672500", "132624.132500", "132624.592500", "132625.052500", "132625.512500", "132625.972500", "132626.432500", "132626.892500", "132627.352500", "132627.812500", "132628.272500", "132628.732500", "132629.192500", "132629.652500", "132630.112500", "132630.572500", "132631.032500", "132631.492500", "132631.952500", "132632.412500", "132632.872500", "132633.332500", "132633.792500", "132634.252500", "132634.712500", "132635.172500", "132635.632500", "132636.092500", "132636.552500", "132637.012500", "132637.472500", "132637.932500", "132638.392500", "132638.852500", "132639.312500", "132639.772500", "132640.232500", "132640.692500", "132641.152500", "132641.612500", "132642.072500", "132642.532500", "132642.992500", "132643.452500", "132643.912500", "132644.372500", "132644.832500", "132645.292500", "132645.752500", "132646.212500", "132646.672500", "132647.132500", "132647.592500", "132648.052500", "132648.512500", "132648.972500", "132649.432500", "132649.892500", "132650.352500", "132650.812500", "132651.272500", "132651.732500", "132652.192500", "132652.652500", "132653.112500", "132653.572500", "132654.032500", "132654.492500", "132654.952500", "132655.412500", "132655.872500", "132656.332500", "132656.792500", "132657.252500", "132657.712500", "132658.172500", "132658.632500", "132659.092500", "132659.552500", "132700.012500", "132700.472500", "132700.932500", "132701.392500", "132701.852500", "132702.312500", "132702.772500", "132703.232500", "132703.692500", "132704.152500", "132704.612500", "132705.072500", "132705.532500", "132705.992500", "132706.452500", "132706.912500", "132707.372500", "132707.832500", "132708.292500", "132708.752500", "132709.212500", "132709.672500", "132710.132500", "132710.592500", "132711.052500", "132711.512500", "132711.972500", "132712.432500", "132712.892500", "132713.352500", "132713.812500", "132714.272500", "132714.732500", "132715.192500", "132715.652500", "132716.112500", "132716.572500", "132717.032500", "132717.492500", "132717.952500", "132718.412500", "132718.872500", "132719.332500", "132719.792500", "132720.252500", "132720.712500", "132721.172500", "132721.632500", "132722.092500", "132722.552500", "132723.012500", "132723.472500", "132723.932500", "132724.392500", "132724.852500", "132725.312500", "132725.772500", "132726.232500", "132726.692500", "132727.152500", "132727.612500", "132728.072500", "132728.532500", "132728.992500", "132729.452500", "132729.912500", "132730.372500", "132730.832500", "132731.292500", "132731.752500", "132732.212500", "132732.672500", "132733.132500", "132733.592500", "132734.052500", "132734.512500", "132734.972500", "132735.432500", "132735.892500", "132736.352500", "132736.812500", "132737.272500", "132737.732500", "132738.192500", "132738.652500", "132739.112500", "132739.572500", "132740.032500", "132740.492500", "132740.952500", "132741.412500", "132741.872500", "132742.332500", "132742.792500", "132743.252500", "132743.712500", "132744.172500", "132744.632500", "132745.092500", "132745.552500", "132746.012500", "132746.472500", "132746.932500", "132747.392500", "132747.852500", "132748.312500", "132748.772500", "132749.232500", "132749.692500", "132750.152500", "132750.612500", "132751.072500", "132751.532500", "132751.992500", "132752.452500", "132752.912500", "132753.372500", "132753.832500", "132754.292500", "132754.752500", "132755.212500", "132755.672500", "132756.132500", "132756.592500", "132757.052500", "132757.512500", "132757.972500", "132758.432500", "132758.892500", "132759.352500", "132759.812500", "132800.272500", "132800.732500", "132801.192500", "132801.652500", "132802.112500", "132802.572500", "132803.032500", "132803.492500", "132803.952500", "132804.412500", "132804.872500", "132805.332500", "132805.792500", "132806.252500", "132806.712500", "132807.172500", "132807.632500", "132808.092500", "132808.552500", "132809.012500", "132809.472500", "132809.932500", "132810.392500", "132810.852500", "132811.312500", "132811.772500", "132812.232500", "132812.692500", "132813.152500", "132813.612500", "132814.072500", "132814.532500", "132814.992500", "132815.452500", "132815.912500", "132816.372500", "132816.832500", "132817.292500", "132817.752500", "132818.212500", "132818.672500", "132819.132500", "132819.592500", "132820.052500", "132820.512500", "132820.972500", "132821.432500", "132821.892500", "132822.352500", "132822.812500", "132823.272500", "132823.732500", "132824.192500", "132824.652500", "132825.112500", "132825.572500", "132826.032500", "132826.492500", "132826.952500", "132827.412500", "132827.872500", "132828.332500", "132828.792500", "132829.252500", "132829.712500", "132830.172500", "132830.632500", "132831.092500", "132831.552500", "132832.012500", "132832.472500", "132832.932500", "132833.392500", "132833.852500", "132834.312500", "132834.772500", "132835.232500", "132835.692500", "132836.152500", "132836.612500", "132837.072500", "132837.532500", "132837.992500", "132838.452500", "132838.912500", "132839.372500", "132839.832500", "132840.292500", "132840.752500", "132841.212500", "132841.672500", "132842.132500", "132842.592500", "132843.052500", "132843.512500", "132843.972500", "132844.432500", "132844.892500", "132845.352500", "132845.812500", "132846.272500", "132846.732500", "132847.192500", "132847.652500", "132848.112500", "132848.572500", "132849.032500", "132849.492500", "132849.952500", "132850.412500", "132850.872500", "132851.332500", "132851.792500", "132852.252500", "132852.712500", "132853.172500", "132853.632500", "132854.092500", "132854.552500", "132855.012500", "132855.472500", "132855.932500", "132856.392500", "132856.852500", "132857.312500", "132857.772500", "132858.232500", "132858.692500", "132859.152500", "132859.612500", "132900.072500", "132900.532500", "132900.992500", "132901.452500", "132901.912500", "132902.372500", "132902.832500", "132903.292500", "132903.752500", "132904.212500", "132904.672500", "132905.132500", "132905.592500", "132906.052500", "132906.512500", "132906.972500", "132907.432500", "132907.892500", "132908.352500", "132908.812500", "132909.272500", "132909.732500", "132910.192500", "132910.652500", "132911.112500", "132911.572500", "132912.032500", "132912.492500", "132912.952500", "132913.412500", "132913.872500", "132914.332500", "132914.792500", "132915.252500", "132915.712500", "132916.172500", "132916.632500", "132917.092500", "132917.552500", "132918.012500", "132918.472500", "132918.932500", "132919.392500", "132919.852500", "132920.312500", "132920.772500", "132921.232500", "132921.692500", "132922.152500", "132922.612500", "132923.072500", "132923.532500", "132923.992500", "132924.452500", "132924.912500", "132925.372500", "132925.832500", "132926.292500", "132926.752500", "132927.212500", "132927.672500", "132928.132500", "132928.592500", "132929.052500", "132929.512500", "132929.972500", "132930.432500", "132930.892500", "132931.352500", "132931.812500", "132932.272500", "132932.732500", "132933.192500", "132933.652500", "132934.112500", "132934.572500", "132935.032500", "132935.492500", "132935.952500", "132936.412500", "132936.872500", "132937.332500", "132937.792500", "132938.252500", "132938.712500", "132939.172500", "132939.632500", "132940.092500", "132940.552500", "132941.012500", "132941.472500", "132941.932500", "132942.392500", "132942.852500", "132943.312500", "132943.772500", "132944.232500", "132944.692500", "132945.152500", "132945.612500", "132946.072500", "132946.532500", "132946.992500", "132947.452500", "132947.912500", "132948.372500", "132948.832500", "132949.292500", "132949.752500", "132950.212500", "132950.672500", "132951.132500", "132951.592500", "132952.052500", "132952.512500", "132952.972500", "132953.432500", "132953.892500", "132954.352500", "132954.812500", "132955.272500", "132955.732500", "132956.192500", "132956.652500", "132957.112500", "132957.572500", "132958.032500", "132958.492500", "132958.952500", "132959.412500", "132959.872500", "133000.332500", "133000.792500", "133001.252500", "133001.712500", "133002.172500", "133002.632500", "133003.092500", "133003.552500", "133004.012500", "133004.472500", "133004.932500", "133005.392500", "133005.852500", "133006.312500", "133006.772500", "133007.232500", "133007.692500", "133008.152500", "133008.612500", "133009.072500", "133009.532500", "133009.992500", "133010.452500", "133010.912500", "133011.372500", "133011.832500", "133012.292500", "133012.752500", "133013.212500", "133013.672500", "133014.132500", "133014.592500", "133015.052500", "133015.512500", "133015.972500", "133016.432500", "133016.892500", "133017.352500", "133017.812500", "133018.272500", "133018.732500", "133019.192500", "133019.652500", "133020.112500", "133020.572500", "133021.032500", "133021.492500", "133021.952500", "133022.412500", "133022.872500", "133023.332500", "133023.792500", "133024.252500", "133024.712500", "133025.172500", "133025.632500", "133026.092500", "133026.552500", "133027.012500", "133027.472500", "133027.932500", "133028.392500", "133028.852500", "133029.312500", "133029.772500", "133030.232500", "133030.692500", "133031.152500", "133031.612500", "133032.072500", "133032.532500", "133032.992500", "133033.452500", "133033.912500", "133034.372500", "133034.832500", "133035.292500", "133035.752500", "133036.212500", "133036.672500", "133037.132500", "133037.592500", "133038.052500", "133038.512500", "133038.972500", "133039.432500", "133039.892500", "133040.352500", "133040.812500", "133041.272500", "133041.732500", "133042.192500", "133042.652500", "133043.112500"],
