{
  "AcquisitionMatrixPE": 82,
  "AcquisitionNumber": 1,
  "AcquisitionTime": "13:39:31.457500",
  "BandwidthPerPixelPhaseEncode": 24.888,
  "BaseResolution": 82,
  "BodyPartExamined": "BRAIN",
  "ConsistencyInfo": "N4_VE11C_LATEST_20160120",
  "ConversionSoftware": "dcm2niix",
  "ConversionSoftwareVersion": "v1.0.20201102",
  "DerivedVendorReportedEchoSpacing": 0.00049,
  "DeviceSerialNumber": "66112",
  "DwellTime": 2e-06,
  "EchoTime": 0.0272,
  "EchoTrainLength": 82,
  "EffectiveEchoSpacing": 0.00049,
  "FlipAngle": 44,
  "ImageComments": "Unaliased MB8/PE3",
  "ImageOrientationPatientDICOM": [0.993762, -0.0593739, 0.0943986, 0.0694906, 0.991744, -0.107771],
  "ImageType": [
    "ORIGINAL",
    "PRIMARY",
    "M",
    "MB",
    "ND",
    "NORM",
    "MOSAIC"
],
  "ImagingFrequency": 123.252,
  "InPlanePhaseEncodingDirectionDICOM": "COL",
  "InstitutionAddress": "Maynard 3,Hanover,NH,US,03755",
  "InstitutionName": "Dartmouth College - PBS",
  "InstitutionalDepartmentName": "Department",
  "MRAcquisitionType": "2D",
  "MagneticFieldStrength": 3,
  "Manufacturer": "Siemens",
  "ManufacturersModelName": "Prisma",
  "Modality": "MR",
  "MultibandAccelerationFactor": 8,
  "PartialFourier": 1,
  "PatientPosition": "HFS",
  "PercentPhaseFOV": 100,
  "PercentSampling": 100,
  "PhaseEncodingDirection": "j-",
  "PhaseEncodingSteps": 82,
  "PhaseResolution": 1,
  "PixelBandwidth": 3050,
  "ProcedureStepDescription": "Wager_Wager^1076_spacetop",
  "ProtocolName": "func_run-05_task-social_acq-ap-mb8",
  "PulseSequenceDetails": "%CustomerSeq%\\cmrr_mbep2d_bold",
  "ReceiveCoilActiveElements": "HEA;HEP",
  "ReceiveCoilName": "Head_32",
  "ReconMatrixPE": 82,
  "RepetitionTime": 0.46,
  "SAR": 0.0896896,
  "ScanOptions": "FS",
  "ScanningSequence": "EP",
  "SequenceName": "epfid2d1_82",
  "SequenceVariant": "SK\\SS",
  "SeriesDescription": "func_run-05_task-social_acq-ap-mb8",
  "SeriesNumber": 16,
  "ShimSetting": [4158, -7781, -7216, 595, -149, -185, -102, 5],
  "SliceThickness": 2.7,
  "SliceTiming": [0, 0.2525, 0.0625, 0.315, 0.125, 0.3775, 0.19, 0, 0.2525, 0.0625, 0.315, 0.125, 0.3775, 0.19, 0, 0.2525, 0.0625, 0.315, 0.125, 0.3775, 0.19, 0, 0.2525, 0.0625, 0.315, 0.125, 0.3775, 0.19, 0, 0.2525, 0.0625, 0.315, 0.125, 0.3775, 0.19, 0, 0.2525, 0.0625, 0.315, 0.125, 0.3775, 0.19, 0, 0.2525, 0.0625, 0.315, 0.125, 0.3775, 0.19, 0, 0.2525, 0.0625, 0.315, 0.125, 0.3775, 0.19],
  "SoftwareVersions": "syngo MR E11",
  "SpacingBetweenSlices": 2.7,
  "StationName": "AWP66112",
  "TaskName": "social",
  "TotalReadoutTime": 0.03969,
  "TxRefAmp": 242.278,
  "WipMemBlock": "04b2dc13-09e0-411d-a1a8-157487a86bf5||Sequence: R016 ve11c/master r/e634e98; Dec 19 2017 11:00:25 by eja",
  "dcmmeta_affine": [
    [-2.666191816329956, 0.18643832206726074, 0.23549532890319824, 98.18782806396484],
    [0.15929588675498962, 2.6607770919799805, -0.3068787157535553, -101.95337677001953],
    [0.2532646358013153, 0.2891422510147095, 2.6721465587615967, -86.41835021972656],
    [0.0, 0.0, 0.0, 1.0]
],
  "dcmmeta_reorient_transform": [
    [0.0, -1.0, 0.0, 81.0],
    [1.0, 0.0, 0.0, 0.0],
    [0.0, 0.0, 1.0, 0.0],
    [0.0, 0.0, 0.0, 1.0]
],
  "dcmmeta_shape": [82, 82, 56, 872],
  "dcmmeta_slice_dim": 2,
  "dcmmeta_version": 0.6,
  "global": {
    "const": {
      "AccessionNumber": "A003850",
      "AcquisitionMatrix": [82, 0, 0, 82],
      "AngioFlag": "N",
      "BitsAllocated": 16,
      "BitsStored": 16,
      "BodyPartExamined": "BRAIN",
      "Columns": 656,
      "EchoNumbers": 1,
      "EchoTime": 27.2,
      "EchoTrainLength": 82,
      "FlipAngle": 44.0,
      "HighBit": 15,
      "ImageOrientationPatient": [0.99376236398154, -0.0593739174409, 0.09439863273127, 0.06949064513481, 0.99174412991914, -0.1077711974958],
      "ImagePositionPatient": [-931.99416728429, -831.49464424261, -52.700953761813],
      "ImageType": [
        "ORIGINAL",
        "PRIMARY",
        "M",
        "MB",
        "ND",
        "NORM",
        "MOSAIC"
],
      "ImagedNucleus": "1H",
      "ImagingFrequency": 123.252193,
      "InPlanePhaseEncodingDirection": "COL",
      "MRAcquisitionType": "2D",
      "MagneticFieldStrength": 3.0,
      "Manufacturer": "SIEMENS",
      "ManufacturerModelName": "Prisma",
      "Modality": "MR",
      "NumberOfAverages": 1.0,
      "NumberOfPhaseEncodingSteps": 82,
      "PercentPhaseFieldOfView": 100.0,
      "PercentSampling": 100.0,
      "PerformedProcedureStepStartTime": "125425.154000",
      "PhotometricInterpretation": "MONOCHROME2",
      "PixelBandwidth": 3050.0,
      "PixelRepresentation": 0,
      "PixelSpacing": [2.6829268932343, 2.6829268932343],
      "ProtocolName": "func_run-05_task-social_acq-ap-mb8",
      "RepetitionTime": 460.0,
      "Rows": 656,
      "SAR": 0.0896896061649,
      "SamplesPerPixel": 1,
      "ScanOptions": "FS",
      "ScanningSequence": "EP",
      "SequenceName": "epfid2d1_82",
      "SequenceVariant": [
        "SK",
        "SS"
],
      "SeriesDescription": "func_run-05_task-social_acq-ap-mb8",
      "SeriesNumber": 16,
      "SeriesTime": "133945.703000",
      "SliceLocation": -65.374965528506,
      "SliceThickness": 2.7000000476837,
      "SmallestImagePixelValue": 0,
      "SoftwareVersions": "syngo MR E11",
      "SpacingBetweenSlices": 2.7000000150847,
      "SpecificCharacterSet": "ISO_IR 100",
      "StudyID": "1",
      "StudyTime": "125425.017000",
      "TransmitCoilName": "Body",
      "VariableFlipAngleFlag": "N",
      "WindowCenterWidthExplanation": "Algo1",
      "dBdt": 0.0},
    "slices": {}
  },
  "time": {
    "samples": {
      "AcquisitionNumber": [1, 2, 3, 4, 5, 6, 7, 8, 9, 10, 11, 12, 13, 14, 15, 16, 17, 18, 19, 20, 21, 22, 23, 24, 25, 26, 27, 28, 29, 30, 31, 32, 33, 34, 35, 36, 37, 38, 39, 40, 41, 42, 43, 44, 45, 46, 47, 48, 49, 50, 51, 52, 53, 54, 55, 56, 57, 58, 59, 60, 61, 62, 63, 64, 65, 66, 67, 68, 69, 70, 71, 72, 73, 74, 75, 76, 77, 78, 79, 80, 81, 82, 83, 84, 85, 86, 87, 88, 89, 90, 91, 92, 93, 94, 95, 96, 97, 98, 99, 100, 101, 102, 103, 104, 105, 106, 107, 108, 109, 110, 111, 112, 113, 114, 115, 116, 117, 118, 119, 120, 121, 122, 123, 124, 125, 126, 127, 128, 129, 130, 131, 132, 133, 134, 135, 136, 137, 138, 139, 140, 141, 142, 143, 144, 145, 146, 147, 148, 149, 150, 151, 152, 153, 154, 155, 156, 157, 158, 159, 160, 161, 162, 163, 164, 165, 166, 167, 168, 169, 170, 171, 172, 173, 174, 175, 176, 177, 178, 179, 180, 181, 182, 183, 184, 185, 186, 187, 188, 189, 190, 191, 192, 193, 194, 195, 196, 197, 198, 199, 200, 201, 202, 203, 204, 205, 206, 207, 208, 209, 210, 211, 212, 213, 214, 215, 216, 217, 218, 219, 220, 221, 222, 223, 224, 225, 226, 227, 228, 229, 230, 231, 232, 233, 234, 235, 236, 237, 238, 239, 240, 241, 242, 243, 244, 245, 246, 247, 248, 249, 250, 251, 252, 253, 254, 255, 256, 257, 258, 259, 260, 261, 262, 263, 264, 265, 266, 267, 268, 269, 270, 271, 272, 273, 274, 275, 276, 277, 278, 279, 280, 281, 282, 283, 284, 285, 286, 287, 288, 289, 290, 291, 292, 293, 294, 295, 296, 297, 298, 299, 300, 301, 302, 303, 304, 305, 306, 307, 308, 309, 310, 311, 312, 313, 314, 315, 316, 317, 318, 319, 320, 321, 322, 323, 324, 325, 326, 327, 328, 329, 330, 331, 332, 333, 334, 335, 336, 337, 338, 339, 340, 341, 342, 343, 344, 345, 346, 347, 348, 349, 350, 351, 352, 353, 354, 355, 356, 357, 358, 359, 360, 361, 362, 363, 364, 365, 366, 367, 368, 369, 370, 371, 372, 373, 374, 375, 376, 377, 378, 379, 380, 381, 382, 383, 384, 385, 386, 387, 388, 389, 390, 391, 392, 393, 394, 395, 396, 397, 398, 399, 400, 401, 402, 403, 404, 405, 406, 407, 408, 409, 410, 411, 412, 413, 414, 415, 416, 417, 418, 419, 420, 421, 422, 423, 424, 425, 426, 427, 428, 429, 430, 431, 432, 433, 434, 435, 436, 437, 438, 439, 440, 441, 442, 443, 444, 445, 446, 447, 448, 449, 450, 451, 452, 453, 454, 455, 456, 457, 458, 459, 460, 461, 462, 463, 464, 465, 466, 467, 468, 469, 470, 471, 472, 473, 474, 475, 476, 477, 478, 479, 480, 481, 482, 483, 484, 485, 486, 487, 488, 489, 490, 491, 492, 493, 494, 495, 496, 497, 498, 499, 500, 501, 502, 503, 504, 505, 506, 507, 508, 509, 510, 511, 512, 513, 514, 515, 516, 517, 518, 519, 520, 521, 522, 523, 524, 525, 526, 527, 528, 529, 530, 531, 532, 533, 534, 535, 536, 537, 538, 539, 540, 541, 542, 543, 544, 545, 546, 547, 548, 549, 550, 551, 552, 553, 554, 555, 556, 557, 558, 559, 560, 561, 562, 563, 564, 565, 566, 567, 568, 569, 570, 571, 572, 573, 574, 575, 576, 577, 578, 579, 580, 581, 582, 583, 584, 585, 586, 587, 588, 589, 590, 591, 592, 593, 594, 595, 596, 597, 598, 599, 600, 601, 602, 603, 604, 605, 606, 607, 608, 609, 610, 611, 612, 613, 614, 615, 616, 617, 618, 619, 620, 621, 622, 623, 624, 625, 626, 627, 628, 629, 630, 631, 632, 633, 634, 635, 636, 637, 638, 639, 640, 641, 642, 643, 644, 645, 646, 647, 648, 649, 650, 651, 652, 653, 654, 655, 656, 657, 658, 659, 660, 661, 662, 663, 664, 665, 666, 667, 668, 669, 670, 671, 672, 673, 674, 675, 676, 677, 678, 679, 680, 681, 682, 683, 684, 685, 686, 687, 688, 689, 690, 691, 692, 693, 694, 695, 696, 697, 698, 699, 700, 701, 702, 703, 704, 705, 706, 707, 708, 709, 710, 711, 712, 713, 714, 715, 716, 717, 718, 719, 720, 721, 722, 723, 724, 725, 726, 727, 728, 729, 730, 731, 732, 733, 734, 735, 736, 737, 738, 739, 740, 741, 742, 743, 744, 745, 746, 747, 748, 749, 750, 751, 752, 753, 754, 755, 756, 757, 758, 759, 760, 761, 762, 763, 764, 765, 766, 767, 768, 769, 770, 771, 772, 773, 774, 775, 776, 777, 778, 779, 780, 781, 782, 783, 784, 785, 786, 787, 788, 789, 790, 791, 792, 793, 794, 795, 796, 797, 798, 799, 800, 801, 802, 803, 804, 805, 806, 807, 808, 809, 810, 811, 812, 813, 814, 815, 816, 817, 818, 819, 820, 821, 822, 823, 824, 825, 826, 827, 828, 829, 830, 831, 832, 833, 834, 835, 836, 837, 838, 839, 840, 841, 842, 843, 844, 845, 846, 847, 848, 849, 850, 851, 852, 853, 854, 855, 856, 857, 858, 859, 860, 861, 862, 863, 864, 865, 866, 867, 868, 869, 870, 871, 872],
      "AcquisitionTime": ["133931.457500", "133931.917500", "133932.377500", "133932.837500", "133933.297500", "133933.757500", "133934.217500", "133934.677500", "133935.137500", "133935.597500", "133936.057500", "133936.517500", "133936.977500", "133937.437500", "133937.897500", "133938.357500", "133938.817500", "133939.277500", "133939.737500", "133940.197500", "133940.657500", "133941.117500", "133941.577500", "133942.037500", "133942.497500", "133942.957500", "133943.417500", "133943.877500", "133944.337500", "133944.797500", "133945.257500", "133945.717500", "133946.177500", "133946.637500", "133947.097500", "133947.557500", "133948.017500", "133948.477500", "133948.937500", "133949.397500", "133949.857500", "133950.317500", "133950.777500", "133951.237500", "133951.697500", "133952.157500", "133952.617500", "133953.077500", "133953.537500", "133953.997500", "133954.457500", "133954.917500", "133955.377500", "133955.837500", "133956.297500", "133956.757500", "133957.217500", "133957.677500", "133958.137500", "133958.597500", "133959.057500", "133959.517500", "133959.977500", "134000.437500", "134000.897500", "134001.357500", "134001.817500", "134002.277500", "134002.737500", "134003.197500", "134003.657500", "134004.117500", "134004.577500", "134005.037500", "134005.497500", "134005.957500", "134006.417500", "134006.877500", "134007.337500", "134007.797500", "134008.257500", "134008.717500", "134009.177500", "134009.637500", "134010.097500", "134010.557500", "134011.017500", "134011.477500", "134011.937500", "134012.397500", "134012.857500", "134013.317500", "134013.777500", "134014.237500", "134014.697500", "134015.157500", "134015.617500", "134016.077500", "134016.537500", "134016.997500", "134017.457500", "134017.917500", "134018.377500", "134018.837500", "134019.297500", "134019.757500", "134020.217500", "134020.677500", "134021.137500", "134021.597500", "134022.057500", "134022.517500", "134022.977500", "134023.437500", "134023.897500", "134024.357500", "134024.817500", "134025.277500", "134025.737500", "134026.197500", "134026.657500", "134027.117500", "134027.577500", "134028.037500", "134028.497500", "134028.957500", "134029.417500", "134029.877500", "134030.337500", "134030.797500", "134031.257500", "134031.717500", "134032.177500", "134032.637500", "134033.097500", "134033.557500", "134034.017500", "134034.477500", "134034.937500", "134035.397500", "134035.857500", "134036.317500", "134036.777500", "134037.237500", "134037.697500", "134038.157500", "134038.617500", "134039.077500", "134039.537500", "134039.997500", "134040.457500", "134040.917500", "134041.377500", "134041.837500", "134042.297500", "134042.757500", "134043.217500", "134043.677500", "134044.137500", "134044.597500", "134045.057500", "134045.517500", "134045.977500", "134046.437500", "134046.897500", "134047.357500", "134047.817500", "134048.277500", "134048.737500", "134049.197500", "134049.657500", "134050.117500", "134050.577500", "134051.037500", "134051.497500", "134051.957500", "134052.417500", "134052.877500", "134053.337500", "134053.797500", "134054.257500", "134054.717500", "134055.177500", "134055.637500", "134056.097500", "134056.557500", "134057.017500", "134057.477500", "134057.937500", "134058.397500", "134058.857500", "134059.317500", "134059.777500", "134100.237500", "134100.697500", "134101.157500", "134101.617500", "134102.077500", "134102.537500", "134102.997500", "134103.457500", "134103.917500", "134104.377500", "134104.837500", "134105.297500", "134105.757500", "134106.217500", "134106.677500", "134107.137500", "134107.597500", "134108.057500", "134108.517500", "134108.977500", "134109.437500", "134109.897500", "134110.357500", "134110.817500", "134111.277500", "134111.737500", "134112.197500", "134112.657500", "134113.117500", "134113.577500", "134114.037500", "134114.497500", "134114.957500", "134115.417500", "134115.877500", "134116.337500", "134116.797500", "134117.257500", "134117.717500", "134118.177500", "134118.637500", "134119.097500", "134119.557500", "134120.017500", "134120.477500", "134120.937500", "134121.397500", "134121.857500", "134122.317500", "134122.777500", "134123.237500", "134123.697500", "134124.157500", "134124.617500", "134125.077500", "134125.537500", "134125.997500", "134126.457500", "134126.917500", "134127.377500", "134127.837500", "134128.297500", "134128.757500", "134129.217500", "134129.677500", "134130.137500", "134130.597500", "134131.057500", "134131.517500", "134131.977500", "134132.437500", "134132.897500", "134133.357500", "134133.817500", "134134.277500", "134134.737500", "134135.197500", "134135.657500", "134136.117500", "134136.577500", "134137.037500", "134137.497500", "134137.957500", "134138.417500", "134138.877500", "134139.337500", "134139.797500", "134140.257500", "134140.717500", "134141.177500", "134141.637500", "134142.097500", "134142.557500", "134143.017500", "134143.477500", "134143.937500", "134144.397500", "134144.857500", "134145.317500", "134145.777500", "134146.237500", "134146.697500", "134147.157500", "134147.617500", "134148.077500", "134148.537500", "134148.997500", "134149.457500", "134149.917500", "134150.377500", "134150.837500", "134151.297500", "134151.757500", "134152.217500", "134152.677500", "134153.137500", "134153.597500", "134154.057500", "134154.517500", "134154.977500", "134155.437500", "134155.897500", "134156.357500", "134156.817500", "134157.277500", "134157.737500", "134158.197500", "134158.657500", "134159.117500", "134159.577500", "134200.037500", "134200.497500", "134200.957500", "134201.417500", "134201.877500", "134202.337500", "134202.797500", "134203.257500", "134203.717500", "134204.177500", "134204.637500", "134205.097500", "134205.557500", "134206.017500", "134206.477500", "134206.937500", "134207.397500", "134207.857500", "134208.317500", "134208.777500", "134209.237500", "134209.697500", "134210.157500", "134210.617500", "134211.077500", "134211.537500", "134211.997500", "134212.457500", "134212.917500", "134213.377500", "134213.837500", "134214.297500", "134214.757500", "134215.217500", "134215.677500", "134216.137500", "134216.597500", "134217.057500", "134217.517500", "134217.977500", "134218.437500", "134218.897500", "134219.357500", "134219.817500", "134220.277500", "134220.737500", "134221.197500", "134221.657500", "134222.117500", "134222.577500", "134223.037500", "134223.497500", "134223.957500", "134224.417500", "134224.877500", "134225.337500", "134225.797500", "134226.257500", "134226.717500", "134227.177500", "134227.637500", "134228.097500", "134228.557500", "134229.017500", "134229.477500", "134229.937500", "134230.397500", "134230.857500", "134231.317500", "134231.777500", "134232.237500", "134232.697500", "134233.157500", "134233.617500", "134234.077500", "134234.537500", "134234.997500", "134235.457500", "134235.917500", "134236.377500", "134236.837500", "134237.297500", "134237.757500", "134238.217500", "134238.677500", "134239.137500", "134239.597500", "134240.057500", "134240.517500", "134240.977500", "134241.437500", "134241.897500", "134242.357500", "134242.817500", "134243.277500", "134243.737500", "134244.197500", "134244.657500", "134245.117500", "134245.577500", "134246.037500", "134246.497500", "134246.957500", "134247.417500", "134247.877500", "134248.337500", "134248.797500", "134249.257500", "134249.717500", "134250.177500", "134250.637500", "134251.097500", "134251.557500", "134252.017500", "134252.477500", "134252.937500", "134253.397500", "134253.857500", "134254.317500", "134254.777500", "134255.237500", "134255.697500", "134256.157500", "134256.617500", "134257.077500", "134257.537500", "134257.997500", "134258.457500", "134258.917500", "134259.377500", "134259.837500", "134300.297500", "134300.757500", "134301.217500", "134301.677500", "134302.137500", "134302.597500", "134303.057500", "134303.517500", "134303.977500", "134304.437500", "134304.897500", "134305.357500", "134305.817500", "134306.277500", "134306.737500", "134307.197500", "134307.657500", "134308.117500", "134308.577500", "134309.037500", "134309.497500", "134309.957500", "134310.417500", "134310.877500", "134311.337500", "134311.797500", "134312.257500", "134312.717500", "134313.177500", "134313.637500", "134314.097500", "134314.557500", "134315.017500", "134315.477500", "134315.937500", "134316.397500", "134316.857500", "134317.317500", "134317.777500", "134318.237500", "134318.697500", "134319.157500", "134319.617500", "134320.077500", "134320.537500", "134320.997500", "134321.457500", "134321.917500", "134322.377500", "134322.837500", "134323.297500", "134323.757500", "134324.217500", "134324.677500", "134325.137500", "134325.597500", "134326.057500", "134326.517500", "134326.977500", "134327.437500", "134327.897500", "134328.357500", "134328.817500", "134329.277500", "134329.737500", "134330.197500", "134330.657500", "134331.117500", "134331.577500", "134332.037500", "134332.497500", "134332.957500", "134333.417500", "134333.877500", "134334.337500", "134334.797500", "134335.257500", "134335.717500", "134336.177500", "134336.637500", "134337.097500", "134337.557500", "134338.017500", "134338.477500", "134338.937500", "134339.397500", "134339.857500", "134340.317500", "134340.777500", "134341.237500", "134341.697500", "134342.157500", "134342.617500", "134343.077500", "134343.537500", "134343.997500", "134344.457500", "134344.917500", "134345.377500", "134345.837500", "134346.297500", "134346.757500", "134347.217500", "134347.677500", "134348.137500", "134348.597500", "134349.057500", "134349.517500", "134349.977500", "134350.437500", "134350.897500", "134351.357500", "134351.817500", "134352.277500", "134352.737500", "134353.197500", "134353.657500", "134354.117500", "134354.577500", "134355.037500", "134355.497500", "134355.957500", "134356.417500", "134356.877500", "134357.337500", "134357.797500", "134358.257500", "134358.717500", "134359.177500", "134359.637500", "134400.097500", "134400.557500", "134401.017500", "134401.477500", "134401.937500", "134402.397500", "134402.857500", "134403.317500", "134403.777500", "134404.237500", "134404.697500", "134405.157500", "134405.617500", "134406.077500", "134406.537500", "134406.997500", "134407.457500", "134407.917500", "134408.377500", "134408.837500", "134409.297500", "134409.757500", "134410.217500", "134410.677500", "134411.137500", "134411.597500", "134412.057500", "134412.517500", "134412.977500", "134413.437500", "134413.897500", "134414.357500", "134414.817500", "134415.277500", "134415.737500", "134416.197500", "134416.657500", "134417.117500", "134417.577500", "134418.037500", "134418.497500", "134418.957500", "134419.417500", "134419.877500", "134420.337500", "134420.797500", "134421.257500", "134421.717500", "134422.177500", "134422.637500", "134423.097500", "134423.557500", "134424.017500", "134424.477500", "134424.937500", "134425.397500", "134425.857500", "134426.317500", "134426.777500", "134427.237500", "134427.697500", "134428.157500", "134428.617500", "134429.077500", "134429.537500", "134429.997500", "134430.457500", "134430.917500", "134431.377500", "134431.837500", "134432.297500", "134432.757500", "134433.217500", "134433.677500", "134434.137500", "134434.597500", "134435.057500", "134435.517500", "134435.977500", "134436.437500", "134436.897500", "134437.357500", "134437.817500", "134438.277500", "134438.737500", "134439.197500", "134439.657500", "134440.117500", "134440.577500", "134441.037500", "134441.497500", "134441.957500", "134442.417500", "134442.877500", "134443.337500", "134443.797500", "134444.257500", "134444.717500", "134445.177500", "134445.637500", "134446.097500", "134446.557500", "134447.017500", "134447.477500", "134447.937500", "134448.397500", "134448.857500", "134449.317500", "134449.777500", "134450.237500", "134450.697500", "134451.157500", "134451.617500", "134452.077500", "134452.537500", "134452.997500", "134453.457500", "134453.917500", "134454.377500", "134454.837500", "134455.297500", "134455.757500", "134456.217500", "134456.677500", "134457.137500", "134457.597500", "134458.057500", "134458.517500", "134458.977500", "134459.437500", "134459.897500", "134500.357500", "134500.817500", "134501.277500", "134501.737500", "134502.197500", "134502.657500", "134503.117500", "134503.577500", "134504.037500", "134504.497500", "134504.957500", "134505.417500", "134505.877500", "134506.337500", "134506.797500", "134507.257500", "134507.717500", "134508.177500", "134508.637500", "134509.097500", "134509.557500", "134510.017500", "134510.477500", "134510.937500", "134511.397500", "134511.857500", "134512.317500", "134512.777500", "134513.237500", "134513.697500", "134514.157500", "134514.617500", "134515.077500", "134515.537500", "134515.997500", "134516.457500", "134516.917500", "134517.377500", "134517.837500", "134518.297500", "134518.757500", "134519.217500", "134519.677500", "134520.137500", "134520.597500", "134521.057500", "134521.517500", "134521.977500", "134522.437500", "134522.897500", "134523.357500", "134523.817500", "134524.277500", "134524.737500", "134525.197500", "134525.657500", "134526.117500", "134526.577500", "134527.037500", "134527.497500", "134527.957500", "134528.417500", "134528.877500", "134529.337500", "134529.797500", "134530.257500", "134530.717500", "134531.177500", "134531.637500", "134532.097500", "134532.557500", "134533.017500", "134533.477500", "134533.937500", "134534.397500", "134534.857500", "134535.317500", "134535.777500", "134536.237500", "134536.697500", "134537.157500", "134537.617500", "134538.077500", "134538.537500", "134538.997500", "134539.457500", "134539.917500", "134540.377500", "134540.837500", "134541.297500", "134541.757500", "134542.217500", "134542.677500", "134543.137500", "134543.597500", "134544.057500", "134544.517500", "134544.977500", "134545.437500", "134545.897500", "134546.357500", "134546.817500", "134547.277500", "134547.737500", "134548.197500", "134548.657500", "134549.117500", "134549.577500", "134550.037500", "134550.497500", "134550.957500", "134551.417500", "134551.877500", "134552.337500", "134552.797500", "134553.257500", "134553.717500", "134554.177500", "134554.637500", "134555.097500", "134555.557500", "134556.017500", "134556.477500", "134556.937500", "134557.397500", "134557.857500", "134558.317500", "134558.777500", "134559.237500", "134559.697500", "134600.157500", "134600.617500", "134601.077500", "134601.537500", "134601.997500", "134602.457500", "134602.917500", "134603.377500", "134603.837500", "134604.297500", "134604.757500", "134605.217500", "134605.677500", "134606.137500", "134606.597500", "134607.057500", "134607.517500", "134607.977500", "134608.437500", "134608.897500", "134609.357500", "134609.817500", "134610.277500", "134610.737500", "134611.197500", "134611.657500", "134612.117500"],
