{
  "AcquisitionMatrixPE": 82,
  "AcquisitionNumber": 1,
  "AcquisitionTime": "13:31:3.200000",
  "BandwidthPerPixelPhaseEncode": 24.888,
  "BaseResolution": 82,
  "BodyPartExamined": "BRAIN",
  "ConsistencyInfo": "N4_VE11C_LATEST_20160120",
  "ConversionSoftware": "dcm2niix",
  "ConversionSoftwareVersion": "v1.0.20201102",
  "DerivedVendorReportedEchoSpacing": 0.00049,
  "DeviceSerialNumber": "66112",
  "DwellTime": 2e-06,
  "EchoTime": 0.0272,
  "EchoTrainLength": 82,
  "EffectiveEchoSpacing": 0.00049,
  "FlipAngle": 44,
  "ImageComments": "Unaliased MB8/PE3",
  "ImageOrientationPatientDICOM": [0.993762, -0.0593739, 0.0943986, 0.0694906, 0.991744, -0.107771],
  "ImageType": [
    "ORIGINAL",
    "PRIMARY",
    "M",
    "MB",
    "ND",
    "NORM",
    "MOSAIC"
],
  "ImagingFrequency": 123.252,
  "InPlanePhaseEncodingDirectionDICOM": "COL",
  "InstitutionAddress": "Maynard 3,Hanover,NH,US,03755",
  "InstitutionName": "Dartmouth College - PBS",
  "InstitutionalDepartmentName": "Department",
  "MRAcquisitionType": "2D",
  "MagneticFieldStrength": 3,
  "Manufacturer": "Siemens",
  "ManufacturersModelName": "Prisma",
  "Modality": "MR",
  "MultibandAccelerationFactor": 8,
  "PartialFourier": 1,
  "PatientPosition": "HFS",
  "PercentPhaseFOV": 100,
  "PercentSampling": 100,
  "PhaseEncodingDirection": "j-",
  "PhaseEncodingSteps": 82,
  "PhaseResolution": 1,
  "PixelBandwidth": 3050,
  "ProcedureStepDescription": "Wager_Wager^1076_spacetop",
  "ProtocolName": "func_run-04_task-social_acq-ap-mb8",
  "PulseSequenceDetails": "%CustomerSeq%\\cmrr_mbep2d_bold",
  "ReceiveCoilActiveElements": "HEA;HEP",
  "ReceiveCoilName": "Head_32",
  "ReconMatrixPE": 82,
  "RepetitionTime": 0.46,
  "SAR": 0.0896896,
  "ScanOptions": "FS",
  "ScanningSequence": "EP",
  "SequenceName": "epfid2d1_82",
  "SequenceVariant": "SK\\SS",
  "SeriesDescription": "func_run-04_task-social_acq-ap-mb8",
  "SeriesNumber": 14,
  "ShimSetting": [4158, -7781, -7216, 595, -149, -185, -102, 5],
  "SliceThickness": 2.7,
  "SliceTiming": [0, 0.2525, 0.0625, 0.315, 0.125, 0.3775, 0.19, 0, 0.2525, 0.0625, 0.315, 0.125, 0.3775, 0.19, 0, 0.2525, 0.0625, 0.315, 0.125, 0.3775, 0.19, 0, 0.2525, 0.0625, 0.315, 0.125, 0.3775, 0.19, 0, 0.2525, 0.0625, 0.315, 0.125, 0.3775, 0.19, 0, 0.2525, 0.0625, 0.315, 0.125, 0.3775, 0.19, 0, 0.2525, 0.0625, 0.315, 0.125, 0.3775, 0.19, 0, 0.2525, 0.0625, 0.315, 0.125, 0.3775, 0.19],
  "SoftwareVersions": "syngo MR E11",
  "SpacingBetweenSlices": 2.7,
  "StationName": "AWP66112",
  "TaskName": "social",
  "TotalReadoutTime": 0.03969,
  "TxRefAmp": 242.278,
  "WipMemBlock": "2e1fb8f0-05f9-43d3-9caf-06244aaced50||Sequence: R016 ve11c/master r/e634e98; Dec 19 2017 11:00:25 by eja",
  "dcmmeta_affine": [
    [-2.666191816329956, 0.18643832206726074, 0.23549532890319824, 98.18782806396484],
    [0.15929588675498962, 2.6607770919799805, -0.3068787157535553, -101.95337677001953],
    [0.2532646358013153, 0.2891422510147095, 2.6721465587615967, -86.41835021972656],
    [0.0, 0.0, 0.0, 1.0]
],
  "dcmmeta_reorient_transform": [
    [0.0, -1.0, 0.0, 81.0],
    [1.0, 0.0, 0.0, 0.0],
    [0.0, 0.0, 1.0, 0.0],
    [0.0, 0.0, 0.0, 1.0]
],
  "dcmmeta_shape": [82, 82, 56, 872],
  "dcmmeta_slice_dim": 2,
  "dcmmeta_version": 0.6,
  "global": {
    "const": {
      "AccessionNumber": "A003850",
      "AcquisitionMatrix": [82, 0, 0, 82],
      "AngioFlag": "N",
      "BitsAllocated": 16,
      "BitsStored": 16,
      "BodyPartExamined": "BRAIN",
      "Columns": 656,
      "EchoNumbers": 1,
      "EchoTime": 27.2,
      "EchoTrainLength": 82,
      "FlipAngle": 44.0,
      "HighBit": 15,
      "ImageOrientationPatient": [0.99376236398154, -0.0593739174409, 0.09439863273127, 0.06949064513481, 0.99174412991914, -0.1077711974958],
      "ImagePositionPatient": [-931.99416728429, -831.49464424261, -52.700953761813],
      "ImageType": [
        "ORIGINAL",
        "PRIMARY",
        "M",
        "MB",
        "ND",
        "NORM",
        "MOSAIC"
],
      "ImagedNucleus": "1H",
      "ImagingFrequency": 123.252188,
      "InPlanePhaseEncodingDirection": "COL",
      "MRAcquisitionType": "2D",
      "MagneticFieldStrength": 3.0,
      "Manufacturer": "SIEMENS",
      "ManufacturerModelName": "Prisma",
      "Modality": "MR",
      "NumberOfAverages": 1.0,
      "NumberOfPhaseEncodingSteps": 82,
      "PercentPhaseFieldOfView": 100.0,
      "PercentSampling": 100.0,
      "PerformedProcedureStepStartTime": "125425.154000",
      "PhotometricInterpretation": "MONOCHROME2",
      "PixelBandwidth": 3050.0,
      "PixelRepresentation": 0,
      "PixelSpacing": [2.6829268932343, 2.6829268932343],
      "ProtocolName": "func_run-04_task-social_acq-ap-mb8",
      "RepetitionTime": 460.0,
      "Rows": 656,
      "SAR": 0.0896896061649,
      "SamplesPerPixel": 1,
      "ScanOptions": "FS",
      "ScanningSequence": "EP",
      "SequenceName": "epfid2d1_82",
      "SequenceVariant": [
        "SK",
        "SS"
],
      "SeriesDescription": "func_run-04_task-social_acq-ap-mb8",
      "SeriesNumber": 14,
      "SeriesTime": "133125.849000",
      "SliceLocation": -65.374965528506,
      "SliceThickness": 2.7000000476837,
      "SmallestImagePixelValue": 0,
      "SoftwareVersions": "syngo MR E11",
      "SpacingBetweenSlices": 2.7000000150847,
      "SpecificCharacterSet": "ISO_IR 100",
      "StudyID": "1",
      "StudyTime": "125425.017000",
      "TransmitCoilName": "Body",
      "VariableFlipAngleFlag": "N",
      "WindowCenterWidthExplanation": "Algo1",
      "dBdt": 0.0},
    "slices": {}
  },
  "time": {
    "samples": {
      "AcquisitionNumber": [1, 2, 3, 4, 5, 6, 7, 8, 9, 10, 11, 12, 13, 14, 15, 16, 17, 18, 19, 20, 21, 22, 23, 24, 25, 26, 27, 28, 29, 30, 31, 32, 33, 34, 35, 36, 37, 38, 39, 40, 41, 42, 43, 44, 45, 46, 47, 48, 49, 50, 51, 52, 53, 54, 55, 56, 57, 58, 59, 60, 61, 62, 63, 64, 65, 66, 67, 68, 69, 70, 71, 72, 73, 74, 75, 76, 77, 78, 79, 80, 81, 82, 83, 84, 85, 86, 87, 88, 89, 90, 91, 92, 93, 94, 95, 96, 97, 98, 99, 100, 101, 102, 103, 104, 105, 106, 107, 108, 109, 110, 111, 112, 113, 114, 115, 116, 117, 118, 119, 120, 121, 122, 123, 124, 125, 126, 127, 128, 129, 130, 131, 132, 133, 134, 135, 136, 137, 138, 139, 140, 141, 142, 143, 144, 145, 146, 147, 148, 149, 150, 151, 152, 153, 154, 155, 156, 157, 158, 159, 160, 161, 162, 163, 164, 165, 166, 167, 168, 169, 170, 171, 172, 173, 174, 175, 176, 177, 178, 179, 180, 181, 182, 183, 184, 185, 186, 187, 188, 189, 190, 191, 192, 193, 194, 195, 196, 197, 198, 199, 200, 201, 202, 203, 204, 205, 206, 207, 208, 209, 210, 211, 212, 213, 214, 215, 216, 217, 218, 219, 220, 221, 222, 223, 224, 225, 226, 227, 228, 229, 230, 231, 232, 233, 234, 235, 236, 237, 238, 239, 240, 241, 242, 243, 244, 245, 246, 247, 248, 249, 250, 251, 252, 253, 254, 255, 256, 257, 258, 259, 260, 261, 262, 263, 264, 265, 266, 267, 268, 269, 270, 271, 272, 273, 274, 275, 276, 277, 278, 279, 280, 281, 282, 283, 284, 285, 286, 287, 288, 289, 290, 291, 292, 293, 294, 295, 296, 297, 298, 299, 300, 301, 302, 303, 304, 305, 306, 307, 308, 309, 310, 311, 312, 313, 314, 315, 316, 317, 318, 319, 320, 321, 322, 323, 324, 325, 326, 327, 328, 329, 330, 331, 332, 333, 334, 335, 336, 337, 338, 339, 340, 341, 342, 343, 344, 345, 346, 347, 348, 349, 350, 351, 352, 353, 354, 355, 356, 357, 358, 359, 360, 361, 362, 363, 364, 365, 366, 367, 368, 369, 370, 371, 372, 373, 374, 375, 376, 377, 378, 379, 380, 381, 382, 383, 384, 385, 386, 387, 388, 389, 390, 391, 392, 393, 394, 395, 396, 397, 398, 399, 400, 401, 402, 403, 404, 405, 406, 407, 408, 409, 410, 411, 412, 413, 414, 415, 416, 417, 418, 419, 420, 421, 422, 423, 424, 425, 426, 427, 428, 429, 430, 431, 432, 433, 434, 435, 436, 437, 438, 439, 440, 441, 442, 443, 444, 445, 446, 447, 448, 449, 450, 451, 452, 453, 454, 455, 456, 457, 458, 459, 460, 461, 462, 463, 464, 465, 466, 467, 468, 469, 470, 471, 472, 473, 474, 475, 476, 477, 478, 479, 480, 481, 482, 483, 484, 485, 486, 487, 488, 489, 490, 491, 492, 493, 494, 495, 496, 497, 498, 499, 500, 501, 502, 503, 504, 505, 506, 507, 508, 509, 510, 511, 512, 513, 514, 515, 516, 517, 518, 519, 520, 521, 522, 523, 524, 525, 526, 527, 528, 529, 530, 531, 532, 533, 534, 535, 536, 537, 538, 539, 540, 541, 542, 543, 544, 545, 546, 547, 548, 549, 550, 551, 552, 553, 554, 555, 556, 557, 558, 559, 560, 561, 562, 563, 564, 565, 566, 567, 568, 569, 570, 571, 572, 573, 574, 575, 576, 577, 578, 579, 580, 581, 582, 583, 584, 585, 586, 587, 588, 589, 590, 591, 592, 593, 594, 595, 596, 597, 598, 599, 600, 601, 602, 603, 604, 605, 606, 607, 608, 609, 610, 611, 612, 613, 614, 615, 616, 617, 618, 619, 620, 621, 622, 623, 624, 625, 626, 627, 628, 629, 630, 631, 632, 633, 634, 635, 636, 637, 638, 639, 640, 641, 642, 643, 644, 645, 646, 647, 648, 649, 650, 651, 652, 653, 654, 655, 656, 657, 658, 659, 660, 661, 662, 663, 664, 665, 666, 667, 668, 669, 670, 671, 672, 673, 674, 675, 676, 677, 678, 679, 680, 681, 682, 683, 684, 685, 686, 687, 688, 689, 690, 691, 692, 693, 694, 695, 696, 697, 698, 699, 700, 701, 702, 703, 704, 705, 706, 707, 708, 709, 710, 711, 712, 713, 714, 715, 716, 717, 718, 719, 720, 721, 722, 723, 724, 725, 726, 727, 728, 729, 730, 731, 732, 733, 734, 735, 736, 737, 738, 739, 740, 741, 742, 743, 744, 745, 746, 747, 748, 749, 750, 751, 752, 753, 754, 755, 756, 757, 758, 759, 760, 761, 762, 763, 764, 765, 766, 767, 768, 769, 770, 771, 772, 773, 774, 775, 776, 777, 778, 779, 780, 781, 782, 783, 784, 785, 786, 787, 788, 789, 790, 791, 792, 793, 794, 795, 796, 797, 798, 799, 800, 801, 802, 803, 804, 805, 806, 807, 808, 809, 810, 811, 812, 813, 814, 815, 816, 817, 818, 819, 820, 821, 822, 823, 824, 825, 826, 827, 828, 829, 830, 831, 832, 833, 834, 835, 836, 837, 838, 839, 840, 841, 842, 843, 844, 845, 846, 847, 848, 849, 850, 851, 852, 853, 854, 855, 856, 857, 858, 859, 860, 861, 862, 863, 864, 865, 866, 867, 868, 869, 870, 871, 872],
      "AcquisitionTime": ["133103.200000", "133103.660000", "133104.120000", "133104.580000", "133105.040000", "133105.500000", "133105.960000", "133106.420000", "133106.880000", "133107.340000", "133107.800000", "133108.260000", "133108.720000", "133109.180000", "133109.640000", "133110.100000", "133110.560000", "133111.020000", "133111.480000", "133111.940000", "133112.400000", "133112.860000", "133113.320000", "133113.780000", "133114.240000", "133114.700000", "133115.160000", "133115.620000", "133116.080000", "133116.540000", "133117.000000", "133117.460000", "133117.920000", "133118.380000", "133118.840000", "133119.300000", "133119.760000", "133120.220000", "133120.680000", "133121.140000", "133121.600000", "133122.060000", "133122.520000", "133122.980000", "133123.440000", "133123.900000", "133124.360000", "133124.820000", "133125.280000", "133125.740000", "133126.200000", "133126.660000", "133127.120000", "133127.580000", "133128.040000", "133128.500000", "133128.960000", "133129.420000", "133129.880000", "133130.340000", "133130.800000", "133131.260000", "133131.720000", "133132.180000", "133132.640000", "133133.100000", "133133.560000", "133134.020000", "133134.480000", "133134.940000", "133135.400000", "133135.860000", "133136.320000", "133136.780000", "133137.240000", "133137.700000", "133138.160000", "133138.620000", "133139.080000", "133139.540000", "133140.000000", "133140.460000", "133140.920000", "133141.380000", "133141.840000", "133142.300000", "133142.760000", "133143.220000", "133143.680000", "133144.140000", "133144.600000", "133145.060000", "133145.520000", "133145.980000", "133146.440000", "133146.900000", "133147.360000", "133147.820000", "133148.280000", "133148.740000", "133149.200000", "133149.660000", "133150.120000", "133150.580000", "133151.040000", "133151.500000", "133151.960000", "133152.420000", "133152.880000", "133153.340000", "133153.800000", "133154.260000", "133154.720000", "133155.180000", "133155.640000", "133156.100000", "133156.560000", "133157.020000", "133157.480000", "133157.940000", "133158.400000", "133158.860000", "133159.320000", "133159.780000", "133200.240000", "133200.700000", "133201.160000", "133201.620000", "133202.080000", "133202.540000", "133203.000000", "133203.460000", "133203.920000", "133204.380000", "133204.840000", "133205.300000", "133205.760000", "133206.220000", "133206.680000", "133207.140000", "133207.600000", "133208.060000", "133208.520000", "133208.980000", "133209.440000", "133209.900000", "133210.360000", "133210.820000", "133211.280000", "133211.740000", "133212.200000", "133212.660000", "133213.120000", "133213.580000", "133214.040000", "133214.500000", "133214.960000", "133215.420000", "133215.880000", "133216.340000", "133216.800000", "133217.260000", "133217.720000", "133218.180000", "133218.640000", "133219.100000", "133219.560000", "133220.020000", "133220.480000", "133220.940000", "133221.400000", "133221.860000", "133222.320000", "133222.780000", "133223.240000", "133223.700000", "133224.160000", "133224.620000", "133225.080000", "133225.540000", "133226.000000", "133226.460000", "133226.920000", "133227.380000", "133227.840000", "133228.300000", "133228.760000", "133229.220000", "133229.680000", "133230.140000", "133230.600000", "133231.060000", "133231.520000", "133231.980000", "133232.440000", "133232.900000", "133233.360000", "133233.820000", "133234.280000", "133234.740000", "133235.200000", "133235.660000", "133236.120000", "133236.580000", "133237.040000", "133237.500000", "133237.960000", "133238.420000", "133238.880000", "133239.340000", "133239.800000", "133240.260000", "133240.720000", "133241.180000", "133241.640000", "133242.100000", "133242.560000", "133243.020000", "133243.480000", "133243.940000", "133244.400000", "133244.860000", "133245.320000", "133245.780000", "133246.240000", "133246.700000", "133247.160000", "133247.620000", "133248.080000", "133248.540000", "133249.000000", "133249.460000", "133249.920000", "133250.380000", "133250.840000", "133251.300000", "133251.760000", "133252.220000", "133252.680000", "133253.140000", "133253.600000", "133254.060000", "133254.520000", "133254.980000", "133255.440000", "133255.900000", "133256.360000", "133256.820000", "133257.280000", "133257.740000", "133258.200000", "133258.660000", "133259.120000", "133259.580000", "133300.040000", "133300.500000", "133300.960000", "133301.420000", "133301.880000", "133302.340000", "133302.800000", "133303.260000", "133303.720000", "133304.180000", "133304.640000", "133305.100000", "133305.560000", "133306.020000", "133306.480000", "133306.940000", "133307.400000", "133307.860000", "133308.320000", "133308.780000", "133309.240000", "133309.700000", "133310.160000", "133310.620000", "133311.080000", "133311.540000", "133312.000000", "133312.460000", "133312.920000", "133313.380000", "133313.840000", "133314.300000", "133314.760000", "133315.220000", "133315.680000", "133316.140000", "133316.600000", "133317.060000", "133317.520000", "133317.980000", "133318.440000", "133318.900000", "133319.360000", "133319.820000", "133320.280000", "133320.740000", "133321.200000", "133321.660000", "133322.120000", "133322.580000", "133323.040000", "133323.500000", "133323.960000", "133324.420000", "133324.880000", "133325.340000", "133325.800000", "133326.260000", "133326.720000", "133327.180000", "133327.640000", "133328.100000", "133328.560000", "133329.020000", "133329.480000", "133329.940000", "133330.400000", "133330.860000", "133331.320000", "133331.780000", "133332.240000", "133332.700000", "133333.160000", "133333.620000", "133334.080000", "133334.540000", "133335.000000", "133335.460000", "133335.920000", "133336.380000", "133336.840000", "133337.300000", "133337.760000", "133338.220000", "133338.680000", "133339.140000", "133339.600000", "133340.060000", "133340.520000", "133340.980000", "133341.440000", "133341.900000", "133342.360000", "133342.820000", "133343.280000", "133343.740000", "133344.200000", "133344.660000", "133345.120000", "133345.580000", "133346.040000", "133346.500000", "133346.960000", "133347.420000", "133347.880000", "133348.340000", "133348.800000", "133349.260000", "133349.720000", "133350.180000", "133350.640000", "133351.100000", "133351.560000", "133352.020000", "133352.480000", "133352.940000", "133353.400000", "133353.860000", "133354.320000", "133354.780000", "133355.240000", "133355.700000", "133356.160000", "133356.620000", "133357.080000", "133357.540000", "133358.000000", "133358.460000", "133358.920000", "133359.380000", "133359.840000", "133400.300000", "133400.760000", "133401.220000", "133401.680000", "133402.140000", "133402.600000", "133403.060000", "133403.520000", "133403.980000", "133404.440000", "133404.900000", "133405.360000", "133405.820000", "133406.280000", "133406.740000", "133407.200000", "133407.660000", "133408.120000", "133408.580000", "133409.040000", "133409.500000", "133409.960000", "133410.420000", "133410.880000", "133411.340000", "133411.800000", "133412.260000", "133412.720000", "133413.180000", "133413.640000", "133414.100000", "133414.560000", "133415.020000", "133415.480000", "133415.940000", "133416.400000", "133416.860000", "133417.320000", "133417.780000", "133418.240000", "133418.700000", "133419.160000", "133419.620000", "133420.080000", "133420.540000", "133421.000000", "133421.460000", "133421.920000", "133422.380000", "133422.840000", "133423.300000", "133423.760000", "133424.220000", "133424.680000", "133425.140000", "133425.600000", "133426.060000", "133426.520000", "133426.980000", "133427.440000", "133427.900000", "133428.360000", "133428.820000", "133429.280000", "133429.740000", "133430.200000", "133430.660000", "133431.120000", "133431.580000", "133432.040000", "133432.500000", "133432.960000", "133433.420000", "133433.880000", "133434.340000", "133434.800000", "133435.260000", "133435.720000", "133436.180000", "133436.640000", "133437.100000", "133437.560000", "133438.020000", "133438.480000", "133438.940000", "133439.400000", "133439.860000", "133440.320000", "133440.780000", "133441.240000", "133441.700000", "133442.160000", "133442.620000", "133443.080000", "133443.540000", "133444.000000", "133444.460000", "133444.920000", "133445.380000", "133445.840000", "133446.300000", "133446.760000", "133447.220000", "133447.680000", "133448.140000", "133448.600000", "133449.060000", "133449.520000", "133449.980000", "133450.440000", "133450.900000", "133451.360000", "133451.820000", "133452.280000", "133452.740000", "133453.200000", "133453.660000", "133454.120000", "133454.580000", "133455.040000", "133455.500000", "133455.960000", "133456.420000", "133456.880000", "133457.340000", "133457.800000", "133458.260000", "133458.720000", "133459.180000", "133459.640000", "133500.100000", "133500.560000", "133501.020000", "133501.480000", "133501.940000", "133502.400000", "133502.860000", "133503.320000", "133503.780000", "133504.240000", "133504.700000", "133505.160000", "133505.620000", "133506.080000", "133506.540000", "133507.000000", "133507.460000", "133507.920000", "133508.380000", "133508.840000", "133509.300000", "133509.760000", "133510.220000", "133510.680000", "133511.140000", "133511.600000", "133512.060000", "133512.520000", "133512.980000", "133513.440000", "133513.900000", "133514.360000", "133514.820000", "133515.280000", "133515.740000", "133516.200000", "133516.660000", "133517.120000", "133517.580000", "133518.040000", "133518.500000", "133518.960000", "133519.420000", "133519.880000", "133520.340000", "133520.800000", "133521.260000", "133521.720000", "133522.180000", "133522.640000", "133523.100000", "133523.560000", "133524.020000", "133524.480000", "133524.940000", "133525.400000", "133525.860000", "133526.320000", "133526.780000", "133527.240000", "133527.700000", "133528.160000", "133528.620000", "133529.080000", "133529.540000", "133530.000000", "133530.460000", "133530.920000", "133531.380000", "133531.840000", "133532.300000", "133532.760000", "133533.220000", "133533.680000", "133534.140000", "133534.600000", "133535.060000", "133535.520000", "133535.980000", "133536.440000", "133536.900000", "133537.360000", "133537.820000", "133538.280000", "133538.740000", "133539.200000", "133539.660000", "133540.120000", "133540.580000", "133541.040000", "133541.500000", "133541.960000", "133542.420000", "133542.880000", "133543.340000", "133543.800000", "133544.260000", "133544.720000", "133545.180000", "133545.640000", "133546.100000", "133546.560000", "133547.020000", "133547.480000", "133547.940000", "133548.400000", "133548.860000", "133549.320000", "133549.780000", "133550.240000", "133550.700000", "133551.160000", "133551.620000", "133552.080000", "133552.540000", "133553.000000", "133553.460000", "133553.920000", "133554.380000", "133554.840000", "133555.300000", "133555.760000", "133556.220000", "133556.680000", "133557.140000", "133557.600000", "133558.060000", "133558.520000", "133558.980000", "133559.440000", "133559.900000", "133600.360000", "133600.820000", "133601.280000", "133601.740000", "133602.200000", "133602.660000", "133603.120000", "133603.580000", "133604.040000", "133604.500000", "133604.960000", "133605.420000", "133605.880000", "133606.340000", "133606.800000", "133607.260000", "133607.720000", "133608.180000", "133608.640000", "133609.100000", "133609.560000", "133610.020000", "133610.480000", "133610.940000", "133611.400000", "133611.860000", "133612.320000", "133612.780000", "133613.240000", "133613.700000", "133614.160000", "133614.620000", "133615.080000", "133615.540000", "133616.000000", "133616.460000", "133616.920000", "133617.380000", "133617.840000", "133618.300000", "133618.760000", "133619.220000", "133619.680000", "133620.140000", "133620.600000", "133621.060000", "133621.520000", "133621.980000", "133622.440000", "133622.900000", "133623.360000", "133623.820000", "133624.280000", "133624.740000", "133625.200000", "133625.660000", "133626.120000", "133626.580000", "133627.040000", "133627.500000", "133627.960000", "133628.420000", "133628.880000", "133629.340000", "133629.800000", "133630.260000", "133630.720000", "133631.180000", "133631.640000", "133632.100000", "133632.560000", "133633.020000", "133633.480000", "133633.940000", "133634.400000", "133634.860000", "133635.320000", "133635.780000", "133636.240000", "133636.700000", "133637.160000", "133637.620000", "133638.080000", "133638.540000", "133639.000000", "133639.460000", "133639.920000", "133640.380000", "133640.840000", "133641.300000", "133641.760000", "133642.220000", "133642.680000", "133643.140000", "133643.600000", "133644.060000", "133644.520000", "133644.980000", "133645.440000", "133645.900000", "133646.360000", "133646.820000", "133647.280000", "133647.740000", "133648.200000", "133648.660000", "133649.120000", "133649.580000", "133650.040000", "133650.500000", "133650.960000", "133651.420000", "133651.880000", "133652.340000", "133652.800000", "133653.260000", "133653.720000", "133654.180000", "133654.640000", "133655.100000", "133655.560000", "133656.020000", "133656.480000", "133656.940000", "133657.400000", "133657.860000", "133658.320000", "133658.780000", "133659.240000", "133659.700000", "133700.160000", "133700.620000", "133701.080000", "133701.540000", "133702.000000", "133702.460000", "133702.920000", "133703.380000", "133703.840000", "133704.300000", "133704.760000", "133705.220000", "133705.680000", "133706.140000", "133706.600000", "133707.060000", "133707.520000", "133707.980000", "133708.440000", "133708.900000", "133709.360000", "133709.820000", "133710.280000", "133710.740000", "133711.200000", "133711.660000", "133712.120000", "133712.580000", "133713.040000", "133713.500000", "133713.960000", "133714.420000", "133714.880000", "133715.340000", "133715.800000", "133716.260000", "133716.720000", "133717.180000", "133717.640000", "133718.100000", "133718.560000", "133719.020000", "133719.480000", "133719.940000", "133720.400000", "133720.860000", "133721.320000", "133721.780000", "133722.240000", "133722.700000", "133723.160000", "133723.620000", "133724.080000", "133724.540000", "133725.000000", "133725.460000", "133725.920000", "133726.380000", "133726.840000", "133727.300000", "133727.760000", "133728.220000", "133728.680000", "133729.140000", "133729.600000", "133730.060000", "133730.520000", "133730.980000", "133731.440000", "133731.900000", "133732.360000", "133732.820000", "133733.280000", "133733.740000", "133734.200000", "133734.660000", "133735.120000", "133735.580000", "133736.040000", "133736.500000", "133736.960000", "133737.420000", "133737.880000", "133738.340000", "133738.800000", "133739.260000", "133739.720000", "133740.180000", "133740.640000", "133741.100000", "133741.560000", "133742.020000", "133742.480000", "133742.940000", "133743.400000", "133743.860000"],
