{
  "AcquisitionMatrixPE": 82,
  "AcquisitionNumber": 1,
  "AcquisitionTime": "14:30:19.535000",
  "BandwidthPerPixelPhaseEncode": 24.888,
  "BaseResolution": 82,
  "BodyPartExamined": "BRAIN",
  "ConsistencyInfo": "N4_VE11C_LATEST_20160120",
  "ConversionSoftware": "dcm2niix",
  "ConversionSoftwareVersion": "v1.0.20201102",
  "DerivedVendorReportedEchoSpacing": 0.00049,
  "DeviceSerialNumber": "66112",
  "DwellTime": 2e-06,
  "EchoTime": 0.0272,
  "EchoTrainLength": 82,
  "EffectiveEchoSpacing": 0.00049,
  "FlipAngle": 44,
  "ImageComments": "Unaliased MB8/PE3",
  "ImageOrientationPatientDICOM": [0.993457, -0.0786906, 0.0827763, 0.0841214, 0.994379, -0.0643015],
  "ImageType": [
    "ORIGINAL",
    "PRIMARY",
    "M",
    "MB",
    "ND",
    "NORM",
    "MOSAIC"
],
  "ImagingFrequency": 123.252,
  "InPlanePhaseEncodingDirectionDICOM": "COL",
  "InstitutionAddress": "Maynard 3,Hanover,NH,US,03755",
  "InstitutionName": "Dartmouth College - PBS",
  "InstitutionalDepartmentName": "Department",
  "MRAcquisitionType": "2D",
  "MagneticFieldStrength": 3,
  "Manufacturer": "Siemens",
  "ManufacturersModelName": "Prisma",
  "Modality": "MR",
  "MultibandAccelerationFactor": 8,
  "PartialFourier": 1,
  "PatientPosition": "HFS",
  "PercentPhaseFOV": 100,
  "PercentSampling": 100,
  "PhaseEncodingDirection": "j-",
  "PhaseEncodingSteps": 82,
  "PhaseResolution": 1,
  "PixelBandwidth": 3050,
  "ProcedureStepDescription": "Wager_Wager^1076_spacetop",
  "ProtocolName": "func_run-03_task-alignvideo_acq-ap-mb8",
  "PulseSequenceDetails": "%CustomerSeq%\\cmrr_mbep2d_bold",
  "ReceiveCoilActiveElements": "HEA;HEP",
  "ReceiveCoilName": "Head_32",
  "ReconMatrixPE": 82,
  "RepetitionTime": 0.46,
  "SAR": 0.0897908,
  "ScanOptions": "FS",
  "ScanningSequence": "EP",
  "SequenceName": "epfid2d1_82",
  "SequenceVariant": "SK\\SS",
  "SeriesDescription": "func_run-03_task-alignvideo_acq-ap-mb8",
  "SeriesNumber": 32,
  "ShimSetting": [4157, -7779, -7215, 597, -157, -180, -98, 2],
  "SliceThickness": 2.7,
  "SliceTiming": [0, 0.2525, 0.0625, 0.315, 0.1275, 0.3775, 0.19, 0, 0.2525, 0.0625, 0.315, 0.1275, 0.3775, 0.19, 0, 0.2525, 0.0625, 0.315, 0.1275, 0.3775, 0.19, 0, 0.2525, 0.0625, 0.315, 0.1275, 0.3775, 0.19, 0, 0.2525, 0.0625, 0.315, 0.1275, 0.3775, 0.19, 0, 0.2525, 0.0625, 0.315, 0.1275, 0.3775, 0.19, 0, 0.2525, 0.0625, 0.315, 0.1275, 0.3775, 0.19, 0, 0.2525, 0.0625, 0.315, 0.1275, 0.3775, 0.19],
  "SoftwareVersions": "syngo MR E11",
  "SpacingBetweenSlices": 2.7,
  "StationName": "AWP66112",
  "TaskName": "alignvideo",
  "TotalReadoutTime": 0.03969,
  "TxRefAmp": 242.278,
  "WipMemBlock": "8ed0d177-76b6-43e5-a405-f1b9df7771c0||Sequence: R016 ve11c/master r/e634e98; Dec 19 2017 11:00:25 by eja",
  "dcmmeta_affine": [
    [-2.6653711795806885, 0.22569146752357483, 0.20857776701450348, 98.84369659423828],
    [0.21112120151519775, 2.6678452491760254, -0.19127874076366425, -106.16963958740234],
    [0.22208265960216522, 0.17251616716384888, 2.685127019882202, -79.83140563964844],
    [0.0, 0.0, 0.0, 1.0]
],
  "dcmmeta_reorient_transform": [
    [0.0, -1.0, 0.0, 81.0],
    [1.0, 0.0, 0.0, 0.0],
    [0.0, 0.0, 1.0, 0.0],
    [0.0, 0.0, 0.0, 1.0]
],
  "dcmmeta_shape": [82, 82, 56, 1065],
  "dcmmeta_slice_dim": 2,
  "dcmmeta_version": 0.6,
  "global": {
    "const": {
      "AccessionNumber": "A003850",
      "AcquisitionMatrix": [82, 0, 0, 82],
      "AngioFlag": "N",
      "BitsAllocated": 16,
      "BitsStored": 16,
      "BodyPartExamined": "BRAIN",
      "Columns": 656,
      "EchoNumbers": 1,
      "EchoTime": 27.2,
      "EchoTrainLength": 82,
      "FlipAngle": 44.0,
      "HighBit": 15,
      "ImageOrientationPatient": [0.99345652913315, -0.0786906304911, 0.08277626106328, 0.08412136544279, 0.9943786579501, -0.064301481238],
      "ImagePositionPatient": [-946.85970521796, -815.00562146783, -80.083177422396],
      "ImageType": [
        "ORIGINAL",
        "PRIMARY",
        "M",
        "MB",
        "ND",
        "NORM",
        "MOSAIC"
],
      "ImagedNucleus": "1H",
      "ImagingFrequency": 123.252201,
      "InPlanePhaseEncodingDirection": "COL",
      "MRAcquisitionType": "2D",
      "MagneticFieldStrength": 3.0,
      "Manufacturer": "SIEMENS",
      "ManufacturerModelName": "Prisma",
      "Modality": "MR",
      "NumberOfAverages": 1.0,
      "NumberOfPhaseEncodingSteps": 82,
      "PercentPhaseFieldOfView": 100.0,
      "PercentSampling": 100.0,
      "PerformedProcedureStepStartTime": "125425.154000",
      "PhotometricInterpretation": "MONOCHROME2",
      "PixelBandwidth": 3050.0,
      "PixelRepresentation": 0,
      "PixelSpacing": [2.6829268932343, 2.6829268932343],
      "ProtocolName": "func_run-03_task-alignvideo_acq-ap-mb8",
      "RepetitionTime": 460.0,
      "Rows": 656,
      "SAR": 0.08979078330979,
      "SamplesPerPixel": 1,
      "ScanOptions": "FS",
      "ScanningSequence": "EP",
      "SequenceName": "epfid2d1_82",
      "SequenceVariant": [
        "SK",
        "SS"
],
      "SeriesDescription": "func_run-03_task-alignvideo_acq-ap-mb8",
      "SeriesNumber": 32,
      "SeriesTime": "143045.849000",
      "SliceLocation": -64.234401487233,
      "SliceThickness": 2.7000000476837,
      "SmallestImagePixelValue": 0,
      "SoftwareVersions": "syngo MR E11",
      "SpacingBetweenSlices": 2.6999999800364,
      "SpecificCharacterSet": "ISO_IR 100",
      "StudyID": "1",
      "StudyTime": "125425.017000",
      "TransmitCoilName": "Body",
      "VariableFlipAngleFlag": "N",
      "WindowCenterWidthExplanation": "Algo1",
      "dBdt": 0.0},
    "slices": {}
  },
  "time": {
    "samples": {
      "AcquisitionNumber": [1, 2, 3, 4, 5, 6, 7, 8, 9, 10, 11, 12, 13, 14, 15, 16, 17, 18, 19, 20, 21, 22, 23, 24, 25, 26, 27, 28, 29, 30, 31, 32, 33, 34, 35, 36, 37, 38, 39, 40, 41, 42, 43, 44, 45, 46, 47, 48, 49, 50, 51, 52, 53, 54, 55, 56, 57, 58, 59, 60, 61, 62, 63, 64, 65, 66, 67, 68, 69, 70, 71, 72, 73, 74, 75, 76, 77, 78, 79, 80, 81, 82, 83, 84, 85, 86, 87, 88, 89, 90, 91, 92, 93, 94, 95, 96, 97, 98, 99, 100, 101, 102, 103, 104, 105, 106, 107, 108, 109, 110, 111, 112, 113, 114, 115, 116, 117, 118, 119, 120, 121, 122, 123, 124, 125, 126, 127, 128, 129, 130, 131, 132, 133, 134, 135, 136, 137, 138, 139, 140, 141, 142, 143, 144, 145, 146, 147, 148, 149, 150, 151, 152, 153, 154, 155, 156, 157, 158, 159, 160, 161, 162, 163, 164, 165, 166, 167, 168, 169, 170, 171, 172, 173, 174, 175, 176, 177, 178, 179, 180, 181, 182, 183, 184, 185, 186, 187, 188, 189, 190, 191, 192, 193, 194, 195, 196, 197, 198, 199, 200, 201, 202, 203, 204, 205, 206, 207, 208, 209, 210, 211, 212, 213, 214, 215, 216, 217, 218, 219, 220, 221, 222, 223, 224, 225, 226, 227, 228, 229, 230, 231, 232, 233, 234, 235, 236, 237, 238, 239, 240, 241, 242, 243, 244, 245, 246, 247, 248, 249, 250, 251, 252, 253, 254, 255, 256, 257, 258, 259, 260, 261, 262, 263, 264, 265, 266, 267, 268, 269, 270, 271, 272, 273, 274, 275, 276, 277, 278, 279, 280, 281, 282, 283, 284, 285, 286, 287, 288, 289, 290, 291, 292, 293, 294, 295, 296, 297, 298, 299, 300, 301, 302, 303, 304, 305, 306, 307, 308, 309, 310, 311, 312, 313, 314, 315, 316, 317, 318, 319, 320, 321, 322, 323, 324, 325, 326, 327, 328, 329, 330, 331, 332, 333, 334, 335, 336, 337, 338, 339, 340, 341, 342, 343, 344, 345, 346, 347, 348, 349, 350, 351, 352, 353, 354, 355, 356, 357, 358, 359, 360, 361, 362, 363, 364, 365, 366, 367, 368, 369, 370, 371, 372, 373, 374, 375, 376, 377, 378, 379, 380, 381, 382, 383, 384, 385, 386, 387, 388, 389, 390, 391, 392, 393, 394, 395, 396, 397, 398, 399, 400, 401, 402, 403, 404, 405, 406, 407, 408, 409, 410, 411, 412, 413, 414, 415, 416, 417, 418, 419, 420, 421, 422, 423, 424, 425, 426, 427, 428, 429, 430, 431, 432, 433, 434, 435, 436, 437, 438, 439, 440, 441, 442, 443, 444, 445, 446, 447, 448, 449, 450, 451, 452, 453, 454, 455, 456, 457, 458, 459, 460, 461, 462, 463, 464, 465, 466, 467, 468, 469, 470, 471, 472, 473, 474, 475, 476, 477, 478, 479, 480, 481, 482, 483, 484, 485, 486, 487, 488, 489, 490, 491, 492, 493, 494, 495, 496, 497, 498, 499, 500, 501, 502, 503, 504, 505, 506, 507, 508, 509, 510, 511, 512, 513, 514, 515, 516, 517, 518, 519, 520, 521, 522, 523, 524, 525, 526, 527, 528, 529, 530, 531, 532, 533, 534, 535, 536, 537, 538, 539, 540, 541, 542, 543, 544, 545, 546, 547, 548, 549, 550, 551, 552, 553, 554, 555, 556, 557, 558, 559, 560, 561, 562, 563, 564, 565, 566, 567, 568, 569, 570, 571, 572, 573, 574, 575, 576, 577, 578, 579, 580, 581, 582, 583, 584, 585, 586, 587, 588, 589, 590, 591, 592, 593, 594, 595, 596, 597, 598, 599, 600, 601, 602, 603, 604, 605, 606, 607, 608, 609, 610, 611, 612, 613, 614, 615, 616, 617, 618, 619, 620, 621, 622, 623, 624, 625, 626, 627, 628, 629, 630, 631, 632, 633, 634, 635, 636, 637, 638, 639, 640, 641, 642, 643, 644, 645, 646, 647, 648, 649, 650, 651, 652, 653, 654, 655, 656, 657, 658, 659, 660, 661, 662, 663, 664, 665, 666, 667, 668, 669, 670, 671, 672, 673, 674, 675, 676, 677, 678, 679, 680, 681, 682, 683, 684, 685, 686, 687, 688, 689, 690, 691, 692, 693, 694, 695, 696, 697, 698, 699, 700, 701, 702, 703, 704, 705, 706, 707, 708, 709, 710, 711, 712, 713, 714, 715, 716, 717, 718, 719, 720, 721, 722, 723, 724, 725, 726, 727, 728, 729, 730, 731, 732, 733, 734, 735, 736, 737, 738, 739, 740, 741, 742, 743, 744, 745, 746, 747, 748, 749, 750, 751, 752, 753, 754, 755, 756, 757, 758, 759, 760, 761, 762, 763, 764, 765, 766, 767, 768, 769, 770, 771, 772, 773, 774, 775, 776, 777, 778, 779, 780, 781, 782, 783, 784, 785, 786, 787, 788, 789, 790, 791, 792, 793, 794, 795, 796, 797, 798, 799, 800, 801, 802, 803, 804, 805, 806, 807, 808, 809, 810, 811, 812, 813, 814, 815, 816, 817, 818, 819, 820, 821, 822, 823, 824, 825, 826, 827, 828, 829, 830, 831, 832, 833, 834, 835, 836, 837, 838, 839, 840, 841, 842, 843, 844, 845, 846, 847, 848, 849, 850, 851, 852, 853, 854, 855, 856, 857, 858, 859, 860, 861, 862, 863, 864, 865, 866, 867, 868, 869, 870, 871, 872, 873, 874, 875, 876, 877, 878, 879, 880, 881, 882, 883, 884, 885, 886, 887, 888, 889, 890, 891, 892, 893, 894, 895, 896, 897, 898, 899, 900, 901, 902, 903, 904, 905, 906, 907, 908, 909, 910, 911, 912, 913, 914, 915, 916, 917, 918, 919, 920, 921, 922, 923, 924, 925, 926, 927, 928, 929, 930, 931, 932, 933, 934, 935, 936, 937, 938, 939, 940, 941, 942, 943, 944, 945, 946, 947, 948, 949, 950, 951, 952, 953, 954, 955, 956, 957, 958, 959, 960, 961, 962, 963, 964, 965, 966, 967, 968, 969, 970, 971, 972, 973, 974, 975, 976, 977, 978, 979, 980, 981, 982, 983, 984, 985, 986, 987, 988, 989, 990, 991, 992, 993, 994, 995, 996, 997, 998, 999, 1000, 1001, 1002, 1003, 1004, 1005, 1006, 1007, 1008, 1009, 1010, 1011, 1012, 1013, 1014, 1015, 1016, 1017, 1018, 1019, 1020, 1021, 1022, 1023, 1024, 1025, 1026, 1027, 1028, 1029, 1030, 1031, 1032, 1033, 1034, 1035, 1036, 1037, 1038, 1039, 1040, 1041, 1042, 1043, 1044, 1045, 1046, 1047, 1048, 1049, 1050, 1051, 1052, 1053, 1054, 1055, 1056, 1057, 1058, 1059, 1060, 1061, 1062, 1063, 1064, 1065],
      "AcquisitionTime": ["143019.535000", "143019.995000", "143020.455000", "143020.915000", "143021.375000", "143021.835000", "143022.295000", "143022.755000", "143023.215000", "143023.675000", "143024.135000", "143024.595000", "143025.055000", "143025.515000", "143025.975000", "143026.435000", "143026.895000", "143027.355000", "143027.815000", "143028.275000", "143028.735000", "143029.195000", "143029.655000", "143030.115000", "143030.575000", "143031.035000", "143031.495000", "143031.955000", "143032.415000", "143032.875000", "143033.335000", "143033.795000", "143034.255000", "143034.715000", "143035.175000", "143035.635000", "143036.095000", "143036.555000", "143037.015000", "143037.475000", "143037.935000", "143038.395000", "143038.855000", "143039.315000", "143039.775000", "143040.235000", "143040.695000", "143041.155000", "143041.615000", "143042.075000", "143042.535000", "143042.995000", "143043.455000", "143043.915000", "143044.375000", "143044.835000", "143045.295000", "143045.755000", "143046.215000", "143046.675000", "143047.135000", "143047.595000", "143048.055000", "143048.515000", "143048.975000", "143049.435000", "143049.895000", "143050.355000", "143050.815000", "143051.275000", "143051.735000", "143052.195000", "143052.655000", "143053.115000", "143053.575000", "143054.035000", "143054.495000", "143054.955000", "143055.415000", "143055.875000", "143056.335000", "143056.795000", "143057.255000", "143057.715000", "143058.175000", "143058.635000", "143059.095000", "143059.555000", "143100.015000", "143100.475000", "143100.935000", "143101.395000", "143101.855000", "143102.315000", "143102.775000", "143103.235000", "143103.695000", "143104.155000", "143104.615000", "143105.075000", "143105.535000", "143105.995000", "143106.455000", "143106.915000", "143107.375000", "143107.835000", "143108.295000", "143108.755000", "143109.215000", "143109.675000", "143110.135000", "143110.595000", "143111.055000", "143111.515000", "143111.975000", "143112.435000", "143112.895000", "143113.355000", "143113.815000", "143114.275000", "143114.735000", "143115.195000", "143115.655000", "143116.115000", "143116.575000", "143117.035000", "143117.495000", "143117.955000", "143118.415000", "143118.875000", "143119.335000", "143119.795000", "143120.255000", "143120.715000", "143121.175000", "143121.635000", "143122.095000", "143122.555000", "143123.015000", "143123.475000", "143123.935000", "143124.395000", "143124.855000", "143125.315000", "143125.775000", "143126.235000", "143126.695000", "143127.155000", "143127.615000", "143128.075000", "143128.535000", "143128.995000", "143129.455000", "143129.915000", "143130.375000", "143130.835000", "143131.295000", "143131.755000", "143132.215000", "143132.675000", "143133.135000", "143133.595000", "143134.055000", "143134.515000", "143134.975000", "143135.435000", "143135.895000", "143136.355000", "143136.815000", "143137.275000", "143137.735000", "143138.195000", "143138.655000", "143139.115000", "143139.575000", "143140.035000", "143140.495000", "143140.955000", "143141.415000", "143141.875000", "143142.335000", "143142.795000", "143143.255000", "143143.715000", "143144.175000", "143144.635000", "143145.095000", "143145.555000", "143146.015000", "143146.475000", "143146.935000", "143147.395000", "143147.855000", "143148.315000", "143148.775000", "143149.235000", "143149.695000", "143150.155000", "143150.615000", "143151.075000", "143151.535000", "143151.995000", "143152.455000", "143152.915000", "143153.375000", "143153.835000", "143154.295000", "143154.755000", "143155.215000", "143155.675000", "143156.135000", "143156.595000", "143157.055000", "143157.515000", "143157.975000", "143158.435000", "143158.895000", "143159.355000", "143159.815000", "143200.275000", "143200.735000", "143201.195000", "143201.655000", "143202.115000", "143202.575000", "143203.035000", "143203.495000", "143203.955000", "143204.415000", "143204.875000", "143205.335000", "143205.795000", "143206.255000", "143206.715000", "143207.175000", "143207.635000", "143208.095000", "143208.555000", "143209.015000", "143209.475000", "143209.935000", "143210.395000", "143210.855000", "143211.315000", "143211.775000", "143212.235000", "143212.695000", "143213.155000", "143213.615000", "143214.075000", "143214.535000", "143214.995000", "143215.455000", "143215.915000", "143216.375000", "143216.835000", "143217.295000", "143217.755000", "143218.215000", "143218.675000", "143219.135000", "143219.595000", "143220.055000", "143220.515000", "143220.975000", "143221.435000", "143221.895000", "143222.355000", "143222.815000", "143223.275000", "143223.735000", "143224.195000", "143224.655000", "143225.115000", "143225.575000", "143226.035000", "143226.495000", "143226.955000", "143227.415000", "143227.875000", "143228.335000", "143228.795000", "143229.255000", "143229.715000", "143230.175000", "143230.635000", "143231.095000", "143231.555000", "143232.015000", "143232.475000", "143232.935000", "143233.395000", "143233.855000", "143234.315000", "143234.775000", "143235.235000", "143235.695000", "143236.155000", "143236.615000", "143237.075000", "143237.535000", "143237.995000", "143238.455000", "143238.915000", "143239.375000", "143239.835000", "143240.295000", "143240.755000", "143241.215000", "143241.675000", "143242.135000", "143242.595000", "143243.055000", "143243.515000", "143243.975000", "143244.435000", "143244.895000", "143245.355000", "143245.815000", "143246.275000", "143246.735000", "143247.195000", "143247.655000", "143248.115000", "143248.575000", "143249.035000", "143249.495000", "143249.955000", "143250.415000", "143250.875000", "143251.335000", "143251.795000", "143252.255000", "143252.715000", "143253.175000", "143253.635000", "143254.095000", "143254.555000", "143255.015000", "143255.475000", "143255.935000", "143256.395000", "143256.855000", "143257.315000", "143257.775000", "143258.235000", "143258.695000", "143259.155000", "143259.615000", "143300.075000", "143300.535000", "143300.995000", "143301.455000", "143301.915000", "143302.375000", "143302.835000", "143303.295000", "143303.755000", "143304.215000", "143304.675000", "143305.135000", "143305.595000", "143306.055000", "143306.515000", "143306.975000", "143307.435000", "143307.895000", "143308.355000", "143308.815000", "143309.275000", "143309.735000", "143310.195000", "143310.655000", "143311.115000", "143311.575000", "143312.035000", "143312.495000", "143312.955000", "143313.415000", "143313.875000", "143314.335000", "143314.795000", "143315.255000", "143315.715000", "143316.175000", "143316.635000", "143317.095000", "143317.555000", "143318.015000", "143318.475000", "143318.935000", "143319.395000", "143319.855000", "143320.315000", "143320.775000", "143321.235000", "143321.695000", "143322.155000", "143322.615000", "143323.075000", "143323.535000", "143323.995000", "143324.455000", "143324.915000", "143325.375000", "143325.835000", "143326.295000", "143326.755000", "143327.215000", "143327.675000", "143328.135000", "143328.595000", "143329.055000", "143329.515000", "143329.975000", "143330.435000", "143330.895000", "143331.355000", "143331.815000", "143332.275000", "143332.735000", "143333.195000", "143333.655000", "143334.115000", "143334.575000", "143335.035000", "143335.495000", "143335.955000", "143336.415000", "143336.875000", "143337.335000", "143337.795000", "143338.255000", "143338.715000", "143339.175000", "143339.635000", "143340.095000", "143340.555000", "143341.015000", "143341.475000", "143341.935000", "143342.395000", "143342.855000", "143343.315000", "143343.775000", "143344.235000", "143344.695000", "143345.155000", "143345.615000", "143346.075000", "143346.535000", "143346.995000", "143347.455000", "143347.915000", "143348.375000", "143348.835000", "143349.295000", "143349.755000", "143350.215000", "143350.675000", "143351.135000", "143351.595000", "143352.055000", "143352.515000", "143352.975000", "143353.435000", "143353.895000", "143354.355000", "143354.815000", "143355.275000", "143355.735000", "143356.195000", "143356.655000", "143357.115000", "143357.575000", "143358.035000", "143358.495000", "143358.955000", "143359.415000", "143359.875000", "143400.335000", "143400.795000", "143401.255000", "143401.715000", "143402.175000", "143402.635000", "143403.095000", "143403.555000", "143404.015000", "143404.475000", "143404.935000", "143405.395000", "143405.855000", "143406.315000", "143406.775000", "143407.235000", "143407.695000", "143408.155000", "143408.615000", "143409.075000", "143409.535000", "143409.995000", "143410.455000", "143410.915000", "143411.375000", "143411.835000", "143412.295000", "143412.755000", "143413.215000", "143413.675000", "143414.135000", "143414.595000", "143415.055000", "143415.515000", "143415.975000", "143416.435000", "143416.895000", "143417.355000", "143417.815000", "143418.275000", "143418.735000", "143419.195000", "143419.655000", "143420.115000", "143420.575000", "143421.035000", "143421.495000", "143421.955000", "143422.415000", "143422.875000", "143423.335000", "143423.795000", "143424.255000", "143424.715000", "143425.175000", "143425.635000", "143426.095000", "143426.555000", "143427.015000", "143427.475000", "143427.935000", "143428.395000", "143428.855000", "143429.315000", "143429.775000", "143430.235000", "143430.695000", "143431.155000", "143431.615000", "143432.075000", "143432.535000", "143432.995000", "143433.455000", "143433.915000", "143434.375000", "143434.835000", "143435.295000", "143435.755000", "143436.215000", "143436.675000", "143437.135000", "143437.595000", "143438.055000", "143438.515000", "143438.975000", "143439.435000", "143439.895000", "143440.355000", "143440.815000", "143441.275000", "143441.735000", "143442.195000", "143442.655000", "143443.115000", "143443.575000", "143444.035000", "143444.495000", "143444.955000", "143445.415000", "143445.875000", "143446.335000", "143446.795000", "143447.255000", "143447.715000", "143448.175000", "143448.635000", "143449.095000", "143449.555000", "143450.015000", "143450.475000", "143450.935000", "143451.395000", "143451.855000", "143452.315000", "143452.775000", "143453.235000", "143453.695000", "143454.155000", "143454.615000", "143455.075000", "143455.535000", "143455.995000", "143456.455000", "143456.915000", "143457.375000", "143457.835000", "143458.295000", "143458.755000", "143459.215000", "143459.675000", "143500.135000", "143500.595000", "143501.055000", "143501.515000", "143501.975000", "143502.435000", "143502.895000", "143503.355000", "143503.815000", "143504.275000", "143504.735000", "143505.195000", "143505.655000", "143506.115000", "143506.575000", "143507.035000", "143507.495000", "143507.955000", "143508.415000", "143508.875000", "143509.335000", "143509.795000", "143510.255000", "143510.715000", "143511.175000", "143511.635000", "143512.095000", "143512.555000", "143513.015000", "143513.475000", "143513.935000", "143514.395000", "143514.855000", "143515.315000", "143515.775000", "143516.235000", "143516.695000", "143517.155000", "143517.615000", "143518.075000", "143518.535000", "143518.995000", "143519.455000", "143519.915000", "143520.375000", "143520.835000", "143521.295000", "143521.755000", "143522.215000", "143522.675000", "143523.135000", "143523.595000", "143524.055000", "143524.515000", "143524.975000", "143525.435000", "143525.895000", "143526.355000", "143526.815000", "143527.275000", "143527.735000", "143528.195000", "143528.655000", "143529.115000", "143529.575000", "143530.035000", "143530.495000", "143530.955000", "143531.415000", "143531.875000", "143532.335000", "143532.795000", "143533.255000", "143533.715000", "143534.175000", "143534.635000", "143535.095000", "143535.555000", "143536.015000", "143536.475000", "143536.935000", "143537.395000", "143537.855000", "143538.315000", "143538.775000", "143539.235000", "143539.695000", "143540.155000", "143540.615000", "143541.075000", "143541.535000", "143541.995000", "143542.455000", "143542.915000", "143543.375000", "143543.835000", "143544.295000", "143544.755000", "143545.215000", "143545.675000", "143546.135000", "143546.595000", "143547.055000", "143547.515000", "143547.975000", "143548.435000", "143548.895000", "143549.355000", "143549.815000", "143550.275000", "143550.735000", "143551.195000", "143551.655000", "143552.115000", "143552.575000", "143553.035000", "143553.495000", "143553.955000", "143554.415000", "143554.875000", "143555.335000", "143555.795000", "143556.255000", "143556.715000", "143557.175000", "143557.635000", "143558.095000", "143558.555000", "143559.015000", "143559.475000", "143559.935000", "143600.395000", "143600.855000", "143601.315000", "143601.775000", "143602.235000", "143602.695000", "143603.155000", "143603.615000", "143604.075000", "143604.535000", "143604.995000", "143605.455000", "143605.915000", "143606.375000", "143606.835000", "143607.295000", "143607.755000", "143608.215000", "143608.675000", "143609.135000", "143609.595000", "143610.055000", "143610.515000", "143610.975000", "143611.435000", "143611.895000", "143612.355000", "143612.815000", "143613.275000", "143613.735000", "143614.195000", "143614.655000", "143615.115000", "143615.575000", "143616.035000", "143616.495000", "143616.955000", "143617.415000", "143617.875000", "143618.335000", "143618.795000", "143619.255000", "143619.715000", "143620.175000", "143620.635000", "143621.095000", "143621.555000", "143622.015000", "143622.475000", "143622.935000", "143623.395000", "143623.855000", "143624.315000", "143624.775000", "143625.235000", "143625.695000", "143626.155000", "143626.615000", "143627.075000", "143627.535000", "143627.995000", "143628.455000", "143628.915000", "143629.375000", "143629.835000", "143630.295000", "143630.755000", "143631.215000", "143631.675000", "143632.135000", "143632.595000", "143633.055000", "143633.515000", "143633.975000", "143634.435000", "143634.895000", "143635.355000", "143635.815000", "143636.275000", "143636.735000", "143637.195000", "143637.655000", "143638.115000", "143638.575000", "143639.035000", "143639.495000", "143639.955000", "143640.415000", "143640.875000", "143641.335000", "143641.795000", "143642.255000", "143642.715000", "143643.175000", "143643.635000", "143644.095000", "143644.555000", "143645.015000", "143645.475000", "143645.935000", "143646.395000", "143646.855000", "143647.315000", "143647.775000", "143648.235000", "143648.695000", "143649.155000", "143649.615000", "143650.075000", "143650.535000", "143650.995000", "143651.455000", "143651.915000", "143652.375000", "143652.835000", "143653.295000", "143653.755000", "143654.215000", "143654.675000", "143655.135000", "143655.595000", "143656.055000", "143656.515000", "143656.975000", "143657.435000", "143657.895000", "143658.355000", "143658.815000", "143659.275000", "143659.735000", "143700.195000", "143700.655000", "143701.115000", "143701.575000", "143702.035000", "143702.495000", "143702.955000", "143703.415000", "143703.875000", "143704.335000", "143704.795000", "143705.255000", "143705.715000", "143706.175000", "143706.635000", "143707.095000", "143707.555000", "143708.015000", "143708.475000", "143708.935000", "143709.395000", "143709.855000", "143710.315000", "143710.775000", "143711.235000", "143711.695000", "143712.155000", "143712.615000", "143713.075000", "143713.535000", "143713.995000", "143714.455000", "143714.915000", "143715.375000", "143715.835000", "143716.295000", "143716.755000", "143717.215000", "143717.675000", "143718.135000", "143718.595000", "143719.055000", "143719.515000", "143719.975000", "143720.435000", "143720.895000", "143721.355000", "143721.815000", "143722.275000", "143722.735000", "143723.195000", "143723.655000", "143724.115000", "143724.575000", "143725.035000", "143725.495000", "143725.955000", "143726.415000", "143726.875000", "143727.335000", "143727.795000", "143728.255000", "143728.715000", "143729.175000", "143729.635000", "143730.095000", "143730.555000", "143731.015000", "143731.475000", "143731.935000", "143732.395000", "143732.855000", "143733.315000", "143733.775000", "143734.235000", "143734.695000", "143735.155000", "143735.615000", "143736.075000", "143736.535000", "143736.995000", "143737.455000", "143737.915000", "143738.375000", "143738.835000", "143739.295000", "143739.755000", "143740.215000", "143740.675000", "143741.135000", "143741.595000", "143742.055000", "143742.515000", "143742.975000", "143743.435000", "143743.895000", "143744.355000", "143744.815000", "143745.275000", "143745.735000", "143746.195000", "143746.655000", "143747.115000", "143747.575000", "143748.035000", "143748.495000", "143748.955000", "143749.415000", "143749.875000", "143750.335000", "143750.795000", "143751.255000", "143751.715000", "143752.175000", "143752.635000", "143753.095000", "143753.555000", "143754.015000", "143754.475000", "143754.935000", "143755.395000", "143755.855000", "143756.315000", "143756.775000", "143757.235000", "143757.695000", "143758.155000", "143758.615000", "143759.075000", "143759.535000", "143759.995000", "143800.455000", "143800.915000", "143801.375000", "143801.835000", "143802.295000", "143802.755000", "143803.215000", "143803.675000", "143804.135000", "143804.595000", "143805.055000", "143805.515000", "143805.975000", "143806.435000", "143806.895000", "143807.355000", "143807.815000", "143808.275000", "143808.735000", "143809.195000", "143809.655000", "143810.115000", "143810.575000", "143811.035000", "143811.495000", "143811.955000", "143812.415000", "143812.875000", "143813.335000", "143813.795000", "143814.255000", "143814.715000", "143815.175000", "143815.635000", "143816.095000", "143816.555000", "143817.015000", "143817.475000", "143817.935000", "143818.395000", "143818.855000", "143819.315000", "143819.775000", "143820.235000", "143820.695000", "143821.155000", "143821.615000", "143822.075000", "143822.535000", "143822.995000", "143823.455000", "143823.915000", "143824.375000", "143824.835000", "143825.295000", "143825.755000", "143826.215000", "143826.675000", "143827.135000", "143827.595000", "143828.055000", "143828.515000", "143828.975000"],
