{
  "AcquisitionMatrixPE": 140,
  "AcquisitionNumber": 1,
  "AcquisitionTime": "20:49:42.067500",
  "BandwidthPerPixelPhaseEncode": 10.352,
  "BaseResolution": 140,
  "BodyPartExamined": "BRAIN",
  "ConsistencyInfo": "N4_VE11E_LATEST_20181129",
  "ConversionSoftware": "dcm2niix",
  "ConversionSoftwareVersion": "v1.0.20201102",
  "DerivedVendorReportedEchoSpacing": 0.000689998,
  "DeviceSerialNumber": "66112",
  "DiffusionScheme": "Monopolar",
  "DwellTime": 2.1e-06,
  "EchoTime": 0.0884,
  "EchoTrainLength": 105,
  "EffectiveEchoSpacing": 0.000689998,
  "FlipAngle": 90,
  "ImageComments": "Unaliased MB3/PE3 SENSE1",
  "ImageOrientationPatientDICOM": [0.998138, -0.0541804, -0.0280313, 0.0580767, 0.984598, 0.164908],
  "ImageType": [
    "ORIGINAL",
    "PRIMARY",
    "DIFFUSION",
    "NONE",
    "MB",
    "ND",
    "MOSAIC"
],
  "ImagingFrequency": 123.259,
  "InPlanePhaseEncodingDirectionDICOM": "COL",
  "InstitutionAddress": "Maynard 3,Hanover,NH,US,03755",
  "InstitutionName": "Dartmouth College - PBS",
  "InstitutionalDepartmentName": "Department",
  "MRAcquisitionType": "2D",
  "MagneticFieldStrength": 3,
  "Manufacturer": "Siemens",
  "ManufacturersModelName": "Prisma",
  "Modality": "MR",
  "MultibandAccelerationFactor": 3,
  "PartialFourier": 0.75,
  "PatientPosition": "HFS",
  "PercentPhaseFOV": 100,
  "PercentSampling": 100,
  "PhaseEncodingDirection": "j-",
  "PhaseEncodingSteps": 105,
  "PhaseResolution": 1,
  "PixelBandwidth": 1700,
  "ProcedureStepDescription": "Wager_Wager^1076_spacetop",
  "ProtocolName": "dwi_acq-96dir-6b0-mb",
  "PulseSequenceDetails": "%CustomerSeq%\\cmrr_mbep2d_diff",
  "ReceiveCoilActiveElements": "HEA;HEP",
  "ReceiveCoilName": "Head_32",
  "ReconMatrixPE": 140,
  "RepetitionTime": 4.11,
  "SAR": 0.245501,
  "ScanOptions": "PFP\\FS",
  "ScanningSequence": "EP",
  "SequenceName": "ep_b5#1",
  "SequenceVariant": "SK\\SS",
  "SeriesDescription": "dwi_acq-96dir-6b0-mb",
  "SeriesNumber": 8,
  "ShimSetting": [4222, -7781, -7258, 318, -91, 33, -17, 88],
  "SliceThickness": 1.7,
  "SliceTiming": [0, 2.12, 0.1525, 2.2725, 0.3025, 2.425, 0.455, 2.575, 0.605, 2.7275, 0.7575, 2.8775, 0.91, 3.03, 1.06, 3.1825, 1.2125, 3.3325, 1.3625, 3.485, 1.515, 3.635, 1.6675, 3.7875, 1.8175, 3.94, 1.97, 0, 2.12, 0.1525, 2.2725, 0.3025, 2.425, 0.455, 2.575, 0.605, 2.7275, 0.7575, 2.8775, 0.91, 3.03, 1.06, 3.1825, 1.2125, 3.3325, 1.3625, 3.485, 1.515, 3.635, 1.6675, 3.7875, 1.8175, 3.94, 1.97, 0, 2.12, 0.1525, 2.2725, 0.3025, 2.425, 0.455, 2.575, 0.605, 2.7275, 0.7575, 2.8775, 0.91, 3.03, 1.06, 3.1825, 1.2125, 3.3325, 1.3625, 3.485, 1.515, 3.635, 1.6675, 3.7875, 1.8175, 3.94, 1.97],
  "SoftwareVersions": "syngo MR E11",
  "SpacingBetweenSlices": 1.7,
  "StationName": "AWP66112",
  "TotalReadoutTime": 0.0959097,
  "TxRefAmp": 241.594,
  "WipMemBlock": "1a5571e8-74f0-4d89-a36b-7eaf6f5877f2||Sequence: R016 ve11e/master r/434b28f1; Aug  7 2019 19:06:17 by eja",
  "dcmmeta_affine": [
    [-1.7110930681228638, 0.09955999255180359, -0.03173001855611801, 119.58523559570312],
    [0.0928807333111763, 1.687881588935852, 0.2825893759727478, -123.4723892211914],
    [-0.048053592443466187, -0.2826997637748718, 1.676047921180725, -56.42512893676758],
    [0.0, 0.0, 0.0, 1.0]
],
  "dcmmeta_reorient_transform": [
    [0.0, -1.0, 0.0, 139.0],
    [1.0, 0.0, 0.0, 0.0],
    [0.0, 0.0, 1.0, 0.0],
    [0.0, 0.0, 0.0, 1.0]
],
  "dcmmeta_shape": [140, 140, 81, 103],
  "dcmmeta_slice_dim": 2,
  "dcmmeta_version": 0.6,
  "global": {
    "const": {
      "AccessionNumber": "A004464",
      "AcquisitionMatrix": [140, 0, 0, 140],
      "AngioFlag": "N",
      "BitsAllocated": 16,
      "BitsStored": 16,
      "BodyPartExamined": "BRAIN",
      "Columns": 1260,
      "EchoNumbers": 1,
      "EchoTime": 88.4,
      "EchoTrainLength": 105,
      "FlipAngle": 90.0,
      "HighBit": 15,
      "ImageOrientationPatient": [0.99813763054973, -0.0541804280968, -0.0280312627581, 0.05807666346541, 0.98459757600102, 0.16490820020135],
      "ImagePositionPatient": [-1147.3898083768, -1004.3436214213, -227.12225992282],
      "ImageType": [
        "ORIGINAL",
        "PRIMARY",
        "DIFFUSION",
        "NONE",
        "MB",
        "ND",
        "MOSAIC"
],
      "ImagedNucleus": "1H",
      "ImagingFrequency": 123.259107,
      "InPlanePhaseEncodingDirection": "COL",
      "MRAcquisitionType": "2D",
      "MagneticFieldStrength": 3.0,
      "Manufacturer": "SIEMENS",
      "ManufacturerModelName": "Prisma",
      "Modality": "MR",
      "NumberOfAverages": 1.0,
      "NumberOfPhaseEncodingSteps": 105,
      "PercentPhaseFieldOfView": 100.0,
      "PercentSampling": 100.0,
      "PerformedProcedureStepStartTime": "202635.875000",
      "PhotometricInterpretation": "MONOCHROME2",
      "PixelBandwidth": 1700.0,
      "PixelRepresentation": 0,
      "PixelSpacing": [1.7142857313156, 1.7142857313156],
      "ProtocolName": "dwi_acq-96dir-6b0-mb",
      "RepetitionTime": 4110.0,
      "Rows": 1260,
      "SAR": 0.24550085319162,
      "SamplesPerPixel": 1,
      "ScanOptions": [
        "PFP",
        "FS"
],
      "ScanningSequence": "EP",
      "SequenceVariant": [
        "SK",
        "SS"
],
      "SeriesDescription": "dwi_acq-96dir-6b0-mb",
      "SeriesNumber": 8,
      "SeriesTime": "205113.882000",
      "SliceLocation": -78.386850138136,
      "SliceThickness": 1.7000000476837,
      "SmallestImagePixelValue": 0,
      "SoftwareVersions": "syngo MR E11",
      "SpacingBetweenSlices": 1.700000028288,
      "SpecificCharacterSet": "ISO_IR 100",
      "StudyID": "1",
      "StudyTime": "202635.813000",
      "TransmitCoilName": "Body",
      "VariableFlipAngleFlag": "N",
      "WindowCenterWidthExplanation": "Algo1"
    },
    "slices": {}
  },
  "time": {
    "samples": {
      "AcquisitionNumber": [1, 2, 3, 4, 5, 6, 7, 8, 9, 10, 11, 12, 13, 14, 15, 16, 17, 18, 19, 20, 21, 22, 23, 24, 25, 26, 27, 28, 29, 30, 31, 32, 33, 34, 35, 36, 37, 38, 39, 40, 41, 42, 43, 44, 45, 46, 47, 48, 49, 50, 51, 52, 53, 54, 55, 56, 57, 58, 59, 60, 61, 62, 63, 64, 65, 66, 67, 68, 69, 70, 71, 72, 73, 74, 75, 76, 77, 78, 79, 80, 81, 82, 83, 84, 85, 86, 87, 88, 89, 90, 91, 92, 93, 94, 95, 96, 97, 98, 99, 100, 101, 102, 103],
      "AcquisitionTime": ["204942.067500", "204946.177500", "204950.287500", "204954.397500", "204958.507500", "205002.617500", "205006.727500", "205010.837500", "205014.947500", "205019.057500", "205023.167500", "205027.277500", "205031.387500", "205035.497500", "205039.607500", "205043.717500", "205047.827500", "205051.937500", "205056.047500", "205100.157500", "205104.267500", "205108.377500", "205112.487500", "205116.597500", "205120.707500", "205124.817500", "205128.927500", "205133.037500", "205137.147500", "205141.257500", "205145.367500", "205149.477500", "205153.587500", "205157.697500", "205201.807500", "205205.917500", "205210.027500", "205214.137500", "205218.247500", "205222.357500", "205226.467500", "205230.577500", "205234.687500", "205238.797500", "205242.907500", "205247.017500", "205251.127500", "205255.237500", "205259.347500", "205303.457500", "205307.567500", "205311.677500", "205315.787500", "205319.897500", "205324.007500", "205328.117500", "205332.227500", "205336.337500", "205340.447500", "205344.557500", "205348.667500", "205352.777500", "205356.887500", "205400.997500", "205405.107500", "205409.217500", "205413.327500", "205417.437500", "205421.547500", "205425.657500", "205429.767500", "205433.877500", "205437.987500", "205442.097500", "205446.207500", "205450.317500", "205454.427500", "205458.537500", "205502.647500", "205506.757500", "205510.867500", "205514.977500", "205519.087500", "205523.197500", "205527.307500", "205531.417500", "205535.527500", "205539.637500", "205543.747500", "205547.857500", "205551.967500", "205556.077500", "205600.187500", "205604.297500", "205608.407500", "205612.517500", "205616.627500", "205620.737500", "205624.847500", "205628.957500", "205633.067500", "205637.177500", "205641.287500"],
      "ContentTime": ["205113.886000", "205113.889000", "205113.892000", "205113.895000", "205113.898000", "205113.901000", "205113.911000", "205113.914000", "205113.917000", "205113.920000", "205113.923000", "205113.926000", "205113.935000", "205113.938000", "205113.941000", "205113.944000", "205113.947000", "205113.950000", "205113.953000", "205113.956000", "205113.959000", "205113.962000", "205253.881000", "205253.884000", "205253.887000", "205253.890000", "205253.894000", "205253.896000", "205253.899000", "205253.902000", "205253.905000", "205253.909000", "205253.912000", "205253.915000", "205253.918000", "205253.921000", "205253.924000", "205253.927000", "205253.929000", "205253.932000", "205253.935000", "205253.938000", "205253.941000", "205253.944000", "205253.947000", "205253.950000", "205353.881000", "205353.885000", "205353.892000", "205353.895000", "205353.898000", "205353.901000", "205353.905000", "205353.908000", "205353.911000", "205353.915000", "205353.918000", "205353.921000", "205353.924000", "205353.927000", "205353.931000", "205533.881000", "205533.884000", "205533.887000", "205533.890000", "205533.893000", "205533.896000", "205533.899000", "205533.902000", "205533.905000", "205533.908000", "205533.911000", "205533.914000", "205533.917000", "205533.920000", "205533.923000", "205533.926000", "205533.929000", "205533.932000", "205533.935000", "205533.938000", "205533.941000", "205533.944000", "205533.947000", "205533.950000", "205646.100000", "205646.104000", "205646.107000", "205646.110000", "205646.114000", "205646.117000", "205646.120000", "205646.124000", "205646.127000", "205646.130000", "205646.133000", "205646.136000", "205646.140000", "205646.143000", "205646.147000", "205646.150000", "205646.153000", "205646.157000"],
      "InstanceCreationTime": ["205113.886000", "205113.889000", "205113.892000", "205113.895000", "205113.898000", "205113.901000", "205113.911000", "205113.914000", "205113.917000", "205113.920000", "205113.923000", "205113.926000", "205113.935000", "205113.938000", "205113.941000", "205113.944000", "205113.947000", "205113.950000", "205113.953000", "205113.956000", "205113.959000", "205113.962000", "205253.881000", "205253.884000", "205253.887000", "205253.890000", "205253.894000", "205253.896000", "205253.899000", "205253.902000", "205253.905000", "205253.909000", "205253.912000", "205253.915000", "205253.918000", "205253.921000", "205253.924000", "205253.927000", "205253.929000", "205253.932000", "205253.935000", "205253.938000", "205253.941000", "205253.944000", "205253.947000", "205253.950000", "205353.881000", "205353.885000", "205353.892000", "205353.895000", "205353.898000", "205353.901000", "205353.905000", "205353.908000", "205353.911000", "205353.915000", "205353.918000", "205353.921000", "205353.924000", "205353.927000", "205353.931000", "205533.881000", "205533.884000", "205533.887000", "205533.890000", "205533.893000", "205533.896000", "205533.899000", "205533.902000", "205533.905000", "205533.908000", "205533.911000", "205533.914000", "205533.917000", "205533.920000", "205533.923000", "205533.926000", "205533.929000", "205533.932000", "205533.935000", "205533.938000", "205533.941000", "205533.944000", "205533.947000", "205533.950000", "205646.100000", "205646.104000", "205646.107000", "205646.110000", "205646.114000", "205646.117000", "205646.120000", "205646.124000", "205646.127000", "205646.130000", "205646.133000", "205646.136000", "205646.140000", "205646.143000", "205646.147000", "205646.150000", "205646.153000", "205646.157000"],
      "InstanceNumber": [1, 2, 3, 4, 5, 6, 7, 8, 9, 10, 11, 12, 13, 14, 15, 16, 17, 18, 19, 20, 21, 22, 23, 24, 25, 26, 27, 28, 29, 30, 31, 32, 33, 34, 35, 36, 37, 38, 39, 40, 41, 42, 43, 44, 45, 46, 47, 48, 49, 50, 51, 52, 53, 54, 55, 56, 57, 58, 59, 60, 61, 62, 63, 64, 65, 66, 67, 68, 69, 70, 71, 72, 73, 74, 75, 76, 77, 78, 79, 80, 81, 82, 83, 84, 85, 86, 87, 88, 89, 90, 91, 92, 93, 94, 95, 96, 97, 98, 99, 100, 101, 102, 103],
      "LargestImagePixelValue": [65535, 65535, 61747, 59135, 59451, 63300, 62186, 57893, 65535, 41095, 45009, 43448, 42792, 45928, 41531, 42753, 40991, 41151, 42368, 39656, 41817, 42450, 44998, 38907, 65535, 20227, 21535, 22020, 19994, 21688, 26078, 20407, 24937, 21273, 24017, 22797, 20520, 19731, 21851, 19814, 65535, 11495, 12799, 14771, 14111, 11711, 10403, 12672, 12661, 11084, 13110, 14139, 13293, 15006, 13570, 11882, 12412, 11469, 13919, 14672, 10683, 13475, 12102, 12114, 12469, 13781, 11253, 10556, 11779, 11877, 11271, 12663, 13255, 65535, 14332, 13217, 11722, 11729, 12532, 12677, 11145, 15589, 11199, 11051, 11565, 12575, 14673, 12456, 11739, 13675, 12142, 13014, 13435, 11021, 13283, 14002, 11432, 10505, 13023, 11224, 11739, 12493, 65535],
      "SequenceName": [
 "ep_b5#1",
 "ep_b5#1",
 "ep_b500#2",
 "ep_b500#3",
 "ep_b500#4",
 "ep_b505#5",
 "ep_b495#6",
 "ep_b500#7",
 "ep_b5#8",
 "ep_b1000#9",
 "ep_b1005#10",
 "ep_b995#11",
 "ep_b1005#12",
 "ep_b995#13",
 "ep_b995#14",
 "ep_b1005#15",
 "ep_b1000#16",
 "ep_b1000#17",
 "ep_b995#18",
 "ep_b1000#19",
 "ep_b995#20",
 "ep_b1000#21",
 "ep_b1005#22",
 "ep_b1005#23",
 "ep_b5#24",
 "ep_b2000#25",
 "ep_b1995#26",
 "ep_b1995#27",
 "ep_b1995#28",
 "ep_b2005#29",
 "ep_b2010#30",
 "ep_b2005#31",
 "ep_b2005#32",
 "ep_b1995#33",
 "ep_b1990#34",
 "ep_b1995#35",
 "ep_b2005#36",
 "ep_b2000#37",
 "ep_b2010#38",
 "ep_b2000#39",
 "ep_b5#40",
 "ep_b3000#41",
 "ep_b3005#42",
 "ep_b3010#43",
 "ep_b3010#44",
 "ep_b3000#45",
 "ep_b3000#46",
 "ep_b2990#47",
 "ep_b3005#48",
 "ep_b3000#49",
 "ep_b2990#50",
 "ep_b2990#51",
 "ep_b2995#52",
 "ep_b2995#53",
 "ep_b3010#54",
 "ep_b3000#55",
 "ep_b2995#56",
 "ep_b3000#57",
 "ep_b2990#58",
 "ep_b2990#59",
 "ep_b3000#60",
 "ep_b2990#61",
 "ep_b2990#62",
 "ep_b2995#63",
 "ep_b3005#64",
 "ep_b3010#65",
 "ep_b3000#66",
 "ep_b3005#67",
 "ep_b3010#68",
 "ep_b3005#69",
 "ep_b3005#70",
 "ep_b3005#71",
 "ep_b2990#72",
 "ep_b5#73",
 "ep_b3010#74",
 "ep_b3000#75",
 "ep_b3005#76",
 "ep_b3005#77",
 "ep_b2995#78",
 "ep_b3005#79",
 "ep_b2995#80",
 "ep_b3010#81",
 "ep_b3010#82",
 "ep_b3005#83",
 "ep_b3000#84",
 "ep_b3005#85",
 "ep_b3010#86",
 "ep_b3010#87",
 "ep_b2990#88",
 "ep_b3010#89",
 "ep_b2995#90",
 "ep_b2995#91",
 "ep_b2995#92",
 "ep_b2995#93",
 "ep_b3005#94",
 "ep_b3005#95",
 "ep_b2995#96",
 "ep_b3000#97",
 "ep_b2990#98",
 "ep_b3000#99",
 "ep_b2995#100",
 "ep_b2995#101",
 "ep_b5#102"
],
      "WindowCenter": [10919.0, 10923.0, 7143.0, 7184.0, 7121.0, 7149.0, 7234.0, 7167.0, 10914.0, 5262.0, 5391.0, 5316.0, 5292.0, 5407.0, 5344.0, 5336.0, 5331.0, 5299.0, 5334.0, 5261.0, 5369.0, 5331.0, 5345.0, 5324.0, 10915.0, 3356.0, 3368.0, 3465.0, 3454.0, 3420.0, 3520.0, 3380.0, 3442.0, 3404.0, 3506.0, 3449.0, 3347.0, 3372.0, 3433.0, 3386.0, 10908.0, 2365.0, 2385.0, 2480.0, 2509.0, 2375.0, 2371.0, 2476.0, 2397.0, 2344.0, 2464.0, 2524.0, 2417.0, 2481.0, 2430.0, 2353.0, 2405.0, 2376.0, 2499.0, 2521.0, 2371.0, 2444.0, 2464.0, 2447.0, 2458.0, 2480.0, 2339.0, 2347.0, 2409.0, 2369.0, 2347.0, 2471.0, 2485.0, 10909.0, 2519.0, 2436.0, 2378.0, 2393.0, 2419.0, 2372.0, 2358.0, 2499.0, 2399.0, 2358.0, 2365.0, 2390.0, 2449.0, 2417.0, 2425.0, 2494.0, 2437.0, 2426.0, 2429.0, 2373.0, 2401.0, 2442.0, 2439.0, 2330.0, 2473.0, 2366.0, 2367.0, 2435.0, 10924.0],
      "WindowWidth": [25026.0, 25050.0, 15208.0, 15300.0, 15171.0, 15241.0, 15394.0, 15269.0, 25022.0, 11422.0, 11674.0, 11522.0, 11483.0, 11708.0, 11589.0, 11565.0, 11541.0, 11500.0, 11556.0, 11426.0, 11624.0, 11537.0, 11575.0, 11540.0, 25023.0, 7670.0, 7700.0, 7895.0, 7853.0, 7798.0, 7982.0, 7725.0, 7836.0, 7764.0, 7959.0, 7859.0, 7673.0, 7712.0, 7826.0, 7741.0, 24993.0, 5721.0, 5746.0, 5937.0, 5993.0, 5744.0, 5757.0, 5950.0, 5766.0, 5703.0, 5922.0, 6028.0, 5831.0, 5943.0, 5852.0, 5711.0, 5800.0, 5739.0, 5984.0, 6012.0, 5751.0, 5874.0, 5932.0, 5893.0, 5906.0, 5938.0, 5683.0, 5715.0, 5824.0, 5747.0, 5713.0, 5935.0, 5956.0, 24995.0, 6004.0, 5838.0, 5749.0, 5788.0, 5824.0, 5725.0, 5733.0, 5954.0, 5812.0, 5730.0, 5726.0, 5769.0, 5859.0, 5819.0, 5857.0, 5958.0, 5880.0, 5823.0, 5841.0, 5766.0, 5788.0, 5868.0, 5889.0, 5675.0, 5937.0, 5735.0, 5732.0, 5880.0, 25034.0]
    },
    "slices": {}
  }
}