{
  "AcquisitionMatrixPE": 140,
  "AcquisitionNumber": 1,
  "AcquisitionTime": "17:09:20.997500",
  "BandwidthPerPixelPhaseEncode": 10.352,
  "BaseResolution": 140,
  "BodyPartExamined": "BRAIN",
  "ConsistencyInfo": "N4_VE11E_LATEST_20181129",
  "ConversionSoftware": "dcm2niix",
  "ConversionSoftwareVersion": "v1.0.20201102",
  "DerivedVendorReportedEchoSpacing": 0.000689998,
  "DeviceSerialNumber": "66112",
  "DiffusionScheme": "Monopolar",
  "DwellTime": 2.1e-06,
  "EchoTime": 0.088,
  "EchoTrainLength": 105,
  "EffectiveEchoSpacing": 0.000689998,
  "FlipAngle": 90,
  "ImageComments": "Unaliased MB3/PE3",
  "ImageOrientationPatientDICOM": [0.999677, 0.0220658, -0.0126489, -0.012912, 0.868759, 0.495067],
  "ImageType": [
    "ORIGINAL",
    "PRIMARY",
    "DIFFUSION",
    "NONE",
    "MB",
    "ND"
],
  "ImagingFrequency": 123.252,
  "InPlanePhaseEncodingDirectionDICOM": "COL",
  "InstitutionAddress": "Maynard 3,Hanover,NH,US,03755",
  "InstitutionName": "Dartmouth College - PBS",
  "InstitutionalDepartmentName": "Department",
  "IntendedFor": [
    "ses-01/dwi/sub-0089_ses-01_acq-96dirX6b0Xmb_dwi.nii.gz"
],
  "MRAcquisitionType": "2D",
  "MagneticFieldStrength": 3,
  "Manufacturer": "Siemens",
  "ManufacturersModelName": "Prisma",
  "Modality": "MR",
  "MultibandAccelerationFactor": 3,
  "PartialFourier": 0.75,
  "PatientPosition": "HFS",
  "PercentPhaseFOV": 100,
  "PercentSampling": 100,
  "PhaseEncodingDirection": "j-",
  "PhaseEncodingSteps": 105,
  "PhaseResolution": 1,
  "PixelBandwidth": 1700,
  "ProcedureStepDescription": "Wager_Wager^1076_spacetop",
  "ProtocolName": "dwi_acq-discorr-AP",
  "PulseSequenceDetails": "%CustomerSeq%\\cmrr_mbep2d_diff",
  "ReceiveCoilActiveElements": "HEA;HEP",
  "ReceiveCoilName": "Head_32",
  "ReconMatrixPE": 140,
  "RepetitionTime": 4.1,
  "SAR": 0.174095,
  "ScanOptions": "PFP\\FS",
  "ScanningSequence": "EP",
  "SequenceName": "ep_b0",
  "SequenceVariant": "SK\\SS",
  "SeriesDescription": "dwi_acq-discorr-AP",
  "SeriesNumber": 7,
  "ShimSetting": [4143, -7816, -7237, 571, -58, -144, 65, 67],
  "SliceThickness": 1.7,
  "SliceTiming": [0, 2.10938, 0.14062, 2.26562, 0.29688, 2.42188, 0.45312, 2.5625, 0.59375, 2.71875, 0.75, 2.875, 0.90625, 3.01562, 1.0625, 3.17188, 1.20312, 3.3125, 1.35938, 3.46875, 1.5, 3.625, 1.65625, 3.78125, 1.8125, 3.92188, 1.95312, 0, 2.10938, 0.14062, 2.26562, 0.29688, 2.42188, 0.45312, 2.5625, 0.59375, 2.71875, 0.75, 2.875, 0.90625, 3.01562, 1.0625, 3.17188, 1.20312, 3.3125, 1.35938, 3.46875, 1.5, 3.625, 1.65625, 3.78125, 1.8125, 3.92188, 1.95312, 0, 2.10938, 0.14062, 2.26562, 0.29688, 2.42188, 0.45312, 2.5625, 0.59375, 2.71875, 0.75, 2.875, 0.90625, 3.01562, 1.0625, 3.17188, 1.20312, 3.3125, 1.35938, 3.46875, 1.5, 3.625, 1.65625, 3.78125, 1.8125, 3.92188, 1.95312],
  "SoftwareVersions": "syngo MR E11",
  "SpacingBetweenSlices": 1.7,
  "StationName": "AWP66112",
  "TotalReadoutTime": 0.0959097,
  "TxRefAmp": 239.558,
  "WipMemBlock": "07122da9-a29d-4839-ab5c-78212103eb2d||Sequence: R016 ve11e/master r/434b28f1; Aug  7 2019 19:06:17 by eja",
  "dcmmeta_affine": [
    [-1.7137311697006226, -0.022134868428111076, -0.03725230693817139, 126.23084259033203],
    [-0.03782714903354645, 1.4893006086349487, 0.841064453125, -105.03223419189453],
    [-0.02168383076786995, -0.8486868739128113, 1.4768905639648438, 26.787803649902344],
    [0.0, 0.0, 0.0, 1.0]
],
  "dcmmeta_reorient_transform": [
    [0.0, -1.0, 0.0, 139.0],
    [1.0, 0.0, 0.0, 0.0],
    [0.0, 0.0, -1.0, 80.0],
    [0.0, 0.0, 0.0, 1.0]
],
  "dcmmeta_shape": [140, 140, 81],
  "dcmmeta_slice_dim": 2,
  "dcmmeta_version": 0.6,
  "global": {
    "const": {
      "AccessionNumber": "A004115",
      "AcquisitionMatrix": [140, 0, 0, 140],
      "AcquisitionNumber": 1,
      "AngioFlag": "N",
      "BitsAllocated": 16,
      "BitsStored": 16,
      "BodyPartExamined": "BRAIN",
      "Columns": 140,
      "EchoNumbers": 1,
      "EchoTime": 88.0,
      "EchoTrainLength": 105,
      "FlipAngle": 90.0,
      "HighBit": 15,
      "ImageOrientationPatient": [0.99967649972865, 0.0220658375322, -0.012648901307, -0.0129120064764, 0.86875865800745, 0.49506734312198],
      "ImageType": [
        "ORIGINAL",
        "PRIMARY",
        "DIFFUSION",
        "NONE",
        "MB",
        "ND"
],
      "ImagedNucleus": "1H",
      "ImagingFrequency": 123.252146,
      "InPlanePhaseEncodingDirection": "COL",
      "MRAcquisitionType": "2D",
      "MagneticFieldStrength": 3.0,
      "Manufacturer": "SIEMENS",
      "ManufacturerModelName": "Prisma",
      "Modality": "MR",
      "NumberOfAverages": 1.0,
      "NumberOfPhaseEncodingSteps": 105,
      "PercentPhaseFieldOfView": 100.0,
      "PercentSampling": 100.0,
      "PerformedProcedureStepStartTime": "164920.849000",
      "PhotometricInterpretation": "MONOCHROME2",
      "PixelBandwidth": 1700.0,
      "PixelRepresentation": 0,
      "PixelSpacing": [1.7142857313156, 1.7142857313156],
      "ProtocolName": "dwi_acq-discorr-AP",
      "RepetitionTime": 4100.0,
      "Rows": 140,
      "SAR": 0.17409517318796,
      "SamplesPerPixel": 1,
      "ScanOptions": [
        "PFP",
        "FS"
],
      "ScanningSequence": "EP",
      "SequenceName": "ep_b0",
      "SequenceVariant": [
        "SK",
        "SS"
],
      "SeriesDescription": "dwi_acq-discorr-AP",
      "SeriesNumber": 7,
      "SeriesTime": "170925.883000",
      "SliceThickness": 1.7000000476837,
      "SmallestImagePixelValue": 0,
      "SoftwareVersions": "syngo MR E11",
      "SpacingBetweenSlices": 1.7,
      "SpecificCharacterSet": "ISO_IR 100",
      "StudyID": "1",
      "StudyTime": "164920.778000",
      "TransmitCoilName": "Body",
      "VariableFlipAngleFlag": "N",
      "WindowCenterWidthExplanation": "Algo1"
    },
    "slices": {
      "AcquisitionTime": ["170920.997500", "170923.112500", "170921.147500", "170923.262500", "170921.300000", "170923.415000", "170921.450000", "170923.565000", "170921.600000", "170923.717500", "170921.752500", "170923.867500", "170921.902500", "170924.020000", "170922.055000", "170924.170000", "170922.205000", "170924.320000", "170922.357500", "170924.472500", "170922.507500", "170924.622500", "170922.660000", "170924.775000", "170922.810000", "170924.925000", "170922.960000", "170920.997500", "170923.112500", "170921.147500", "170923.262500", "170921.300000", "170923.415000", "170921.450000", "170923.565000", "170921.600000", "170923.717500", "170921.752500", "170923.867500", "170921.902500", "170924.020000", "170922.055000", "170924.170000", "170922.205000", "170924.320000", "170922.357500", "170924.472500", "170922.507500", "170924.622500", "170922.660000", "170924.775000", "170922.810000", "170924.925000", "170922.960000", "170920.997500", "170923.112500", "170921.147500", "170923.262500", "170921.300000", "170923.415000", "170921.450000", "170923.565000", "170921.600000", "170923.717500", "170921.752500", "170923.867500", "170921.902500", "170924.020000", "170922.055000", "170924.170000", "170922.205000", "170924.320000", "170922.357500", "170924.472500", "170922.507500", "170924.622500", "170922.660000", "170924.775000", "170922.810000", "170924.925000", "170922.960000"],
      "ContentTime": ["170925.886000", "170925.985000", "170925.893000", "170925.991000", "170925.899000", "170926.003000", "170925.905000", "170926.010000", "170925.911000", "170926.017000", "170925.918000", "170926.024000", "170925.925000", "170926.030000", "170925.931000", "170926.036000", "170925.938000", "170926.043000", "170925.954000", "170926.050000", "170925.960000", "170926.056000", "170925.966000", "170926.063000", "170925.972000", "170926.069000", "170925.978000", "170925.889000", "170925.987000", "170925.895000", "170925.993000", "170925.901000", "170926.005000", "170925.907000", "170926.012000", "170925.913000", "170926.019000", "170925.920000", "170926.026000", "170925.927000", "170926.032000", "170925.933000", "170926.039000", "170925.949000", "170926.045000", "170925.956000", "170926.052000", "170925.962000", "170926.059000", "170925.968000", "170926.065000", "170925.974000", "170926.071000", "170925.980000", "170925.891000", "170925.989000", "170925.897000", "170925.995000", "170925.903000", "170926.007000", "170925.909000", "170926.015000", "170925.916000", "170926.021000", "170925.923000", "170926.028000", "170925.929000", "170926.034000", "170925.936000", "170926.041000", "170925.952000", "170926.047000", "170925.958000", "170926.054000", "170925.964000", "170926.061000", "170925.970000", "170926.067000", "170925.976000", "170926.073000", "170925.983000"],
      "CsaImage.GSWDDataType": [
        "predicted",
        "predicted",
        "predicted",
        "predicted",
        "predicted",
        "predicted",
        "predicted",
        "predicted",
        "predicted",
        "predicted",
        "predicted",
        "predicted",
        "predicted",
        "predicted",
        "predicted",
        "predicted",
        "predicted",
        "predicted",
        "predicted",
        "predicted",
        "predicted",
        "predicted",
        "predicted",
        "measured",
        "predicted",
        "measured",
        "predicted",
        "predicted",
        "predicted",
        "predicted",
        "predicted",
        "predicted",
        "predicted",
        "predicted",
        "predicted",
        "predicted",
        "predicted",
        "predicted",
        "predicted",
        "predicted",
        "predicted",
        "predicted",
        "predicted",
        "predicted",
        "predicted",
        "predicted",
        "predicted",
        "predicted",
        "predicted",
        "predicted",
        "measured",
        "predicted",
        "measured",
        "predicted",
        "predicted",
        "predicted",
        "predicted",
        "predicted",
        "predicted",
        "predicted",
        "predicted",
        "predicted",
        "predicted",
        "predicted",
        "predicted",
        "predicted",
        "predicted",
        "predicted",
        "predicted",
        "predicted",
        "predicted",
        "predicted",
        "predicted",
        "predicted",
        "predicted",
        "predicted",
        "predicted",
        "measured",
        "predicted",
        "measured",
        "predicted"
],
      "CsaImage.ICE_Dims": [
        "X_1_1_1_1_1_1_1_1_1_1_1_152",
        "X_1_1_1_1_1_1_42_1_1_2_1_152",
        "X_1_1_1_1_1_1_2_1_1_3_1_152",
        "X_1_1_1_1_1_1_43_1_1_4_1_152",
        "X_1_1_1_1_1_1_3_1_1_5_1_152",
        "X_1_1_1_1_1_1_44_1_1_6_1_152",
        "X_1_1_1_1_1_1_4_1_1_7_1_152",
        "X_1_1_1_1_1_1_45_1_1_8_1_152",
        "X_1_1_1_1_1_1_5_1_1_9_1_152",
        "X_1_1_1_1_1_1_46_1_1_10_1_152",
        "X_1_1_1_1_1_1_6_1_1_11_1_152",
        "X_1_1_1_1_1_1_47_1_1_12_1_152",
        "X_1_1_1_1_1_1_7_1_1_13_1_152",
        "X_1_1_1_1_1_1_48_1_1_14_1_152",
        "X_1_1_1_1_1_1_8_1_1_15_1_152",
        "X_1_1_1_1_1_1_49_1_1_16_1_152",
        "X_1_1_1_1_1_1_9_1_1_17_1_152",
        "X_1_1_1_1_1_1_50_1_1_18_1_152",
        "X_1_1_1_1_1_1_10_1_1_19_1_152",
        "X_1_1_1_1_1_1_51_1_1_20_1_152",
        "X_1_1_1_1_1_1_11_1_1_21_1_152",
        "X_1_1_1_1_1_1_52_1_1_22_1_152",
        "X_1_1_1_1_1_1_12_1_1_23_1_152",
        "X_1_1_1_1_1_1_53_1_1_24_1_152",
        "X_1_1_1_1_1_1_13_1_1_25_1_152",
        "X_1_1_1_1_1_1_54_1_1_26_1_152",
        "X_1_1_1_1_1_1_14_1_1_27_1_152",
        "X_1_1_1_1_1_1_55_1_1_28_1_152",
        "X_1_1_1_1_1_1_15_1_1_29_1_152",
        "X_1_1_1_1_1_1_56_1_1_30_1_152",
        "X_1_1_1_1_1_1_16_1_1_31_1_152",
        "X_1_1_1_1_1_1_57_1_1_32_1_152",
        "X_1_1_1_1_1_1_17_1_1_33_1_152",
        "X_1_1_1_1_1_1_58_1_1_34_1_152",
        "X_1_1_1_1_1_1_18_1_1_35_1_152",
        "X_1_1_1_1_1_1_59_1_1_36_1_152",
        "X_1_1_1_1_1_1_19_1_1_37_1_152",
        "X_1_1_1_1_1_1_60_1_1_38_1_152",
        "X_1_1_1_1_1_1_20_1_1_39_1_152",
        "X_1_1_1_1_1_1_61_1_1_40_1_152",
        "X_1_1_1_1_1_1_21_1_1_41_1_152",
        "X_1_1_1_1_1_1_62_1_1_42_1_152",
        "X_1_1_1_1_1_1_22_1_1_43_1_152",
        "X_1_1_1_1_1_1_63_1_1_44_1_152",
        "X_1_1_1_1_1_1_23_1_1_45_1_152",
        "X_1_1_1_1_1_1_64_1_1_46_1_152",
        "X_1_1_1_1_1_1_24_1_1_47_1_152",
        "X_1_1_1_1_1_1_65_1_1_48_1_152",
        "X_1_1_1_1_1_1_25_1_1_49_1_152",
        "X_1_1_1_1_1_1_66_1_1_50_1_152",
        "X_1_1_1_1_1_1_26_1_1_51_1_152",
        "X_1_1_1_1_1_1_67_1_1_52_1_152",
        "X_1_1_1_1_1_1_27_1_1_53_1_152",
        "X_1_1_1_1_1_1_68_1_1_54_1_152",
        "X_1_1_1_1_1_1_28_1_1_55_1_152",
        "X_1_1_1_1_1_1_69_1_1_56_1_152",
        "X_1_1_1_1_1_1_29_1_1_57_1_152",
        "X_1_1_1_1_1_1_70_1_1_58_1_152",
        "X_1_1_1_1_1_1_30_1_1_59_1_152",
        "X_1_1_1_1_1_1_71_1_1_60_1_152",
        "X_1_1_1_1_1_1_31_1_1_61_1_152",
        "X_1_1_1_1_1_1_72_1_1_62_1_152",
        "X_1_1_1_1_1_1_32_1_1_63_1_152",
        "X_1_1_1_1_1_1_73_1_1_64_1_152",
        "X_1_1_1_1_1_1_33_1_1_65_1_152",
        "X_1_1_1_1_1_1_74_1_1_66_1_152",
        "X_1_1_1_1_1_1_34_1_1_67_1_152",
        "X_1_1_1_1_1_1_75_1_1_68_1_152",
        "X_1_1_1_1_1_1_35_1_1_69_1_152",
        "X_1_1_1_1_1_1_76_1_1_70_1_152",
        "X_1_1_1_1_1_1_36_1_1_71_1_152",
        "X_1_1_1_1_1_1_77_1_1_72_1_152",
        "X_1_1_1_1_1_1_37_1_1_73_1_152",
        "X_1_1_1_1_1_1_78_1_1_74_1_152",
        "X_1_1_1_1_1_1_38_1_1_75_1_152",
        "X_1_1_1_1_1_1_79_1_1_76_1_152",
        "X_1_1_1_1_1_1_39_1_1_77_1_152",
        "X_1_1_1_1_1_1_80_1_1_78_1_152",
        "X_1_1_1_1_1_1_40_1_1_79_1_152",
        "X_1_1_1_1_1_1_81_1_1_80_1_152",
        "X_1_1_1_1_1_1_41_1_1_81_1_152"
],
      "CsaImage.ProtocolSliceNumber": [0, 1, 2, 3, 4, 5, 6, 7, 8, 9, 10, 11, 12, 13, 14, 15, 16, 17, 18, 19, 20, 21, 22, 23, 24, 25, 26, 27, 28, 29, 30, 31, 32, 33, 34, 35, 36, 37, 38, 39, 40, 41, 42, 43, 44, 45, 46, 47, 48, 49, 50, 51, 52, 53, 54, 55, 56, 57, 58, 59, 60, 61, 62, 63, 64, 65, 66, 67, 68, 69, 70, 71, 72, 73, 74, 75, 76, 77, 78, 79, 80],
      "CsaImage.RFSWDDataType": [
        "predicted",
        "predicted",
        "predicted",
        "predicted",
        "predicted",
        "predicted",
        "predicted",
        "predicted",
        "predicted",
        "predicted",
        "predicted",
        "predicted",
        "predicted",
        "predicted",
        "predicted",
        "predicted",
        "predicted",
        "predicted",
        "predicted",
        "predicted",
        "predicted",
        "predicted",
        "predicted",
        "measured",
        "predicted",
        "measured",
        "predicted",
        "predicted",
        "predicted",
        "predicted",
        "predicted",
        "predicted",
        "predicted",
        "predicted",
        "predicted",
        "predicted",
        "predicted",
        "predicted",
        "predicted",
        "predicted",
        "predicted",
        "predicted",
        "predicted",
        "predicted",
        "predicted",
        "predicted",
        "predicted",
        "predicted",
        "predicted",
        "predicted",
        "measured",
        "predicted",
        "measured",
        "predicted",
        "predicted",
        "predicted",
        "predicted",
        "predicted",
        "predicted",
        "predicted",
        "predicted",
        "predicted",
        "predicted",
        "predicted",
        "predicted",
        "predicted",
        "predicted",
        "predicted",
        "predicted",
        "predicted",
        "predicted",
        "predicted",
        "predicted",
        "predicted",
        "predicted",
        "predicted",
        "predicted",
        "measured",
        "predicted",
        "measured",
        "predicted"
],
      "CsaImage.SlicePosition_PCS": [
        [-123.15409238, -101.98058077, -91.18005429],
        [-123.11683995, -102.82164522, -89.70315801],
        [-123.079588, -103.66270896, -88.22626172],
        [-123.04233557, -104.50377318, -86.74936734],
        [-123.00508362, -105.34483715, -85.27247105],
        [-122.9678312, -106.18590119, -83.79557668],
        [-122.93057877, -107.02696522, -82.31868039],
        [-122.89332682, -107.86802926, -80.84178601],
        [-122.8560744, -108.7090933, -79.36488973],
        [-122.81882245, -109.55015727, -77.88799535],
        [-122.78157002, -110.39122149, -76.41109906],
        [-122.7443176, -111.23228546, -74.93420468],
        [-122.70706565, -112.07334944, -73.4573084],
        [-122.66981322, -112.91441342, -71.98041306],
        [-122.63256079, -113.75547739, -70.50351773],
        [-122.59530884, -114.59654185, -69.0266224],
        [-122.55805642, -115.43760534, -67.54972707],
        [-122.52080447, -116.2786698, -66.07283173],
        [-122.48355204, -117.1197333, -64.59593688],
        [-122.44629962, -117.96079775, -63.11904155],
        [-122.40904767, -118.8018622, -61.64214598],
        [-122.37179524, -119.6429257, -60.16525064],
        [-122.33454305, -120.48399016, -58.68835525],
        [-122.29729087, -121.32505366, -57.21145992],
        [-122.26003868, -122.16611811, -55.73456465],
        [-122.22278649, -123.00718256, -54.25766931],
        [-122.18553406, -123.84824701, -52.78077374],
        [-122.14828188, -124.68930956, -51.30387841],
        [-122.11102969, -125.53037401, -49.82698308],
        [-122.0737775, -126.37143847, -48.35008775],
        [-122.03652531, -127.21250292, -46.87319241],
        [-121.99927289, -128.05356547, -45.39629708],
        [-121.9620207, -128.89462992, -43.91940175],
        [-121.92476851, -129.73569437, -42.44250642],
        [-121.88751632, -130.57675883, -40.96561108],
        [-121.8502639, -131.41782328, -39.4887148],
        [-121.81301171, -132.25888582, -38.01182042],
        [-121.77575952, -133.09995028, -36.53492413],
        [-121.73850733, -133.94101473, -35.05802975],
        [-121.70125515, -134.78207918, -33.58113347],
        [-121.66400272, -135.62314173, -32.10423909],
        [-121.62675053, -136.46420618, -30.6273428],
        [-121.58949835, -137.30527064, -29.15044843],
        [-121.55224616, -138.14633509, -27.67355214],
        [-121.51499373, -138.98739954, -26.19665776],
        [-121.47774154, -139.82846399, -24.71976147],
        [-121.44048936, -140.66952845, -23.2428671],
        [-121.40323717, -141.51058909, -21.76597272],
        [-121.36598498, -142.35165354, -20.28907452],
        [-121.32873255, -143.19271799, -18.81218015],
        [-121.29148037, -144.03378245, -17.33528577],
        [-121.25422818, -144.8748469, -15.85839139],
        [-121.21697599, -145.71591135, -14.38149319],
        [-121.1797238, -146.55697581, -12.90459882],
        [-121.14247138, -147.39804026, -11.42770444],
        [-121.10521919, -148.23910471, -9.95081006],
        [-121.067967, -149.08016916, -8.47391187],
        [-121.03071481, -149.9212298, -6.99701749],
        [-120.99346239, -150.76229426, -5.52012311],
        [-120.9562102, -151.60335871, -4.04322873],
        [-120.91895801, -152.44442316, -2.56633054],
        [-120.88170582, -153.28548762, -1.08943616],
        [-120.84445364, -154.12655207, 0.38745822],
        [-120.80720121, -154.96761652, 1.8643526],
        [-120.76994902, -155.80868097, 3.34125079],
        [-120.73269684, -156.64974543, 4.81814517],
        [-120.69544465, -157.49080607, 6.29504337],
        [-120.65819246, -158.33187052, 7.77193393],
        [-120.62094003, -159.17293497, 9.24883212],
        [-120.58368785, -160.01399943, 10.72572269],
        [-120.54643566, -160.85506388, 12.20262088],
        [-120.50918347, -161.69612833, 13.67951907],
        [-120.47193104, -162.53719279, 15.15640964],
        [-120.43467886, -163.37825724, 16.63330783],
        [-120.39742667, -164.21932169, 18.11020602],
        [-120.36017448, -165.06038233, 19.58709659],
        [-120.32292217, -165.90144678, 21.06399478],
        [-120.28566999, -166.74251124, 22.54088535],
        [-120.24841768, -167.58357569, 24.01778354],
        [-120.21116549, -168.42464014, 25.49468173],
        [-120.17391318, -169.2657046, 26.9715723]
],
      "CsaImage.TimeAfterStart": [16.4, 18.5175, 16.5525, 18.6675, 16.7025, 18.82, 16.855, 18.97, 17.005, 19.12, 17.1575, 19.2725, 17.3075, 19.4225, 17.46, 19.575, 17.61, 19.725, 17.76, 19.8775, 17.9125, 20.0275, 18.0625, 20.18, 18.215, 20.33, 18.365, 16.4, 18.5175, 16.5525, 18.6675, 16.7025, 18.82, 16.855, 18.97, 17.005, 19.12, 17.1575, 19.2725, 17.3075, 19.4225, 17.46, 19.575, 17.61, 19.725, 17.76, 19.8775, 17.9125, 20.0275, 18.0625, 20.18, 18.215, 20.33, 18.365, 16.4, 18.5175, 16.5525, 18.6675, 16.7025, 18.82, 16.855, 18.97, 17.005, 19.12, 17.1575, 19.2725, 17.3075, 19.4225, 17.46, 19.575, 17.61, 19.725, 17.76, 19.8775, 17.9125, 20.0275, 18.0625, 20.18, 18.215, 20.33, 18.365],
      "ImagePositionPatient": [
        [-123.1540923754, -101.98058077023, -91.180054291126],
        [-123.11683994926, -102.82164522336, -89.703158005115],
        [-123.07958799995, -103.66270896123, -88.226261719104],
        [-123.0423355738, -104.50377317593, -86.749367340442],
        [-123.00508362449, -105.34483715222, -85.272471054432],
        [-122.96783119834, -106.18590118811, -83.795576675769],
        [-122.93057877219, -107.02696522401, -82.318680389759],
        [-122.89332682288, -107.8680292599, -80.841786011097],
        [-122.85607439674, -108.70909329579, -79.364889725086],
        [-122.81882244743, -109.55015727208, -77.887995346424],
        [-122.78157002128, -110.39122148679, -76.411099060413],
        [-122.74431759513, -111.23228546307, -74.934204681751],
        [-122.70706564582, -112.07334943936, -73.45730839574],
        [-122.66981321967, -112.91441341565, -71.980413063404],
        [-122.63256079353, -113.75547739194, -70.503517731067],
        [-122.59530884421, -114.59654184506, -69.026622398731],
        [-122.55805641807, -115.43760534451, -67.549727066394],
        [-122.52080446876, -116.27866979764, -66.072831734058],
        [-122.48355204261, -117.11973329709, -64.595936878559],
        [-122.44629961646, -117.96079775021, -63.119041546222],
        [-122.40904766715, -118.80186220334, -61.642145975467],
        [-122.371795241, -119.64292570279, -60.165250643131],
        [-122.33454305328, -120.48399015591, -58.68835525119],
        [-122.29729086555, -121.32505365537, -57.211459918853],
        [-122.26003867782, -122.16611810849, -55.734564646122],
        [-122.22278649009, -123.00718256162, -54.257669313785],
        [-122.18553406394, -123.84824701474, -52.78077374303],
        [-122.14828187621, -124.68930956052, -51.303878410694],
        [-122.11102968848, -125.53037401364, -49.826983078357],
        [-122.07377750075, -126.37143846677, -48.350087746021],
        [-122.03652531303, -127.21250291989, -46.873192413685],
        [-121.99927288688, -128.05356546567, -45.396297081348],
        [-121.96202069915, -128.89462991879, -43.919401749012],
        [-121.92476851142, -129.73569437192, -42.442506416675],
        [-121.88751632369, -130.57675882504, -40.965611084339],
        [-121.85026389754, -131.41782327817, -39.488714798328],
        [-121.81301170982, -132.25888582394, -38.011820419666],
        [-121.77575952209, -133.09995027707, -36.534924133655],
        [-121.73850733436, -133.94101473019, -35.058029754993],
        [-121.70125514663, -134.78207918332, -33.581133468982],
        [-121.66400272048, -135.6231417291, -32.10423909032],
        [-121.62675053275, -136.46420618222, -30.62734280431],
        [-121.58949834502, -137.30527063535, -29.150448425647],
        [-121.55224615729, -138.14633508847, -27.673552139637],
        [-121.51499373115, -138.9873995416, -26.196657760975],
        [-121.47774154342, -139.82846399472, -24.719761474964],
        [-121.44048935569, -140.66952844785, -23.242867096302],
        [-121.40323716796, -141.51058908627, -21.76597271764],
        [-121.36598498023, -142.3516535394, -20.28907452428],
        [-121.32873255408, -143.19271799252, -18.812180145618],
        [-121.29148036636, -144.03378244565, -17.335285766956],
        [-121.25422817863, -144.87484689877, -15.858391388294],
        [-121.2169759909, -145.7159113519, -14.381493194935],
        [-121.17972380317, -146.55697580502, -12.904598816272],
        [-121.14247137702, -147.39804025815, -11.42770443761],
        [-121.10521918929, -148.23910471127, -9.9508100589482],
        [-121.06796700156, -149.0801691644, -8.4739118655888],
        [-121.03071481383, -149.92122980283, -6.9970174869267],
        [-120.99346238769, -150.76229425595, -5.5201231082646],
        [-120.95621019996, -151.60335870908, -4.0432287296025],
        [-120.91895801223, -152.4444231622, -2.5663305362431],
        [-120.8817058245, -153.28548761533, -1.089436157581],
        [-120.84445363677, -154.12655206845, 0.38745822108109],
        [-120.80720121062, -154.96761652158, 1.8643525997432],
        [-120.7699490229, -155.8086809747, 3.3412507931026],
        [-120.73269683517, -156.64974542783, 4.8181451717647],
        [-120.69544464744, -157.49080606625, 6.2950433651241],
        [-120.65819245971, -158.33187051938, 7.7719339290889],
        [-120.62094003356, -159.1729349725, 9.2488321224483],
        [-120.58368784583, -160.01399942563, 10.725722686413],
        [-120.5464356581, -160.85506387875, 12.202620879772],
        [-120.50918347037, -161.69612833188, 13.679519073132],
        [-120.47193104423, -162.537192785, 15.156409637097],
        [-120.4346788565, -163.37825723813, 16.633307830456],
        [-120.39742666877, -164.21932169125, 18.110206023815],
        [-120.36017448104, -165.06038232968, 19.58709658778],
        [-120.3229221741, -165.90144678281, 21.06399478114],
        [-120.28566998637, -166.74251123593, 22.540885345105],
        [-120.24841767944, -167.58357568906, 24.017783538464],
        [-120.21116549171, -168.42464014218, 25.494681731823],
        [-120.17391318477, -169.26570459531, 26.971572295788]
],
      "InstanceCreationTime": ["170925.886000", "170925.985000", "170925.893000", "170925.991000", "170925.899000", "170926.003000", "170925.905000", "170926.010000", "170925.911000", "170926.017000", "170925.918000", "170926.024000", "170925.925000", "170926.030000", "170925.931000", "170926.036000", "170925.938000", "170926.043000", "170925.954000", "170926.050000", "170925.960000", "170926.056000", "170925.966000", "170926.063000", "170925.972000", "170926.069000", "170925.978000", "170925.889000", "170925.987000", "170925.895000", "170925.993000", "170925.901000", "170926.005000", "170925.907000", "170926.012000", "170925.913000", "170926.019000", "170925.920000", "170926.026000", "170925.927000", "170926.032000", "170925.933000", "170926.039000", "170925.949000", "170926.045000", "170925.956000", "170926.052000", "170925.962000", "170926.059000", "170925.968000", "170926.065000", "170925.974000", "170926.071000", "170925.980000", "170925.891000", "170925.989000", "170925.897000", "170925.995000", "170925.903000", "170926.007000", "170925.909000", "170926.015000", "170925.916000", "170926.021000", "170925.923000", "170926.028000", "170925.929000", "170926.034000", "170925.936000", "170926.041000", "170925.952000", "170926.047000", "170925.958000", "170926.054000", "170925.964000", "170926.061000", "170925.970000", "170926.067000", "170925.976000", "170926.073000", "170925.983000"],
      "InstanceNumber": [1, 2, 3, 4, 5, 6, 7, 8, 9, 10, 11, 12, 13, 14, 15, 16, 17, 18, 19, 20, 21, 22, 23, 24, 25, 26, 27, 28, 29, 30, 31, 32, 33, 34, 35, 36, 37, 38, 39, 40, 41, 42, 43, 44, 45, 46, 47, 48, 49, 50, 51, 52, 53, 54, 55, 56, 57, 58, 59, 60, 61, 62, 63, 64, 65, 66, 67, 68, 69, 70, 71, 72, 73, 74, 75, 76, 77, 78, 79, 80, 81],
      "LargestImagePixelValue": [28457, 21565, 24519, 28651, 27907, 35849, 30028, 32239, 43949, 45472, 30479, 33160, 41906, 41884, 35212, 28050, 32504, 28320, 37258, 47273, 59763, 57429, 54015, 55128, 54002, 54708, 47010, 52160, 58460, 45676, 49640, 63485, 54803, 39922, 38115, 36351, 38278, 38475, 41508, 32049, 30017, 38340, 38402, 38338, 36141, 42017, 38680, 35659, 38048, 38296, 35793, 50166, 51873, 48085, 55407, 38893, 33782, 39489, 35746, 38708, 41852, 42774, 48558, 43494, 44790, 46627, 44568, 44493, 36187, 35658, 30397, 12077, 9308, 8603, 8455, 6852, 5604, 4671, 1045, 1182, 884],
      "SliceLocation": [-31.458213272558, -29.758213332206, -28.058213756172, -26.358215590809, -24.658215896818, -22.958217819923, -21.258218085994, -19.558220019547, -17.858220285618, -16.158222248661, -14.458222426265, -12.758224378858, -11.058224684868, -9.3582258089445, -7.6582269330214, -5.9582278316349, -4.2582291916241, -2.5582300902376, -0.858231864485, 0.84176724735038, 2.541766555866, 4.2417651958769, 5.9417643542701, 7.6417629890565, 9.3417620438851, 11.041761150496, 12.741760469461, 14.441758632422, 16.141757739033, 17.841756845644, 19.541755952255, 21.241754120442, 22.941753227053, 24.641752333663, 26.341751440274, 28.041751380626, 29.741748715072, 31.441748650199, 33.141746928294, 34.841746863421, 36.541744203091, 38.241744138218, 39.941742416313, 41.64174235144, 43.341740634759, 45.041740569886, 46.741738847981, 48.441735238777, 50.141736830938, 51.841735114257, 53.541733392351, 55.241731670445, 56.941733262606, 58.6417315407, 60.341729824019, 62.041728102114, 63.741729694274, 65.44172608507, 67.141724368389, 68.841722646484, 70.541724238644, 72.241722516738, 73.941720794833, 75.641719078152, 77.341720670312, 79.041718948407, 80.741718653269, 82.441713617297, 84.141715214682, 85.841710178711, 87.541711770871, 89.241713363032, 90.941708332284, 92.641709924445, 94.341711516605, 96.041704593336, 97.741706188108, 99.441701152137, 101.14170274691, 102.84170433907, 104.54169930571],
