{
  "AcquisitionMatrixPE": 140,
  "AcquisitionNumber": 1,
  "AcquisitionTime": "21:08:34.017500",
  "BandwidthPerPixelPhaseEncode": 10.352,
  "BaseResolution": 140,
  "BodyPartExamined": "BRAIN",
  "ConsistencyInfo": "N4_VE11E_LATEST_20181129",
  "ConversionSoftware": "dcm2niix",
  "ConversionSoftwareVersion": "v1.0.20201102",
  "DerivedVendorReportedEchoSpacing": 0.000689998,
  "DeviceSerialNumber": "66112",
  "DiffusionScheme": "Monopolar",
  "DwellTime": 2.1e-06,
  "EchoTime": 0.088,
  "EchoTrainLength": 105,
  "EffectiveEchoSpacing": 0.000689998,
  "FlipAngle": 90,
  "ImageComments": "Unaliased MB3/PE3",
  "ImageOrientationPatientDICOM": [0.995101, -0.0442485, 0.0884109, 0.0457093, 0.998849, -0.0145664],
  "ImageType": [
    "ORIGINAL",
    "PRIMARY",
    "DIFFUSION",
    "NONE",
    "MB",
    "ND"
],
  "ImagingFrequency": 123.259,
  "InPlanePhaseEncodingDirectionDICOM": "COL",
  "InstitutionAddress": "Maynard 3,Hanover,NH,US,03755",
  "InstitutionName": "Dartmouth College - PBS",
  "InstitutionalDepartmentName": "Department",
  "IntendedFor": [
    "ses-01/dwi/sub-0130_ses-01_acq-96dirX6b0Xmb_dwi.nii.gz"
],
  "MRAcquisitionType": "2D",
  "MagneticFieldStrength": 3,
  "Manufacturer": "Siemens",
  "ManufacturersModelName": "Prisma",
  "Modality": "MR",
  "MultibandAccelerationFactor": 3,
  "PartialFourier": 0.75,
  "PatientPosition": "HFS",
  "PercentPhaseFOV": 100,
  "PercentSampling": 100,
  "PhaseEncodingDirection": "j-",
  "PhaseEncodingSteps": 105,
  "PhaseResolution": 1,
  "PixelBandwidth": 1700,
  "ProcedureStepDescription": "Wager_Wager^1076_spacetop",
  "ProtocolName": "dwi_acq-discorr-AP",
  "PulseSequenceDetails": "%CustomerSeq%\\cmrr_mbep2d_diff",
  "ReceiveCoilActiveElements": "HEA;HEP",
  "ReceiveCoilName": "Head_32",
  "ReconMatrixPE": 140,
  "RepetitionTime": 4.1,
  "SAR": 0.134355,
  "ScanOptions": "PFP\\FS",
  "ScanningSequence": "EP",
  "SequenceName": "ep_b0",
  "SequenceVariant": "SK\\SS",
  "SeriesDescription": "dwi_acq-discorr-AP",
  "SeriesNumber": 7,
  "ShimSetting": [4255, -7730, -7315, 294, -187, -105, -59, 73],
  "SliceThickness": 1.7,
  "SliceTiming": [0, 2.10938, 0.15625, 2.26562, 0.29688, 2.42188, 0.45312, 2.5625, 0.60938, 2.71875, 0.75, 2.875, 0.90625, 3.03125, 1.0625, 3.17188, 1.20312, 3.32812, 1.35938, 3.48438, 1.51562, 3.625, 1.67188, 3.78125, 1.8125, 3.92188, 1.96875, 0, 2.10938, 0.15625, 2.26562, 0.29688, 2.42188, 0.45312, 2.5625, 0.60938, 2.71875, 0.75, 2.875, 0.90625, 3.03125, 1.0625, 3.17188, 1.20312, 3.32812, 1.35938, 3.48438, 1.51562, 3.625, 1.67188, 3.78125, 1.8125, 3.92188, 1.96875, 0, 2.10938, 0.15625, 2.26562, 0.29688, 2.42188, 0.45312, 2.5625, 0.60938, 2.71875, 0.75, 2.875, 0.90625, 3.03125, 1.0625, 3.17188, 1.20312, 3.32812, 1.35938, 3.48438, 1.51562, 3.625, 1.67188, 3.78125, 1.8125, 3.92188, 1.96875],
  "SoftwareVersions": "syngo MR E11",
  "SpacingBetweenSlices": 1.7,
  "StationName": "AWP66112",
  "TotalReadoutTime": 0.0959097,
  "TxRefAmp": 240.42,
  "WipMemBlock": "63ac0e0e-250d-40e5-8dc4-b7b110bd7d47||Sequence: R016 ve11e/master r/434b28f1; Aug  7 2019 19:06:17 by eja",
  "dcmmeta_affine": [
    [-1.7058870792388916, 0.07835888117551804, 0.14902973175048828, 104.82026672363281],
    [0.07585461437702179, 1.712311863899231, -0.03151226043701172, -107.72662353515625],
    [0.15156149864196777, 0.024971047416329384, 1.6931610107421875, -136.02980041503906],
    [0.0, 0.0, 0.0, 1.0]
],
  "dcmmeta_reorient_transform": [
    [0.0, -1.0, 0.0, 139.0],
    [1.0, 0.0, 0.0, 0.0],
    [0.0, 0.0, -1.0, 80.0],
    [0.0, 0.0, 0.0, 1.0]
],
  "dcmmeta_shape": [140, 140, 81],
  "dcmmeta_slice_dim": 2,
  "dcmmeta_version": 0.6,
  "global": {
    "const": {
      "AccessionNumber": "A004819",
      "AcquisitionMatrix": [140, 0, 0, 140],
      "AcquisitionNumber": 1,
      "AngioFlag": "N",
      "BitsAllocated": 16,
      "BitsStored": 16,
      "BodyPartExamined": "BRAIN",
      "Columns": 140,
      "EchoNumbers": 1,
      "EchoTime": 88.0,
      "EchoTrainLength": 105,
      "FlipAngle": 90.0,
      "HighBit": 15,
      "ImageOrientationPatient": [0.99510079146924, -0.0442485242155, 0.08841087558691, 0.0457093470068, 0.99884857426377, -0.0145664438849],
      "ImageType": [
        "ORIGINAL",
        "PRIMARY",
        "DIFFUSION",
        "NONE",
        "MB",
        "ND"
],
      "ImagedNucleus": "1H",
      "ImagingFrequency": 123.259117,
      "InPlanePhaseEncodingDirection": "COL",
      "MRAcquisitionType": "2D",
      "MagneticFieldStrength": 3.0,
      "Manufacturer": "SIEMENS",
      "ManufacturerModelName": "Prisma",
      "Modality": "MR",
      "NumberOfAverages": 1.0,
      "NumberOfPhaseEncodingSteps": 105,
      "PercentPhaseFieldOfView": 100.0,
      "PercentSampling": 100.0,
      "PerformedProcedureStepStartTime": "204905.529000",
      "PhotometricInterpretation": "MONOCHROME2",
      "PixelBandwidth": 1700.0,
      "PixelRepresentation": 0,
      "PixelSpacing": [1.7142857313156, 1.7142857313156],
      "ProtocolName": "dwi_acq-discorr-AP",
      "RepetitionTime": 4100.0,
      "Rows": 140,
      "SAR": 0.13435453622766,
      "SamplesPerPixel": 1,
      "ScanOptions": [
        "PFP",
        "FS"
],
      "ScanningSequence": "EP",
      "SequenceName": "ep_b0",
      "SequenceVariant": [
        "SK",
        "SS"
],
      "SeriesDescription": "dwi_acq-discorr-AP",
      "SeriesNumber": 7,
      "SeriesTime": "210838.689000",
      "SliceThickness": 1.7000000476837,
      "SmallestImagePixelValue": 0,
      "SoftwareVersions": "syngo MR E11",
      "SpacingBetweenSlices": 1.7,
      "SpecificCharacterSet": "ISO_IR 100",
      "StudyID": "1",
      "StudyTime": "204905.478000",
      "TransmitCoilName": "Body",
      "VariableFlipAngleFlag": "N",
      "WindowCenterWidthExplanation": "Algo1"
    },
    "slices": {
      "AcquisitionTime": ["210834.017500", "210836.132500", "210834.167500", "210836.285000", "210834.320000", "210836.435000", "210834.470000", "210836.585000", "210834.622500", "210836.737500", "210834.772500", "210836.887500", "210834.925000", "210837.040000", "210835.075000", "210837.190000", "210835.225000", "210837.342500", "210835.377500", "210837.492500", "210835.527500", "210837.645000", "210835.680000", "210837.795000", "210835.830000", "210837.945000", "210835.982500", "210834.017500", "210836.132500", "210834.167500", "210836.285000", "210834.320000", "210836.435000", "210834.470000", "210836.585000", "210834.622500", "210836.737500", "210834.772500", "210836.887500", "210834.925000", "210837.040000", "210835.075000", "210837.190000", "210835.225000", "210837.342500", "210835.377500", "210837.492500", "210835.527500", "210837.645000", "210835.680000", "210837.795000", "210835.830000", "210837.945000", "210835.982500", "210834.017500", "210836.132500", "210834.167500", "210836.285000", "210834.320000", "210836.435000", "210834.470000", "210836.585000", "210834.622500", "210836.737500", "210834.772500", "210836.887500", "210834.925000", "210837.040000", "210835.075000", "210837.190000", "210835.225000", "210837.342500", "210835.377500", "210837.492500", "210835.527500", "210837.645000", "210835.680000", "210837.795000", "210835.830000", "210837.945000", "210835.982500"],
      "ContentTime": ["210838.692000", "210838.782000", "210838.703000", "210838.788000", "210838.709000", "210838.794000", "210838.715000", "210838.800000", "210838.721000", "210838.806000", "210838.727000", "210838.819000", "210838.733000", "210838.825000", "210838.739000", "210838.832000", "210838.745000", "210838.838000", "210838.751000", "210838.845000", "210838.757000", "210838.851000", "210838.763000", "210838.858000", "210838.769000", "210838.865000", "210838.775000", "210838.696000", "210838.784000", "210838.705000", "210838.790000", "210838.711000", "210838.796000", "210838.717000", "210838.802000", "210838.723000", "210838.808000", "210838.729000", "210838.821000", "210838.735000", "210838.827000", "210838.741000", "210838.834000", "210838.747000", "210838.840000", "210838.753000", "210838.847000", "210838.759000", "210838.853000", "210838.765000", "210838.860000", "210838.771000", "210838.867000", "210838.777000", "210838.701000", "210838.786000", "210838.707000", "210838.792000", "210838.713000", "210838.798000", "210838.719000", "210838.804000", "210838.725000", "210838.810000", "210838.731000", "210838.823000", "210838.737000", "210838.829000", "210838.743000", "210838.836000", "210838.749000", "210838.842000", "210838.755000", "210838.849000", "210838.761000", "210838.855000", "210838.767000", "210838.863000", "210838.773000", "210838.869000", "210838.780000"],
      "CsaImage.GSWDDataType": [
        "predicted",
        "predicted",
        "predicted",
        "predicted",
        "predicted",
        "predicted",
        "predicted",
        "predicted",
        "predicted",
        "predicted",
        "predicted",
        "predicted",
        "predicted",
        "predicted",
        "predicted",
        "predicted",
        "predicted",
        "predicted",
        "predicted",
        "predicted",
        "predicted",
        "predicted",
        "predicted",
        "measured",
        "predicted",
        "measured",
        "predicted",
        "predicted",
        "predicted",
        "predicted",
        "predicted",
        "predicted",
        "predicted",
        "predicted",
        "predicted",
        "predicted",
        "predicted",
        "predicted",
        "predicted",
        "predicted",
        "predicted",
        "predicted",
        "predicted",
        "predicted",
        "predicted",
        "predicted",
        "predicted",
        "predicted",
        "predicted",
        "predicted",
        "measured",
        "predicted",
        "measured",
        "predicted",
        "predicted",
        "predicted",
        "predicted",
        "predicted",
        "predicted",
        "predicted",
        "predicted",
        "predicted",
        "predicted",
        "predicted",
        "predicted",
        "predicted",
        "predicted",
        "predicted",
        "predicted",
        "predicted",
        "predicted",
        "predicted",
        "predicted",
        "predicted",
        "predicted",
        "predicted",
        "predicted",
        "measured",
        "predicted",
        "measured",
        "predicted"
],
      "CsaImage.ICE_Dims": [
        "X_1_1_1_1_1_1_1_1_1_1_1_142",
        "X_1_1_1_1_1_1_42_1_1_2_1_142",
        "X_1_1_1_1_1_1_2_1_1_3_1_142",
        "X_1_1_1_1_1_1_43_1_1_4_1_142",
        "X_1_1_1_1_1_1_3_1_1_5_1_142",
        "X_1_1_1_1_1_1_44_1_1_6_1_142",
        "X_1_1_1_1_1_1_4_1_1_7_1_142",
        "X_1_1_1_1_1_1_45_1_1_8_1_142",
        "X_1_1_1_1_1_1_5_1_1_9_1_142",
        "X_1_1_1_1_1_1_46_1_1_10_1_142",
        "X_1_1_1_1_1_1_6_1_1_11_1_142",
        "X_1_1_1_1_1_1_47_1_1_12_1_142",
        "X_1_1_1_1_1_1_7_1_1_13_1_142",
        "X_1_1_1_1_1_1_48_1_1_14_1_142",
        "X_1_1_1_1_1_1_8_1_1_15_1_142",
        "X_1_1_1_1_1_1_49_1_1_16_1_142",
        "X_1_1_1_1_1_1_9_1_1_17_1_142",
        "X_1_1_1_1_1_1_50_1_1_18_1_142",
        "X_1_1_1_1_1_1_10_1_1_19_1_142",
        "X_1_1_1_1_1_1_51_1_1_20_1_142",
        "X_1_1_1_1_1_1_11_1_1_21_1_142",
        "X_1_1_1_1_1_1_52_1_1_22_1_142",
        "X_1_1_1_1_1_1_12_1_1_23_1_142",
        "X_1_1_1_1_1_1_53_1_1_24_1_142",
        "X_1_1_1_1_1_1_13_1_1_25_1_142",
        "X_1_1_1_1_1_1_54_1_1_26_1_142",
        "X_1_1_1_1_1_1_14_1_1_27_1_142",
        "X_1_1_1_1_1_1_55_1_1_28_1_142",
        "X_1_1_1_1_1_1_15_1_1_29_1_142",
        "X_1_1_1_1_1_1_56_1_1_30_1_142",
        "X_1_1_1_1_1_1_16_1_1_31_1_142",
        "X_1_1_1_1_1_1_57_1_1_32_1_142",
        "X_1_1_1_1_1_1_17_1_1_33_1_142",
        "X_1_1_1_1_1_1_58_1_1_34_1_142",
        "X_1_1_1_1_1_1_18_1_1_35_1_142",
        "X_1_1_1_1_1_1_59_1_1_36_1_142",
        "X_1_1_1_1_1_1_19_1_1_37_1_142",
        "X_1_1_1_1_1_1_60_1_1_38_1_142",
        "X_1_1_1_1_1_1_20_1_1_39_1_142",
        "X_1_1_1_1_1_1_61_1_1_40_1_142",
        "X_1_1_1_1_1_1_21_1_1_41_1_142",
        "X_1_1_1_1_1_1_62_1_1_42_1_142",
        "X_1_1_1_1_1_1_22_1_1_43_1_142",
        "X_1_1_1_1_1_1_63_1_1_44_1_142",
        "X_1_1_1_1_1_1_23_1_1_45_1_142",
        "X_1_1_1_1_1_1_64_1_1_46_1_142",
        "X_1_1_1_1_1_1_24_1_1_47_1_142",
        "X_1_1_1_1_1_1_65_1_1_48_1_142",
        "X_1_1_1_1_1_1_25_1_1_49_1_142",
        "X_1_1_1_1_1_1_66_1_1_50_1_142",
        "X_1_1_1_1_1_1_26_1_1_51_1_142",
        "X_1_1_1_1_1_1_67_1_1_52_1_142",
        "X_1_1_1_1_1_1_27_1_1_53_1_142",
        "X_1_1_1_1_1_1_68_1_1_54_1_142",
        "X_1_1_1_1_1_1_28_1_1_55_1_142",
        "X_1_1_1_1_1_1_69_1_1_56_1_142",
        "X_1_1_1_1_1_1_29_1_1_57_1_142",
        "X_1_1_1_1_1_1_70_1_1_58_1_142",
        "X_1_1_1_1_1_1_30_1_1_59_1_142",
        "X_1_1_1_1_1_1_71_1_1_60_1_142",
        "X_1_1_1_1_1_1_31_1_1_61_1_142",
        "X_1_1_1_1_1_1_72_1_1_62_1_142",
        "X_1_1_1_1_1_1_32_1_1_63_1_142",
        "X_1_1_1_1_1_1_73_1_1_64_1_142",
        "X_1_1_1_1_1_1_33_1_1_65_1_142",
        "X_1_1_1_1_1_1_74_1_1_66_1_142",
        "X_1_1_1_1_1_1_34_1_1_67_1_142",
        "X_1_1_1_1_1_1_75_1_1_68_1_142",
        "X_1_1_1_1_1_1_35_1_1_69_1_142",
        "X_1_1_1_1_1_1_76_1_1_70_1_142",
        "X_1_1_1_1_1_1_36_1_1_71_1_142",
        "X_1_1_1_1_1_1_77_1_1_72_1_142",
        "X_1_1_1_1_1_1_37_1_1_73_1_142",
        "X_1_1_1_1_1_1_78_1_1_74_1_142",
        "X_1_1_1_1_1_1_38_1_1_75_1_142",
        "X_1_1_1_1_1_1_79_1_1_76_1_142",
        "X_1_1_1_1_1_1_39_1_1_77_1_142",
        "X_1_1_1_1_1_1_80_1_1_78_1_142",
        "X_1_1_1_1_1_1_40_1_1_79_1_142",
        "X_1_1_1_1_1_1_81_1_1_80_1_142",
        "X_1_1_1_1_1_1_41_1_1_81_1_142"
],
      "CsaImage.ProtocolSliceNumber": [0, 1, 2, 3, 4, 5, 6, 7, 8, 9, 10, 11, 12, 13, 14, 15, 16, 17, 18, 19, 20, 21, 22, 23, 24, 25, 26, 27, 28, 29, 30, 31, 32, 33, 34, 35, 36, 37, 38, 39, 40, 41, 42, 43, 44, 45, 46, 47, 48, 49, 50, 51, 52, 53, 54, 55, 56, 57, 58, 59, 60, 61, 62, 63, 64, 65, 66, 67, 68, 69, 70, 71, 72, 73, 74, 75, 76, 77, 78, 79, 80],
      "CsaImage.RFSWDDataType": [
        "predicted",
        "predicted",
        "predicted",
        "predicted",
        "predicted",
        "predicted",
        "predicted",
        "predicted",
        "predicted",
        "predicted",
        "predicted",
        "predicted",
        "predicted",
        "predicted",
        "predicted",
        "predicted",
        "predicted",
        "predicted",
        "predicted",
        "predicted",
        "predicted",
        "predicted",
        "predicted",
        "measured",
        "predicted",
        "measured",
        "predicted",
        "predicted",
        "predicted",
        "predicted",
        "predicted",
        "predicted",
        "predicted",
        "predicted",
        "predicted",
        "predicted",
        "predicted",
        "predicted",
        "predicted",
        "predicted",
        "predicted",
        "predicted",
        "predicted",
        "predicted",
        "predicted",
        "predicted",
        "predicted",
        "predicted",
        "predicted",
        "predicted",
        "measured",
        "predicted",
        "measured",
        "predicted",
        "predicted",
        "predicted",
        "predicted",
        "predicted",
        "predicted",
        "predicted",
        "predicted",
        "predicted",
        "predicted",
        "predicted",
        "predicted",
        "predicted",
        "predicted",
        "predicted",
        "predicted",
        "predicted",
        "predicted",
        "predicted",
        "predicted",
        "predicted",
        "predicted",
        "predicted",
        "predicted",
        "measured",
        "predicted",
        "measured",
        "predicted"
],
      "CsaImage.SlicePosition_PCS": [
        [-115.71215354, -130.28467602, -132.55890269],
        [-115.86118327, -130.25316471, -130.86573405],
        [-116.01021301, -130.22165245, -129.17257304],
        [-116.15924274, -130.19014115, -127.47941203],
        [-116.30827247, -130.15862889, -125.78625102],
        [-116.4573022, -130.12711758, -124.09309001],
        [-116.60633193, -130.09560627, -122.399929],
        [-116.75536166, -130.06409401, -120.70676799],
        [-116.9043914, -130.03258271, -119.01360698],
        [-117.05342113, -130.0010714, -117.32044597],
        [-117.20245086, -129.96955914, -115.62727733],
        [-117.35148011, -129.93804783, -113.93411632],
        [-117.50050985, -129.90653557, -112.24095531],
        [-117.64953958, -129.87502426, -110.54779429],
        [-117.79856931, -129.84351296, -108.85463328],
        [-117.94759904, -129.8120007, -107.16147227],
        [-118.09662877, -129.78048939, -105.46831126],
        [-118.2456585, -129.74897713, -103.77515025],
        [-118.39468824, -129.71746582, -102.08198924],
        [-118.54371797, -129.68595452, -100.3888206],
        [-118.6927477, -129.65444226, -98.69565959],
        [-118.84177743, -129.62293095, -97.00249858],
        [-118.99080716, -129.59141869, -95.30933757],
        [-119.1398369, -129.55990738, -93.61617656],
        [-119.28886663, -129.52839608, -91.92301555],
        [-119.43789636, -129.49688381, -90.22985454],
        [-119.58692609, -129.46537251, -88.53669353],
        [-119.73595582, -129.43386025, -86.84352489],
        [-119.88498555, -129.40234894, -85.15036387],
        [-120.03401529, -129.37083763, -83.45720286],
        [-120.18304502, -129.33932537, -81.76404185],
        [-120.33207427, -129.30781407, -80.07088084],
        [-120.481104, -129.27630181, -78.37771983],
        [-120.63013374, -129.2447905, -76.68455882],
        [-120.77916347, -129.21327919, -74.99139781],
        [-120.92819344, -129.18176693, -73.2982368],
        [-121.07722293, -129.15025563, -71.60507197],
        [-121.22625266, -129.11874337, -69.91191096],
        [-121.37528239, -129.08723206, -68.21874614],
        [-121.52431213, -129.05572075, -66.52558513],
        [-121.67334186, -129.02420849, -64.83242412],
        [-121.82237159, -128.99269718, -63.13926311],
        [-121.97140132, -128.96118492, -61.44610209],
        [-122.12043105, -128.92967362, -59.75293727],
        [-122.26946079, -128.89816231, -58.05977626],
        [-122.41849028, -128.86665005, -56.36661525],
        [-122.56752001, -128.83513874, -54.67345424],
        [-122.71654974, -128.80362648, -52.98028941],
        [-122.86557947, -128.77211518, -51.2871284],
        [-123.01460921, -128.74060387, -49.59396739],
        [-123.16363894, -128.70909161, -47.90080638],
        [-123.31266867, -128.6775803, -46.20764537],
        [-123.4616984, -128.646069, -44.51448054],
        [-123.61072801, -128.61455673, -42.82131953],
        [-123.75975775, -128.58304543, -41.12815852],
        [-123.90878748, -128.55153317, -39.4349956],
        [-124.05781715, -128.52002186, -37.74183459],
        [-124.20684688, -128.48851055, -36.04867167],
        [-124.35587661, -128.45699829, -34.35551066],
        [-124.50490631, -128.42548699, -32.66234775],
        [-124.653936, -128.39397473, -30.96918674],
        [-124.80296572, -128.36246342, -29.27602382],
        [-124.95199542, -128.33095211, -27.58286281],
        [-125.10102514, -128.29943985, -25.8897018],
        [-125.25005482, -128.26792855, -24.19653888],
        [-125.39908456, -128.23641629, -22.50337691],
        [-125.54811423, -128.20490498, -20.81021495],
        [-125.69714396, -128.17339367, -19.11705298],
        [-125.84617369, -128.14188141, -17.42389102],
        [-125.99520336, -128.1103701, -15.73072953],
        [-126.1442331, -128.07885784, -14.03756757],
        [-126.29326283, -128.04734654, -12.34440584],
        [-126.44229244, -128.01583523, -10.651244],
        [-126.59132217, -127.98432297, -8.95808207],
        [-126.7403519, -127.95281166, -7.26492019],
        [-126.88938164, -127.9212994, -5.57175822],
        [-127.03841125, -127.8897881, -3.87859626],
        [-127.18744098, -127.85827679, -2.18543477],
        [-127.33647071, -127.82676453, -0.49227233],
        [-127.48550044, -127.79525322, 1.20088963],
        [-127.63453017, -127.76374096, 2.89405065]
],
      "CsaImage.TimeAfterStart": [16.4, 18.515, 16.55, 18.665, 16.7025, 18.8175, 16.8525, 18.9675, 17.005, 19.12, 17.155, 19.27, 17.305, 19.4225, 17.4575, 19.5725, 17.6075, 19.725, 17.76, 19.875, 17.91, 20.025, 18.0625, 20.1775, 18.2125, 20.3275, 18.365, 16.4, 18.515, 16.55, 18.665, 16.7025, 18.8175, 16.8525, 18.9675, 17.005, 19.12, 17.155, 19.27, 17.305, 19.4225, 17.4575, 19.5725, 17.6075, 19.725, 17.76, 19.875, 17.91, 20.025, 18.0625, 20.1775, 18.2125, 20.3275, 18.365, 16.4, 18.515, 16.55, 18.665, 16.7025, 18.8175, 16.8525, 18.9675, 17.005, 19.12, 17.155, 19.27, 17.305, 19.4225, 17.4575, 19.5725, 17.6075, 19.725, 17.76, 19.875, 17.91, 20.025, 18.0625, 20.1775, 18.2125, 20.3275, 18.365],
      "ImagePositionPatient": [
        [-115.71215354207, -130.28467602041, -132.55890269305],
        [-115.86118327382, -130.25316471365, -130.86573405292],
        [-116.01021300557, -130.22165245321, -129.17257304217],
        [-116.15924273732, -130.19014114645, -127.47941203143],
        [-116.30827246907, -130.15862888601, -125.78625102069],
        [-116.45730220082, -130.12711757925, -124.09309000995],
        [-116.60633193257, -130.09560627248, -122.39992899921],
        [-116.75536166432, -130.06409401205, -120.70676798846],
        [-116.90439139607, -130.03258270528, -119.01360697772],
        [-117.05342112783, -130.00107139852, -117.32044596698],
        [-117.20245085958, -129.96955913808, -115.62727732684],
        [-117.35148011449, -129.93804783132, -113.9341163161],
        [-117.50050984624, -129.90653557089, -112.24095530536],
        [-117.64953957799, -129.87502426412, -110.54779429462],
        [-117.79856930974, -129.84351295736, -108.85463328387],
        [-117.94759904149, -129.81200069692, -107.16147227313],
        [-118.09662877324, -129.78048939016, -105.46831126239],
        [-118.24565850499, -129.74897712972, -103.77515025165],
        [-118.39468823674, -129.71746582296, -102.0819892409],
        [-118.54371796849, -129.6859545162, -100.38882060077],
        [-118.69274770024, -129.65444225576, -98.695659590026],
        [-118.84177743199, -129.622930949, -97.002498579284],
        [-118.99080716374, -129.59141868856, -95.309337568541],
        [-119.13983689549, -129.5599073818, -93.616176557799],
        [-119.28886662725, -129.52839607504, -91.923015547057],
        [-119.437896359, -129.4968838146, -90.229854536315],
        [-119.58692609075, -129.46537250784, -88.536693525573],
        [-119.7359558225, -129.4338602474, -86.843524885436],
        [-119.88498555425, -129.40234894064, -85.150363874694],
        [-120.034015286, -129.37083763387, -83.457202863952],
        [-120.18304501775, -129.33932537344, -81.764041853209],
        [-120.33207427266, -129.30781406667, -80.070880842467],
        [-120.48110400441, -129.27630180624, -78.377719831725],
        [-120.63013373616, -129.24479049947, -76.684558820983],
        [-120.77916346791, -129.21327919271, -74.991397810241],
        [-120.92819343808, -129.18176693227, -73.298236799498],
        [-121.07722293141, -129.15025562551, -71.605071974059],
        [-121.22625266316, -129.11874336507, -69.911910963317],
        [-121.37528239492, -129.08723205831, -68.218746137877],
        [-121.52431212667, -129.05572075155, -66.525585127135],
        [-121.67334185842, -129.02420849111, -64.832424116393],
        [-121.82237159017, -128.99269718435, -63.139263105651],
        [-121.97140132192, -128.96118492391, -61.446102094909],
        [-122.12043105367, -128.92967361715, -59.752937269469],
        [-122.26946078542, -128.89816231039, -58.059776258727],
        [-122.41849027875, -128.86665004995, -56.366615247985],
        [-122.5675200105, -128.83513874319, -54.673454237243],
        [-122.71654974225, -128.80362648275, -52.980289411803],
        [-122.865579474, -128.77211517599, -51.287128401061],
        [-123.01460920575, -128.74060386922, -49.593967390319],
        [-123.1636389375, -128.70909160879, -47.900806379577],
        [-123.31266866925, -128.67758030203, -46.207645368834],
        [-123.461698401, -128.64606899526, -44.514480543395],
        [-123.61072801354, -128.61455673483, -42.821319532653],
        [-123.7597577453, -128.58304542806, -41.128158521911],
        [-123.90878747705, -128.55153316763, -39.43499560382],
        [-124.05781714919, -128.52002186086, -37.741834593077],
        [-124.20684688094, -128.4885105541, -36.048671674987],
        [-124.35587661269, -128.45699829366, -34.355510664244],
        [-124.50490631464, -128.4254869869, -32.662347746154],
        [-124.65393600169, -128.39397472646, -30.969186735411],
        [-124.80296571854, -128.3624634197, -29.276023817321],
        [-124.95199542421, -128.33095211294, -27.582862806578],
        [-125.10102513733, -128.2994398525, -25.889701795836],
        [-125.25005482438, -128.26792854574, -24.196538877745],
        [-125.39908455613, -128.2364162853, -22.503376913329],
        [-125.54811422828, -128.20490497854, -20.810214948912],
        [-125.69714396003, -128.17339367178, -19.117052984496],
        [-125.84617369178, -128.14188141134, -17.423891020079],
        [-125.99520336392, -128.11037010458, -15.7307295325],
        [-126.14423309568, -128.07885784414, -14.037567568084],
        [-126.29326282743, -128.04734653738, -12.344405842086],
        [-126.44229243997, -128.01583523061, -10.651243996878],
        [-126.59132217172, -127.98432297018, -8.9580820697149],
        [-126.74035190347, -127.95281166341, -7.2649201872547],
        [-126.88938163522, -127.92129940298, -5.5717582228382],
        [-127.03841124776, -127.88978809621, -3.8785962584217],
        [-127.18744097951, -127.85827678945, -2.1854347708424],
        [-127.33647071126, -127.82676452902, -0.4922723295887],
        [-127.48550044301, -127.79525322225, 1.2008896348278],
        [-127.63453017476, -127.76374096182, 2.89405064557]
],
      "InstanceCreationTime": ["210838.692000", "210838.782000", "210838.703000", "210838.788000", "210838.709000", "210838.794000", "210838.715000", "210838.800000", "210838.721000", "210838.806000", "210838.727000", "210838.819000", "210838.733000", "210838.825000", "210838.739000", "210838.832000", "210838.745000", "210838.838000", "210838.751000", "210838.845000", "210838.757000", "210838.851000", "210838.763000", "210838.858000", "210838.769000", "210838.865000", "210838.775000", "210838.696000", "210838.784000", "210838.705000", "210838.790000", "210838.711000", "210838.796000", "210838.717000", "210838.802000", "210838.723000", "210838.808000", "210838.729000", "210838.821000", "210838.735000", "210838.827000", "210838.741000", "210838.834000", "210838.747000", "210838.840000", "210838.753000", "210838.847000", "210838.759000", "210838.853000", "210838.765000", "210838.860000", "210838.771000", "210838.867000", "210838.777000", "210838.701000", "210838.786000", "210838.707000", "210838.792000", "210838.713000", "210838.798000", "210838.719000", "210838.804000", "210838.725000", "210838.810000", "210838.731000", "210838.823000", "210838.737000", "210838.829000", "210838.743000", "210838.836000", "210838.749000", "210838.842000", "210838.755000", "210838.849000", "210838.761000", "210838.855000", "210838.767000", "210838.863000", "210838.773000", "210838.869000", "210838.780000"],
      "InstanceNumber": [1, 2, 3, 4, 5, 6, 7, 8, 9, 10, 11, 12, 13, 14, 15, 16, 17, 18, 19, 20, 21, 22, 23, 24, 25, 26, 27, 28, 29, 30, 31, 32, 33, 34, 35, 36, 37, 38, 39, 40, 41, 42, 43, 44, 45, 46, 47, 48, 49, 50, 51, 52, 53, 54, 55, 56, 57, 58, 59, 60, 61, 62, 63, 64, 65, 66, 67, 68, 69, 70, 71, 72, 73, 74, 75, 76, 77, 78, 79, 80, 81],
      "LargestImagePixelValue": [33753, 25009, 21570, 35173, 29571, 17524, 30287, 19118, 17289, 17430, 13105, 20332, 20442, 27002, 37169, 25826, 16740, 17410, 18694, 21932, 24099, 19756, 30038, 39821, 34441, 35388, 36137, 32984, 23387, 24448, 22488, 25010, 35879, 28286, 22010, 24690, 30360, 46309, 42771, 50454, 36220, 30897, 32283, 35974, 34507, 29750, 37362, 45054, 35974, 41840, 35248, 36378, 47157, 41637, 34665, 34918, 28072, 27947, 30163, 31275, 41256, 40727, 41109, 39323, 40155, 34158, 36417, 31029, 31883, 39214, 52003, 39399, 43816, 40396, 41789, 54159, 44696, 49152, 45657, 59207, 52004],
      "SliceLocation": [-124.29683654878, -122.5968298231, -120.89683067846, -119.19683155149, -117.49683240684, -115.79683327987, -114.0968341529, -112.39683500825, -110.69683588129, -108.99683675432, -107.29683001096, -105.5968309258, -103.89683178115, -102.19683265418, -100.49683352721, -98.796834382562, -97.096835255593, -95.396836110946, -93.696836983976, -91.996830258301, -90.296831113654, -88.596831986684, -86.896832842037, -85.196833715068, -83.496834588098, -81.796835443451, -80.096836316482, -78.396829573129, -76.69683044616, -74.99683131919, -73.296832174543, -71.596833089375, -69.896833944728, -68.196834817759, -66.49683569079, -64.796836525242, -63.09683361982, -61.396834475173, -59.696831548851, -57.996832421881, -56.296833277234, -54.596834150265, -52.896835005618, -51.196832079295, -49.496832952326, -47.79683382858, -46.09683470161, -44.39683175761, -42.696832630641, -40.996833503671, -39.296834359024, -37.596835232055, -35.896832305733, -34.196833171536, -32.496834044567, -30.796833000243, -29.096833878499, -27.396832851853, -25.696833707206, -23.996832683173, -22.296833542444, -20.596832517105, -18.896833392421, -17.196834249407, -15.49683322668, -13.796833132195, -12.096833060613, -10.396832983805, -8.6968328893196, -6.9968332926562, -5.296833198171, -3.5968333588228, -1.8968334111954, -0.1968333538132, 1.5031666413678, 3.2031667358531, 4.9031668022103, 6.6031664040989, 8.3031669735033, 10.003167050311, 11.703166194958],
