{
  "AcquisitionMatrixPE": 140,
  "AcquisitionNumber": 1,
  "AcquisitionTime": "09:19:23.062500",
  "BandwidthPerPixelPhaseEncode": 10.352,
  "BaseResolution": 140,
  "BodyPartExamined": "BRAIN",
  "ConsistencyInfo": "N4_VE11E_LATEST_20181129",
  "ConversionSoftware": "dcm2niix",
  "ConversionSoftwareVersion": "v1.0.20201102",
  "DerivedVendorReportedEchoSpacing": 0.000689998,
  "DeviceSerialNumber": "66112",
  "DiffusionScheme": "Monopolar",
  "DwellTime": 2.1e-06,
  "EchoTime": 0.0884,
  "EchoTrainLength": 105,
  "EffectiveEchoSpacing": 0.000689998,
  "FlipAngle": 90,
  "ImageComments": "Unaliased MB3/PE3 SENSE1",
  "ImageOrientationPatientDICOM": [0.999294, -0.00891266, -0.0364976, 0.0102905, 0.999235, 0.0377401],
  "ImageType": [
    "ORIGINAL",
    "PRIMARY",
    "DIFFUSION",
    "NONE",
    "MB",
    "ND",
    "MOSAIC"
],
  "ImagingFrequency": 123.252,
  "InPlanePhaseEncodingDirectionDICOM": "COL",
  "InstitutionAddress": "Maynard 3,Hanover,NH,US,03755",
  "InstitutionName": "Dartmouth College - PBS",
  "InstitutionalDepartmentName": "Department",
  "MRAcquisitionType": "2D",
  "MagneticFieldStrength": 3,
  "Manufacturer": "Siemens",
  "ManufacturersModelName": "Prisma",
  "Modality": "MR",
  "MultibandAccelerationFactor": 3,
  "PartialFourier": 0.75,
  "PatientPosition": "HFS",
  "PercentPhaseFOV": 100,
  "PercentSampling": 100,
  "PhaseEncodingDirection": "j-",
  "PhaseEncodingSteps": 105,
  "PhaseResolution": 1,
  "PixelBandwidth": 1700,
  "ProcedureStepDescription": "Wager_Wager^1076_spacetop",
  "ProtocolName": "dwi_acq-96dir-6b0-mb",
  "PulseSequenceDetails": "%CustomerSeq%\\cmrr_mbep2d_diff",
  "ReceiveCoilActiveElements": "HEA;HEP",
  "ReceiveCoilName": "Head_32",
  "ReconMatrixPE": 140,
  "RepetitionTime": 4.11,
  "SAR": 0.288177,
  "ScanOptions": "PFP\\FS",
  "ScanningSequence": "EP",
  "SequenceName": "ep_b5#1",
  "SequenceVariant": "SK\\SS",
  "SeriesDescription": "dwi_acq-96dir-6b0-mb",
  "SeriesNumber": 8,
  "ShimSetting": [4126, -7765, -7222, 562, -65, -150, -63, 71],
  "SliceThickness": 1.7,
  "SliceTiming": [0, 2.1225, 0.1525, 2.2725, 0.3025, 2.425, 0.455, 2.575, 0.6075, 2.7275, 0.7575, 2.8775, 0.91, 3.03, 1.06, 3.1825, 1.2125, 3.3325, 1.365, 3.485, 1.515, 3.635, 1.6675, 3.7875, 1.8175, 3.94, 1.97, 0, 2.1225, 0.1525, 2.2725, 0.3025, 2.425, 0.455, 2.575, 0.6075, 2.7275, 0.7575, 2.8775, 0.91, 3.03, 1.06, 3.1825, 1.2125, 3.3325, 1.365, 3.485, 1.515, 3.635, 1.6675, 3.7875, 1.8175, 3.94, 1.97, 0, 2.1225, 0.1525, 2.2725, 0.3025, 2.425, 0.455, 2.575, 0.6075, 2.7275, 0.7575, 2.8775, 0.91, 3.03, 1.06, 3.1825, 1.2125, 3.3325, 1.365, 3.485, 1.515, 3.635, 1.6675, 3.7875, 1.8175, 3.94, 1.97],
  "SoftwareVersions": "syngo MR E11",
  "SpacingBetweenSlices": 1.7,
  "StationName": "AWP66112",
  "TotalReadoutTime": 0.0959097,
  "TxRefAmp": 252.261,
  "WipMemBlock": "b1de5be4-4b06-4ffe-8157-a56a4825a4ce||Sequence: R016 ve11e/master r/434b28f1; Aug  7 2019 19:06:17 by eja",
  "dcmmeta_affine": [
    [-1.7130753993988037, 0.017640898004174232, -0.06142657995223999, 123.66555786132812],
    [0.015278843231499195, 1.7129735946655273, 0.06475131958723068, -95.96668243408203],
    [-0.06256728619337082, -0.0646972730755806, 1.697655439376831, -43.32146453857422],
    [0.0, 0.0, 0.0, 1.0]
],
  "dcmmeta_reorient_transform": [
    [0.0, -1.0, 0.0, 139.0],
    [1.0, 0.0, 0.0, 0.0],
    [0.0, 0.0, 1.0, 0.0],
    [0.0, 0.0, 0.0, 1.0]
],
  "dcmmeta_shape": [140, 140, 81, 103],
  "dcmmeta_slice_dim": 2,
  "dcmmeta_version": 0.6,
  "global": {
    "const": {
      "AccessionNumber": "A003935",
      "AcquisitionMatrix": [140, 0, 0, 140],
      "AngioFlag": "N",
      "BitsAllocated": 16,
      "BitsStored": 16,
      "BodyPartExamined": "BRAIN",
      "Columns": 1260,
      "EchoNumbers": 1,
      "EchoTime": 88.4,
      "EchoTrainLength": 105,
      "FlipAngle": 90.0,
      "HighBit": 15,
      "ImageOrientationPatient": [0.99929399627529, -0.0089126582337, -0.0364975825416, 0.01029052320539, 0.99923460297412, 0.03774007619656],
      "ImagePositionPatient": [-1095.3187892196, -1092.8457246318, -53.507180178517],
      "ImageType": [
        "ORIGINAL",
        "PRIMARY",
        "DIFFUSION",
        "NONE",
        "MB",
        "ND",
        "MOSAIC"
],
      "ImagedNucleus": "1H",
      "ImagingFrequency": 123.252128,
      "InPlanePhaseEncodingDirection": "COL",
      "MRAcquisitionType": "2D",
      "MagneticFieldStrength": 3.0,
      "Manufacturer": "SIEMENS",
      "ManufacturerModelName": "Prisma",
      "Modality": "MR",
      "NumberOfAverages": 1.0,
      "NumberOfPhaseEncodingSteps": 105,
      "PercentPhaseFieldOfView": 100.0,
      "PercentSampling": 100.0,
      "PerformedProcedureStepStartTime": "084702.278000",
      "PhotometricInterpretation": "MONOCHROME2",
      "PixelBandwidth": 1700.0,
      "PixelRepresentation": 0,
      "PixelSpacing": [1.7142857313156, 1.7142857313156],
      "ProtocolName": "dwi_acq-96dir-6b0-mb",
      "RepetitionTime": 4110.0,
      "Rows": 1260,
      "SAR": 0.2881773912193,
      "SamplesPerPixel": 1,
      "ScanOptions": [
        "PFP",
        "FS"
],
      "ScanningSequence": "EP",
      "SequenceVariant": [
        "SK",
        "SS"
],
      "SeriesDescription": "dwi_acq-96dir-6b0-mb",
      "SeriesNumber": 8,
      "SeriesTime": "092057.956000",
      "SliceLocation": -51.38543724414,
      "SliceThickness": 1.7000000476837,
      "SmallestImagePixelValue": 0,
      "SoftwareVersions": "syngo MR E11",
      "SpacingBetweenSlices": 1.6999999849,
      "SpecificCharacterSet": "ISO_IR 100",
      "StudyID": "1",
      "StudyTime": "084702.098000",
      "TransmitCoilName": "Body",
      "VariableFlipAngleFlag": "N",
      "WindowCenterWidthExplanation": "Algo1"
    },
    "slices": {}
  },
  "time": {
    "samples": {
      "AcquisitionNumber": [1, 2, 3, 4, 5, 6, 7, 8, 9, 10, 11, 12, 13, 14, 15, 16, 17, 18, 19, 20, 21, 22, 23, 24, 25, 26, 27, 28, 29, 30, 31, 32, 33, 34, 35, 36, 37, 38, 39, 40, 41, 42, 43, 44, 45, 46, 47, 48, 49, 50, 51, 52, 53, 54, 55, 56, 57, 58, 59, 60, 61, 62, 63, 64, 65, 66, 67, 68, 69, 70, 71, 72, 73, 74, 75, 76, 77, 78, 79, 80, 81, 82, 83, 84, 85, 86, 87, 88, 89, 90, 91, 92, 93, 94, 95, 96, 97, 98, 99, 100, 101, 102, 103],
      "AcquisitionTime": ["091923.062500", "091927.172500", "091931.282500", "091935.392500", "091939.502500", "091943.612500", "091947.722500", "091951.832500", "091955.942500", "092000.052500", "092004.162500", "092008.272500", "092012.382500", "092016.492500", "092020.602500", "092024.712500", "092028.822500", "092032.932500", "092037.042500", "092041.152500", "092045.262500", "092049.372500", "092053.482500", "092057.592500", "092101.702500", "092105.812500", "092109.922500", "092114.032500", "092118.142500", "092122.252500", "092126.362500", "092130.472500", "092134.582500", "092138.692500", "092142.802500", "092146.912500", "092151.022500", "092155.132500", "092159.242500", "092203.352500", "092207.462500", "092211.572500", "092215.682500", "092219.792500", "092223.902500", "092228.012500", "092232.122500", "092236.232500", "092240.342500", "092244.452500", "092248.562500", "092252.672500", "092256.782500", "092300.892500", "092305.002500", "092309.112500", "092313.222500", "092317.332500", "092321.442500", "092325.552500", "092329.662500", "092333.772500", "092337.882500", "092341.992500", "092346.102500", "092350.212500", "092354.322500", "092358.432500", "092402.542500", "092406.652500", "092410.762500", "092414.872500", "092418.982500", "092423.092500", "092427.202500", "092431.312500", "092435.422500", "092439.532500", "092443.642500", "092447.752500", "092451.862500", "092455.972500", "092500.082500", "092504.192500", "092508.302500", "092512.412500", "092516.522500", "092520.632500", "092524.742500", "092528.852500", "092532.962500", "092537.072500", "092541.182500", "092545.292500", "092549.402500", "092553.512500", "092557.622500", "092601.732500", "092605.842500", "092609.952500", "092614.062500", "092618.172500", "092622.282500"],
      "ContentTime": ["092057.960000", "092057.964000", "092057.967000", "092057.970000", "092057.973000", "092057.976000", "092057.979000", "092057.982000", "092057.985000", "092057.988000", "092057.991000", "092057.994000", "092058.006000", "092058.009000", "092058.012000", "092058.018000", "092058.021000", "092058.024000", "092058.033000", "092058.036000", "092058.039000", "092058.042000", "092217.956000", "092217.960000", "092217.963000", "092217.966000", "092217.969000", "092217.972000", "092217.975000", "092217.978000", "092217.981000", "092217.984000", "092217.987000", "092217.990000", "092217.993000", "092217.996000", "092217.999000", "092218.002000", "092218.005000", "092218.008000", "092218.011000", "092218.014000", "092357.955000", "092357.958000", "092357.961000", "092357.964000", "092357.973000", "092357.976000", "092357.979000", "092357.982000", "092357.985000", "092357.988000", "092357.991000", "092357.994000", "092357.997000", "092358.006000", "092358.009000", "092358.012000", "092358.015000", "092358.018000", "092358.021000", "092358.024000", "092358.027000", "092358.030000", "092358.033000", "092358.036000", "092517.956000", "092517.959000", "092517.962000", "092517.965000", "092517.968000", "092517.971000", "092517.974000", "092517.977000", "092517.980000", "092517.983000", "092517.986000", "092517.989000", "092517.992000", "092517.995000", "092517.998000", "092518.002000", "092518.005000", "092518.008000", "092518.011000", "092518.014000", "092627.410000", "092627.413000", "092627.416000", "092627.419000", "092627.422000", "092627.425000", "092627.428000", "092627.432000", "092627.435000", "092627.438000", "092627.441000", "092627.444000", "092627.447000", "092627.450000", "092627.453000", "092627.456000", "092627.460000"],
      "InstanceCreationTime": ["092057.960000", "092057.964000", "092057.967000", "092057.970000", "092057.973000", "092057.976000", "092057.979000", "092057.982000", "092057.985000", "092057.988000", "092057.991000", "092057.994000", "092058.006000", "092058.009000", "092058.012000", "092058.018000", "092058.021000", "092058.024000", "092058.033000", "092058.036000", "092058.039000", "092058.042000", "092217.956000", "092217.960000", "092217.963000", "092217.966000", "092217.969000", "092217.972000", "092217.975000", "092217.978000", "092217.981000", "092217.984000", "092217.987000", "092217.990000", "092217.993000", "092217.996000", "092217.999000", "092218.002000", "092218.005000", "092218.008000", "092218.011000", "092218.014000", "092357.955000", "092357.958000", "092357.961000", "092357.964000", "092357.973000", "092357.976000", "092357.979000", "092357.982000", "092357.985000", "092357.988000", "092357.991000", "092357.994000", "092357.997000", "092358.006000", "092358.009000", "092358.012000", "092358.015000", "092358.018000", "092358.021000", "092358.024000", "092358.027000", "092358.030000", "092358.033000", "092358.036000", "092517.956000", "092517.959000", "092517.962000", "092517.965000", "092517.968000", "092517.971000", "092517.974000", "092517.977000", "092517.980000", "092517.983000", "092517.986000", "092517.989000", "092517.992000", "092517.995000", "092517.998000", "092518.002000", "092518.005000", "092518.008000", "092518.011000", "092518.014000", "092627.410000", "092627.413000", "092627.416000", "092627.419000", "092627.422000", "092627.425000", "092627.428000", "092627.432000", "092627.435000", "092627.438000", "092627.441000", "092627.444000", "092627.447000", "092627.450000", "092627.453000", "092627.456000", "092627.460000"],
      "InstanceNumber": [1, 2, 3, 4, 5, 6, 7, 8, 9, 10, 11, 12, 13, 14, 15, 16, 17, 18, 19, 20, 21, 22, 23, 24, 25, 26, 27, 28, 29, 30, 31, 32, 33, 34, 35, 36, 37, 38, 39, 40, 41, 42, 43, 44, 45, 46, 47, 48, 49, 50, 51, 52, 53, 54, 55, 56, 57, 58, 59, 60, 61, 62, 63, 64, 65, 66, 67, 68, 69, 70, 71, 72, 73, 74, 75, 76, 77, 78, 79, 80, 81, 82, 83, 84, 85, 86, 87, 88, 89, 90, 91, 92, 93, 94, 95, 96, 97, 98, 99, 100, 101, 102, 103],
      "LargestImagePixelValue": [65535, 65535, 65535, 65535, 65535, 65535, 65535, 65535, 65535, 46854, 51322, 48187, 52737, 53857, 52951, 54628, 47930, 46910, 49825, 48424, 46944, 49611, 47322, 49570, 65535, 21222, 22363, 28266, 24815, 32286, 30545, 23590, 27206, 25889, 26776, 25895, 28650, 23927, 29273, 27233, 65535, 11541, 16124, 15967, 18232, 12784, 16057, 14565, 16434, 13373, 18631, 16732, 13900, 13389, 14562, 12555, 11842, 14742, 16215, 16658, 14504, 14586, 14191, 14160, 15046, 14848, 12704, 13963, 17820, 14639, 15254, 14284, 14849, 65535, 17269, 15923, 14711, 13102, 15449, 14341, 15419, 17594, 14987, 15213, 11533, 12668, 19594, 19145, 18688, 20599, 17667, 15089, 14450, 14953, 13125, 13656, 15031, 14888, 17215, 15209, 12667, 13914, 65535],
      "SequenceName": [
 "ep_b5#1",
 "ep_b5#1",
 "ep_b500#2",
 "ep_b495#3",
 "ep_b500#4",
 "ep_b505#5",
 "ep_b495#6",
 "ep_b500#7",
 "ep_b5#8",
 "ep_b1000#9",
 "ep_b1005#10",
 "ep_b995#11",
 "ep_b1005#12",
 "ep_b995#13",
 "ep_b995#14",
 "ep_b1005#15",
 "ep_b1000#16",
 "ep_b1005#17",
 "ep_b995#18",
 "ep_b1000#19",
 "ep_b995#20",
 "ep_b1000#21",
 "ep_b1005#22",
 "ep_b1005#23",
 "ep_b5#24",
 "ep_b2000#25",
 "ep_b1995#26",
 "ep_b1990#27",
 "ep_b1995#28",
 "ep_b2005#29",
 "ep_b2010#30",
 "ep_b2000#31",
 "ep_b2010#32",
 "ep_b2000#33",
 "ep_b1995#34",
 "ep_b1995#35",
 "ep_b2005#36",
 "ep_b2000#37",
 "ep_b2005#38",
 "ep_b1995#39",
 "ep_b5#40",
 "ep_b3000#41",
 "ep_b3005#42",
 "ep_b3010#43",
 "ep_b3010#44",
 "ep_b3000#45",
 "ep_b3000#46",
 "ep_b2990#47",
 "ep_b3005#48",
 "ep_b3000#49",
 "ep_b2990#50",
 "ep_b2990#51",
 "ep_b2995#52",
 "ep_b2995#53",
 "ep_b3010#54",
 "ep_b3000#55",
 "ep_b2995#56",
 "ep_b2995#57",
 "ep_b2990#58",
 "ep_b2990#59",
 "ep_b3000#60",
 "ep_b2990#61",
 "ep_b2990#62",
 "ep_b2995#63",
 "ep_b3000#64",
 "ep_b3010#65",
 "ep_b2995#66",
 "ep_b3005#67",
 "ep_b3010#68",
 "ep_b3005#69",
 "ep_b3005#70",
 "ep_b3005#71",
 "ep_b2990#72",
 "ep_b5#73",
 "ep_b3010#74",
 "ep_b3000#75",
 "ep_b3005#76",
 "ep_b3000#77",
 "ep_b2990#78",
 "ep_b3005#79",
 "ep_b2995#80",
 "ep_b3010#81",
 "ep_b3005#82",
 "ep_b3005#83",
 "ep_b3000#84",
 "ep_b3005#85",
 "ep_b3010#86",
 "ep_b3010#87",
 "ep_b2990#88",
 "ep_b3010#89",
 "ep_b2995#90",
 "ep_b2995#91",
 "ep_b2990#92",
 "ep_b2995#93",
 "ep_b3005#94",
 "ep_b3005#95",
 "ep_b2995#96",
 "ep_b3000#97",
 "ep_b2990#98",
 "ep_b3000#99",
 "ep_b2995#100",
 "ep_b2995#101",
 "ep_b5#102"
],
      "WindowCenter": [10695.0, 10685.0, 7352.0, 7423.0, 7386.0, 7308.0, 7417.0, 7399.0, 10706.0, 5530.0, 5552.0, 5551.0, 5565.0, 5614.0, 5599.0, 5588.0, 5613.0, 5550.0, 5613.0, 5554.0, 5599.0, 5606.0, 5520.0, 5631.0, 10709.0, 3498.0, 3509.0, 3582.0, 3668.0, 3619.0, 3583.0, 3582.0, 3546.0, 3585.0, 3673.0, 3586.0, 3567.0, 3556.0, 3638.0, 3599.0, 10696.0, 2426.0, 2516.0, 2551.0, 2582.0, 2471.0, 2597.0, 2568.0, 2541.0, 2469.0, 2568.0, 2545.0, 2544.0, 2520.0, 2568.0, 2472.0, 2459.0, 2532.0, 2593.0, 2547.0, 2564.0, 2509.0, 2611.0, 2611.0, 2630.0, 2611.0, 2445.0, 2549.0, 2584.0, 2495.0, 2493.0, 2626.0, 2570.0, 10699.0, 2557.0, 2582.0, 2476.0, 2531.0, 2520.0, 2478.0, 2504.0, 2541.0, 2579.0, 2493.0, 2424.0, 2477.0, 2574.0, 2562.0, 2579.0, 2589.0, 2571.0, 2533.0, 2492.0, 2550.0, 2444.0, 2489.0, 2632.0, 2529.0, 2572.0, 2541.0, 2462.0, 2602.0, 10709.0],
      "WindowWidth": [24443.0, 24433.0, 15600.0, 15748.0, 15661.0, 15551.0, 15747.0, 15698.0, 24511.0, 11897.0, 11975.0, 11945.0, 11969.0, 12069.0, 12024.0, 12003.0, 12052.0, 11970.0, 12037.0, 11928.0, 12038.0, 12023.0, 11920.0, 12065.0, 24513.0, 7953.0, 7976.0, 8112.0, 8253.0, 8147.0, 8112.0, 8096.0, 8061.0, 8088.0, 8265.0, 8114.0, 8045.0, 8058.0, 8182.0, 8121.0, 24493.0, 5869.0, 6003.0, 6085.0, 6120.0, 5938.0, 6158.0, 6120.0, 6045.0, 5928.0, 6092.0, 6055.0, 6089.0, 6052.0, 6128.0, 5940.0, 5948.0, 6037.0, 6160.0, 6062.0, 6108.0, 5997.0, 6210.0, 6216.0, 6236.0, 6210.0, 5889.0, 6082.0, 6133.0, 5982.0, 5971.0, 6247.0, 6123.0, 24499.0, 6079.0, 6126.0, 5928.0, 6061.0, 6013.0, 5936.0, 5981.0, 6044.0, 6142.0, 5970.0, 5863.0, 5964.0, 6095.0, 6075.0, 6114.0, 6124.0, 6119.0, 6043.0, 5960.0, 6086.0, 5888.0, 5984.0, 6242.0, 6026.0, 6111.0, 6043.0, 5929.0, 6208.0, 24528.0]
    },
    "slices": {}
  }
}