{
  "AcquisitionMatrixPE": 82,
  "AcquisitionNumber": 1,
  "AcquisitionTime": "15:50:21.725000",
  "BandwidthPerPixelPhaseEncode": 24.888,
  "BaseResolution": 82,
  "BodyPartExamined": "BRAIN",
  "ConsistencyInfo": "N4_VE11C_LATEST_20160120",
  "ConversionSoftware": "dcm2niix",
  "ConversionSoftwareVersion": "v1.0.20201102",
  "DerivedVendorReportedEchoSpacing": 0.00049,
  "DeviceSerialNumber": "66112",
  "DwellTime": 2e-06,
  "EchoTime": 0.0272,
  "EchoTrainLength": 82,
  "EffectiveEchoSpacing": 0.00049,
  "FlipAngle": 44,
  "ImageComments": "Unaliased MB8/PE3",
  "ImageOrientationPatientDICOM": [0.999698, 0.0101141, -0.0224029, -0.0104692, 0.999821, -0.0157909],
  "ImageType": [
    "ORIGINAL",
    "PRIMARY",
    "M",
    "MB",
    "ND",
    "NORM",
    "MOSAIC"
],
  "ImagingFrequency": 123.252,
  "InPlanePhaseEncodingDirectionDICOM": "COL",
  "InstitutionAddress": "Maynard 3,Hanover,NH,US,03755",
  "InstitutionName": "Dartmouth College - PBS",
  "InstitutionalDepartmentName": "Department",
  "MRAcquisitionType": "2D",
  "MagneticFieldStrength": 3,
  "Manufacturer": "Siemens",
  "ManufacturersModelName": "Prisma",
  "Modality": "MR",
  "MultibandAccelerationFactor": 8,
  "PartialFourier": 1,
  "PatientPosition": "HFS",
  "PercentPhaseFOV": 100,
  "PercentSampling": 100,
  "PhaseEncodingDirection": "j-",
  "PhaseEncodingSteps": 82,
  "PhaseResolution": 1,
  "PixelBandwidth": 3050,
  "ProcedureStepDescription": "Wager_Wager^1076_spacetop",
  "ProtocolName": "func_run-04_task-social_acq-ap-mb8",
  "PulseSequenceDetails": "%CustomerSeq%\\cmrr_mbep2d_bold",
  "ReceiveCoilActiveElements": "HEA;HEP",
  "ReceiveCoilName": "Head_32",
  "ReconMatrixPE": 82,
  "RepetitionTime": 0.46,
  "SAR": 0.0700845,
  "ScanOptions": "FS",
  "ScanningSequence": "EP",
  "SequenceName": "epfid2d1_82",
  "SequenceVariant": "SK\\SS",
  "SeriesDescription": "func_run-04_task-social_acq-ap-mb8",
  "SeriesNumber": 18,
  "ShimSetting": [4140, -7776, -7322, 568, -73, -90, -52, 96],
  "SliceThickness": 2.7,
  "SliceTiming": [0, 0.25, 0.0625, 0.315, 0.125, 0.3775, 0.1875, 0, 0.25, 0.0625, 0.315, 0.125, 0.3775, 0.1875, 0, 0.25, 0.0625, 0.315, 0.125, 0.3775, 0.1875, 0, 0.25, 0.0625, 0.315, 0.125, 0.3775, 0.1875, 0, 0.25, 0.0625, 0.315, 0.125, 0.3775, 0.1875, 0, 0.25, 0.0625, 0.315, 0.125, 0.3775, 0.1875, 0, 0.25, 0.0625, 0.315, 0.125, 0.3775, 0.1875, 0, 0.25, 0.0625, 0.315, 0.125, 0.3775, 0.1875],
  "SoftwareVersions": "syngo MR E11",
  "SpacingBetweenSlices": 2.7,
  "StationName": "AWP66112",
  "TaskName": "social",
  "TotalReadoutTime": 0.03969,
  "TxRefAmp": 253.883,
  "WipMemBlock": "4b2f51fb-c1ee-493e-b1f6-68d5b53f781c||Sequence: R016 ve11c/master r/e634e98; Dec 19 2017 11:00:25 by eja",
  "dcmmeta_affine": [
    [-2.6821162700653076, -0.028088146820664406, -0.06004573032259941, 112.98143768310547],
    [-0.027135411277413368, 2.6824452877044678, -0.04325590655207634, -97.12892150878906],
    [-0.06010532006621361, 0.04236593097448349, 2.6989855766296387, -90.65601348876953],
    [0.0, 0.0, 0.0, 1.0]
],
  "dcmmeta_reorient_transform": [
    [0.0, -1.0, 0.0, 81.0],
    [1.0, 0.0, 0.0, 0.0],
    [0.0, 0.0, 1.0, 0.0],
    [0.0, 0.0, 0.0, 1.0]
],
  "dcmmeta_shape": [82, 82, 56, 872],
  "dcmmeta_slice_dim": 2,
  "dcmmeta_version": 0.6,
  "global": {
    "const": {
      "AccessionNumber": "A003452",
      "AcquisitionMatrix": [82, 0, 0, 82],
      "AngioFlag": "N",
      "BitsAllocated": 16,
      "BitsStored": 16,
      "BodyPartExamined": "BRAIN",
      "Columns": 656,
      "EchoNumbers": 1,
      "EchoTime": 27.2,
      "EchoTrainLength": 82,
      "FlipAngle": 44.0,
      "HighBit": 15,
      "ImageOrientationPatient": [0.99969786198689, 0.01011410771983, -0.022402891864, -0.0104692180862, 0.99982050478315, -0.0157909368889],
      "ImagePositionPatient": [-872.41237261682, -897.7988232705, -57.815127222836],
      "ImageType": [
        "ORIGINAL",
        "PRIMARY",
        "M",
        "MB",
        "ND",
        "NORM",
        "MOSAIC"
],
      "ImagedNucleus": "1H",
      "ImagingFrequency": 123.252179,
      "InPlanePhaseEncodingDirection": "COL",
      "MRAcquisitionType": "2D",
      "MagneticFieldStrength": 3.0,
      "Manufacturer": "SIEMENS",
      "ManufacturerModelName": "Prisma",
      "Modality": "MR",
      "NumberOfAverages": 1.0,
      "NumberOfPhaseEncodingSteps": 82,
      "PercentPhaseFieldOfView": 100.0,
      "PercentSampling": 100.0,
      "PerformedProcedureStepStartTime": "142548.282000",
      "PhotometricInterpretation": "MONOCHROME2",
      "PixelBandwidth": 3050.0,
      "PixelRepresentation": 0,
      "PixelSpacing": [2.6829268932343, 2.6829268932343],
      "ProtocolName": "func_run-04_task-social_acq-ap-mb8",
      "RepetitionTime": 460.0,
      "Rows": 656,
      "SAR": 0.07008448926488,
      "SamplesPerPixel": 1,
      "ScanOptions": "FS",
      "ScanningSequence": "EP",
      "SequenceName": "epfid2d1_82",
      "SequenceVariant": [
        "SK",
        "SS"
],
      "SeriesDescription": "func_run-04_task-social_acq-ap-mb8",
      "SeriesNumber": 18,
      "SeriesTime": "155032.374000",
      "SliceLocation": -91.578495901093,
      "SliceThickness": 2.7000000476837,
      "SmallestImagePixelValue": 0,
      "SoftwareVersions": "syngo MR E11",
      "SpacingBetweenSlices": 2.700000006185,
      "SpecificCharacterSet": "ISO_IR 100",
      "StudyID": "1",
      "StudyTime": "142548.166000",
      "TransmitCoilName": "Body",
      "VariableFlipAngleFlag": "N",
      "WindowCenterWidthExplanation": "Algo1",
      "dBdt": 0.0},
    "slices": {}
  },
  "time": {
    "samples": {
      "AcquisitionNumber": [1, 2, 3, 4, 5, 6, 7, 8, 9, 10, 11, 12, 13, 14, 15, 16, 17, 18, 19, 20, 21, 22, 23, 24, 25, 26, 27, 28, 29, 30, 31, 32, 33, 34, 35, 36, 37, 38, 39, 40, 41, 42, 43, 44, 45, 46, 47, 48, 49, 50, 51, 52, 53, 54, 55, 56, 57, 58, 59, 60, 61, 62, 63, 64, 65, 66, 67, 68, 69, 70, 71, 72, 73, 74, 75, 76, 77, 78, 79, 80, 81, 82, 83, 84, 85, 86, 87, 88, 89, 90, 91, 92, 93, 94, 95, 96, 97, 98, 99, 100, 101, 102, 103, 104, 105, 106, 107, 108, 109, 110, 111, 112, 113, 114, 115, 116, 117, 118, 119, 120, 121, 122, 123, 124, 125, 126, 127, 128, 129, 130, 131, 132, 133, 134, 135, 136, 137, 138, 139, 140, 141, 142, 143, 144, 145, 146, 147, 148, 149, 150, 151, 152, 153, 154, 155, 156, 157, 158, 159, 160, 161, 162, 163, 164, 165, 166, 167, 168, 169, 170, 171, 172, 173, 174, 175, 176, 177, 178, 179, 180, 181, 182, 183, 184, 185, 186, 187, 188, 189, 190, 191, 192, 193, 194, 195, 196, 197, 198, 199, 200, 201, 202, 203, 204, 205, 206, 207, 208, 209, 210, 211, 212, 213, 214, 215, 216, 217, 218, 219, 220, 221, 222, 223, 224, 225, 226, 227, 228, 229, 230, 231, 232, 233, 234, 235, 236, 237, 238, 239, 240, 241, 242, 243, 244, 245, 246, 247, 248, 249, 250, 251, 252, 253, 254, 255, 256, 257, 258, 259, 260, 261, 262, 263, 264, 265, 266, 267, 268, 269, 270, 271, 272, 273, 274, 275, 276, 277, 278, 279, 280, 281, 282, 283, 284, 285, 286, 287, 288, 289, 290, 291, 292, 293, 294, 295, 296, 297, 298, 299, 300, 301, 302, 303, 304, 305, 306, 307, 308, 309, 310, 311, 312, 313, 314, 315, 316, 317, 318, 319, 320, 321, 322, 323, 324, 325, 326, 327, 328, 329, 330, 331, 332, 333, 334, 335, 336, 337, 338, 339, 340, 341, 342, 343, 344, 345, 346, 347, 348, 349, 350, 351, 352, 353, 354, 355, 356, 357, 358, 359, 360, 361, 362, 363, 364, 365, 366, 367, 368, 369, 370, 371, 372, 373, 374, 375, 376, 377, 378, 379, 380, 381, 382, 383, 384, 385, 386, 387, 388, 389, 390, 391, 392, 393, 394, 395, 396, 397, 398, 399, 400, 401, 402, 403, 404, 405, 406, 407, 408, 409, 410, 411, 412, 413, 414, 415, 416, 417, 418, 419, 420, 421, 422, 423, 424, 425, 426, 427, 428, 429, 430, 431, 432, 433, 434, 435, 436, 437, 438, 439, 440, 441, 442, 443, 444, 445, 446, 447, 448, 449, 450, 451, 452, 453, 454, 455, 456, 457, 458, 459, 460, 461, 462, 463, 464, 465, 466, 467, 468, 469, 470, 471, 472, 473, 474, 475, 476, 477, 478, 479, 480, 481, 482, 483, 484, 485, 486, 487, 488, 489, 490, 491, 492, 493, 494, 495, 496, 497, 498, 499, 500, 501, 502, 503, 504, 505, 506, 507, 508, 509, 510, 511, 512, 513, 514, 515, 516, 517, 518, 519, 520, 521, 522, 523, 524, 525, 526, 527, 528, 529, 530, 531, 532, 533, 534, 535, 536, 537, 538, 539, 540, 541, 542, 543, 544, 545, 546, 547, 548, 549, 550, 551, 552, 553, 554, 555, 556, 557, 558, 559, 560, 561, 562, 563, 564, 565, 566, 567, 568, 569, 570, 571, 572, 573, 574, 575, 576, 577, 578, 579, 580, 581, 582, 583, 584, 585, 586, 587, 588, 589, 590, 591, 592, 593, 594, 595, 596, 597, 598, 599, 600, 601, 602, 603, 604, 605, 606, 607, 608, 609, 610, 611, 612, 613, 614, 615, 616, 617, 618, 619, 620, 621, 622, 623, 624, 625, 626, 627, 628, 629, 630, 631, 632, 633, 634, 635, 636, 637, 638, 639, 640, 641, 642, 643, 644, 645, 646, 647, 648, 649, 650, 651, 652, 653, 654, 655, 656, 657, 658, 659, 660, 661, 662, 663, 664, 665, 666, 667, 668, 669, 670, 671, 672, 673, 674, 675, 676, 677, 678, 679, 680, 681, 682, 683, 684, 685, 686, 687, 688, 689, 690, 691, 692, 693, 694, 695, 696, 697, 698, 699, 700, 701, 702, 703, 704, 705, 706, 707, 708, 709, 710, 711, 712, 713, 714, 715, 716, 717, 718, 719, 720, 721, 722, 723, 724, 725, 726, 727, 728, 729, 730, 731, 732, 733, 734, 735, 736, 737, 738, 739, 740, 741, 742, 743, 744, 745, 746, 747, 748, 749, 750, 751, 752, 753, 754, 755, 756, 757, 758, 759, 760, 761, 762, 763, 764, 765, 766, 767, 768, 769, 770, 771, 772, 773, 774, 775, 776, 777, 778, 779, 780, 781, 782, 783, 784, 785, 786, 787, 788, 789, 790, 791, 792, 793, 794, 795, 796, 797, 798, 799, 800, 801, 802, 803, 804, 805, 806, 807, 808, 809, 810, 811, 812, 813, 814, 815, 816, 817, 818, 819, 820, 821, 822, 823, 824, 825, 826, 827, 828, 829, 830, 831, 832, 833, 834, 835, 836, 837, 838, 839, 840, 841, 842, 843, 844, 845, 846, 847, 848, 849, 850, 851, 852, 853, 854, 855, 856, 857, 858, 859, 860, 861, 862, 863, 864, 865, 866, 867, 868, 869, 870, 871, 872],
      "AcquisitionTime": ["155021.725000", "155022.185000", "155022.645000", "155023.105000", "155023.565000", "155024.025000", "155024.485000", "155024.945000", "155025.405000", "155025.865000", "155026.325000", "155026.785000", "155027.245000", "155027.705000", "155028.165000", "155028.625000", "155029.085000", "155029.545000", "155030.005000", "155030.465000", "155030.925000", "155031.385000", "155031.845000", "155032.305000", "155032.765000", "155033.225000", "155033.685000", "155034.145000", "155034.605000", "155035.065000", "155035.525000", "155035.985000", "155036.445000", "155036.905000", "155037.365000", "155037.825000", "155038.285000", "155038.745000", "155039.205000", "155039.665000", "155040.125000", "155040.585000", "155041.045000", "155041.505000", "155041.965000", "155042.425000", "155042.885000", "155043.345000", "155043.805000", "155044.265000", "155044.725000", "155045.185000", "155045.645000", "155046.105000", "155046.565000", "155047.025000", "155047.485000", "155047.945000", "155048.405000", "155048.865000", "155049.325000", "155049.785000", "155050.245000", "155050.705000", "155051.165000", "155051.625000", "155052.085000", "155052.545000", "155053.005000", "155053.465000", "155053.925000", "155054.385000", "155054.845000", "155055.305000", "155055.765000", "155056.225000", "155056.685000", "155057.145000", "155057.605000", "155058.065000", "155058.525000", "155058.985000", "155059.445000", "155059.905000", "155100.365000", "155100.825000", "155101.285000", "155101.745000", "155102.205000", "155102.665000", "155103.125000", "155103.585000", "155104.045000", "155104.505000", "155104.965000", "155105.425000", "155105.885000", "155106.345000", "155106.805000", "155107.265000", "155107.725000", "155108.185000", "155108.645000", "155109.105000", "155109.565000", "155110.025000", "155110.485000", "155110.945000", "155111.405000", "155111.865000", "155112.325000", "155112.785000", "155113.245000", "155113.705000", "155114.165000", "155114.625000", "155115.085000", "155115.545000", "155116.005000", "155116.465000", "155116.925000", "155117.385000", "155117.845000", "155118.305000", "155118.765000", "155119.225000", "155119.685000", "155120.145000", "155120.605000", "155121.065000", "155121.525000", "155121.985000", "155122.445000", "155122.905000", "155123.365000", "155123.825000", "155124.285000", "155124.745000", "155125.205000", "155125.665000", "155126.125000", "155126.585000", "155127.045000", "155127.505000", "155127.965000", "155128.425000", "155128.885000", "155129.345000", "155129.805000", "155130.265000", "155130.725000", "155131.185000", "155131.645000", "155132.105000", "155132.565000", "155133.025000", "155133.485000", "155133.945000", "155134.405000", "155134.865000", "155135.325000", "155135.785000", "155136.245000", "155136.705000", "155137.165000", "155137.625000", "155138.085000", "155138.545000", "155139.005000", "155139.465000", "155139.925000", "155140.385000", "155140.845000", "155141.305000", "155141.765000", "155142.225000", "155142.685000", "155143.145000", "155143.605000", "155144.065000", "155144.525000", "155144.985000", "155145.445000", "155145.905000", "155146.365000", "155146.825000", "155147.285000", "155147.745000", "155148.205000", "155148.665000", "155149.125000", "155149.585000", "155150.045000", "155150.505000", "155150.965000", "155151.425000", "155151.885000", "155152.345000", "155152.805000", "155153.265000", "155153.725000", "155154.185000", "155154.645000", "155155.105000", "155155.565000", "155156.025000", "155156.485000", "155156.945000", "155157.405000", "155157.865000", "155158.325000", "155158.785000", "155159.245000", "155159.705000", "155200.165000", "155200.625000", "155201.085000", "155201.545000", "155202.005000", "155202.465000", "155202.925000", "155203.385000", "155203.845000", "155204.305000", "155204.765000", "155205.225000", "155205.685000", "155206.145000", "155206.605000", "155207.065000", "155207.525000", "155207.985000", "155208.445000", "155208.905000", "155209.365000", "155209.825000", "155210.285000", "155210.745000", "155211.205000", "155211.665000", "155212.125000", "155212.585000", "155213.045000", "155213.505000", "155213.965000", "155214.425000", "155214.885000", "155215.345000", "155215.805000", "155216.265000", "155216.725000", "155217.185000", "155217.645000", "155218.105000", "155218.565000", "155219.025000", "155219.485000", "155219.945000", "155220.405000", "155220.865000", "155221.325000", "155221.785000", "155222.245000", "155222.705000", "155223.165000", "155223.625000", "155224.085000", "155224.545000", "155225.005000", "155225.465000", "155225.925000", "155226.385000", "155226.845000", "155227.305000", "155227.765000", "155228.225000", "155228.685000", "155229.145000", "155229.605000", "155230.065000", "155230.525000", "155230.985000", "155231.445000", "155231.905000", "155232.365000", "155232.825000", "155233.285000", "155233.745000", "155234.205000", "155234.665000", "155235.125000", "155235.585000", "155236.045000", "155236.505000", "155236.965000", "155237.425000", "155237.885000", "155238.345000", "155238.805000", "155239.265000", "155239.725000", "155240.185000", "155240.645000", "155241.105000", "155241.565000", "155242.025000", "155242.485000", "155242.945000", "155243.405000", "155243.865000", "155244.325000", "155244.785000", "155245.245000", "155245.705000", "155246.165000", "155246.625000", "155247.085000", "155247.545000", "155248.005000", "155248.465000", "155248.925000", "155249.385000", "155249.845000", "155250.305000", "155250.765000", "155251.225000", "155251.685000", "155252.145000", "155252.605000", "155253.065000", "155253.525000", "155253.985000", "155254.445000", "155254.905000", "155255.365000", "155255.825000", "155256.285000", "155256.745000", "155257.205000", "155257.665000", "155258.125000", "155258.585000", "155259.045000", "155259.505000", "155259.965000", "155300.425000", "155300.885000", "155301.345000", "155301.805000", "155302.265000", "155302.725000", "155303.185000", "155303.645000", "155304.105000", "155304.565000", "155305.025000", "155305.485000", "155305.945000", "155306.405000", "155306.865000", "155307.325000", "155307.785000", "155308.245000", "155308.705000", "155309.165000", "155309.625000", "155310.085000", "155310.545000", "155311.005000", "155311.465000", "155311.925000", "155312.385000", "155312.845000", "155313.305000", "155313.765000", "155314.225000", "155314.685000", "155315.145000", "155315.605000", "155316.065000", "155316.525000", "155316.985000", "155317.445000", "155317.905000", "155318.365000", "155318.825000", "155319.285000", "155319.745000", "155320.205000", "155320.665000", "155321.125000", "155321.585000", "155322.045000", "155322.505000", "155322.965000", "155323.425000", "155323.885000", "155324.345000", "155324.805000", "155325.265000", "155325.725000", "155326.185000", "155326.645000", "155327.105000", "155327.565000", "155328.025000", "155328.485000", "155328.945000", "155329.405000", "155329.865000", "155330.325000", "155330.785000", "155331.245000", "155331.705000", "155332.165000", "155332.625000", "155333.085000", "155333.545000", "155334.005000", "155334.465000", "155334.925000", "155335.385000", "155335.845000", "155336.305000", "155336.765000", "155337.225000", "155337.685000", "155338.145000", "155338.605000", "155339.065000", "155339.525000", "155339.985000", "155340.445000", "155340.905000", "155341.365000", "155341.825000", "155342.285000", "155342.745000", "155343.205000", "155343.665000", "155344.125000", "155344.585000", "155345.045000", "155345.505000", "155345.965000", "155346.425000", "155346.885000", "155347.345000", "155347.805000", "155348.265000", "155348.725000", "155349.185000", "155349.645000", "155350.105000", "155350.565000", "155351.025000", "155351.485000", "155351.945000", "155352.405000", "155352.865000", "155353.325000", "155353.785000", "155354.245000", "155354.705000", "155355.165000", "155355.625000", "155356.085000", "155356.545000", "155357.005000", "155357.465000", "155357.925000", "155358.385000", "155358.845000", "155359.305000", "155359.765000", "155400.225000", "155400.685000", "155401.145000", "155401.605000", "155402.065000", "155402.525000", "155402.985000", "155403.445000", "155403.905000", "155404.365000", "155404.825000", "155405.285000", "155405.745000", "155406.205000", "155406.665000", "155407.125000", "155407.585000", "155408.045000", "155408.505000", "155408.965000", "155409.425000", "155409.885000", "155410.345000", "155410.805000", "155411.265000", "155411.725000", "155412.185000", "155412.645000", "155413.105000", "155413.565000", "155414.025000", "155414.485000", "155414.945000", "155415.405000", "155415.865000", "155416.325000", "155416.785000", "155417.245000", "155417.705000", "155418.165000", "155418.625000", "155419.085000", "155419.545000", "155420.005000", "155420.465000", "155420.925000", "155421.385000", "155421.845000", "155422.305000", "155422.765000", "155423.225000", "155423.685000", "155424.145000", "155424.605000", "155425.065000", "155425.525000", "155425.985000", "155426.445000", "155426.905000", "155427.365000", "155427.825000", "155428.285000", "155428.745000", "155429.205000", "155429.665000", "155430.125000", "155430.585000", "155431.045000", "155431.505000", "155431.965000", "155432.425000", "155432.885000", "155433.345000", "155433.805000", "155434.265000", "155434.725000", "155435.185000", "155435.645000", "155436.105000", "155436.565000", "155437.025000", "155437.485000", "155437.945000", "155438.405000", "155438.865000", "155439.325000", "155439.785000", "155440.245000", "155440.705000", "155441.165000", "155441.625000", "155442.085000", "155442.545000", "155443.005000", "155443.465000", "155443.925000", "155444.385000", "155444.845000", "155445.305000", "155445.765000", "155446.225000", "155446.685000", "155447.145000", "155447.605000", "155448.065000", "155448.525000", "155448.985000", "155449.445000", "155449.905000", "155450.365000", "155450.825000", "155451.285000", "155451.745000", "155452.205000", "155452.665000", "155453.125000", "155453.585000", "155454.045000", "155454.505000", "155454.965000", "155455.425000", "155455.885000", "155456.345000", "155456.805000", "155457.265000", "155457.725000", "155458.185000", "155458.645000", "155459.105000", "155459.565000", "155500.025000", "155500.485000", "155500.945000", "155501.405000", "155501.865000", "155502.325000", "155502.785000", "155503.245000", "155503.705000", "155504.165000", "155504.625000", "155505.085000", "155505.545000", "155506.005000", "155506.465000", "155506.925000", "155507.385000", "155507.845000", "155508.305000", "155508.765000", "155509.225000", "155509.685000", "155510.145000", "155510.605000", "155511.065000", "155511.525000", "155511.985000", "155512.445000", "155512.905000", "155513.365000", "155513.825000", "155514.285000", "155514.745000", "155515.205000", "155515.665000", "155516.125000", "155516.585000", "155517.045000", "155517.505000", "155517.965000", "155518.425000", "155518.885000", "155519.345000", "155519.805000", "155520.265000", "155520.725000", "155521.185000", "155521.645000", "155522.105000", "155522.565000", "155523.025000", "155523.485000", "155523.945000", "155524.405000", "155524.865000", "155525.325000", "155525.785000", "155526.245000", "155526.705000", "155527.165000", "155527.625000", "155528.085000", "155528.545000", "155529.005000", "155529.465000", "155529.925000", "155530.385000", "155530.845000", "155531.305000", "155531.765000", "155532.225000", "155532.685000", "155533.145000", "155533.605000", "155534.065000", "155534.525000", "155534.985000", "155535.445000", "155535.905000", "155536.365000", "155536.825000", "155537.285000", "155537.745000", "155538.205000", "155538.665000", "155539.125000", "155539.585000", "155540.045000", "155540.505000", "155540.965000", "155541.425000", "155541.885000", "155542.345000", "155542.805000", "155543.265000", "155543.725000", "155544.185000", "155544.645000", "155545.105000", "155545.565000", "155546.025000", "155546.485000", "155546.945000", "155547.405000", "155547.865000", "155548.325000", "155548.785000", "155549.245000", "155549.705000", "155550.165000", "155550.625000", "155551.085000", "155551.545000", "155552.005000", "155552.465000", "155552.925000", "155553.385000", "155553.845000", "155554.305000", "155554.765000", "155555.225000", "155555.685000", "155556.145000", "155556.605000", "155557.065000", "155557.525000", "155557.985000", "155558.445000", "155558.905000", "155559.365000", "155559.825000", "155600.285000", "155600.745000", "155601.205000", "155601.665000", "155602.125000", "155602.585000", "155603.045000", "155603.505000", "155603.965000", "155604.425000", "155604.885000", "155605.345000", "155605.805000", "155606.265000", "155606.725000", "155607.185000", "155607.645000", "155608.105000", "155608.565000", "155609.025000", "155609.485000", "155609.945000", "155610.405000", "155610.865000", "155611.325000", "155611.785000", "155612.245000", "155612.705000", "155613.165000", "155613.625000", "155614.085000", "155614.545000", "155615.005000", "155615.465000", "155615.925000", "155616.385000", "155616.845000", "155617.305000", "155617.765000", "155618.225000", "155618.685000", "155619.145000", "155619.605000", "155620.065000", "155620.525000", "155620.985000", "155621.445000", "155621.905000", "155622.365000", "155622.825000", "155623.285000", "155623.745000", "155624.205000", "155624.665000", "155625.125000", "155625.585000", "155626.045000", "155626.505000", "155626.965000", "155627.425000", "155627.885000", "155628.345000", "155628.805000", "155629.265000", "155629.725000", "155630.185000", "155630.645000", "155631.105000", "155631.565000", "155632.025000", "155632.485000", "155632.945000", "155633.405000", "155633.865000", "155634.325000", "155634.785000", "155635.245000", "155635.705000", "155636.165000", "155636.625000", "155637.085000", "155637.545000", "155638.005000", "155638.465000", "155638.925000", "155639.385000", "155639.845000", "155640.305000", "155640.765000", "155641.225000", "155641.685000", "155642.145000", "155642.605000", "155643.065000", "155643.525000", "155643.985000", "155644.445000", "155644.905000", "155645.365000", "155645.825000", "155646.285000", "155646.745000", "155647.205000", "155647.665000", "155648.125000", "155648.585000", "155649.045000", "155649.505000", "155649.965000", "155650.425000", "155650.885000", "155651.345000", "155651.805000", "155652.265000", "155652.725000", "155653.185000", "155653.645000", "155654.105000", "155654.565000", "155655.025000", "155655.485000", "155655.945000", "155656.405000", "155656.865000", "155657.325000", "155657.785000", "155658.245000", "155658.705000", "155659.165000", "155659.625000", "155700.085000", "155700.545000", "155701.005000", "155701.465000", "155701.925000", "155702.385000"],
