{
  "AcquisitionMatrixPE": 82,
  "AcquisitionNumber": 1,
  "AcquisitionTime": "15:25:9.160000",
  "BandwidthPerPixelPhaseEncode": 24.888,
  "BaseResolution": 82,
  "BodyPartExamined": "BRAIN",
  "ConsistencyInfo": "N4_VE11C_LATEST_20160120",
  "ConversionSoftware": "dcm2niix",
  "ConversionSoftwareVersion": "v1.0.20201102",
  "DerivedVendorReportedEchoSpacing": 0.00049,
  "DeviceSerialNumber": "66112",
  "DwellTime": 2e-06,
  "EchoTime": 0.0272,
  "EchoTrainLength": 82,
  "EffectiveEchoSpacing": 0.00049,
  "FlipAngle": 44,
  "ImageComments": "Unaliased MB8/PE3",
  "ImageOrientationPatientDICOM": [0.999698, 0.0101141, -0.0224029, -0.0104692, 0.999821, -0.0157909],
  "ImageType": [
    "ORIGINAL",
    "PRIMARY",
    "M",
    "MB",
    "ND",
    "NORM",
    "MOSAIC"
],
  "ImagingFrequency": 123.252,
  "InPlanePhaseEncodingDirectionDICOM": "COL",
  "InstitutionAddress": "Maynard 3,Hanover,NH,US,03755",
  "InstitutionName": "Dartmouth College - PBS",
  "InstitutionalDepartmentName": "Department",
  "MRAcquisitionType": "2D",
  "MagneticFieldStrength": 3,
  "Manufacturer": "Siemens",
  "ManufacturersModelName": "Prisma",
  "Modality": "MR",
  "MultibandAccelerationFactor": 8,
  "PartialFourier": 1,
  "PatientPosition": "HFS",
  "PercentPhaseFOV": 100,
  "PercentSampling": 100,
  "PhaseEncodingDirection": "j-",
  "PhaseEncodingSteps": 82,
  "PhaseResolution": 1,
  "PixelBandwidth": 3050,
  "ProcedureStepDescription": "Wager_Wager^1076_spacetop",
  "ProtocolName": "func_run-01_task-social_acq-ap-mb8",
  "PulseSequenceDetails": "%CustomerSeq%\\cmrr_mbep2d_bold",
  "ReceiveCoilActiveElements": "HEA;HEP",
  "ReceiveCoilName": "Head_32",
  "ReconMatrixPE": 82,
  "RepetitionTime": 0.46,
  "SAR": 0.0700845,
  "ScanOptions": "FS",
  "ScanningSequence": "EP",
  "SequenceName": "epfid2d1_82",
  "SequenceVariant": "SK\\SS",
  "SeriesDescription": "func_run-01_task-social_acq-ap-mb8",
  "SeriesNumber": 12,
  "ShimSetting": [4140, -7776, -7322, 568, -73, -90, -52, 96],
  "SliceThickness": 2.7,
  "SliceTiming": [0, 0.25, 0.0625, 0.3125, 0.125, 0.3775, 0.1875, 0, 0.25, 0.0625, 0.3125, 0.125, 0.3775, 0.1875, 0, 0.25, 0.0625, 0.3125, 0.125, 0.3775, 0.1875, 0, 0.25, 0.0625, 0.3125, 0.125, 0.3775, 0.1875, 0, 0.25, 0.0625, 0.3125, 0.125, 0.3775, 0.1875, 0, 0.25, 0.0625, 0.3125, 0.125, 0.3775, 0.1875, 0, 0.25, 0.0625, 0.3125, 0.125, 0.3775, 0.1875, 0, 0.25, 0.0625, 0.3125, 0.125, 0.3775, 0.1875],
  "SoftwareVersions": "syngo MR E11",
  "SpacingBetweenSlices": 2.7,
  "StationName": "AWP66112",
  "TaskName": "social",
  "TotalReadoutTime": 0.03969,
  "TxRefAmp": 253.883,
  "WipMemBlock": "85f75ff1-66ec-48d1-8eb8-1745c9599a21||Sequence: R016 ve11c/master r/e634e98; Dec 19 2017 11:00:25 by eja",
  "dcmmeta_affine": [
    [-2.6821162700653076, -0.028088146820664406, -0.06004573032259941, 112.98143768310547],
    [-0.027135411277413368, 2.6824452877044678, -0.04325590655207634, -97.12892150878906],
    [-0.06010532006621361, 0.04236593097448349, 2.6989855766296387, -90.65601348876953],
    [0.0, 0.0, 0.0, 1.0]
],
  "dcmmeta_reorient_transform": [
    [0.0, -1.0, 0.0, 81.0],
    [1.0, 0.0, 0.0, 0.0],
    [0.0, 0.0, 1.0, 0.0],
    [0.0, 0.0, 0.0, 1.0]
],
  "dcmmeta_shape": [82, 82, 56, 872],
  "dcmmeta_slice_dim": 2,
  "dcmmeta_version": 0.6,
  "global": {
    "const": {
      "AccessionNumber": "A003452",
      "AcquisitionMatrix": [82, 0, 0, 82],
      "AngioFlag": "N",
      "BitsAllocated": 16,
      "BitsStored": 16,
      "BodyPartExamined": "BRAIN",
      "Columns": 656,
      "EchoNumbers": 1,
      "EchoTime": 27.2,
      "EchoTrainLength": 82,
      "FlipAngle": 44.0,
      "HighBit": 15,
      "ImageOrientationPatient": [0.99969786198689, 0.01011410771983, -0.022402891864, -0.0104692180862, 0.99982050478315, -0.0157909368889],
      "ImagePositionPatient": [-872.41237261682, -897.7988232705, -57.815127222836],
      "ImageType": [
        "ORIGINAL",
        "PRIMARY",
        "M",
        "MB",
        "ND",
        "NORM",
        "MOSAIC"
],
      "ImagedNucleus": "1H",
      "ImagingFrequency": 123.252165,
      "InPlanePhaseEncodingDirection": "COL",
      "MRAcquisitionType": "2D",
      "MagneticFieldStrength": 3.0,
      "Manufacturer": "SIEMENS",
      "ManufacturerModelName": "Prisma",
      "Modality": "MR",
      "NumberOfAverages": 1.0,
      "NumberOfPhaseEncodingSteps": 82,
      "PercentPhaseFieldOfView": 100.0,
      "PercentSampling": 100.0,
      "PerformedProcedureStepStartTime": "142548.282000",
      "PhotometricInterpretation": "MONOCHROME2",
      "PixelBandwidth": 3050.0,
      "PixelRepresentation": 0,
      "PixelSpacing": [2.6829268932343, 2.6829268932343],
      "ProtocolName": "func_run-01_task-social_acq-ap-mb8",
      "RepetitionTime": 460.0,
      "Rows": 656,
      "SAR": 0.07008448926488,
      "SamplesPerPixel": 1,
      "ScanOptions": "FS",
      "ScanningSequence": "EP",
      "SequenceName": "epfid2d1_82",
      "SequenceVariant": [
        "SK",
        "SS"
],
      "SeriesDescription": "func_run-01_task-social_acq-ap-mb8",
      "SeriesNumber": 12,
      "SeriesTime": "152532.399000",
      "SliceLocation": -91.578495901093,
      "SliceThickness": 2.7000000476837,
      "SmallestImagePixelValue": 0,
      "SoftwareVersions": "syngo MR E11",
      "SpacingBetweenSlices": 2.700000006185,
      "SpecificCharacterSet": "ISO_IR 100",
      "StudyID": "1",
      "StudyTime": "142548.166000",
      "TransmitCoilName": "Body",
      "VariableFlipAngleFlag": "N",
      "WindowCenterWidthExplanation": "Algo1",
      "dBdt": 0.0},
    "slices": {}
  },
  "time": {
    "samples": {
      "AcquisitionNumber": [1, 2, 3, 4, 5, 6, 7, 8, 9, 10, 11, 12, 13, 14, 15, 16, 17, 18, 19, 20, 21, 22, 23, 24, 25, 26, 27, 28, 29, 30, 31, 32, 33, 34, 35, 36, 37, 38, 39, 40, 41, 42, 43, 44, 45, 46, 47, 48, 49, 50, 51, 52, 53, 54, 55, 56, 57, 58, 59, 60, 61, 62, 63, 64, 65, 66, 67, 68, 69, 70, 71, 72, 73, 74, 75, 76, 77, 78, 79, 80, 81, 82, 83, 84, 85, 86, 87, 88, 89, 90, 91, 92, 93, 94, 95, 96, 97, 98, 99, 100, 101, 102, 103, 104, 105, 106, 107, 108, 109, 110, 111, 112, 113, 114, 115, 116, 117, 118, 119, 120, 121, 122, 123, 124, 125, 126, 127, 128, 129, 130, 131, 132, 133, 134, 135, 136, 137, 138, 139, 140, 141, 142, 143, 144, 145, 146, 147, 148, 149, 150, 151, 152, 153, 154, 155, 156, 157, 158, 159, 160, 161, 162, 163, 164, 165, 166, 167, 168, 169, 170, 171, 172, 173, 174, 175, 176, 177, 178, 179, 180, 181, 182, 183, 184, 185, 186, 187, 188, 189, 190, 191, 192, 193, 194, 195, 196, 197, 198, 199, 200, 201, 202, 203, 204, 205, 206, 207, 208, 209, 210, 211, 212, 213, 214, 215, 216, 217, 218, 219, 220, 221, 222, 223, 224, 225, 226, 227, 228, 229, 230, 231, 232, 233, 234, 235, 236, 237, 238, 239, 240, 241, 242, 243, 244, 245, 246, 247, 248, 249, 250, 251, 252, 253, 254, 255, 256, 257, 258, 259, 260, 261, 262, 263, 264, 265, 266, 267, 268, 269, 270, 271, 272, 273, 274, 275, 276, 277, 278, 279, 280, 281, 282, 283, 284, 285, 286, 287, 288, 289, 290, 291, 292, 293, 294, 295, 296, 297, 298, 299, 300, 301, 302, 303, 304, 305, 306, 307, 308, 309, 310, 311, 312, 313, 314, 315, 316, 317, 318, 319, 320, 321, 322, 323, 324, 325, 326, 327, 328, 329, 330, 331, 332, 333, 334, 335, 336, 337, 338, 339, 340, 341, 342, 343, 344, 345, 346, 347, 348, 349, 350, 351, 352, 353, 354, 355, 356, 357, 358, 359, 360, 361, 362, 363, 364, 365, 366, 367, 368, 369, 370, 371, 372, 373, 374, 375, 376, 377, 378, 379, 380, 381, 382, 383, 384, 385, 386, 387, 388, 389, 390, 391, 392, 393, 394, 395, 396, 397, 398, 399, 400, 401, 402, 403, 404, 405, 406, 407, 408, 409, 410, 411, 412, 413, 414, 415, 416, 417, 418, 419, 420, 421, 422, 423, 424, 425, 426, 427, 428, 429, 430, 431, 432, 433, 434, 435, 436, 437, 438, 439, 440, 441, 442, 443, 444, 445, 446, 447, 448, 449, 450, 451, 452, 453, 454, 455, 456, 457, 458, 459, 460, 461, 462, 463, 464, 465, 466, 467, 468, 469, 470, 471, 472, 473, 474, 475, 476, 477, 478, 479, 480, 481, 482, 483, 484, 485, 486, 487, 488, 489, 490, 491, 492, 493, 494, 495, 496, 497, 498, 499, 500, 501, 502, 503, 504, 505, 506, 507, 508, 509, 510, 511, 512, 513, 514, 515, 516, 517, 518, 519, 520, 521, 522, 523, 524, 525, 526, 527, 528, 529, 530, 531, 532, 533, 534, 535, 536, 537, 538, 539, 540, 541, 542, 543, 544, 545, 546, 547, 548, 549, 550, 551, 552, 553, 554, 555, 556, 557, 558, 559, 560, 561, 562, 563, 564, 565, 566, 567, 568, 569, 570, 571, 572, 573, 574, 575, 576, 577, 578, 579, 580, 581, 582, 583, 584, 585, 586, 587, 588, 589, 590, 591, 592, 593, 594, 595, 596, 597, 598, 599, 600, 601, 602, 603, 604, 605, 606, 607, 608, 609, 610, 611, 612, 613, 614, 615, 616, 617, 618, 619, 620, 621, 622, 623, 624, 625, 626, 627, 628, 629, 630, 631, 632, 633, 634, 635, 636, 637, 638, 639, 640, 641, 642, 643, 644, 645, 646, 647, 648, 649, 650, 651, 652, 653, 654, 655, 656, 657, 658, 659, 660, 661, 662, 663, 664, 665, 666, 667, 668, 669, 670, 671, 672, 673, 674, 675, 676, 677, 678, 679, 680, 681, 682, 683, 684, 685, 686, 687, 688, 689, 690, 691, 692, 693, 694, 695, 696, 697, 698, 699, 700, 701, 702, 703, 704, 705, 706, 707, 708, 709, 710, 711, 712, 713, 714, 715, 716, 717, 718, 719, 720, 721, 722, 723, 724, 725, 726, 727, 728, 729, 730, 731, 732, 733, 734, 735, 736, 737, 738, 739, 740, 741, 742, 743, 744, 745, 746, 747, 748, 749, 750, 751, 752, 753, 754, 755, 756, 757, 758, 759, 760, 761, 762, 763, 764, 765, 766, 767, 768, 769, 770, 771, 772, 773, 774, 775, 776, 777, 778, 779, 780, 781, 782, 783, 784, 785, 786, 787, 788, 789, 790, 791, 792, 793, 794, 795, 796, 797, 798, 799, 800, 801, 802, 803, 804, 805, 806, 807, 808, 809, 810, 811, 812, 813, 814, 815, 816, 817, 818, 819, 820, 821, 822, 823, 824, 825, 826, 827, 828, 829, 830, 831, 832, 833, 834, 835, 836, 837, 838, 839, 840, 841, 842, 843, 844, 845, 846, 847, 848, 849, 850, 851, 852, 853, 854, 855, 856, 857, 858, 859, 860, 861, 862, 863, 864, 865, 866, 867, 868, 869, 870, 871, 872],
      "AcquisitionTime": ["152509.160000", "152509.620000", "152510.080000", "152510.540000", "152511.000000", "152511.460000", "152511.920000", "152512.380000", "152512.840000", "152513.300000", "152513.760000", "152514.220000", "152514.680000", "152515.140000", "152515.600000", "152516.060000", "152516.520000", "152516.980000", "152517.440000", "152517.900000", "152518.360000", "152518.820000", "152519.280000", "152519.740000", "152520.200000", "152520.660000", "152521.120000", "152521.580000", "152522.040000", "152522.500000", "152522.960000", "152523.420000", "152523.880000", "152524.340000", "152524.800000", "152525.260000", "152525.720000", "152526.180000", "152526.640000", "152527.100000", "152527.560000", "152528.020000", "152528.480000", "152528.940000", "152529.400000", "152529.860000", "152530.320000", "152530.780000", "152531.240000", "152531.700000", "152532.160000", "152532.620000", "152533.080000", "152533.540000", "152534.000000", "152534.460000", "152534.920000", "152535.380000", "152535.840000", "152536.300000", "152536.760000", "152537.220000", "152537.680000", "152538.140000", "152538.600000", "152539.060000", "152539.520000", "152539.980000", "152540.440000", "152540.900000", "152541.360000", "152541.820000", "152542.280000", "152542.740000", "152543.200000", "152543.660000", "152544.120000", "152544.580000", "152545.040000", "152545.500000", "152545.960000", "152546.420000", "152546.880000", "152547.340000", "152547.800000", "152548.260000", "152548.720000", "152549.180000", "152549.640000", "152550.100000", "152550.560000", "152551.020000", "152551.480000", "152551.940000", "152552.400000", "152552.860000", "152553.320000", "152553.780000", "152554.240000", "152554.700000", "152555.160000", "152555.620000", "152556.080000", "152556.540000", "152557.000000", "152557.460000", "152557.920000", "152558.380000", "152558.840000", "152559.300000", "152559.760000", "152600.220000", "152600.680000", "152601.140000", "152601.600000", "152602.060000", "152602.520000", "152602.980000", "152603.440000", "152603.900000", "152604.360000", "152604.820000", "152605.280000", "152605.740000", "152606.200000", "152606.660000", "152607.120000", "152607.580000", "152608.040000", "152608.500000", "152608.960000", "152609.420000", "152609.880000", "152610.340000", "152610.800000", "152611.260000", "152611.720000", "152612.180000", "152612.640000", "152613.100000", "152613.560000", "152614.020000", "152614.480000", "152614.940000", "152615.400000", "152615.860000", "152616.320000", "152616.780000", "152617.240000", "152617.700000", "152618.160000", "152618.620000", "152619.080000", "152619.540000", "152620.000000", "152620.460000", "152620.920000", "152621.380000", "152621.840000", "152622.300000", "152622.760000", "152623.220000", "152623.680000", "152624.140000", "152624.600000", "152625.060000", "152625.520000", "152625.980000", "152626.440000", "152626.900000", "152627.360000", "152627.820000", "152628.280000", "152628.740000", "152629.200000", "152629.660000", "152630.120000", "152630.580000", "152631.040000", "152631.500000", "152631.960000", "152632.420000", "152632.880000", "152633.340000", "152633.800000", "152634.260000", "152634.720000", "152635.180000", "152635.640000", "152636.100000", "152636.560000", "152637.020000", "152637.480000", "152637.940000", "152638.400000", "152638.860000", "152639.320000", "152639.780000", "152640.240000", "152640.700000", "152641.160000", "152641.620000", "152642.080000", "152642.540000", "152643.000000", "152643.460000", "152643.920000", "152644.380000", "152644.840000", "152645.300000", "152645.760000", "152646.220000", "152646.680000", "152647.140000", "152647.600000", "152648.060000", "152648.520000", "152648.980000", "152649.440000", "152649.900000", "152650.360000", "152650.820000", "152651.280000", "152651.740000", "152652.200000", "152652.660000", "152653.120000", "152653.580000", "152654.040000", "152654.500000", "152654.960000", "152655.420000", "152655.880000", "152656.340000", "152656.800000", "152657.260000", "152657.720000", "152658.180000", "152658.640000", "152659.100000", "152659.560000", "152700.020000", "152700.480000", "152700.940000", "152701.400000", "152701.860000", "152702.320000", "152702.780000", "152703.240000", "152703.700000", "152704.160000", "152704.620000", "152705.080000", "152705.540000", "152706.000000", "152706.460000", "152706.920000", "152707.380000", "152707.840000", "152708.300000", "152708.760000", "152709.220000", "152709.680000", "152710.140000", "152710.600000", "152711.060000", "152711.520000", "152711.980000", "152712.440000", "152712.900000", "152713.360000", "152713.820000", "152714.280000", "152714.740000", "152715.200000", "152715.660000", "152716.120000", "152716.580000", "152717.040000", "152717.500000", "152717.960000", "152718.420000", "152718.880000", "152719.340000", "152719.800000", "152720.260000", "152720.720000", "152721.180000", "152721.640000", "152722.100000", "152722.560000", "152723.020000", "152723.480000", "152723.940000", "152724.400000", "152724.860000", "152725.320000", "152725.780000", "152726.240000", "152726.700000", "152727.160000", "152727.620000", "152728.080000", "152728.540000", "152729.000000", "152729.460000", "152729.920000", "152730.380000", "152730.840000", "152731.300000", "152731.760000", "152732.220000", "152732.680000", "152733.140000", "152733.600000", "152734.060000", "152734.520000", "152734.980000", "152735.440000", "152735.900000", "152736.360000", "152736.820000", "152737.280000", "152737.740000", "152738.200000", "152738.660000", "152739.120000", "152739.580000", "152740.040000", "152740.500000", "152740.960000", "152741.420000", "152741.880000", "152742.340000", "152742.800000", "152743.260000", "152743.720000", "152744.180000", "152744.640000", "152745.100000", "152745.560000", "152746.020000", "152746.480000", "152746.940000", "152747.400000", "152747.860000", "152748.320000", "152748.780000", "152749.240000", "152749.700000", "152750.160000", "152750.620000", "152751.080000", "152751.540000", "152752.000000", "152752.460000", "152752.920000", "152753.380000", "152753.840000", "152754.300000", "152754.760000", "152755.220000", "152755.680000", "152756.140000", "152756.600000", "152757.060000", "152757.520000", "152757.980000", "152758.440000", "152758.900000", "152759.360000", "152759.820000", "152800.280000", "152800.740000", "152801.200000", "152801.660000", "152802.120000", "152802.580000", "152803.040000", "152803.500000", "152803.960000", "152804.420000", "152804.880000", "152805.340000", "152805.800000", "152806.260000", "152806.720000", "152807.180000", "152807.640000", "152808.100000", "152808.560000", "152809.020000", "152809.480000", "152809.940000", "152810.400000", "152810.860000", "152811.320000", "152811.780000", "152812.240000", "152812.700000", "152813.160000", "152813.620000", "152814.080000", "152814.540000", "152815.000000", "152815.460000", "152815.920000", "152816.380000", "152816.840000", "152817.300000", "152817.760000", "152818.220000", "152818.680000", "152819.140000", "152819.600000", "152820.060000", "152820.520000", "152820.980000", "152821.440000", "152821.900000", "152822.360000", "152822.820000", "152823.280000", "152823.740000", "152824.200000", "152824.660000", "152825.120000", "152825.580000", "152826.040000", "152826.500000", "152826.960000", "152827.420000", "152827.880000", "152828.340000", "152828.800000", "152829.260000", "152829.720000", "152830.180000", "152830.640000", "152831.100000", "152831.560000", "152832.020000", "152832.480000", "152832.940000", "152833.400000", "152833.860000", "152834.320000", "152834.780000", "152835.240000", "152835.700000", "152836.160000", "152836.620000", "152837.080000", "152837.540000", "152838.000000", "152838.460000", "152838.920000", "152839.380000", "152839.840000", "152840.300000", "152840.760000", "152841.220000", "152841.680000", "152842.140000", "152842.600000", "152843.060000", "152843.520000", "152843.980000", "152844.440000", "152844.900000", "152845.360000", "152845.820000", "152846.280000", "152846.740000", "152847.200000", "152847.660000", "152848.120000", "152848.580000", "152849.040000", "152849.500000", "152849.960000", "152850.420000", "152850.880000", "152851.340000", "152851.800000", "152852.260000", "152852.720000", "152853.180000", "152853.640000", "152854.100000", "152854.560000", "152855.020000", "152855.480000", "152855.940000", "152856.400000", "152856.860000", "152857.320000", "152857.780000", "152858.240000", "152858.700000", "152859.160000", "152859.620000", "152900.080000", "152900.540000", "152901.000000", "152901.460000", "152901.920000", "152902.380000", "152902.840000", "152903.300000", "152903.760000", "152904.220000", "152904.680000", "152905.140000", "152905.600000", "152906.060000", "152906.520000", "152906.980000", "152907.440000", "152907.900000", "152908.360000", "152908.820000", "152909.280000", "152909.740000", "152910.200000", "152910.660000", "152911.120000", "152911.580000", "152912.040000", "152912.500000", "152912.960000", "152913.420000", "152913.880000", "152914.340000", "152914.800000", "152915.260000", "152915.720000", "152916.180000", "152916.640000", "152917.100000", "152917.560000", "152918.020000", "152918.480000", "152918.940000", "152919.400000", "152919.860000", "152920.320000", "152920.780000", "152921.240000", "152921.700000", "152922.160000", "152922.620000", "152923.080000", "152923.540000", "152924.000000", "152924.460000", "152924.920000", "152925.380000", "152925.840000", "152926.300000", "152926.760000", "152927.220000", "152927.680000", "152928.140000", "152928.600000", "152929.060000", "152929.520000", "152929.980000", "152930.440000", "152930.900000", "152931.360000", "152931.820000", "152932.280000", "152932.740000", "152933.200000", "152933.660000", "152934.120000", "152934.580000", "152935.040000", "152935.500000", "152935.960000", "152936.420000", "152936.880000", "152937.340000", "152937.800000", "152938.260000", "152938.720000", "152939.180000", "152939.640000", "152940.100000", "152940.560000", "152941.020000", "152941.480000", "152941.940000", "152942.400000", "152942.860000", "152943.320000", "152943.780000", "152944.240000", "152944.700000", "152945.160000", "152945.620000", "152946.080000", "152946.540000", "152947.000000", "152947.460000", "152947.920000", "152948.380000", "152948.840000", "152949.300000", "152949.760000", "152950.220000", "152950.680000", "152951.140000", "152951.600000", "152952.060000", "152952.520000", "152952.980000", "152953.440000", "152953.900000", "152954.360000", "152954.820000", "152955.280000", "152955.740000", "152956.200000", "152956.660000", "152957.120000", "152957.580000", "152958.040000", "152958.500000", "152958.960000", "152959.420000", "152959.880000", "153000.340000", "153000.800000", "153001.260000", "153001.720000", "153002.180000", "153002.640000", "153003.100000", "153003.560000", "153004.020000", "153004.480000", "153004.940000", "153005.400000", "153005.860000", "153006.320000", "153006.780000", "153007.240000", "153007.700000", "153008.160000", "153008.620000", "153009.080000", "153009.540000", "153010.000000", "153010.460000", "153010.920000", "153011.380000", "153011.840000", "153012.300000", "153012.760000", "153013.220000", "153013.680000", "153014.140000", "153014.600000", "153015.060000", "153015.520000", "153015.980000", "153016.440000", "153016.900000", "153017.360000", "153017.820000", "153018.280000", "153018.740000", "153019.200000", "153019.660000", "153020.120000", "153020.580000", "153021.040000", "153021.500000", "153021.960000", "153022.420000", "153022.880000", "153023.340000", "153023.800000", "153024.260000", "153024.720000", "153025.180000", "153025.640000", "153026.100000", "153026.560000", "153027.020000", "153027.480000", "153027.940000", "153028.400000", "153028.860000", "153029.320000", "153029.780000", "153030.240000", "153030.700000", "153031.160000", "153031.620000", "153032.080000", "153032.540000", "153033.000000", "153033.460000", "153033.920000", "153034.380000", "153034.840000", "153035.300000", "153035.760000", "153036.220000", "153036.680000", "153037.140000", "153037.600000", "153038.060000", "153038.520000", "153038.980000", "153039.440000", "153039.900000", "153040.360000", "153040.820000", "153041.280000", "153041.740000", "153042.200000", "153042.660000", "153043.120000", "153043.580000", "153044.040000", "153044.500000", "153044.960000", "153045.420000", "153045.880000", "153046.340000", "153046.800000", "153047.260000", "153047.720000", "153048.180000", "153048.640000", "153049.100000", "153049.560000", "153050.020000", "153050.480000", "153050.940000", "153051.400000", "153051.860000", "153052.320000", "153052.780000", "153053.240000", "153053.700000", "153054.160000", "153054.620000", "153055.080000", "153055.540000", "153056.000000", "153056.460000", "153056.920000", "153057.380000", "153057.840000", "153058.300000", "153058.760000", "153059.220000", "153059.680000", "153100.140000", "153100.600000", "153101.060000", "153101.520000", "153101.980000", "153102.440000", "153102.900000", "153103.360000", "153103.820000", "153104.280000", "153104.740000", "153105.200000", "153105.660000", "153106.120000", "153106.580000", "153107.040000", "153107.500000", "153107.960000", "153108.420000", "153108.880000", "153109.340000", "153109.800000", "153110.260000", "153110.720000", "153111.180000", "153111.640000", "153112.100000", "153112.560000", "153113.020000", "153113.480000", "153113.940000", "153114.400000", "153114.860000", "153115.320000", "153115.780000", "153116.240000", "153116.700000", "153117.160000", "153117.620000", "153118.080000", "153118.540000", "153119.000000", "153119.460000", "153119.920000", "153120.380000", "153120.840000", "153121.300000", "153121.760000", "153122.220000", "153122.680000", "153123.140000", "153123.600000", "153124.060000", "153124.520000", "153124.980000", "153125.440000", "153125.900000", "153126.360000", "153126.820000", "153127.280000", "153127.740000", "153128.200000", "153128.660000", "153129.120000", "153129.580000", "153130.040000", "153130.500000", "153130.960000", "153131.420000", "153131.880000", "153132.340000", "153132.800000", "153133.260000", "153133.720000", "153134.180000", "153134.640000", "153135.100000", "153135.560000", "153136.020000", "153136.480000", "153136.940000", "153137.400000", "153137.860000", "153138.320000", "153138.780000", "153139.240000", "153139.700000", "153140.160000", "153140.620000", "153141.080000", "153141.540000", "153142.000000", "153142.460000", "153142.920000", "153143.380000", "153143.840000", "153144.300000", "153144.760000", "153145.220000", "153145.680000", "153146.140000", "153146.600000", "153147.060000", "153147.520000", "153147.980000", "153148.440000", "153148.900000", "153149.360000", "153149.820000"],
