{
  "AcquisitionMatrixPE": 82,
  "AcquisitionNumber": 1,
  "AcquisitionTime": "17:02:20.482500",
  "BandwidthPerPixelPhaseEncode": 24.888,
  "BaseResolution": 82,
  "BodyPartExamined": "BRAIN",
  "ConsistencyInfo": "N4_VE11C_LATEST_20160120",
  "ConversionSoftware": "dcm2niix",
  "ConversionSoftwareVersion": "v1.0.20201102",
  "DerivedVendorReportedEchoSpacing": 0.00049,
  "DeviceSerialNumber": "66112",
  "DwellTime": 2e-06,
  "EchoTime": 0.0272,
  "EchoTrainLength": 82,
  "EffectiveEchoSpacing": 0.00049,
  "FlipAngle": 44,
  "ImageComments": "Unaliased MB8/PE3",
  "ImageOrientationPatientDICOM": [0.997913, -0.0620912, 0.0177306, 0.062084, 0.99807, 0.0009551],
  "ImageType": [
    "ORIGINAL",
    "PRIMARY",
    "M",
    "MB",
    "ND",
    "NORM",
    "MOSAIC"
],
  "ImagingFrequency": 123.252,
  "InPlanePhaseEncodingDirectionDICOM": "COL",
  "InstitutionAddress": "Maynard 3,Hanover,NH,US,03755",
  "InstitutionName": "Dartmouth College - PBS",
  "InstitutionalDepartmentName": "Department",
  "MRAcquisitionType": "2D",
  "MagneticFieldStrength": 3,
  "Manufacturer": "Siemens",
  "ManufacturersModelName": "Prisma",
  "Modality": "MR",
  "MultibandAccelerationFactor": 8,
  "PartialFourier": 1,
  "PatientPosition": "HFS",
  "PercentPhaseFOV": 100,
  "PercentSampling": 100,
  "PhaseEncodingDirection": "j-",
  "PhaseEncodingSteps": 82,
  "PhaseResolution": 1,
  "PixelBandwidth": 3050,
  "ProcedureStepDescription": "Wager_Wager^1076_spacetop",
  "ProtocolName": "func_run-03_task-alignvideo_acq-ap-mb8",
  "PulseSequenceDetails": "%CustomerSeq%\\cmrr_mbep2d_bold",
  "ReceiveCoilActiveElements": "HEA;HEP",
  "ReceiveCoilName": "Head_32",
  "ReconMatrixPE": 82,
  "RepetitionTime": 0.46,
  "SAR": 0.0740976,
  "ScanOptions": "FS",
  "ScanningSequence": "EP",
  "SequenceName": "epfid2d1_82",
  "SequenceVariant": "SK\\SS",
  "SeriesDescription": "func_run-03_task-alignvideo_acq-ap-mb8",
  "SeriesNumber": 38,
  "ShimSetting": [4157, -7769, -7314, 551, -51, -64, -48, 72],
  "SliceThickness": 2.7,
  "SliceTiming": [0, 0.2525, 0.0625, 0.315, 0.1275, 0.3775, 0.19, 0, 0.2525, 0.0625, 0.315, 0.1275, 0.3775, 0.19, 0, 0.2525, 0.0625, 0.315, 0.1275, 0.3775, 0.19, 0, 0.2525, 0.0625, 0.315, 0.1275, 0.3775, 0.19, 0, 0.2525, 0.0625, 0.315, 0.1275, 0.3775, 0.19, 0, 0.2525, 0.0625, 0.315, 0.1275, 0.3775, 0.19, 0, 0.2525, 0.0625, 0.315, 0.1275, 0.3775, 0.19, 0, 0.2525, 0.0625, 0.315, 0.1275, 0.3775, 0.19],
  "SoftwareVersions": "syngo MR E11",
  "SpacingBetweenSlices": 2.7,
  "StationName": "AWP66112",
  "TaskName": "alignvideo",
  "TotalReadoutTime": 0.03969,
  "TxRefAmp": 256.092,
  "WipMemBlock": "3d00250b-306b-4eea-bc55-4cd5115f9515||Sequence: R016 ve11c/master r/e634e98; Dec 19 2017 11:00:25 by eja",
  "dcmmeta_affine": [
    [-2.6773276329040527, 0.16656678915023804, 0.047940272837877274, 104.63504791259766],
    [0.1665860265493393, 2.6777501106262207, -0.000398728676373139, -100.75640869140625],
    [0.04756981134414673, -0.0025624637492001057, 2.6995742321014404, -84.47555541992188],
    [0.0, 0.0, 0.0, 1.0]
],
  "dcmmeta_reorient_transform": [
    [0.0, -1.0, 0.0, 81.0],
    [1.0, 0.0, 0.0, 0.0],
    [0.0, 0.0, 1.0, 0.0],
    [0.0, 0.0, 0.0, 1.0]
],
  "dcmmeta_shape": [82, 82, 56, 1065],
  "dcmmeta_slice_dim": 2,
  "dcmmeta_version": 0.6,
  "global": {
    "const": {
      "AccessionNumber": "A003452",
      "AcquisitionMatrix": [82, 0, 0, 82],
      "AngioFlag": "N",
      "BitsAllocated": 16,
      "BitsStored": 16,
      "BodyPartExamined": "BRAIN",
      "Columns": 656,
      "EchoNumbers": 1,
      "EchoTime": 27.2,
      "EchoTrainLength": 82,
      "FlipAngle": 44.0,
      "HighBit": 15,
      "ImageOrientationPatient": [0.99791298012333, -0.0620911519095, 0.01773056558392, 0.06208398132998, 0.9980704719838, 0.0009551001254],
      "ImagePositionPatient": [-934.32463484808, -836.84544366324, -99.071079392512],
      "ImageType": [
        "ORIGINAL",
        "PRIMARY",
        "M",
        "MB",
        "ND",
        "NORM",
        "MOSAIC"
],
      "ImagedNucleus": "1H",
      "ImagingFrequency": 123.252184,
      "InPlanePhaseEncodingDirection": "COL",
      "MRAcquisitionType": "2D",
      "MagneticFieldStrength": 3.0,
      "Manufacturer": "SIEMENS",
      "ManufacturerModelName": "Prisma",
      "Modality": "MR",
      "NumberOfAverages": 1.0,
      "NumberOfPhaseEncodingSteps": 82,
      "PercentPhaseFieldOfView": 100.0,
      "PercentSampling": 100.0,
      "PerformedProcedureStepStartTime": "142548.282000",
      "PhotometricInterpretation": "MONOCHROME2",
      "PixelBandwidth": 3050.0,
      "PixelRepresentation": 0,
      "PixelSpacing": [2.6829268932343, 2.6829268932343],
      "ProtocolName": "func_run-03_task-alignvideo_acq-ap-mb8",
      "RepetitionTime": 460.0,
      "Rows": 656,
      "SAR": 0.0740975605904,
      "SamplesPerPixel": 1,
      "ScanOptions": "FS",
      "ScanningSequence": "EP",
      "SequenceName": "epfid2d1_82",
      "SequenceVariant": [
        "SK",
        "SS"
],
      "SeriesDescription": "func_run-03_task-alignvideo_acq-ap-mb8",
      "SeriesNumber": 38,
      "SeriesTime": "170232.438000",
      "SliceLocation": -82.589495451693,
      "SliceThickness": 2.7000000476837,
      "SmallestImagePixelValue": 0,
      "SoftwareVersions": "syngo MR E11",
      "SpacingBetweenSlices": 2.6999999482766,
      "SpecificCharacterSet": "ISO_IR 100",
      "StudyID": "1",
      "StudyTime": "142548.166000",
      "TransmitCoilName": "Body",
      "VariableFlipAngleFlag": "N",
      "WindowCenterWidthExplanation": "Algo1",
      "dBdt": 0.0},
    "slices": {}
  },
  "time": {
    "samples": {
      "AcquisitionNumber": [1, 2, 3, 4, 5, 6, 7, 8, 9, 10, 11, 12, 13, 14, 15, 16, 17, 18, 19, 20, 21, 22, 23, 24, 25, 26, 27, 28, 29, 30, 31, 32, 33, 34, 35, 36, 37, 38, 39, 40, 41, 42, 43, 44, 45, 46, 47, 48, 49, 50, 51, 52, 53, 54, 55, 56, 57, 58, 59, 60, 61, 62, 63, 64, 65, 66, 67, 68, 69, 70, 71, 72, 73, 74, 75, 76, 77, 78, 79, 80, 81, 82, 83, 84, 85, 86, 87, 88, 89, 90, 91, 92, 93, 94, 95, 96, 97, 98, 99, 100, 101, 102, 103, 104, 105, 106, 107, 108, 109, 110, 111, 112, 113, 114, 115, 116, 117, 118, 119, 120, 121, 122, 123, 124, 125, 126, 127, 128, 129, 130, 131, 132, 133, 134, 135, 136, 137, 138, 139, 140, 141, 142, 143, 144, 145, 146, 147, 148, 149, 150, 151, 152, 153, 154, 155, 156, 157, 158, 159, 160, 161, 162, 163, 164, 165, 166, 167, 168, 169, 170, 171, 172, 173, 174, 175, 176, 177, 178, 179, 180, 181, 182, 183, 184, 185, 186, 187, 188, 189, 190, 191, 192, 193, 194, 195, 196, 197, 198, 199, 200, 201, 202, 203, 204, 205, 206, 207, 208, 209, 210, 211, 212, 213, 214, 215, 216, 217, 218, 219, 220, 221, 222, 223, 224, 225, 226, 227, 228, 229, 230, 231, 232, 233, 234, 235, 236, 237, 238, 239, 240, 241, 242, 243, 244, 245, 246, 247, 248, 249, 250, 251, 252, 253, 254, 255, 256, 257, 258, 259, 260, 261, 262, 263, 264, 265, 266, 267, 268, 269, 270, 271, 272, 273, 274, 275, 276, 277, 278, 279, 280, 281, 282, 283, 284, 285, 286, 287, 288, 289, 290, 291, 292, 293, 294, 295, 296, 297, 298, 299, 300, 301, 302, 303, 304, 305, 306, 307, 308, 309, 310, 311, 312, 313, 314, 315, 316, 317, 318, 319, 320, 321, 322, 323, 324, 325, 326, 327, 328, 329, 330, 331, 332, 333, 334, 335, 336, 337, 338, 339, 340, 341, 342, 343, 344, 345, 346, 347, 348, 349, 350, 351, 352, 353, 354, 355, 356, 357, 358, 359, 360, 361, 362, 363, 364, 365, 366, 367, 368, 369, 370, 371, 372, 373, 374, 375, 376, 377, 378, 379, 380, 381, 382, 383, 384, 385, 386, 387, 388, 389, 390, 391, 392, 393, 394, 395, 396, 397, 398, 399, 400, 401, 402, 403, 404, 405, 406, 407, 408, 409, 410, 411, 412, 413, 414, 415, 416, 417, 418, 419, 420, 421, 422, 423, 424, 425, 426, 427, 428, 429, 430, 431, 432, 433, 434, 435, 436, 437, 438, 439, 440, 441, 442, 443, 444, 445, 446, 447, 448, 449, 450, 451, 452, 453, 454, 455, 456, 457, 458, 459, 460, 461, 462, 463, 464, 465, 466, 467, 468, 469, 470, 471, 472, 473, 474, 475, 476, 477, 478, 479, 480, 481, 482, 483, 484, 485, 486, 487, 488, 489, 490, 491, 492, 493, 494, 495, 496, 497, 498, 499, 500, 501, 502, 503, 504, 505, 506, 507, 508, 509, 510, 511, 512, 513, 514, 515, 516, 517, 518, 519, 520, 521, 522, 523, 524, 525, 526, 527, 528, 529, 530, 531, 532, 533, 534, 535, 536, 537, 538, 539, 540, 541, 542, 543, 544, 545, 546, 547, 548, 549, 550, 551, 552, 553, 554, 555, 556, 557, 558, 559, 560, 561, 562, 563, 564, 565, 566, 567, 568, 569, 570, 571, 572, 573, 574, 575, 576, 577, 578, 579, 580, 581, 582, 583, 584, 585, 586, 587, 588, 589, 590, 591, 592, 593, 594, 595, 596, 597, 598, 599, 600, 601, 602, 603, 604, 605, 606, 607, 608, 609, 610, 611, 612, 613, 614, 615, 616, 617, 618, 619, 620, 621, 622, 623, 624, 625, 626, 627, 628, 629, 630, 631, 632, 633, 634, 635, 636, 637, 638, 639, 640, 641, 642, 643, 644, 645, 646, 647, 648, 649, 650, 651, 652, 653, 654, 655, 656, 657, 658, 659, 660, 661, 662, 663, 664, 665, 666, 667, 668, 669, 670, 671, 672, 673, 674, 675, 676, 677, 678, 679, 680, 681, 682, 683, 684, 685, 686, 687, 688, 689, 690, 691, 692, 693, 694, 695, 696, 697, 698, 699, 700, 701, 702, 703, 704, 705, 706, 707, 708, 709, 710, 711, 712, 713, 714, 715, 716, 717, 718, 719, 720, 721, 722, 723, 724, 725, 726, 727, 728, 729, 730, 731, 732, 733, 734, 735, 736, 737, 738, 739, 740, 741, 742, 743, 744, 745, 746, 747, 748, 749, 750, 751, 752, 753, 754, 755, 756, 757, 758, 759, 760, 761, 762, 763, 764, 765, 766, 767, 768, 769, 770, 771, 772, 773, 774, 775, 776, 777, 778, 779, 780, 781, 782, 783, 784, 785, 786, 787, 788, 789, 790, 791, 792, 793, 794, 795, 796, 797, 798, 799, 800, 801, 802, 803, 804, 805, 806, 807, 808, 809, 810, 811, 812, 813, 814, 815, 816, 817, 818, 819, 820, 821, 822, 823, 824, 825, 826, 827, 828, 829, 830, 831, 832, 833, 834, 835, 836, 837, 838, 839, 840, 841, 842, 843, 844, 845, 846, 847, 848, 849, 850, 851, 852, 853, 854, 855, 856, 857, 858, 859, 860, 861, 862, 863, 864, 865, 866, 867, 868, 869, 870, 871, 872, 873, 874, 875, 876, 877, 878, 879, 880, 881, 882, 883, 884, 885, 886, 887, 888, 889, 890, 891, 892, 893, 894, 895, 896, 897, 898, 899, 900, 901, 902, 903, 904, 905, 906, 907, 908, 909, 910, 911, 912, 913, 914, 915, 916, 917, 918, 919, 920, 921, 922, 923, 924, 925, 926, 927, 928, 929, 930, 931, 932, 933, 934, 935, 936, 937, 938, 939, 940, 941, 942, 943, 944, 945, 946, 947, 948, 949, 950, 951, 952, 953, 954, 955, 956, 957, 958, 959, 960, 961, 962, 963, 964, 965, 966, 967, 968, 969, 970, 971, 972, 973, 974, 975, 976, 977, 978, 979, 980, 981, 982, 983, 984, 985, 986, 987, 988, 989, 990, 991, 992, 993, 994, 995, 996, 997, 998, 999, 1000, 1001, 1002, 1003, 1004, 1005, 1006, 1007, 1008, 1009, 1010, 1011, 1012, 1013, 1014, 1015, 1016, 1017, 1018, 1019, 1020, 1021, 1022, 1023, 1024, 1025, 1026, 1027, 1028, 1029, 1030, 1031, 1032, 1033, 1034, 1035, 1036, 1037, 1038, 1039, 1040, 1041, 1042, 1043, 1044, 1045, 1046, 1047, 1048, 1049, 1050, 1051, 1052, 1053, 1054, 1055, 1056, 1057, 1058, 1059, 1060, 1061, 1062, 1063, 1064, 1065],
      "AcquisitionTime": ["170220.482500", "170220.942500", "170221.402500", "170221.862500", "170222.322500", "170222.782500", "170223.242500", "170223.702500", "170224.162500", "170224.622500", "170225.082500", "170225.542500", "170226.002500", "170226.462500", "170226.922500", "170227.382500", "170227.842500", "170228.302500", "170228.762500", "170229.222500", "170229.682500", "170230.142500", "170230.602500", "170231.062500", "170231.522500", "170231.982500", "170232.442500", "170232.902500", "170233.362500", "170233.822500", "170234.282500", "170234.742500", "170235.202500", "170235.662500", "170236.122500", "170236.582500", "170237.042500", "170237.502500", "170237.962500", "170238.422500", "170238.882500", "170239.342500", "170239.802500", "170240.262500", "170240.722500", "170241.182500", "170241.642500", "170242.102500", "170242.562500", "170243.022500", "170243.482500", "170243.942500", "170244.402500", "170244.862500", "170245.322500", "170245.782500", "170246.242500", "170246.702500", "170247.162500", "170247.622500", "170248.082500", "170248.542500", "170249.002500", "170249.462500", "170249.922500", "170250.382500", "170250.842500", "170251.302500", "170251.762500", "170252.222500", "170252.682500", "170253.142500", "170253.602500", "170254.062500", "170254.522500", "170254.982500", "170255.442500", "170255.902500", "170256.362500", "170256.822500", "170257.282500", "170257.742500", "170258.202500", "170258.662500", "170259.122500", "170259.582500", "170300.042500", "170300.502500", "170300.962500", "170301.422500", "170301.882500", "170302.342500", "170302.802500", "170303.262500", "170303.722500", "170304.182500", "170304.642500", "170305.102500", "170305.562500", "170306.022500", "170306.482500", "170306.942500", "170307.402500", "170307.862500", "170308.322500", "170308.782500", "170309.242500", "170309.702500", "170310.162500", "170310.622500", "170311.082500", "170311.542500", "170312.002500", "170312.462500", "170312.922500", "170313.382500", "170313.842500", "170314.302500", "170314.762500", "170315.222500", "170315.682500", "170316.142500", "170316.602500", "170317.062500", "170317.522500", "170317.982500", "170318.442500", "170318.902500", "170319.362500", "170319.822500", "170320.282500", "170320.742500", "170321.202500", "170321.662500", "170322.122500", "170322.582500", "170323.042500", "170323.502500", "170323.962500", "170324.422500", "170324.882500", "170325.342500", "170325.802500", "170326.262500", "170326.722500", "170327.182500", "170327.642500", "170328.102500", "170328.562500", "170329.022500", "170329.482500", "170329.942500", "170330.402500", "170330.862500", "170331.322500", "170331.782500", "170332.242500", "170332.702500", "170333.162500", "170333.622500", "170334.082500", "170334.542500", "170335.002500", "170335.462500", "170335.922500", "170336.382500", "170336.842500", "170337.302500", "170337.762500", "170338.222500", "170338.682500", "170339.142500", "170339.602500", "170340.062500", "170340.522500", "170340.982500", "170341.442500", "170341.902500", "170342.362500", "170342.822500", "170343.282500", "170343.742500", "170344.202500", "170344.662500", "170345.122500", "170345.582500", "170346.042500", "170346.502500", "170346.962500", "170347.422500", "170347.882500", "170348.342500", "170348.802500", "170349.262500", "170349.722500", "170350.182500", "170350.642500", "170351.102500", "170351.562500", "170352.022500", "170352.482500", "170352.942500", "170353.402500", "170353.862500", "170354.322500", "170354.782500", "170355.242500", "170355.702500", "170356.162500", "170356.622500", "170357.082500", "170357.542500", "170358.002500", "170358.462500", "170358.922500", "170359.382500", "170359.842500", "170400.302500", "170400.762500", "170401.222500", "170401.682500", "170402.142500", "170402.602500", "170403.062500", "170403.522500", "170403.982500", "170404.442500", "170404.902500", "170405.362500", "170405.822500", "170406.282500", "170406.742500", "170407.202500", "170407.662500", "170408.122500", "170408.582500", "170409.042500", "170409.502500", "170409.962500", "170410.422500", "170410.882500", "170411.342500", "170411.802500", "170412.262500", "170412.722500", "170413.182500", "170413.642500", "170414.102500", "170414.562500", "170415.022500", "170415.482500", "170415.942500", "170416.402500", "170416.862500", "170417.322500", "170417.782500", "170418.242500", "170418.702500", "170419.162500", "170419.622500", "170420.082500", "170420.542500", "170421.002500", "170421.462500", "170421.922500", "170422.382500", "170422.842500", "170423.302500", "170423.762500", "170424.222500", "170424.682500", "170425.142500", "170425.602500", "170426.062500", "170426.522500", "170426.982500", "170427.442500", "170427.902500", "170428.362500", "170428.822500", "170429.282500", "170429.742500", "170430.202500", "170430.662500", "170431.122500", "170431.582500", "170432.042500", "170432.502500", "170432.962500", "170433.422500", "170433.882500", "170434.342500", "170434.802500", "170435.262500", "170435.722500", "170436.182500", "170436.642500", "170437.102500", "170437.562500", "170438.022500", "170438.482500", "170438.942500", "170439.402500", "170439.862500", "170440.322500", "170440.782500", "170441.242500", "170441.702500", "170442.162500", "170442.622500", "170443.082500", "170443.542500", "170444.002500", "170444.462500", "170444.922500", "170445.382500", "170445.842500", "170446.302500", "170446.762500", "170447.222500", "170447.682500", "170448.142500", "170448.602500", "170449.062500", "170449.522500", "170449.982500", "170450.442500", "170450.902500", "170451.362500", "170451.822500", "170452.282500", "170452.742500", "170453.202500", "170453.662500", "170454.122500", "170454.582500", "170455.042500", "170455.502500", "170455.962500", "170456.422500", "170456.882500", "170457.342500", "170457.802500", "170458.262500", "170458.722500", "170459.182500", "170459.642500", "170500.102500", "170500.562500", "170501.022500", "170501.482500", "170501.942500", "170502.402500", "170502.862500", "170503.322500", "170503.782500", "170504.242500", "170504.702500", "170505.162500", "170505.622500", "170506.082500", "170506.542500", "170507.002500", "170507.462500", "170507.922500", "170508.382500", "170508.842500", "170509.302500", "170509.762500", "170510.222500", "170510.682500", "170511.142500", "170511.602500", "170512.062500", "170512.522500", "170512.982500", "170513.442500", "170513.902500", "170514.362500", "170514.822500", "170515.282500", "170515.742500", "170516.202500", "170516.662500", "170517.122500", "170517.582500", "170518.042500", "170518.502500", "170518.962500", "170519.422500", "170519.882500", "170520.342500", "170520.802500", "170521.262500", "170521.722500", "170522.182500", "170522.642500", "170523.102500", "170523.562500", "170524.022500", "170524.482500", "170524.942500", "170525.402500", "170525.862500", "170526.322500", "170526.782500", "170527.242500", "170527.702500", "170528.162500", "170528.622500", "170529.082500", "170529.542500", "170530.002500", "170530.462500", "170530.922500", "170531.382500", "170531.842500", "170532.302500", "170532.762500", "170533.222500", "170533.682500", "170534.142500", "170534.602500", "170535.062500", "170535.522500", "170535.982500", "170536.442500", "170536.902500", "170537.362500", "170537.822500", "170538.282500", "170538.742500", "170539.202500", "170539.662500", "170540.122500", "170540.582500", "170541.042500", "170541.502500", "170541.962500", "170542.422500", "170542.882500", "170543.342500", "170543.802500", "170544.262500", "170544.722500", "170545.182500", "170545.642500", "170546.102500", "170546.562500", "170547.022500", "170547.482500", "170547.942500", "170548.402500", "170548.862500", "170549.322500", "170549.782500", "170550.242500", "170550.702500", "170551.162500", "170551.622500", "170552.082500", "170552.542500", "170553.002500", "170553.462500", "170553.922500", "170554.382500", "170554.842500", "170555.302500", "170555.762500", "170556.222500", "170556.682500", "170557.142500", "170557.602500", "170558.062500", "170558.522500", "170558.982500", "170559.442500", "170559.902500", "170600.362500", "170600.822500", "170601.282500", "170601.742500", "170602.202500", "170602.662500", "170603.122500", "170603.582500", "170604.042500", "170604.502500", "170604.962500", "170605.422500", "170605.882500", "170606.342500", "170606.802500", "170607.262500", "170607.722500", "170608.182500", "170608.642500", "170609.102500", "170609.562500", "170610.022500", "170610.482500", "170610.942500", "170611.402500", "170611.862500", "170612.322500", "170612.782500", "170613.242500", "170613.702500", "170614.162500", "170614.622500", "170615.082500", "170615.542500", "170616.002500", "170616.462500", "170616.922500", "170617.382500", "170617.842500", "170618.302500", "170618.762500", "170619.222500", "170619.682500", "170620.142500", "170620.602500", "170621.062500", "170621.522500", "170621.982500", "170622.442500", "170622.902500", "170623.362500", "170623.822500", "170624.282500", "170624.742500", "170625.202500", "170625.662500", "170626.122500", "170626.582500", "170627.042500", "170627.502500", "170627.962500", "170628.422500", "170628.882500", "170629.342500", "170629.802500", "170630.262500", "170630.722500", "170631.182500", "170631.642500", "170632.102500", "170632.562500", "170633.022500", "170633.482500", "170633.942500", "170634.402500", "170634.862500", "170635.322500", "170635.782500", "170636.242500", "170636.702500", "170637.162500", "170637.622500", "170638.082500", "170638.542500", "170639.002500", "170639.462500", "170639.922500", "170640.382500", "170640.842500", "170641.302500", "170641.762500", "170642.222500", "170642.682500", "170643.142500", "170643.602500", "170644.062500", "170644.522500", "170644.982500", "170645.442500", "170645.902500", "170646.362500", "170646.822500", "170647.282500", "170647.742500", "170648.202500", "170648.662500", "170649.122500", "170649.582500", "170650.042500", "170650.502500", "170650.962500", "170651.422500", "170651.882500", "170652.342500", "170652.802500", "170653.262500", "170653.722500", "170654.182500", "170654.642500", "170655.102500", "170655.562500", "170656.022500", "170656.482500", "170656.942500", "170657.402500", "170657.862500", "170658.322500", "170658.782500", "170659.242500", "170659.702500", "170700.162500", "170700.622500", "170701.082500", "170701.542500", "170702.002500", "170702.462500", "170702.922500", "170703.382500", "170703.842500", "170704.302500", "170704.762500", "170705.222500", "170705.682500", "170706.142500", "170706.602500", "170707.062500", "170707.522500", "170707.982500", "170708.442500", "170708.902500", "170709.362500", "170709.822500", "170710.282500", "170710.742500", "170711.202500", "170711.662500", "170712.122500", "170712.582500", "170713.042500", "170713.502500", "170713.962500", "170714.422500", "170714.882500", "170715.342500", "170715.802500", "170716.262500", "170716.722500", "170717.182500", "170717.642500", "170718.102500", "170718.562500", "170719.022500", "170719.482500", "170719.942500", "170720.402500", "170720.862500", "170721.322500", "170721.782500", "170722.242500", "170722.702500", "170723.162500", "170723.622500", "170724.082500", "170724.542500", "170725.002500", "170725.462500", "170725.922500", "170726.382500", "170726.842500", "170727.302500", "170727.762500", "170728.222500", "170728.682500", "170729.142500", "170729.602500", "170730.062500", "170730.522500", "170730.982500", "170731.442500", "170731.902500", "170732.362500", "170732.822500", "170733.282500", "170733.742500", "170734.202500", "170734.662500", "170735.122500", "170735.582500", "170736.042500", "170736.502500", "170736.962500", "170737.422500", "170737.882500", "170738.342500", "170738.802500", "170739.262500", "170739.722500", "170740.182500", "170740.642500", "170741.102500", "170741.562500", "170742.022500", "170742.482500", "170742.942500", "170743.402500", "170743.862500", "170744.322500", "170744.782500", "170745.242500", "170745.702500", "170746.162500", "170746.622500", "170747.082500", "170747.542500", "170748.002500", "170748.462500", "170748.922500", "170749.382500", "170749.842500", "170750.302500", "170750.762500", "170751.222500", "170751.682500", "170752.142500", "170752.602500", "170753.062500", "170753.522500", "170753.982500", "170754.442500", "170754.902500", "170755.362500", "170755.822500", "170756.282500", "170756.742500", "170757.202500", "170757.662500", "170758.122500", "170758.582500", "170759.042500", "170759.502500", "170759.962500", "170800.422500", "170800.882500", "170801.342500", "170801.802500", "170802.262500", "170802.722500", "170803.182500", "170803.642500", "170804.102500", "170804.562500", "170805.022500", "170805.482500", "170805.942500", "170806.402500", "170806.862500", "170807.322500", "170807.782500", "170808.242500", "170808.702500", "170809.162500", "170809.622500", "170810.082500", "170810.542500", "170811.002500", "170811.462500", "170811.922500", "170812.382500", "170812.842500", "170813.302500", "170813.762500", "170814.222500", "170814.682500", "170815.142500", "170815.602500", "170816.062500", "170816.522500", "170816.982500", "170817.442500", "170817.902500", "170818.362500", "170818.822500", "170819.282500", "170819.742500", "170820.202500", "170820.662500", "170821.122500", "170821.582500", "170822.042500", "170822.502500", "170822.962500", "170823.422500", "170823.882500", "170824.342500", "170824.802500", "170825.262500", "170825.722500", "170826.182500", "170826.642500", "170827.102500", "170827.562500", "170828.022500", "170828.482500", "170828.942500", "170829.402500", "170829.862500", "170830.322500", "170830.782500", "170831.242500", "170831.702500", "170832.162500", "170832.622500", "170833.082500", "170833.542500", "170834.002500", "170834.462500", "170834.922500", "170835.382500", "170835.842500", "170836.302500", "170836.762500", "170837.222500", "170837.682500", "170838.142500", "170838.602500", "170839.062500", "170839.522500", "170839.982500", "170840.442500", "170840.902500", "170841.362500", "170841.822500", "170842.282500", "170842.742500", "170843.202500", "170843.662500", "170844.122500", "170844.582500", "170845.042500", "170845.502500", "170845.962500", "170846.422500", "170846.882500", "170847.342500", "170847.802500", "170848.262500", "170848.722500", "170849.182500", "170849.642500", "170850.102500", "170850.562500", "170851.022500", "170851.482500", "170851.942500", "170852.402500", "170852.862500", "170853.322500", "170853.782500", "170854.242500", "170854.702500", "170855.162500", "170855.622500", "170856.082500", "170856.542500", "170857.002500", "170857.462500", "170857.922500", "170858.382500", "170858.842500", "170859.302500", "170859.762500", "170900.222500", "170900.682500", "170901.142500", "170901.602500", "170902.062500", "170902.522500", "170902.982500", "170903.442500", "170903.902500", "170904.362500", "170904.822500", "170905.282500", "170905.742500", "170906.202500", "170906.662500", "170907.122500", "170907.582500", "170908.042500", "170908.502500", "170908.962500", "170909.422500", "170909.882500", "170910.342500", "170910.802500", "170911.262500", "170911.722500", "170912.182500", "170912.642500", "170913.102500", "170913.562500", "170914.022500", "170914.482500", "170914.942500", "170915.402500", "170915.862500", "170916.322500", "170916.782500", "170917.242500", "170917.702500", "170918.162500", "170918.622500", "170919.082500", "170919.542500", "170920.002500", "170920.462500", "170920.922500", "170921.382500", "170921.842500", "170922.302500", "170922.762500", "170923.222500", "170923.682500", "170924.142500", "170924.602500", "170925.062500", "170925.522500", "170925.982500", "170926.442500", "170926.902500", "170927.362500", "170927.822500", "170928.282500", "170928.742500", "170929.202500", "170929.662500", "170930.122500", "170930.582500", "170931.042500", "170931.502500", "170931.962500", "170932.422500", "170932.882500", "170933.342500", "170933.802500", "170934.262500", "170934.722500", "170935.182500", "170935.642500", "170936.102500", "170936.562500", "170937.022500", "170937.482500", "170937.942500", "170938.402500", "170938.862500", "170939.322500", "170939.782500", "170940.242500", "170940.702500", "170941.162500", "170941.622500", "170942.082500", "170942.542500", "170943.002500", "170943.462500", "170943.922500", "170944.382500", "170944.842500", "170945.302500", "170945.762500", "170946.222500", "170946.682500", "170947.142500", "170947.602500", "170948.062500", "170948.522500", "170948.982500", "170949.442500", "170949.902500", "170950.362500", "170950.822500", "170951.282500", "170951.742500", "170952.202500", "170952.662500", "170953.122500", "170953.582500", "170954.042500", "170954.502500", "170954.962500", "170955.422500", "170955.882500", "170956.342500", "170956.802500", "170957.262500", "170957.722500", "170958.182500", "170958.642500", "170959.102500", "170959.562500", "171000.022500", "171000.482500", "171000.942500", "171001.402500", "171001.862500", "171002.322500", "171002.782500", "171003.242500", "171003.702500", "171004.162500", "171004.622500", "171005.082500", "171005.542500", "171006.002500", "171006.462500", "171006.922500", "171007.382500", "171007.842500", "171008.302500", "171008.762500", "171009.222500", "171009.682500", "171010.142500", "171010.602500", "171011.062500", "171011.522500", "171011.982500", "171012.442500", "171012.902500", "171013.362500", "171013.822500", "171014.282500", "171014.742500", "171015.202500", "171015.662500", "171016.122500", "171016.582500", "171017.042500", "171017.502500", "171017.962500", "171018.422500", "171018.882500", "171019.342500", "171019.802500", "171020.262500", "171020.722500", "171021.182500", "171021.642500", "171022.102500", "171022.562500", "171023.022500", "171023.482500", "171023.942500", "171024.402500", "171024.862500", "171025.322500", "171025.782500", "171026.242500", "171026.702500", "171027.162500", "171027.622500", "171028.082500", "171028.542500", "171029.002500", "171029.462500", "171029.922500"],
