{
  "AcquisitionMatrixPE": 82,
  "AcquisitionNumber": 1,
  "AcquisitionTime": "15:32:12.402500",
  "BandwidthPerPixelPhaseEncode": 24.888,
  "BaseResolution": 82,
  "BodyPartExamined": "BRAIN",
  "ConsistencyInfo": "N4_VE11C_LATEST_20160120",
  "ConversionSoftware": "dcm2niix",
  "ConversionSoftwareVersion": "v1.0.20201102",
  "DerivedVendorReportedEchoSpacing": 0.00049,
  "DeviceSerialNumber": "66112",
  "DwellTime": 2e-06,
  "EchoTime": 0.0272,
  "EchoTrainLength": 82,
  "EffectiveEchoSpacing": 0.00049,
  "FlipAngle": 44,
  "ImageComments": "Unaliased MB8/PE3",
  "ImageOrientationPatientDICOM": [0.999698, 0.0101141, -0.0224029, -0.0104692, 0.999821, -0.0157909],
  "ImageType": [
    "ORIGINAL",
    "PRIMARY",
    "M",
    "MB",
    "ND",
    "NORM",
    "MOSAIC"
],
  "ImagingFrequency": 123.252,
  "InPlanePhaseEncodingDirectionDICOM": "COL",
  "InstitutionAddress": "Maynard 3,Hanover,NH,US,03755",
  "InstitutionName": "Dartmouth College - PBS",
  "InstitutionalDepartmentName": "Department",
  "MRAcquisitionType": "2D",
  "MagneticFieldStrength": 3,
  "Manufacturer": "Siemens",
  "ManufacturersModelName": "Prisma",
  "Modality": "MR",
  "MultibandAccelerationFactor": 8,
  "PartialFourier": 1,
  "PatientPosition": "HFS",
  "PercentPhaseFOV": 100,
  "PercentSampling": 100,
  "PhaseEncodingDirection": "j-",
  "PhaseEncodingSteps": 82,
  "PhaseResolution": 1,
  "PixelBandwidth": 3050,
  "ProcedureStepDescription": "Wager_Wager^1076_spacetop",
  "ProtocolName": "func_run-02_task-social_acq-ap-mb8",
  "PulseSequenceDetails": "%CustomerSeq%\\cmrr_mbep2d_bold",
  "ReceiveCoilActiveElements": "HEA;HEP",
  "ReceiveCoilName": "Head_32",
  "ReconMatrixPE": 82,
  "RepetitionTime": 0.46,
  "SAR": 0.0700845,
  "ScanOptions": "FS",
  "ScanningSequence": "EP",
  "SequenceName": "epfid2d1_82",
  "SequenceVariant": "SK\\SS",
  "SeriesDescription": "func_run-02_task-social_acq-ap-mb8",
  "SeriesNumber": 14,
  "ShimSetting": [4140, -7776, -7322, 568, -73, -90, -52, 96],
  "SliceThickness": 2.7,
  "SliceTiming": [0, 0.2525, 0.0625, 0.315, 0.125, 0.3775, 0.19, 0, 0.2525, 0.0625, 0.315, 0.125, 0.3775, 0.19, 0, 0.2525, 0.0625, 0.315, 0.125, 0.3775, 0.19, 0, 0.2525, 0.0625, 0.315, 0.125, 0.3775, 0.19, 0, 0.2525, 0.0625, 0.315, 0.125, 0.3775, 0.19, 0, 0.2525, 0.0625, 0.315, 0.125, 0.3775, 0.19, 0, 0.2525, 0.0625, 0.315, 0.125, 0.3775, 0.19, 0, 0.2525, 0.0625, 0.315, 0.125, 0.3775, 0.19],
  "SoftwareVersions": "syngo MR E11",
  "SpacingBetweenSlices": 2.7,
  "StationName": "AWP66112",
  "TaskName": "social",
  "TotalReadoutTime": 0.03969,
  "TxRefAmp": 253.883,
  "WipMemBlock": "5afd1a96-b639-4bac-8296-2432b5734b98||Sequence: R016 ve11c/master r/e634e98; Dec 19 2017 11:00:25 by eja",
  "dcmmeta_affine": [
    [-2.6821162700653076, -0.028088146820664406, -0.06004573032259941, 112.98143768310547],
    [-0.027135411277413368, 2.6824452877044678, -0.04325590655207634, -97.12892150878906],
    [-0.06010532006621361, 0.04236593097448349, 2.6989855766296387, -90.65601348876953],
    [0.0, 0.0, 0.0, 1.0]
],
  "dcmmeta_reorient_transform": [
    [0.0, -1.0, 0.0, 81.0],
    [1.0, 0.0, 0.0, 0.0],
    [0.0, 0.0, 1.0, 0.0],
    [0.0, 0.0, 0.0, 1.0]
],
  "dcmmeta_shape": [82, 82, 56, 872],
  "dcmmeta_slice_dim": 2,
  "dcmmeta_version": 0.6,
  "global": {
    "const": {
      "AccessionNumber": "A003452",
      "AcquisitionMatrix": [82, 0, 0, 82],
      "AngioFlag": "N",
      "BitsAllocated": 16,
      "BitsStored": 16,
      "BodyPartExamined": "BRAIN",
      "Columns": 656,
      "EchoNumbers": 1,
      "EchoTime": 27.2,
      "EchoTrainLength": 82,
      "FlipAngle": 44.0,
      "HighBit": 15,
      "ImageOrientationPatient": [0.99969786198689, 0.01011410771983, -0.022402891864, -0.0104692180862, 0.99982050478315, -0.0157909368889],
      "ImagePositionPatient": [-872.41237261682, -897.7988232705, -57.815127222836],
      "ImageType": [
        "ORIGINAL",
        "PRIMARY",
        "M",
        "MB",
        "ND",
        "NORM",
        "MOSAIC"
],
      "ImagedNucleus": "1H",
      "ImagingFrequency": 123.252173,
      "InPlanePhaseEncodingDirection": "COL",
      "MRAcquisitionType": "2D",
      "MagneticFieldStrength": 3.0,
      "Manufacturer": "SIEMENS",
      "ManufacturerModelName": "Prisma",
      "Modality": "MR",
      "NumberOfAverages": 1.0,
      "NumberOfPhaseEncodingSteps": 82,
      "PercentPhaseFieldOfView": 100.0,
      "PercentSampling": 100.0,
      "PerformedProcedureStepStartTime": "142548.282000",
      "PhotometricInterpretation": "MONOCHROME2",
      "PixelBandwidth": 3050.0,
      "PixelRepresentation": 0,
      "PixelSpacing": [2.6829268932343, 2.6829268932343],
      "ProtocolName": "func_run-02_task-social_acq-ap-mb8",
      "RepetitionTime": 460.0,
      "Rows": 656,
      "SAR": 0.07008448926488,
      "SamplesPerPixel": 1,
      "ScanOptions": "FS",
      "ScanningSequence": "EP",
      "SequenceName": "epfid2d1_82",
      "SequenceVariant": [
        "SK",
        "SS"
],
      "SeriesDescription": "func_run-02_task-social_acq-ap-mb8",
      "SeriesNumber": 14,
      "SeriesTime": "153232.439000",
      "SliceLocation": -91.578495901093,
      "SliceThickness": 2.7000000476837,
      "SmallestImagePixelValue": 0,
      "SoftwareVersions": "syngo MR E11",
      "SpacingBetweenSlices": 2.700000006185,
      "SpecificCharacterSet": "ISO_IR 100",
      "StudyID": "1",
      "StudyTime": "142548.166000",
      "TransmitCoilName": "Body",
      "VariableFlipAngleFlag": "N",
      "WindowCenterWidthExplanation": "Algo1",
      "dBdt": 0.0},
    "slices": {}
  },
  "time": {
    "samples": {
      "AcquisitionNumber": [1, 2, 3, 4, 5, 6, 7, 8, 9, 10, 11, 12, 13, 14, 15, 16, 17, 18, 19, 20, 21, 22, 23, 24, 25, 26, 27, 28, 29, 30, 31, 32, 33, 34, 35, 36, 37, 38, 39, 40, 41, 42, 43, 44, 45, 46, 47, 48, 49, 50, 51, 52, 53, 54, 55, 56, 57, 58, 59, 60, 61, 62, 63, 64, 65, 66, 67, 68, 69, 70, 71, 72, 73, 74, 75, 76, 77, 78, 79, 80, 81, 82, 83, 84, 85, 86, 87, 88, 89, 90, 91, 92, 93, 94, 95, 96, 97, 98, 99, 100, 101, 102, 103, 104, 105, 106, 107, 108, 109, 110, 111, 112, 113, 114, 115, 116, 117, 118, 119, 120, 121, 122, 123, 124, 125, 126, 127, 128, 129, 130, 131, 132, 133, 134, 135, 136, 137, 138, 139, 140, 141, 142, 143, 144, 145, 146, 147, 148, 149, 150, 151, 152, 153, 154, 155, 156, 157, 158, 159, 160, 161, 162, 163, 164, 165, 166, 167, 168, 169, 170, 171, 172, 173, 174, 175, 176, 177, 178, 179, 180, 181, 182, 183, 184, 185, 186, 187, 188, 189, 190, 191, 192, 193, 194, 195, 196, 197, 198, 199, 200, 201, 202, 203, 204, 205, 206, 207, 208, 209, 210, 211, 212, 213, 214, 215, 216, 217, 218, 219, 220, 221, 222, 223, 224, 225, 226, 227, 228, 229, 230, 231, 232, 233, 234, 235, 236, 237, 238, 239, 240, 241, 242, 243, 244, 245, 246, 247, 248, 249, 250, 251, 252, 253, 254, 255, 256, 257, 258, 259, 260, 261, 262, 263, 264, 265, 266, 267, 268, 269, 270, 271, 272, 273, 274, 275, 276, 277, 278, 279, 280, 281, 282, 283, 284, 285, 286, 287, 288, 289, 290, 291, 292, 293, 294, 295, 296, 297, 298, 299, 300, 301, 302, 303, 304, 305, 306, 307, 308, 309, 310, 311, 312, 313, 314, 315, 316, 317, 318, 319, 320, 321, 322, 323, 324, 325, 326, 327, 328, 329, 330, 331, 332, 333, 334, 335, 336, 337, 338, 339, 340, 341, 342, 343, 344, 345, 346, 347, 348, 349, 350, 351, 352, 353, 354, 355, 356, 357, 358, 359, 360, 361, 362, 363, 364, 365, 366, 367, 368, 369, 370, 371, 372, 373, 374, 375, 376, 377, 378, 379, 380, 381, 382, 383, 384, 385, 386, 387, 388, 389, 390, 391, 392, 393, 394, 395, 396, 397, 398, 399, 400, 401, 402, 403, 404, 405, 406, 407, 408, 409, 410, 411, 412, 413, 414, 415, 416, 417, 418, 419, 420, 421, 422, 423, 424, 425, 426, 427, 428, 429, 430, 431, 432, 433, 434, 435, 436, 437, 438, 439, 440, 441, 442, 443, 444, 445, 446, 447, 448, 449, 450, 451, 452, 453, 454, 455, 456, 457, 458, 459, 460, 461, 462, 463, 464, 465, 466, 467, 468, 469, 470, 471, 472, 473, 474, 475, 476, 477, 478, 479, 480, 481, 482, 483, 484, 485, 486, 487, 488, 489, 490, 491, 492, 493, 494, 495, 496, 497, 498, 499, 500, 501, 502, 503, 504, 505, 506, 507, 508, 509, 510, 511, 512, 513, 514, 515, 516, 517, 518, 519, 520, 521, 522, 523, 524, 525, 526, 527, 528, 529, 530, 531, 532, 533, 534, 535, 536, 537, 538, 539, 540, 541, 542, 543, 544, 545, 546, 547, 548, 549, 550, 551, 552, 553, 554, 555, 556, 557, 558, 559, 560, 561, 562, 563, 564, 565, 566, 567, 568, 569, 570, 571, 572, 573, 574, 575, 576, 577, 578, 579, 580, 581, 582, 583, 584, 585, 586, 587, 588, 589, 590, 591, 592, 593, 594, 595, 596, 597, 598, 599, 600, 601, 602, 603, 604, 605, 606, 607, 608, 609, 610, 611, 612, 613, 614, 615, 616, 617, 618, 619, 620, 621, 622, 623, 624, 625, 626, 627, 628, 629, 630, 631, 632, 633, 634, 635, 636, 637, 638, 639, 640, 641, 642, 643, 644, 645, 646, 647, 648, 649, 650, 651, 652, 653, 654, 655, 656, 657, 658, 659, 660, 661, 662, 663, 664, 665, 666, 667, 668, 669, 670, 671, 672, 673, 674, 675, 676, 677, 678, 679, 680, 681, 682, 683, 684, 685, 686, 687, 688, 689, 690, 691, 692, 693, 694, 695, 696, 697, 698, 699, 700, 701, 702, 703, 704, 705, 706, 707, 708, 709, 710, 711, 712, 713, 714, 715, 716, 717, 718, 719, 720, 721, 722, 723, 724, 725, 726, 727, 728, 729, 730, 731, 732, 733, 734, 735, 736, 737, 738, 739, 740, 741, 742, 743, 744, 745, 746, 747, 748, 749, 750, 751, 752, 753, 754, 755, 756, 757, 758, 759, 760, 761, 762, 763, 764, 765, 766, 767, 768, 769, 770, 771, 772, 773, 774, 775, 776, 777, 778, 779, 780, 781, 782, 783, 784, 785, 786, 787, 788, 789, 790, 791, 792, 793, 794, 795, 796, 797, 798, 799, 800, 801, 802, 803, 804, 805, 806, 807, 808, 809, 810, 811, 812, 813, 814, 815, 816, 817, 818, 819, 820, 821, 822, 823, 824, 825, 826, 827, 828, 829, 830, 831, 832, 833, 834, 835, 836, 837, 838, 839, 840, 841, 842, 843, 844, 845, 846, 847, 848, 849, 850, 851, 852, 853, 854, 855, 856, 857, 858, 859, 860, 861, 862, 863, 864, 865, 866, 867, 868, 869, 870, 871, 872],
      "AcquisitionTime": ["153212.402500", "153212.862500", "153213.322500", "153213.782500", "153214.242500", "153214.702500", "153215.162500", "153215.622500", "153216.082500", "153216.542500", "153217.002500", "153217.462500", "153217.922500", "153218.382500", "153218.842500", "153219.302500", "153219.762500", "153220.222500", "153220.682500", "153221.142500", "153221.602500", "153222.062500", "153222.522500", "153222.982500", "153223.442500", "153223.902500", "153224.362500", "153224.822500", "153225.282500", "153225.742500", "153226.202500", "153226.662500", "153227.122500", "153227.582500", "153228.042500", "153228.502500", "153228.962500", "153229.422500", "153229.882500", "153230.342500", "153230.802500", "153231.262500", "153231.722500", "153232.182500", "153232.642500", "153233.102500", "153233.562500", "153234.022500", "153234.482500", "153234.942500", "153235.402500", "153235.862500", "153236.322500", "153236.782500", "153237.242500", "153237.702500", "153238.162500", "153238.622500", "153239.082500", "153239.542500", "153240.002500", "153240.462500", "153240.922500", "153241.382500", "153241.842500", "153242.302500", "153242.762500", "153243.222500", "153243.682500", "153244.142500", "153244.602500", "153245.062500", "153245.522500", "153245.982500", "153246.442500", "153246.902500", "153247.362500", "153247.822500", "153248.282500", "153248.742500", "153249.202500", "153249.662500", "153250.122500", "153250.582500", "153251.042500", "153251.502500", "153251.962500", "153252.422500", "153252.882500", "153253.342500", "153253.802500", "153254.262500", "153254.722500", "153255.182500", "153255.642500", "153256.102500", "153256.562500", "153257.022500", "153257.482500", "153257.942500", "153258.402500", "153258.862500", "153259.322500", "153259.782500", "153300.242500", "153300.702500", "153301.162500", "153301.622500", "153302.082500", "153302.542500", "153303.002500", "153303.462500", "153303.922500", "153304.382500", "153304.842500", "153305.302500", "153305.762500", "153306.222500", "153306.682500", "153307.142500", "153307.602500", "153308.062500", "153308.522500", "153308.982500", "153309.442500", "153309.902500", "153310.362500", "153310.822500", "153311.282500", "153311.742500", "153312.202500", "153312.662500", "153313.122500", "153313.582500", "153314.042500", "153314.502500", "153314.962500", "153315.422500", "153315.882500", "153316.342500", "153316.802500", "153317.262500", "153317.722500", "153318.182500", "153318.642500", "153319.102500", "153319.562500", "153320.022500", "153320.482500", "153320.942500", "153321.402500", "153321.862500", "153322.322500", "153322.782500", "153323.242500", "153323.702500", "153324.162500", "153324.622500", "153325.082500", "153325.542500", "153326.002500", "153326.462500", "153326.922500", "153327.382500", "153327.842500", "153328.302500", "153328.762500", "153329.222500", "153329.682500", "153330.142500", "153330.602500", "153331.062500", "153331.522500", "153331.982500", "153332.442500", "153332.902500", "153333.362500", "153333.822500", "153334.282500", "153334.742500", "153335.202500", "153335.662500", "153336.122500", "153336.582500", "153337.042500", "153337.502500", "153337.962500", "153338.422500", "153338.882500", "153339.342500", "153339.802500", "153340.262500", "153340.722500", "153341.182500", "153341.642500", "153342.102500", "153342.562500", "153343.022500", "153343.482500", "153343.942500", "153344.402500", "153344.862500", "153345.322500", "153345.782500", "153346.242500", "153346.702500", "153347.162500", "153347.622500", "153348.082500", "153348.542500", "153349.002500", "153349.462500", "153349.922500", "153350.382500", "153350.842500", "153351.302500", "153351.762500", "153352.222500", "153352.682500", "153353.142500", "153353.602500", "153354.062500", "153354.522500", "153354.982500", "153355.442500", "153355.902500", "153356.362500", "153356.822500", "153357.282500", "153357.742500", "153358.202500", "153358.662500", "153359.122500", "153359.582500", "153400.042500", "153400.502500", "153400.962500", "153401.422500", "153401.882500", "153402.342500", "153402.802500", "153403.262500", "153403.722500", "153404.182500", "153404.642500", "153405.102500", "153405.562500", "153406.022500", "153406.482500", "153406.942500", "153407.402500", "153407.862500", "153408.322500", "153408.782500", "153409.242500", "153409.702500", "153410.162500", "153410.622500", "153411.082500", "153411.542500", "153412.002500", "153412.462500", "153412.922500", "153413.382500", "153413.842500", "153414.302500", "153414.762500", "153415.222500", "153415.682500", "153416.142500", "153416.602500", "153417.062500", "153417.522500", "153417.982500", "153418.442500", "153418.902500", "153419.362500", "153419.822500", "153420.282500", "153420.742500", "153421.202500", "153421.662500", "153422.122500", "153422.582500", "153423.042500", "153423.502500", "153423.962500", "153424.422500", "153424.882500", "153425.342500", "153425.802500", "153426.262500", "153426.722500", "153427.182500", "153427.642500", "153428.102500", "153428.562500", "153429.022500", "153429.482500", "153429.942500", "153430.402500", "153430.862500", "153431.322500", "153431.782500", "153432.242500", "153432.702500", "153433.162500", "153433.622500", "153434.082500", "153434.542500", "153435.002500", "153435.462500", "153435.922500", "153436.382500", "153436.842500", "153437.302500", "153437.762500", "153438.222500", "153438.682500", "153439.142500", "153439.602500", "153440.062500", "153440.522500", "153440.982500", "153441.442500", "153441.902500", "153442.362500", "153442.822500", "153443.282500", "153443.742500", "153444.202500", "153444.662500", "153445.122500", "153445.582500", "153446.042500", "153446.502500", "153446.962500", "153447.422500", "153447.882500", "153448.342500", "153448.802500", "153449.262500", "153449.722500", "153450.182500", "153450.642500", "153451.102500", "153451.562500", "153452.022500", "153452.482500", "153452.942500", "153453.402500", "153453.862500", "153454.322500", "153454.782500", "153455.242500", "153455.702500", "153456.162500", "153456.622500", "153457.082500", "153457.542500", "153458.002500", "153458.462500", "153458.922500", "153459.382500", "153459.842500", "153500.302500", "153500.762500", "153501.222500", "153501.682500", "153502.142500", "153502.602500", "153503.062500", "153503.522500", "153503.982500", "153504.442500", "153504.902500", "153505.362500", "153505.822500", "153506.282500", "153506.742500", "153507.202500", "153507.662500", "153508.122500", "153508.582500", "153509.042500", "153509.502500", "153509.962500", "153510.422500", "153510.882500", "153511.342500", "153511.802500", "153512.262500", "153512.722500", "153513.182500", "153513.642500", "153514.102500", "153514.562500", "153515.022500", "153515.482500", "153515.942500", "153516.402500", "153516.862500", "153517.322500", "153517.782500", "153518.242500", "153518.702500", "153519.162500", "153519.622500", "153520.082500", "153520.542500", "153521.002500", "153521.462500", "153521.922500", "153522.382500", "153522.842500", "153523.302500", "153523.762500", "153524.222500", "153524.682500", "153525.142500", "153525.602500", "153526.062500", "153526.522500", "153526.982500", "153527.442500", "153527.902500", "153528.362500", "153528.822500", "153529.282500", "153529.742500", "153530.202500", "153530.662500", "153531.122500", "153531.582500", "153532.042500", "153532.502500", "153532.962500", "153533.422500", "153533.882500", "153534.342500", "153534.802500", "153535.262500", "153535.722500", "153536.182500", "153536.642500", "153537.102500", "153537.562500", "153538.022500", "153538.482500", "153538.942500", "153539.402500", "153539.862500", "153540.322500", "153540.782500", "153541.242500", "153541.702500", "153542.162500", "153542.622500", "153543.082500", "153543.542500", "153544.002500", "153544.462500", "153544.922500", "153545.382500", "153545.842500", "153546.302500", "153546.762500", "153547.222500", "153547.682500", "153548.142500", "153548.602500", "153549.062500", "153549.522500", "153549.982500", "153550.442500", "153550.902500", "153551.362500", "153551.822500", "153552.282500", "153552.742500", "153553.202500", "153553.662500", "153554.122500", "153554.582500", "153555.042500", "153555.502500", "153555.962500", "153556.422500", "153556.882500", "153557.342500", "153557.802500", "153558.262500", "153558.722500", "153559.182500", "153559.642500", "153600.102500", "153600.562500", "153601.022500", "153601.482500", "153601.942500", "153602.402500", "153602.862500", "153603.322500", "153603.782500", "153604.242500", "153604.702500", "153605.162500", "153605.622500", "153606.082500", "153606.542500", "153607.002500", "153607.462500", "153607.922500", "153608.382500", "153608.842500", "153609.302500", "153609.762500", "153610.222500", "153610.682500", "153611.142500", "153611.602500", "153612.062500", "153612.522500", "153612.982500", "153613.442500", "153613.902500", "153614.362500", "153614.822500", "153615.282500", "153615.742500", "153616.202500", "153616.662500", "153617.122500", "153617.582500", "153618.042500", "153618.502500", "153618.962500", "153619.422500", "153619.882500", "153620.342500", "153620.802500", "153621.262500", "153621.722500", "153622.182500", "153622.642500", "153623.102500", "153623.562500", "153624.022500", "153624.482500", "153624.942500", "153625.402500", "153625.862500", "153626.322500", "153626.782500", "153627.242500", "153627.702500", "153628.162500", "153628.622500", "153629.082500", "153629.542500", "153630.002500", "153630.462500", "153630.922500", "153631.382500", "153631.842500", "153632.302500", "153632.762500", "153633.222500", "153633.682500", "153634.142500", "153634.602500", "153635.062500", "153635.522500", "153635.982500", "153636.442500", "153636.902500", "153637.362500", "153637.822500", "153638.282500", "153638.742500", "153639.202500", "153639.662500", "153640.122500", "153640.582500", "153641.042500", "153641.502500", "153641.962500", "153642.422500", "153642.882500", "153643.342500", "153643.802500", "153644.262500", "153644.722500", "153645.182500", "153645.642500", "153646.102500", "153646.562500", "153647.022500", "153647.482500", "153647.942500", "153648.402500", "153648.862500", "153649.322500", "153649.782500", "153650.242500", "153650.702500", "153651.162500", "153651.622500", "153652.082500", "153652.542500", "153653.002500", "153653.462500", "153653.922500", "153654.382500", "153654.842500", "153655.302500", "153655.762500", "153656.222500", "153656.682500", "153657.142500", "153657.602500", "153658.062500", "153658.522500", "153658.982500", "153659.442500", "153659.902500", "153700.362500", "153700.822500", "153701.282500", "153701.742500", "153702.202500", "153702.662500", "153703.122500", "153703.582500", "153704.042500", "153704.502500", "153704.962500", "153705.422500", "153705.882500", "153706.342500", "153706.802500", "153707.262500", "153707.722500", "153708.182500", "153708.642500", "153709.102500", "153709.562500", "153710.022500", "153710.482500", "153710.942500", "153711.402500", "153711.862500", "153712.322500", "153712.782500", "153713.242500", "153713.702500", "153714.162500", "153714.622500", "153715.082500", "153715.542500", "153716.002500", "153716.462500", "153716.922500", "153717.382500", "153717.842500", "153718.302500", "153718.762500", "153719.222500", "153719.682500", "153720.142500", "153720.602500", "153721.062500", "153721.522500", "153721.982500", "153722.442500", "153722.902500", "153723.362500", "153723.822500", "153724.282500", "153724.742500", "153725.202500", "153725.662500", "153726.122500", "153726.582500", "153727.042500", "153727.502500", "153727.962500", "153728.422500", "153728.882500", "153729.342500", "153729.802500", "153730.262500", "153730.722500", "153731.182500", "153731.642500", "153732.102500", "153732.562500", "153733.022500", "153733.482500", "153733.942500", "153734.402500", "153734.862500", "153735.322500", "153735.782500", "153736.242500", "153736.702500", "153737.162500", "153737.622500", "153738.082500", "153738.542500", "153739.002500", "153739.462500", "153739.922500", "153740.382500", "153740.842500", "153741.302500", "153741.762500", "153742.222500", "153742.682500", "153743.142500", "153743.602500", "153744.062500", "153744.522500", "153744.982500", "153745.442500", "153745.902500", "153746.362500", "153746.822500", "153747.282500", "153747.742500", "153748.202500", "153748.662500", "153749.122500", "153749.582500", "153750.042500", "153750.502500", "153750.962500", "153751.422500", "153751.882500", "153752.342500", "153752.802500", "153753.262500", "153753.722500", "153754.182500", "153754.642500", "153755.102500", "153755.562500", "153756.022500", "153756.482500", "153756.942500", "153757.402500", "153757.862500", "153758.322500", "153758.782500", "153759.242500", "153759.702500", "153800.162500", "153800.622500", "153801.082500", "153801.542500", "153802.002500", "153802.462500", "153802.922500", "153803.382500", "153803.842500", "153804.302500", "153804.762500", "153805.222500", "153805.682500", "153806.142500", "153806.602500", "153807.062500", "153807.522500", "153807.982500", "153808.442500", "153808.902500", "153809.362500", "153809.822500", "153810.282500", "153810.742500", "153811.202500", "153811.662500", "153812.122500", "153812.582500", "153813.042500", "153813.502500", "153813.962500", "153814.422500", "153814.882500", "153815.342500", "153815.802500", "153816.262500", "153816.722500", "153817.182500", "153817.642500", "153818.102500", "153818.562500", "153819.022500", "153819.482500", "153819.942500", "153820.402500", "153820.862500", "153821.322500", "153821.782500", "153822.242500", "153822.702500", "153823.162500", "153823.622500", "153824.082500", "153824.542500", "153825.002500", "153825.462500", "153825.922500", "153826.382500", "153826.842500", "153827.302500", "153827.762500", "153828.222500", "153828.682500", "153829.142500", "153829.602500", "153830.062500", "153830.522500", "153830.982500", "153831.442500", "153831.902500", "153832.362500", "153832.822500", "153833.282500", "153833.742500", "153834.202500", "153834.662500", "153835.122500", "153835.582500", "153836.042500", "153836.502500", "153836.962500", "153837.422500", "153837.882500", "153838.342500", "153838.802500", "153839.262500", "153839.722500", "153840.182500", "153840.642500", "153841.102500", "153841.562500", "153842.022500", "153842.482500", "153842.942500", "153843.402500", "153843.862500", "153844.322500", "153844.782500", "153845.242500", "153845.702500", "153846.162500", "153846.622500", "153847.082500", "153847.542500", "153848.002500", "153848.462500", "153848.922500", "153849.382500", "153849.842500", "153850.302500", "153850.762500", "153851.222500", "153851.682500", "153852.142500", "153852.602500", "153853.062500"],
