{
  "AcquisitionMatrixPE": 82,
  "AcquisitionNumber": 1,
  "AcquisitionTime": "10:01:18.950000",
  "BandwidthPerPixelPhaseEncode": 24.888,
  "BaseResolution": 82,
  "BodyPartExamined": "BRAIN",
  "ConsistencyInfo": "N4_VE11C_LATEST_20160120",
  "ConversionSoftware": "dcm2niix",
  "ConversionSoftwareVersion": "v1.0.20201102",
  "DerivedVendorReportedEchoSpacing": 0.00049,
  "DeviceSerialNumber": "66112",
  "DwellTime": 2e-06,
  "EchoTime": 0.0272,
  "EchoTrainLength": 82,
  "EffectiveEchoSpacing": 0.00049,
  "FlipAngle": 44,
  "ImageComments": "Unaliased MB8/PE3",
  "ImageOrientationPatientDICOM": [0.999342, -0.0303217, 0.0198919, 0.0310564, 0.998805, -0.0377283],
  "ImageType": [
    "ORIGINAL",
    "PRIMARY",
    "M",
    "MB",
    "ND",
    "NORM",
    "MOSAIC"
],
  "ImagingFrequency": 123.252,
  "InPlanePhaseEncodingDirectionDICOM": "COL",
  "InstitutionAddress": "Maynard 3,Hanover,NH,US,03755",
  "InstitutionName": "dartmouth_brain_imaging_center",
  "InstitutionalDepartmentName": "Department",
  "MRAcquisitionType": "2D",
  "MagneticFieldStrength": 3,
  "Manufacturer": "Siemens",
  "ManufacturersModelName": "Prisma",
  "Modality": "MR",
  "MultibandAccelerationFactor": 8,
  "PartialFourier": 1,
  "PatientPosition": "HFS",
  "PercentPhaseFOV": 100,
  "PercentSampling": 100,
  "PhaseEncodingDirection": "j-",
  "PhaseEncodingSteps": 82,
  "PhaseResolution": 1,
  "PixelBandwidth": 3050,
  "ProcedureStepDescription": "Wager_Wager^1076_spacetop",
  "ProtocolName": "func_run-01_task-social_acq-ap-mb8",
  "PulseSequenceDetails": "%CustomerSeq%\\cmrr_mbep2d_bold",
  "ReceiveCoilActiveElements": "HEA;HEP",
  "ReceiveCoilName": "Head_32",
  "ReconMatrixPE": 82,
  "RepetitionTime": 0.46,
  "SAR": 0.0953377,
  "ScanOptions": "FS",
  "ScanningSequence": "EP",
  "SequenceName": "epfid2d1_82",
  "SequenceVariant": "SK\\SS",
  "SeriesDescription": "func_run-01_task-social_acq-ap-mb8",
  "SeriesNumber": 12,
  "ShimSetting": [4136, -7743, -7206, 596, -167, -73, 61, 47],
  "SliceThickness": 2.7,
  "SliceTiming": [0, 0.25, 0.0625, 0.3125, 0.125, 0.3775, 0.1875, 0, 0.25, 0.0625, 0.3125, 0.125, 0.3775, 0.1875, 0, 0.25, 0.0625, 0.3125, 0.125, 0.3775, 0.1875, 0, 0.25, 0.0625, 0.3125, 0.125, 0.3775, 0.1875, 0, 0.25, 0.0625, 0.3125, 0.125, 0.3775, 0.1875, 0, 0.25, 0.0625, 0.3125, 0.125, 0.3775, 0.1875, 0, 0.25, 0.0625, 0.3125, 0.125, 0.3775, 0.1875, 0, 0.25, 0.0625, 0.3125, 0.125, 0.3775, 0.1875],
  "SoftwareVersions": "syngo MR E11",
  "SpacingBetweenSlices": 2.7,
  "StationName": "AWP66112",
  "TaskName": "social",
  "TotalReadoutTime": 0.03969,
  "TxRefAmp": 248.235,
  "WipMemBlock": "edba0177-4602-4fc8-842a-1a41d062d4e1||Sequence: R016 ve11c/master r/e634e98; Dec 19 2017 11:00:25 by eja",
  "dcmmeta_affine": [
    [-2.681162118911743, 0.08332211524248123, 0.05055532231926918, 111.98036193847656],
    [0.08135098218917847, 2.6797215938568115, -0.10346739739179611, -85.8604965209961],
    [0.05336863920092583, 0.10122228413820267, 2.697542905807495, -50.54878616333008],
    [0.0, 0.0, 0.0, 1.0]
],
  "dcmmeta_reorient_transform": [
    [0.0, -1.0, 0.0, 81.0],
    [1.0, 0.0, 0.0, 0.0],
    [0.0, 0.0, 1.0, 0.0],
    [0.0, 0.0, 0.0, 1.0]
],
  "dcmmeta_shape": [82, 82, 56, 872],
  "dcmmeta_slice_dim": 2,
  "dcmmeta_version": 0.6,
  "global": {
    "const": {
      "AccessionNumber": "A003495",
      "AcquisitionMatrix": [82, 0, 0, 82],
      "AngioFlag": "N",
      "BitsAllocated": 16,
      "BitsStored": 16,
      "BodyPartExamined": "BRAIN",
      "Columns": 656,
      "EchoNumbers": 1,
      "EchoTime": 27.2,
      "EchoTrainLength": 82,
      "FlipAngle": 44.0,
      "HighBit": 15,
      "ImageOrientationPatient": [0.99934223524284, -0.0303217303287, 0.01989194635311, 0.0310564228867, 0.99880532319935, -0.0377283043103],
      "ImagePositionPatient": [-912.13643752478, -876.92934509205, -28.615783645649],
      "ImageType": [
        "ORIGINAL",
        "PRIMARY",
        "M",
        "MB",
        "ND",
        "NORM",
        "MOSAIC"
],
      "ImagedNucleus": "1H",
      "ImagingFrequency": 123.252094,
      "InPlanePhaseEncodingDirection": "COL",
      "MRAcquisitionType": "2D",
      "MagneticFieldStrength": 3.0,
      "Manufacturer": "SIEMENS",
      "ManufacturerModelName": "Prisma",
      "Modality": "MR",
      "NumberOfAverages": 1.0,
      "NumberOfPhaseEncodingSteps": 82,
      "PercentPhaseFieldOfView": 100.0,
      "PercentSampling": 100.0,
      "PerformedProcedureStepStartTime": "091145.502000",
      "PhotometricInterpretation": "MONOCHROME2",
      "PixelBandwidth": 3050.0,
      "PixelRepresentation": 0,
      "PixelSpacing": [2.6829268932343, 2.6829268932343],
      "ProtocolName": "func_run-01_task-social_acq-ap-mb8",
      "RepetitionTime": 460.0,
      "Rows": 656,
      "SAR": 0.09533772596424,
      "SamplesPerPixel": 1,
      "ScanOptions": "FS",
      "ScanningSequence": "EP",
      "SequenceName": "epfid2d1_82",
      "SequenceVariant": [
        "SK",
        "SS"
],
      "SeriesDescription": "func_run-01_task-social_acq-ap-mb8",
      "SeriesNumber": 12,
      "SeriesTime": "100133.883000",
      "SliceLocation": -45.115762108538,
      "SliceThickness": 2.7000000476837,
      "SmallestImagePixelValue": 0,
      "SoftwareVersions": "syngo MR E11",
      "SpacingBetweenSlices": 2.6999999113141,
      "SpecificCharacterSet": "ISO_IR 100",
      "StudyID": "1",
      "StudyTime": "091145.366000",
      "TransmitCoilName": "Body",
      "VariableFlipAngleFlag": "N",
      "WindowCenterWidthExplanation": "Algo1",
      "dBdt": 0.0},
    "slices": {}
  },
  "time": {
    "samples": {
      "AcquisitionNumber": [1, 2, 3, 4, 5, 6, 7, 8, 9, 10, 11, 12, 13, 14, 15, 16, 17, 18, 19, 20, 21, 22, 23, 24, 25, 26, 27, 28, 29, 30, 31, 32, 33, 34, 35, 36, 37, 38, 39, 40, 41, 42, 43, 44, 45, 46, 47, 48, 49, 50, 51, 52, 53, 54, 55, 56, 57, 58, 59, 60, 61, 62, 63, 64, 65, 66, 67, 68, 69, 70, 71, 72, 73, 74, 75, 76, 77, 78, 79, 80, 81, 82, 83, 84, 85, 86, 87, 88, 89, 90, 91, 92, 93, 94, 95, 96, 97, 98, 99, 100, 101, 102, 103, 104, 105, 106, 107, 108, 109, 110, 111, 112, 113, 114, 115, 116, 117, 118, 119, 120, 121, 122, 123, 124, 125, 126, 127, 128, 129, 130, 131, 132, 133, 134, 135, 136, 137, 138, 139, 140, 141, 142, 143, 144, 145, 146, 147, 148, 149, 150, 151, 152, 153, 154, 155, 156, 157, 158, 159, 160, 161, 162, 163, 164, 165, 166, 167, 168, 169, 170, 171, 172, 173, 174, 175, 176, 177, 178, 179, 180, 181, 182, 183, 184, 185, 186, 187, 188, 189, 190, 191, 192, 193, 194, 195, 196, 197, 198, 199, 200, 201, 202, 203, 204, 205, 206, 207, 208, 209, 210, 211, 212, 213, 214, 215, 216, 217, 218, 219, 220, 221, 222, 223, 224, 225, 226, 227, 228, 229, 230, 231, 232, 233, 234, 235, 236, 237, 238, 239, 240, 241, 242, 243, 244, 245, 246, 247, 248, 249, 250, 251, 252, 253, 254, 255, 256, 257, 258, 259, 260, 261, 262, 263, 264, 265, 266, 267, 268, 269, 270, 271, 272, 273, 274, 275, 276, 277, 278, 279, 280, 281, 282, 283, 284, 285, 286, 287, 288, 289, 290, 291, 292, 293, 294, 295, 296, 297, 298, 299, 300, 301, 302, 303, 304, 305, 306, 307, 308, 309, 310, 311, 312, 313, 314, 315, 316, 317, 318, 319, 320, 321, 322, 323, 324, 325, 326, 327, 328, 329, 330, 331, 332, 333, 334, 335, 336, 337, 338, 339, 340, 341, 342, 343, 344, 345, 346, 347, 348, 349, 350, 351, 352, 353, 354, 355, 356, 357, 358, 359, 360, 361, 362, 363, 364, 365, 366, 367, 368, 369, 370, 371, 372, 373, 374, 375, 376, 377, 378, 379, 380, 381, 382, 383, 384, 385, 386, 387, 388, 389, 390, 391, 392, 393, 394, 395, 396, 397, 398, 399, 400, 401, 402, 403, 404, 405, 406, 407, 408, 409, 410, 411, 412, 413, 414, 415, 416, 417, 418, 419, 420, 421, 422, 423, 424, 425, 426, 427, 428, 429, 430, 431, 432, 433, 434, 435, 436, 437, 438, 439, 440, 441, 442, 443, 444, 445, 446, 447, 448, 449, 450, 451, 452, 453, 454, 455, 456, 457, 458, 459, 460, 461, 462, 463, 464, 465, 466, 467, 468, 469, 470, 471, 472, 473, 474, 475, 476, 477, 478, 479, 480, 481, 482, 483, 484, 485, 486, 487, 488, 489, 490, 491, 492, 493, 494, 495, 496, 497, 498, 499, 500, 501, 502, 503, 504, 505, 506, 507, 508, 509, 510, 511, 512, 513, 514, 515, 516, 517, 518, 519, 520, 521, 522, 523, 524, 525, 526, 527, 528, 529, 530, 531, 532, 533, 534, 535, 536, 537, 538, 539, 540, 541, 542, 543, 544, 545, 546, 547, 548, 549, 550, 551, 552, 553, 554, 555, 556, 557, 558, 559, 560, 561, 562, 563, 564, 565, 566, 567, 568, 569, 570, 571, 572, 573, 574, 575, 576, 577, 578, 579, 580, 581, 582, 583, 584, 585, 586, 587, 588, 589, 590, 591, 592, 593, 594, 595, 596, 597, 598, 599, 600, 601, 602, 603, 604, 605, 606, 607, 608, 609, 610, 611, 612, 613, 614, 615, 616, 617, 618, 619, 620, 621, 622, 623, 624, 625, 626, 627, 628, 629, 630, 631, 632, 633, 634, 635, 636, 637, 638, 639, 640, 641, 642, 643, 644, 645, 646, 647, 648, 649, 650, 651, 652, 653, 654, 655, 656, 657, 658, 659, 660, 661, 662, 663, 664, 665, 666, 667, 668, 669, 670, 671, 672, 673, 674, 675, 676, 677, 678, 679, 680, 681, 682, 683, 684, 685, 686, 687, 688, 689, 690, 691, 692, 693, 694, 695, 696, 697, 698, 699, 700, 701, 702, 703, 704, 705, 706, 707, 708, 709, 710, 711, 712, 713, 714, 715, 716, 717, 718, 719, 720, 721, 722, 723, 724, 725, 726, 727, 728, 729, 730, 731, 732, 733, 734, 735, 736, 737, 738, 739, 740, 741, 742, 743, 744, 745, 746, 747, 748, 749, 750, 751, 752, 753, 754, 755, 756, 757, 758, 759, 760, 761, 762, 763, 764, 765, 766, 767, 768, 769, 770, 771, 772, 773, 774, 775, 776, 777, 778, 779, 780, 781, 782, 783, 784, 785, 786, 787, 788, 789, 790, 791, 792, 793, 794, 795, 796, 797, 798, 799, 800, 801, 802, 803, 804, 805, 806, 807, 808, 809, 810, 811, 812, 813, 814, 815, 816, 817, 818, 819, 820, 821, 822, 823, 824, 825, 826, 827, 828, 829, 830, 831, 832, 833, 834, 835, 836, 837, 838, 839, 840, 841, 842, 843, 844, 845, 846, 847, 848, 849, 850, 851, 852, 853, 854, 855, 856, 857, 858, 859, 860, 861, 862, 863, 864, 865, 866, 867, 868, 869, 870, 871, 872],
      "AcquisitionTime": ["100118.950000", "100119.410000", "100119.870000", "100120.330000", "100120.790000", "100121.250000", "100121.710000", "100122.170000", "100122.630000", "100123.090000", "100123.550000", "100124.010000", "100124.470000", "100124.930000", "100125.390000", "100125.850000", "100126.310000", "100126.770000", "100127.230000", "100127.690000", "100128.150000", "100128.610000", "100129.070000", "100129.530000", "100129.990000", "100130.450000", "100130.910000", "100131.370000", "100131.830000", "100132.290000", "100132.750000", "100133.210000", "100133.670000", "100134.130000", "100134.590000", "100135.050000", "100135.510000", "100135.970000", "100136.430000", "100136.890000", "100137.350000", "100137.810000", "100138.270000", "100138.730000", "100139.190000", "100139.650000", "100140.110000", "100140.570000", "100141.030000", "100141.490000", "100141.950000", "100142.410000", "100142.870000", "100143.330000", "100143.790000", "100144.250000", "100144.710000", "100145.170000", "100145.630000", "100146.090000", "100146.550000", "100147.010000", "100147.470000", "100147.930000", "100148.390000", "100148.850000", "100149.310000", "100149.770000", "100150.230000", "100150.690000", "100151.150000", "100151.610000", "100152.070000", "100152.530000", "100152.990000", "100153.450000", "100153.910000", "100154.370000", "100154.830000", "100155.290000", "100155.750000", "100156.210000", "100156.670000", "100157.130000", "100157.590000", "100158.050000", "100158.510000", "100158.970000", "100159.430000", "100159.890000", "100200.350000", "100200.810000", "100201.270000", "100201.730000", "100202.190000", "100202.650000", "100203.110000", "100203.570000", "100204.030000", "100204.490000", "100204.950000", "100205.410000", "100205.870000", "100206.330000", "100206.790000", "100207.250000", "100207.710000", "100208.170000", "100208.630000", "100209.090000", "100209.550000", "100210.010000", "100210.470000", "100210.930000", "100211.390000", "100211.850000", "100212.310000", "100212.770000", "100213.230000", "100213.690000", "100214.150000", "100214.610000", "100215.070000", "100215.530000", "100215.990000", "100216.450000", "100216.910000", "100217.370000", "100217.830000", "100218.290000", "100218.750000", "100219.210000", "100219.670000", "100220.130000", "100220.590000", "100221.050000", "100221.510000", "100221.970000", "100222.430000", "100222.890000", "100223.350000", "100223.810000", "100224.270000", "100224.730000", "100225.190000", "100225.650000", "100226.110000", "100226.570000", "100227.030000", "100227.490000", "100227.950000", "100228.410000", "100228.870000", "100229.330000", "100229.790000", "100230.250000", "100230.710000", "100231.170000", "100231.630000", "100232.090000", "100232.550000", "100233.010000", "100233.470000", "100233.930000", "100234.390000", "100234.850000", "100235.310000", "100235.770000", "100236.230000", "100236.690000", "100237.150000", "100237.610000", "100238.070000", "100238.530000", "100238.990000", "100239.450000", "100239.910000", "100240.370000", "100240.830000", "100241.290000", "100241.750000", "100242.210000", "100242.670000", "100243.130000", "100243.590000", "100244.050000", "100244.510000", "100244.970000", "100245.430000", "100245.890000", "100246.350000", "100246.810000", "100247.270000", "100247.730000", "100248.190000", "100248.650000", "100249.110000", "100249.570000", "100250.030000", "100250.490000", "100250.950000", "100251.410000", "100251.870000", "100252.330000", "100252.790000", "100253.250000", "100253.710000", "100254.170000", "100254.630000", "100255.090000", "100255.550000", "100256.010000", "100256.470000", "100256.930000", "100257.390000", "100257.850000", "100258.310000", "100258.770000", "100259.230000", "100259.690000", "100300.150000", "100300.610000", "100301.070000", "100301.530000", "100301.990000", "100302.450000", "100302.910000", "100303.370000", "100303.830000", "100304.290000", "100304.750000", "100305.210000", "100305.670000", "100306.130000", "100306.590000", "100307.050000", "100307.510000", "100307.970000", "100308.430000", "100308.890000", "100309.350000", "100309.810000", "100310.270000", "100310.730000", "100311.190000", "100311.650000", "100312.110000", "100312.570000", "100313.030000", "100313.490000", "100313.950000", "100314.410000", "100314.870000", "100315.330000", "100315.790000", "100316.250000", "100316.710000", "100317.170000", "100317.630000", "100318.090000", "100318.550000", "100319.010000", "100319.470000", "100319.930000", "100320.390000", "100320.850000", "100321.310000", "100321.770000", "100322.230000", "100322.690000", "100323.150000", "100323.610000", "100324.070000", "100324.530000", "100324.990000", "100325.450000", "100325.910000", "100326.370000", "100326.830000", "100327.290000", "100327.750000", "100328.210000", "100328.670000", "100329.130000", "100329.590000", "100330.050000", "100330.510000", "100330.970000", "100331.430000", "100331.890000", "100332.350000", "100332.810000", "100333.270000", "100333.730000", "100334.190000", "100334.650000", "100335.110000", "100335.570000", "100336.030000", "100336.490000", "100336.950000", "100337.410000", "100337.870000", "100338.330000", "100338.790000", "100339.250000", "100339.710000", "100340.170000", "100340.630000", "100341.090000", "100341.550000", "100342.010000", "100342.470000", "100342.930000", "100343.390000", "100343.850000", "100344.310000", "100344.770000", "100345.230000", "100345.690000", "100346.150000", "100346.610000", "100347.070000", "100347.530000", "100347.990000", "100348.450000", "100348.910000", "100349.370000", "100349.830000", "100350.290000", "100350.750000", "100351.210000", "100351.670000", "100352.130000", "100352.590000", "100353.050000", "100353.510000", "100353.970000", "100354.430000", "100354.890000", "100355.350000", "100355.810000", "100356.270000", "100356.730000", "100357.190000", "100357.650000", "100358.110000", "100358.570000", "100359.030000", "100359.490000", "100359.950000", "100400.410000", "100400.870000", "100401.330000", "100401.790000", "100402.250000", "100402.710000", "100403.170000", "100403.630000", "100404.090000", "100404.550000", "100405.010000", "100405.470000", "100405.930000", "100406.390000", "100406.850000", "100407.310000", "100407.770000", "100408.230000", "100408.690000", "100409.150000", "100409.610000", "100410.070000", "100410.530000", "100410.990000", "100411.450000", "100411.910000", "100412.370000", "100412.830000", "100413.290000", "100413.750000", "100414.210000", "100414.670000", "100415.130000", "100415.590000", "100416.050000", "100416.510000", "100416.970000", "100417.430000", "100417.890000", "100418.350000", "100418.810000", "100419.270000", "100419.730000", "100420.190000", "100420.650000", "100421.110000", "100421.570000", "100422.030000", "100422.490000", "100422.950000", "100423.410000", "100423.870000", "100424.330000", "100424.790000", "100425.250000", "100425.710000", "100426.170000", "100426.630000", "100427.090000", "100427.550000", "100428.010000", "100428.470000", "100428.930000", "100429.390000", "100429.850000", "100430.310000", "100430.770000", "100431.230000", "100431.690000", "100432.150000", "100432.610000", "100433.070000", "100433.530000", "100433.990000", "100434.450000", "100434.910000", "100435.370000", "100435.830000", "100436.290000", "100436.750000", "100437.210000", "100437.670000", "100438.130000", "100438.590000", "100439.050000", "100439.510000", "100439.970000", "100440.430000", "100440.890000", "100441.350000", "100441.810000", "100442.270000", "100442.730000", "100443.190000", "100443.650000", "100444.110000", "100444.570000", "100445.030000", "100445.490000", "100445.950000", "100446.410000", "100446.870000", "100447.330000", "100447.790000", "100448.250000", "100448.710000", "100449.170000", "100449.630000", "100450.090000", "100450.550000", "100451.010000", "100451.470000", "100451.930000", "100452.390000", "100452.850000", "100453.310000", "100453.770000", "100454.230000", "100454.690000", "100455.150000", "100455.610000", "100456.070000", "100456.530000", "100456.990000", "100457.450000", "100457.910000", "100458.370000", "100458.830000", "100459.290000", "100459.750000", "100500.210000", "100500.670000", "100501.130000", "100501.590000", "100502.050000", "100502.510000", "100502.970000", "100503.430000", "100503.890000", "100504.350000", "100504.810000", "100505.270000", "100505.730000", "100506.190000", "100506.650000", "100507.110000", "100507.570000", "100508.030000", "100508.490000", "100508.950000", "100509.410000", "100509.870000", "100510.330000", "100510.790000", "100511.250000", "100511.710000", "100512.170000", "100512.630000", "100513.090000", "100513.550000", "100514.010000", "100514.470000", "100514.930000", "100515.390000", "100515.850000", "100516.310000", "100516.770000", "100517.230000", "100517.690000", "100518.150000", "100518.610000", "100519.070000", "100519.530000", "100519.990000", "100520.450000", "100520.910000", "100521.370000", "100521.830000", "100522.290000", "100522.750000", "100523.210000", "100523.670000", "100524.130000", "100524.590000", "100525.050000", "100525.510000", "100525.970000", "100526.430000", "100526.890000", "100527.350000", "100527.810000", "100528.270000", "100528.730000", "100529.190000", "100529.650000", "100530.110000", "100530.570000", "100531.030000", "100531.490000", "100531.950000", "100532.410000", "100532.870000", "100533.330000", "100533.790000", "100534.250000", "100534.710000", "100535.170000", "100535.630000", "100536.090000", "100536.550000", "100537.010000", "100537.470000", "100537.930000", "100538.390000", "100538.850000", "100539.310000", "100539.770000", "100540.230000", "100540.690000", "100541.150000", "100541.610000", "100542.070000", "100542.530000", "100542.990000", "100543.450000", "100543.910000", "100544.370000", "100544.830000", "100545.290000", "100545.750000", "100546.210000", "100546.670000", "100547.130000", "100547.590000", "100548.050000", "100548.510000", "100548.970000", "100549.430000", "100549.890000", "100550.350000", "100550.810000", "100551.270000", "100551.730000", "100552.190000", "100552.650000", "100553.110000", "100553.570000", "100554.030000", "100554.490000", "100554.950000", "100555.410000", "100555.870000", "100556.330000", "100556.790000", "100557.250000", "100557.710000", "100558.170000", "100558.630000", "100559.090000", "100559.550000", "100600.010000", "100600.470000", "100600.930000", "100601.390000", "100601.850000", "100602.310000", "100602.770000", "100603.230000", "100603.690000", "100604.150000", "100604.610000", "100605.070000", "100605.530000", "100605.990000", "100606.450000", "100606.910000", "100607.370000", "100607.830000", "100608.290000", "100608.750000", "100609.210000", "100609.670000", "100610.130000", "100610.590000", "100611.050000", "100611.510000", "100611.970000", "100612.430000", "100612.890000", "100613.350000", "100613.810000", "100614.270000", "100614.730000", "100615.190000", "100615.650000", "100616.110000", "100616.570000", "100617.030000", "100617.490000", "100617.950000", "100618.410000", "100618.870000", "100619.330000", "100619.790000", "100620.250000", "100620.710000", "100621.170000", "100621.630000", "100622.090000", "100622.550000", "100623.010000", "100623.470000", "100623.930000", "100624.390000", "100624.850000", "100625.310000", "100625.770000", "100626.230000", "100626.690000", "100627.150000", "100627.610000", "100628.070000", "100628.530000", "100628.990000", "100629.450000", "100629.910000", "100630.370000", "100630.830000", "100631.290000", "100631.750000", "100632.210000", "100632.670000", "100633.130000", "100633.590000", "100634.050000", "100634.510000", "100634.970000", "100635.430000", "100635.890000", "100636.350000", "100636.810000", "100637.270000", "100637.730000", "100638.190000", "100638.650000", "100639.110000", "100639.570000", "100640.030000", "100640.490000", "100640.950000", "100641.410000", "100641.870000", "100642.330000", "100642.790000", "100643.250000", "100643.710000", "100644.170000", "100644.630000", "100645.090000", "100645.550000", "100646.010000", "100646.470000", "100646.930000", "100647.390000", "100647.850000", "100648.310000", "100648.770000", "100649.230000", "100649.690000", "100650.150000", "100650.610000", "100651.070000", "100651.530000", "100651.990000", "100652.450000", "100652.910000", "100653.370000", "100653.830000", "100654.290000", "100654.750000", "100655.210000", "100655.670000", "100656.130000", "100656.590000", "100657.050000", "100657.510000", "100657.970000", "100658.430000", "100658.890000", "100659.350000", "100659.810000", "100700.270000", "100700.730000", "100701.190000", "100701.650000", "100702.110000", "100702.570000", "100703.030000", "100703.490000", "100703.950000", "100704.410000", "100704.870000", "100705.330000", "100705.790000", "100706.250000", "100706.710000", "100707.170000", "100707.630000", "100708.090000", "100708.550000", "100709.010000", "100709.470000", "100709.930000", "100710.390000", "100710.850000", "100711.310000", "100711.770000", "100712.230000", "100712.690000", "100713.150000", "100713.610000", "100714.070000", "100714.530000", "100714.990000", "100715.450000", "100715.910000", "100716.370000", "100716.830000", "100717.290000", "100717.750000", "100718.210000", "100718.670000", "100719.130000", "100719.590000", "100720.050000", "100720.510000", "100720.970000", "100721.430000", "100721.890000", "100722.350000", "100722.810000", "100723.270000", "100723.730000", "100724.190000", "100724.650000", "100725.110000", "100725.570000", "100726.030000", "100726.490000", "100726.950000", "100727.410000", "100727.870000", "100728.330000", "100728.790000", "100729.250000", "100729.710000", "100730.170000", "100730.630000", "100731.090000", "100731.550000", "100732.010000", "100732.470000", "100732.930000", "100733.390000", "100733.850000", "100734.310000", "100734.770000", "100735.230000", "100735.690000", "100736.150000", "100736.610000", "100737.070000", "100737.530000", "100737.990000", "100738.450000", "100738.910000", "100739.370000", "100739.830000", "100740.290000", "100740.750000", "100741.210000", "100741.670000", "100742.130000", "100742.590000", "100743.050000", "100743.510000", "100743.970000", "100744.430000", "100744.890000", "100745.350000", "100745.810000", "100746.270000", "100746.730000", "100747.190000", "100747.650000", "100748.110000", "100748.570000", "100749.030000", "100749.490000", "100749.950000", "100750.410000", "100750.870000", "100751.330000", "100751.790000", "100752.250000", "100752.710000", "100753.170000", "100753.630000", "100754.090000", "100754.550000", "100755.010000", "100755.470000", "100755.930000", "100756.390000", "100756.850000", "100757.310000", "100757.770000", "100758.230000", "100758.690000", "100759.150000", "100759.610000"],
