{
  "AcquisitionMatrixPE": 82,
  "AcquisitionNumber": 1,
  "AcquisitionTime": "18:36:9.737500",
  "BandwidthPerPixelPhaseEncode": 24.888,
  "BaseResolution": 82,
  "BodyPartExamined": "BRAIN",
  "ConsistencyInfo": "N4_VE11E_LATEST_20181129",
  "ConversionSoftware": "dcm2niix",
  "ConversionSoftwareVersion": "v1.0.20201102",
  "DerivedVendorReportedEchoSpacing": 0.00049,
  "DeviceSerialNumber": "66112",
  "DwellTime": 2e-06,
  "EchoTime": 0.0272,
  "EchoTrainLength": 82,
  "EffectiveEchoSpacing": 0.00049,
  "FlipAngle": 44,
  "ImageComments": "Unaliased MB8/PE3",
  "ImageOrientationPatientDICOM": [0.995305, 0.0364979, -0.0896407, -0.04363, 0.995924, -0.0789379],
  "ImageType": [
    "ORIGINAL",
    "PRIMARY",
    "M",
    "MB",
    "ND",
    "NORM",
    "MOSAIC"
],
  "ImagingFrequency": 123.259,
  "InPlanePhaseEncodingDirectionDICOM": "COL",
  "InstitutionAddress": "Maynard 3,Hanover,NH,US,03755",
  "InstitutionName": "Dartmouth College - PBS",
  "InstitutionalDepartmentName": "Department",
  "MRAcquisitionType": "2D",
  "MagneticFieldStrength": 3,
  "Manufacturer": "Siemens",
  "ManufacturersModelName": "Prisma",
  "Modality": "MR",
  "MultibandAccelerationFactor": 8,
  "PartialFourier": 1,
  "PatientPosition": "HFS",
  "PercentPhaseFOV": 100,
  "PercentSampling": 100,
  "PhaseEncodingDirection": "j-",
  "PhaseEncodingSteps": 82,
  "PhaseResolution": 1,
  "PixelBandwidth": 3050,
  "ProcedureStepDescription": "Wager_Wager^1076_spacetop",
  "ProtocolName": "func_run-03_task-alignvideo_acq-ap-mb8",
  "PulseSequenceDetails": "%CustomerSeq%\\cmrr_mbep2d_bold",
  "ReceiveCoilActiveElements": "HEA;HEP",
  "ReceiveCoilName": "Head_32",
  "ReconMatrixPE": 82,
  "RepetitionTime": 0.46,
  "SAR": 0.0811695,
  "ScanOptions": "FS",
  "ScanningSequence": "EP",
  "SequenceName": "epfid2d1_82",
  "SequenceVariant": "SK\\SS",
  "SeriesDescription": "func_run-03_task-alignvideo_acq-ap-mb8",
  "SeriesNumber": 32,
  "ShimSetting": [4198, -7741, -7190, 434, -181, 128, 19, 41],
  "SliceThickness": 2.7,
  "SliceTiming": [0, 0.2525, 0.0625, 0.315, 0.125, 0.3775, 0.1875, 0, 0.2525, 0.0625, 0.315, 0.125, 0.3775, 0.1875, 0, 0.2525, 0.0625, 0.315, 0.125, 0.3775, 0.1875, 0, 0.2525, 0.0625, 0.315, 0.125, 0.3775, 0.1875, 0, 0.2525, 0.0625, 0.315, 0.125, 0.3775, 0.1875, 0, 0.2525, 0.0625, 0.315, 0.125, 0.3775, 0.1875, 0, 0.2525, 0.0625, 0.315, 0.125, 0.3775, 0.1875, 0, 0.2525, 0.0625, 0.315, 0.125, 0.3775, 0.1875],
  "SoftwareVersions": "syngo MR E11",
  "SpacingBetweenSlices": 2.7,
  "StationName": "AWP66112",
  "TaskName": "alignvideo",
  "TotalReadoutTime": 0.03969,
  "TxRefAmp": 232.454,
  "WipMemBlock": "e14ba138-b464-46f8-9154-2b74f003fd09||Sequence: R016 ve11e/master r/434b28f1; Aug  7 2019 18:53:46 by eja",
  "dcmmeta_affine": [
    [-2.6703310012817383, -0.11705609411001205, -0.2332644760608673, 117.92559814453125],
    [-0.09792111814022064, 2.671992063522339, -0.22269153594970703, -98.98453521728516],
    [-0.240499347448349, 0.21178466081619263, 2.680670976638794, -63.01948928833008],
    [0.0, 0.0, 0.0, 1.0]
],
  "dcmmeta_reorient_transform": [
    [0.0, -1.0, 0.0, 81.0],
    [1.0, 0.0, 0.0, 0.0],
    [0.0, 0.0, 1.0, 0.0],
    [0.0, 0.0, 0.0, 1.0]
],
  "dcmmeta_shape": [82, 82, 56, 1065],
  "dcmmeta_slice_dim": 2,
  "dcmmeta_version": 0.6,
  "global": {
    "const": {
      "AccessionNumber": "A004728",
      "AcquisitionMatrix": [82, 0, 0, 82],
      "AngioFlag": "N",
      "BitsAllocated": 16,
      "BitsStored": 16,
      "BodyPartExamined": "BRAIN",
      "Columns": 656,
      "EchoNumbers": 1,
      "EchoTime": 27.2,
      "EchoTrainLength": 82,
      "FlipAngle": 44.0,
      "HighBit": 15,
      "ImageOrientationPatient": [0.99530520774813, 0.03649786950321, -0.0896406657225, -0.043629996897, 0.99592430846468, -0.0789379197845],
      "ImagePositionPatient": [-841.23398806862, -912.41192247959, 83.940581817819],
      "ImageType": [
        "ORIGINAL",
        "PRIMARY",
        "M",
        "MB",
        "ND",
        "NORM",
        "MOSAIC"
],
      "ImagedNucleus": "1H",
      "ImagingFrequency": 123.259076,
      "InPlanePhaseEncodingDirection": "COL",
      "MRAcquisitionType": "2D",
      "MagneticFieldStrength": 3.0,
      "Manufacturer": "SIEMENS",
      "ManufacturerModelName": "Prisma",
      "Modality": "MR",
      "NumberOfAverages": 1.0,
      "NumberOfPhaseEncodingSteps": 82,
      "PercentPhaseFieldOfView": 100.0,
      "PercentSampling": 100.0,
      "PerformedProcedureStepStartTime": "171118.210000",
      "PhotometricInterpretation": "MONOCHROME2",
      "PixelBandwidth": 3050.0,
      "PixelRepresentation": 0,
      "PixelSpacing": [2.6829268932343, 2.6829268932343],
      "ProtocolName": "func_run-03_task-alignvideo_acq-ap-mb8",
      "RepetitionTime": 460.0,
      "Rows": 656,
      "SAR": 0.08116946263065,
      "SamplesPerPixel": 1,
      "ScanOptions": "FS",
      "ScanningSequence": "EP",
      "SequenceName": "epfid2d1_82",
      "SequenceVariant": [
        "SK",
        "SS"
],
      "SeriesDescription": "func_run-03_task-alignvideo_acq-ap-mb8",
      "SeriesNumber": 32,
      "SeriesTime": "183636.782000",
      "SliceLocation": -64.592350622952,
      "SliceThickness": 2.7000000476837,
      "SmallestImagePixelValue": 0,
      "SoftwareVersions": "syngo MR E11",
      "SpacingBetweenSlices": 2.7000000177472,
      "SpecificCharacterSet": "ISO_IR 100",
      "StudyID": "2",
      "StudyTime": "171118.173000",
      "TransmitCoilName": "Body",
      "VariableFlipAngleFlag": "N",
      "WindowCenterWidthExplanation": "Algo1"
    },
    "slices": {}
  },
  "time": {
    "samples": {
      "AcquisitionNumber": [1, 2, 3, 4, 5, 6, 7, 8, 9, 10, 11, 12, 13, 14, 15, 16, 17, 18, 19, 20, 21, 22, 23, 24, 25, 26, 27, 28, 29, 30, 31, 32, 33, 34, 35, 36, 37, 38, 39, 40, 41, 42, 43, 44, 45, 46, 47, 48, 49, 50, 51, 52, 53, 54, 55, 56, 57, 58, 59, 60, 61, 62, 63, 64, 65, 66, 67, 68, 69, 70, 71, 72, 73, 74, 75, 76, 77, 78, 79, 80, 81, 82, 83, 84, 85, 86, 87, 88, 89, 90, 91, 92, 93, 94, 95, 96, 97, 98, 99, 100, 101, 102, 103, 104, 105, 106, 107, 108, 109, 110, 111, 112, 113, 114, 115, 116, 117, 118, 119, 120, 121, 122, 123, 124, 125, 126, 127, 128, 129, 130, 131, 132, 133, 134, 135, 136, 137, 138, 139, 140, 141, 142, 143, 144, 145, 146, 147, 148, 149, 150, 151, 152, 153, 154, 155, 156, 157, 158, 159, 160, 161, 162, 163, 164, 165, 166, 167, 168, 169, 170, 171, 172, 173, 174, 175, 176, 177, 178, 179, 180, 181, 182, 183, 184, 185, 186, 187, 188, 189, 190, 191, 192, 193, 194, 195, 196, 197, 198, 199, 200, 201, 202, 203, 204, 205, 206, 207, 208, 209, 210, 211, 212, 213, 214, 215, 216, 217, 218, 219, 220, 221, 222, 223, 224, 225, 226, 227, 228, 229, 230, 231, 232, 233, 234, 235, 236, 237, 238, 239, 240, 241, 242, 243, 244, 245, 246, 247, 248, 249, 250, 251, 252, 253, 254, 255, 256, 257, 258, 259, 260, 261, 262, 263, 264, 265, 266, 267, 268, 269, 270, 271, 272, 273, 274, 275, 276, 277, 278, 279, 280, 281, 282, 283, 284, 285, 286, 287, 288, 289, 290, 291, 292, 293, 294, 295, 296, 297, 298, 299, 300, 301, 302, 303, 304, 305, 306, 307, 308, 309, 310, 311, 312, 313, 314, 315, 316, 317, 318, 319, 320, 321, 322, 323, 324, 325, 326, 327, 328, 329, 330, 331, 332, 333, 334, 335, 336, 337, 338, 339, 340, 341, 342, 343, 344, 345, 346, 347, 348, 349, 350, 351, 352, 353, 354, 355, 356, 357, 358, 359, 360, 361, 362, 363, 364, 365, 366, 367, 368, 369, 370, 371, 372, 373, 374, 375, 376, 377, 378, 379, 380, 381, 382, 383, 384, 385, 386, 387, 388, 389, 390, 391, 392, 393, 394, 395, 396, 397, 398, 399, 400, 401, 402, 403, 404, 405, 406, 407, 408, 409, 410, 411, 412, 413, 414, 415, 416, 417, 418, 419, 420, 421, 422, 423, 424, 425, 426, 427, 428, 429, 430, 431, 432, 433, 434, 435, 436, 437, 438, 439, 440, 441, 442, 443, 444, 445, 446, 447, 448, 449, 450, 451, 452, 453, 454, 455, 456, 457, 458, 459, 460, 461, 462, 463, 464, 465, 466, 467, 468, 469, 470, 471, 472, 473, 474, 475, 476, 477, 478, 479, 480, 481, 482, 483, 484, 485, 486, 487, 488, 489, 490, 491, 492, 493, 494, 495, 496, 497, 498, 499, 500, 501, 502, 503, 504, 505, 506, 507, 508, 509, 510, 511, 512, 513, 514, 515, 516, 517, 518, 519, 520, 521, 522, 523, 524, 525, 526, 527, 528, 529, 530, 531, 532, 533, 534, 535, 536, 537, 538, 539, 540, 541, 542, 543, 544, 545, 546, 547, 548, 549, 550, 551, 552, 553, 554, 555, 556, 557, 558, 559, 560, 561, 562, 563, 564, 565, 566, 567, 568, 569, 570, 571, 572, 573, 574, 575, 576, 577, 578, 579, 580, 581, 582, 583, 584, 585, 586, 587, 588, 589, 590, 591, 592, 593, 594, 595, 596, 597, 598, 599, 600, 601, 602, 603, 604, 605, 606, 607, 608, 609, 610, 611, 612, 613, 614, 615, 616, 617, 618, 619, 620, 621, 622, 623, 624, 625, 626, 627, 628, 629, 630, 631, 632, 633, 634, 635, 636, 637, 638, 639, 640, 641, 642, 643, 644, 645, 646, 647, 648, 649, 650, 651, 652, 653, 654, 655, 656, 657, 658, 659, 660, 661, 662, 663, 664, 665, 666, 667, 668, 669, 670, 671, 672, 673, 674, 675, 676, 677, 678, 679, 680, 681, 682, 683, 684, 685, 686, 687, 688, 689, 690, 691, 692, 693, 694, 695, 696, 697, 698, 699, 700, 701, 702, 703, 704, 705, 706, 707, 708, 709, 710, 711, 712, 713, 714, 715, 716, 717, 718, 719, 720, 721, 722, 723, 724, 725, 726, 727, 728, 729, 730, 731, 732, 733, 734, 735, 736, 737, 738, 739, 740, 741, 742, 743, 744, 745, 746, 747, 748, 749, 750, 751, 752, 753, 754, 755, 756, 757, 758, 759, 760, 761, 762, 763, 764, 765, 766, 767, 768, 769, 770, 771, 772, 773, 774, 775, 776, 777, 778, 779, 780, 781, 782, 783, 784, 785, 786, 787, 788, 789, 790, 791, 792, 793, 794, 795, 796, 797, 798, 799, 800, 801, 802, 803, 804, 805, 806, 807, 808, 809, 810, 811, 812, 813, 814, 815, 816, 817, 818, 819, 820, 821, 822, 823, 824, 825, 826, 827, 828, 829, 830, 831, 832, 833, 834, 835, 836, 837, 838, 839, 840, 841, 842, 843, 844, 845, 846, 847, 848, 849, 850, 851, 852, 853, 854, 855, 856, 857, 858, 859, 860, 861, 862, 863, 864, 865, 866, 867, 868, 869, 870, 871, 872, 873, 874, 875, 876, 877, 878, 879, 880, 881, 882, 883, 884, 885, 886, 887, 888, 889, 890, 891, 892, 893, 894, 895, 896, 897, 898, 899, 900, 901, 902, 903, 904, 905, 906, 907, 908, 909, 910, 911, 912, 913, 914, 915, 916, 917, 918, 919, 920, 921, 922, 923, 924, 925, 926, 927, 928, 929, 930, 931, 932, 933, 934, 935, 936, 937, 938, 939, 940, 941, 942, 943, 944, 945, 946, 947, 948, 949, 950, 951, 952, 953, 954, 955, 956, 957, 958, 959, 960, 961, 962, 963, 964, 965, 966, 967, 968, 969, 970, 971, 972, 973, 974, 975, 976, 977, 978, 979, 980, 981, 982, 983, 984, 985, 986, 987, 988, 989, 990, 991, 992, 993, 994, 995, 996, 997, 998, 999, 1000, 1001, 1002, 1003, 1004, 1005, 1006, 1007, 1008, 1009, 1010, 1011, 1012, 1013, 1014, 1015, 1016, 1017, 1018, 1019, 1020, 1021, 1022, 1023, 1024, 1025, 1026, 1027, 1028, 1029, 1030, 1031, 1032, 1033, 1034, 1035, 1036, 1037, 1038, 1039, 1040, 1041, 1042, 1043, 1044, 1045, 1046, 1047, 1048, 1049, 1050, 1051, 1052, 1053, 1054, 1055, 1056, 1057, 1058, 1059, 1060, 1061, 1062, 1063, 1064, 1065],
      "AcquisitionTime": ["183609.737500", "183610.197500", "183610.657500", "183611.117500", "183611.577500", "183612.037500", "183612.497500", "183612.957500", "183613.417500", "183613.877500", "183614.337500", "183614.797500", "183615.257500", "183615.717500", "183616.177500", "183616.637500", "183617.097500", "183617.557500", "183618.017500", "183618.477500", "183618.937500", "183619.397500", "183619.857500", "183620.317500", "183620.777500", "183621.237500", "183621.697500", "183622.157500", "183622.617500", "183623.077500", "183623.537500", "183623.997500", "183624.457500", "183624.917500", "183625.377500", "183625.837500", "183626.297500", "183626.757500", "183627.217500", "183627.677500", "183628.137500", "183628.597500", "183629.057500", "183629.517500", "183629.977500", "183630.437500", "183630.897500", "183631.357500", "183631.817500", "183632.277500", "183632.737500", "183633.197500", "183633.657500", "183634.117500", "183634.577500", "183635.037500", "183635.497500", "183635.957500", "183636.417500", "183636.877500", "183637.337500", "183637.797500", "183638.257500", "183638.717500", "183639.177500", "183639.637500", "183640.097500", "183640.557500", "183641.017500", "183641.477500", "183641.937500", "183642.397500", "183642.857500", "183643.317500", "183643.777500", "183644.237500", "183644.697500", "183645.157500", "183645.617500", "183646.077500", "183646.537500", "183646.997500", "183647.457500", "183647.917500", "183648.377500", "183648.837500", "183649.297500", "183649.757500", "183650.217500", "183650.677500", "183651.137500", "183651.597500", "183652.057500", "183652.517500", "183652.977500", "183653.437500", "183653.897500", "183654.357500", "183654.817500", "183655.277500", "183655.737500", "183656.197500", "183656.657500", "183657.117500", "183657.577500", "183658.037500", "183658.497500", "183658.957500", "183659.417500", "183659.877500", "183700.337500", "183700.797500", "183701.257500", "183701.717500", "183702.177500", "183702.637500", "183703.097500", "183703.557500", "183704.017500", "183704.477500", "183704.937500", "183705.397500", "183705.857500", "183706.317500", "183706.777500", "183707.237500", "183707.697500", "183708.157500", "183708.617500", "183709.077500", "183709.537500", "183709.997500", "183710.457500", "183710.917500", "183711.377500", "183711.837500", "183712.297500", "183712.757500", "183713.217500", "183713.677500", "183714.137500", "183714.597500", "183715.057500", "183715.517500", "183715.977500", "183716.437500", "183716.897500", "183717.357500", "183717.817500", "183718.277500", "183718.737500", "183719.197500", "183719.657500", "183720.117500", "183720.577500", "183721.037500", "183721.497500", "183721.957500", "183722.417500", "183722.877500", "183723.337500", "183723.797500", "183724.257500", "183724.717500", "183725.177500", "183725.637500", "183726.097500", "183726.557500", "183727.017500", "183727.477500", "183727.937500", "183728.397500", "183728.857500", "183729.317500", "183729.777500", "183730.237500", "183730.697500", "183731.157500", "183731.617500", "183732.077500", "183732.537500", "183732.997500", "183733.457500", "183733.917500", "183734.377500", "183734.837500", "183735.297500", "183735.757500", "183736.217500", "183736.677500", "183737.137500", "183737.597500", "183738.057500", "183738.517500", "183738.977500", "183739.437500", "183739.897500", "183740.357500", "183740.817500", "183741.277500", "183741.737500", "183742.197500", "183742.657500", "183743.117500", "183743.577500", "183744.037500", "183744.497500", "183744.957500", "183745.417500", "183745.877500", "183746.337500", "183746.797500", "183747.257500", "183747.717500", "183748.177500", "183748.637500", "183749.097500", "183749.557500", "183750.017500", "183750.477500", "183750.937500", "183751.397500", "183751.857500", "183752.317500", "183752.777500", "183753.237500", "183753.697500", "183754.157500", "183754.617500", "183755.077500", "183755.537500", "183755.997500", "183756.457500", "183756.917500", "183757.377500", "183757.837500", "183758.297500", "183758.757500", "183759.217500", "183759.677500", "183800.137500", "183800.597500", "183801.057500", "183801.517500", "183801.977500", "183802.437500", "183802.897500", "183803.357500", "183803.817500", "183804.277500", "183804.737500", "183805.197500", "183805.657500", "183806.117500", "183806.577500", "183807.037500", "183807.497500", "183807.957500", "183808.417500", "183808.877500", "183809.337500", "183809.797500", "183810.257500", "183810.717500", "183811.177500", "183811.637500", "183812.097500", "183812.557500", "183813.017500", "183813.477500", "183813.937500", "183814.397500", "183814.857500", "183815.317500", "183815.777500", "183816.237500", "183816.697500", "183817.157500", "183817.617500", "183818.077500", "183818.537500", "183818.997500", "183819.457500", "183819.917500", "183820.377500", "183820.837500", "183821.297500", "183821.757500", "183822.217500", "183822.677500", "183823.137500", "183823.597500", "183824.057500", "183824.517500", "183824.977500", "183825.437500", "183825.897500", "183826.357500", "183826.817500", "183827.277500", "183827.737500", "183828.197500", "183828.657500", "183829.117500", "183829.577500", "183830.037500", "183830.497500", "183830.957500", "183831.417500", "183831.877500", "183832.337500", "183832.797500", "183833.257500", "183833.717500", "183834.177500", "183834.637500", "183835.097500", "183835.557500", "183836.017500", "183836.477500", "183836.937500", "183837.397500", "183837.857500", "183838.317500", "183838.777500", "183839.237500", "183839.697500", "183840.157500", "183840.617500", "183841.077500", "183841.537500", "183841.997500", "183842.457500", "183842.917500", "183843.377500", "183843.837500", "183844.297500", "183844.757500", "183845.217500", "183845.677500", "183846.137500", "183846.597500", "183847.057500", "183847.517500", "183847.977500", "183848.437500", "183848.897500", "183849.357500", "183849.817500", "183850.277500", "183850.737500", "183851.197500", "183851.657500", "183852.117500", "183852.577500", "183853.037500", "183853.497500", "183853.957500", "183854.417500", "183854.877500", "183855.337500", "183855.797500", "183856.257500", "183856.717500", "183857.177500", "183857.637500", "183858.097500", "183858.557500", "183859.017500", "183859.477500", "183859.937500", "183900.397500", "183900.857500", "183901.317500", "183901.777500", "183902.237500", "183902.697500", "183903.157500", "183903.617500", "183904.077500", "183904.537500", "183904.997500", "183905.457500", "183905.917500", "183906.377500", "183906.837500", "183907.297500", "183907.757500", "183908.217500", "183908.677500", "183909.137500", "183909.597500", "183910.057500", "183910.517500", "183910.977500", "183911.437500", "183911.897500", "183912.357500", "183912.817500", "183913.277500", "183913.737500", "183914.197500", "183914.657500", "183915.117500", "183915.577500", "183916.037500", "183916.497500", "183916.957500", "183917.417500", "183917.877500", "183918.337500", "183918.797500", "183919.257500", "183919.717500", "183920.177500", "183920.637500", "183921.097500", "183921.557500", "183922.017500", "183922.477500", "183922.937500", "183923.397500", "183923.857500", "183924.317500", "183924.777500", "183925.237500", "183925.697500", "183926.157500", "183926.617500", "183927.077500", "183927.537500", "183927.997500", "183928.457500", "183928.917500", "183929.377500", "183929.837500", "183930.297500", "183930.757500", "183931.217500", "183931.677500", "183932.137500", "183932.597500", "183933.057500", "183933.517500", "183933.977500", "183934.437500", "183934.897500", "183935.357500", "183935.817500", "183936.277500", "183936.737500", "183937.197500", "183937.657500", "183938.117500", "183938.577500", "183939.037500", "183939.497500", "183939.957500", "183940.417500", "183940.877500", "183941.337500", "183941.797500", "183942.257500", "183942.717500", "183943.177500", "183943.637500", "183944.097500", "183944.557500", "183945.017500", "183945.477500", "183945.937500", "183946.397500", "183946.857500", "183947.317500", "183947.777500", "183948.237500", "183948.697500", "183949.157500", "183949.617500", "183950.077500", "183950.537500", "183950.997500", "183951.457500", "183951.917500", "183952.377500", "183952.837500", "183953.297500", "183953.757500", "183954.217500", "183954.677500", "183955.137500", "183955.597500", "183956.057500", "183956.517500", "183956.977500", "183957.437500", "183957.897500", "183958.357500", "183958.817500", "183959.277500", "183959.737500", "184000.197500", "184000.657500", "184001.117500", "184001.577500", "184002.037500", "184002.497500", "184002.957500", "184003.417500", "184003.877500", "184004.337500", "184004.797500", "184005.257500", "184005.717500", "184006.177500", "184006.637500", "184007.097500", "184007.557500", "184008.017500", "184008.477500", "184008.937500", "184009.397500", "184009.857500", "184010.317500", "184010.777500", "184011.237500", "184011.697500", "184012.157500", "184012.617500", "184013.077500", "184013.537500", "184013.997500", "184014.457500", "184014.917500", "184015.377500", "184015.837500", "184016.297500", "184016.757500", "184017.217500", "184017.677500", "184018.137500", "184018.597500", "184019.057500", "184019.517500", "184019.977500", "184020.437500", "184020.897500", "184021.357500", "184021.817500", "184022.277500", "184022.737500", "184023.197500", "184023.657500", "184024.117500", "184024.577500", "184025.037500", "184025.497500", "184025.957500", "184026.417500", "184026.877500", "184027.337500", "184027.797500", "184028.257500", "184028.717500", "184029.177500", "184029.637500", "184030.097500", "184030.557500", "184031.017500", "184031.477500", "184031.937500", "184032.397500", "184032.857500", "184033.317500", "184033.777500", "184034.237500", "184034.697500", "184035.157500", "184035.617500", "184036.077500", "184036.537500", "184036.997500", "184037.457500", "184037.917500", "184038.377500", "184038.837500", "184039.297500", "184039.757500", "184040.217500", "184040.677500", "184041.137500", "184041.597500", "184042.057500", "184042.517500", "184042.977500", "184043.437500", "184043.897500", "184044.357500", "184044.817500", "184045.277500", "184045.737500", "184046.197500", "184046.657500", "184047.117500", "184047.577500", "184048.037500", "184048.497500", "184048.957500", "184049.417500", "184049.877500", "184050.337500", "184050.797500", "184051.257500", "184051.717500", "184052.177500", "184052.637500", "184053.097500", "184053.557500", "184054.017500", "184054.477500", "184054.937500", "184055.397500", "184055.857500", "184056.317500", "184056.777500", "184057.237500", "184057.697500", "184058.157500", "184058.617500", "184059.077500", "184059.537500", "184059.997500", "184100.457500", "184100.917500", "184101.377500", "184101.837500", "184102.297500", "184102.757500", "184103.217500", "184103.677500", "184104.137500", "184104.597500", "184105.057500", "184105.517500", "184105.977500", "184106.437500", "184106.897500", "184107.357500", "184107.817500", "184108.277500", "184108.737500", "184109.197500", "184109.657500", "184110.117500", "184110.577500", "184111.037500", "184111.497500", "184111.957500", "184112.417500", "184112.877500", "184113.337500", "184113.797500", "184114.257500", "184114.717500", "184115.177500", "184115.637500", "184116.097500", "184116.557500", "184117.017500", "184117.477500", "184117.937500", "184118.397500", "184118.857500", "184119.317500", "184119.777500", "184120.237500", "184120.697500", "184121.157500", "184121.617500", "184122.077500", "184122.537500", "184122.997500", "184123.457500", "184123.917500", "184124.377500", "184124.837500", "184125.297500", "184125.757500", "184126.217500", "184126.677500", "184127.137500", "184127.597500", "184128.057500", "184128.517500", "184128.977500", "184129.437500", "184129.897500", "184130.357500", "184130.817500", "184131.277500", "184131.737500", "184132.197500", "184132.657500", "184133.117500", "184133.577500", "184134.037500", "184134.497500", "184134.957500", "184135.417500", "184135.877500", "184136.337500", "184136.797500", "184137.257500", "184137.717500", "184138.177500", "184138.637500", "184139.097500", "184139.557500", "184140.017500", "184140.477500", "184140.937500", "184141.397500", "184141.857500", "184142.317500", "184142.777500", "184143.237500", "184143.697500", "184144.157500", "184144.617500", "184145.077500", "184145.537500", "184145.997500", "184146.457500", "184146.917500", "184147.377500", "184147.837500", "184148.297500", "184148.757500", "184149.217500", "184149.677500", "184150.137500", "184150.597500", "184151.057500", "184151.517500", "184151.977500", "184152.437500", "184152.897500", "184153.357500", "184153.817500", "184154.277500", "184154.737500", "184155.197500", "184155.657500", "184156.117500", "184156.577500", "184157.037500", "184157.497500", "184157.957500", "184158.417500", "184158.877500", "184159.337500", "184159.797500", "184200.257500", "184200.717500", "184201.177500", "184201.637500", "184202.097500", "184202.557500", "184203.017500", "184203.477500", "184203.937500", "184204.397500", "184204.857500", "184205.317500", "184205.777500", "184206.237500", "184206.697500", "184207.157500", "184207.617500", "184208.077500", "184208.537500", "184208.997500", "184209.457500", "184209.917500", "184210.377500", "184210.837500", "184211.297500", "184211.757500", "184212.217500", "184212.677500", "184213.137500", "184213.597500", "184214.057500", "184214.517500", "184214.977500", "184215.437500", "184215.897500", "184216.357500", "184216.817500", "184217.277500", "184217.737500", "184218.197500", "184218.657500", "184219.117500", "184219.577500", "184220.037500", "184220.497500", "184220.957500", "184221.417500", "184221.877500", "184222.337500", "184222.797500", "184223.257500", "184223.717500", "184224.177500", "184224.637500", "184225.097500", "184225.557500", "184226.017500", "184226.477500", "184226.937500", "184227.397500", "184227.857500", "184228.317500", "184228.777500", "184229.237500", "184229.697500", "184230.157500", "184230.617500", "184231.077500", "184231.537500", "184231.997500", "184232.457500", "184232.917500", "184233.377500", "184233.837500", "184234.297500", "184234.757500", "184235.217500", "184235.677500", "184236.137500", "184236.597500", "184237.057500", "184237.517500", "184237.977500", "184238.437500", "184238.897500", "184239.357500", "184239.817500", "184240.277500", "184240.737500", "184241.197500", "184241.657500", "184242.117500", "184242.577500", "184243.037500", "184243.497500", "184243.957500", "184244.417500", "184244.877500", "184245.337500", "184245.797500", "184246.257500", "184246.717500", "184247.177500", "184247.637500", "184248.097500", "184248.557500", "184249.017500", "184249.477500", "184249.937500", "184250.397500", "184250.857500", "184251.317500", "184251.777500", "184252.237500", "184252.697500", "184253.157500", "184253.617500", "184254.077500", "184254.537500", "184254.997500", "184255.457500", "184255.917500", "184256.377500", "184256.837500", "184257.297500", "184257.757500", "184258.217500", "184258.677500", "184259.137500", "184259.597500", "184300.057500", "184300.517500", "184300.977500", "184301.437500", "184301.897500", "184302.357500", "184302.817500", "184303.277500", "184303.737500", "184304.197500", "184304.657500", "184305.117500", "184305.577500", "184306.037500", "184306.497500", "184306.957500", "184307.417500", "184307.877500", "184308.337500", "184308.797500", "184309.257500", "184309.717500", "184310.177500", "184310.637500", "184311.097500", "184311.557500", "184312.017500", "184312.477500", "184312.937500", "184313.397500", "184313.857500", "184314.317500", "184314.777500", "184315.237500", "184315.697500", "184316.157500", "184316.617500", "184317.077500", "184317.537500", "184317.997500", "184318.457500", "184318.917500", "184319.377500", "184319.837500", "184320.297500", "184320.757500", "184321.217500", "184321.677500", "184322.137500", "184322.597500", "184323.057500", "184323.517500", "184323.977500", "184324.437500", "184324.897500", "184325.357500", "184325.817500", "184326.277500", "184326.737500", "184327.197500", "184327.657500", "184328.117500", "184328.577500", "184329.037500", "184329.497500", "184329.957500", "184330.417500", "184330.877500", "184331.337500", "184331.797500", "184332.257500", "184332.717500", "184333.177500", "184333.637500", "184334.097500", "184334.557500", "184335.017500", "184335.477500", "184335.937500", "184336.397500", "184336.857500", "184337.317500", "184337.777500", "184338.237500", "184338.697500", "184339.157500", "184339.617500", "184340.077500", "184340.537500", "184340.997500", "184341.457500", "184341.917500", "184342.377500", "184342.837500", "184343.297500", "184343.757500", "184344.217500", "184344.677500", "184345.137500", "184345.597500", "184346.057500", "184346.517500", "184346.977500", "184347.437500", "184347.897500", "184348.357500", "184348.817500", "184349.277500", "184349.737500", "184350.197500", "184350.657500", "184351.117500", "184351.577500", "184352.037500", "184352.497500", "184352.957500", "184353.417500", "184353.877500", "184354.337500", "184354.797500", "184355.257500", "184355.717500", "184356.177500", "184356.637500", "184357.097500", "184357.557500", "184358.017500", "184358.477500", "184358.937500", "184359.397500", "184359.857500", "184400.317500", "184400.777500", "184401.237500", "184401.697500", "184402.157500", "184402.617500", "184403.077500", "184403.537500", "184403.997500", "184404.457500", "184404.917500", "184405.377500", "184405.837500", "184406.297500", "184406.757500", "184407.217500", "184407.677500", "184408.137500", "184408.597500", "184409.057500", "184409.517500", "184409.977500", "184410.437500", "184410.897500", "184411.357500", "184411.817500", "184412.277500", "184412.737500", "184413.197500", "184413.657500", "184414.117500", "184414.577500", "184415.037500", "184415.497500", "184415.957500", "184416.417500", "184416.877500", "184417.337500", "184417.797500", "184418.257500", "184418.717500", "184419.177500"],
