{
  "AcquisitionMatrixPE": 82,
  "AcquisitionNumber": 1,
  "AcquisitionTime": "17:30:46.702500",
  "BandwidthPerPixelPhaseEncode": 24.888,
  "BaseResolution": 82,
  "BodyPartExamined": "BRAIN",
  "ConsistencyInfo": "N4_VE11E_LATEST_20181129",
  "ConversionSoftware": "dcm2niix",
  "ConversionSoftwareVersion": "v1.0.20201102",
  "DerivedVendorReportedEchoSpacing": 0.00049,
  "DeviceSerialNumber": "66112",
  "DwellTime": 2e-06,
  "EchoTime": 0.0272,
  "EchoTrainLength": 82,
  "EffectiveEchoSpacing": 0.00049,
  "FlipAngle": 44,
  "ImageComments": "Unaliased MB8/PE3",
  "ImageOrientationPatientDICOM": [0.995401, 0.0405339, -0.0867932, -0.0420678, 0.998988, -0.0159161],
  "ImageType": [
    "ORIGINAL",
    "PRIMARY",
    "M",
    "MB",
    "ND",
    "NORM",
    "MOSAIC"
],
  "ImagingFrequency": 123.259,
  "InPlanePhaseEncodingDirectionDICOM": "COL",
  "InstitutionAddress": "Maynard 3,Hanover,NH,US,03755",
  "InstitutionName": "Dartmouth College - PBS",
  "InstitutionalDepartmentName": "Department",
  "MRAcquisitionType": "2D",
  "MagneticFieldStrength": 3,
  "Manufacturer": "Siemens",
  "ManufacturersModelName": "Prisma",
  "Modality": "MR",
  "MultibandAccelerationFactor": 8,
  "PartialFourier": 1,
  "PatientPosition": "HFS",
  "PercentPhaseFOV": 100,
  "PercentSampling": 100,
  "PhaseEncodingDirection": "j-",
  "PhaseEncodingSteps": 82,
  "PhaseResolution": 1,
  "PixelBandwidth": 3050,
  "ProcedureStepDescription": "Wager_Wager^1076_spacetop",
  "ProtocolName": "func_run-03_task-social_acq-ap-mb8",
  "PulseSequenceDetails": "%CustomerSeq%\\cmrr_mbep2d_bold",
  "ReceiveCoilActiveElements": "HEA;HEP",
  "ReceiveCoilName": "Head_32",
  "ReconMatrixPE": 82,
  "RepetitionTime": 0.46,
  "SAR": 0.081078,
  "ScanOptions": "FS",
  "ScanningSequence": "EP",
  "SequenceName": "epfid2d1_82",
  "SequenceVariant": "SK\\SS",
  "SeriesDescription": "func_run-03_task-social_acq-ap-mb8",
  "SeriesNumber": 12,
  "ShimSetting": [4198, -7741, -7193, 435, -180, 129, 20, 41],
  "SliceThickness": 2.7,
  "SliceTiming": [0, 0.25, 0.0625, 0.3125, 0.125, 0.3775, 0.1875, 0, 0.25, 0.0625, 0.3125, 0.125, 0.3775, 0.1875, 0, 0.25, 0.0625, 0.3125, 0.125, 0.3775, 0.1875, 0, 0.25, 0.0625, 0.3125, 0.125, 0.3775, 0.1875, 0, 0.25, 0.0625, 0.3125, 0.125, 0.3775, 0.1875, 0, 0.25, 0.0625, 0.3125, 0.125, 0.3775, 0.1875, 0, 0.25, 0.0625, 0.3125, 0.125, 0.3775, 0.1875, 0, 0.25, 0.0625, 0.3125, 0.125, 0.3775, 0.1875],
  "SoftwareVersions": "syngo MR E11",
  "SpacingBetweenSlices": 2.7,
  "StationName": "AWP66112",
  "TaskName": "social",
  "TotalReadoutTime": 0.03969,
  "TxRefAmp": 232.454,
  "WipMemBlock": "a8831f14-f777-4a7c-99ba-131e205d81ee||Sequence: R016 ve11e/master r/434b28f1; Aug  7 2019 18:53:46 by eja",
  "dcmmeta_affine": [
    [-2.6705892086029053, -0.11286469548940659, -0.23236265778541565, 117.4312515258789],
    [-0.10874950140714645, 2.6802117824554443, -0.05263418331742287, -102.65340423583984],
    [-0.23285986483097076, 0.042701832950115204, 2.6894679069519043, -56.507843017578125],
    [0.0, 0.0, 0.0, 1.0]
],
  "dcmmeta_reorient_transform": [
    [0.0, -1.0, 0.0, 81.0],
    [1.0, 0.0, 0.0, 0.0],
    [0.0, 0.0, 1.0, 0.0],
    [0.0, 0.0, 0.0, 1.0]
],
  "dcmmeta_shape": [82, 82, 56, 872],
  "dcmmeta_slice_dim": 2,
  "dcmmeta_version": 0.6,
  "global": {
    "const": {
      "AccessionNumber": "A004728",
      "AcquisitionMatrix": [82, 0, 0, 82],
      "AngioFlag": "N",
      "BitsAllocated": 16,
      "BitsStored": 16,
      "BodyPartExamined": "BRAIN",
      "Columns": 656,
      "EchoNumbers": 1,
      "EchoTime": 27.2,
      "EchoTrainLength": 82,
      "FlipAngle": 44.0,
      "HighBit": 15,
      "ImageOrientationPatient": [0.99540139610052, 0.04053390546593, -0.0867932206386, -0.0420677499861, 0.99898797840349, -0.0159161369815],
      "ImagePositionPatient": [-842.35613253065, -914.87561420663, 26.037213850378],
      "ImageType": [
        "ORIGINAL",
        "PRIMARY",
        "M",
        "MB",
        "ND",
        "NORM",
        "MOSAIC"
],
      "ImagedNucleus": "1H",
      "ImagingFrequency": 123.25905,
      "InPlanePhaseEncodingDirection": "COL",
      "MRAcquisitionType": "2D",
      "MagneticFieldStrength": 3.0,
      "Manufacturer": "SIEMENS",
      "ManufacturerModelName": "Prisma",
      "Modality": "MR",
      "NumberOfAverages": 1.0,
      "NumberOfPhaseEncodingSteps": 82,
      "PercentPhaseFieldOfView": 100.0,
      "PercentSampling": 100.0,
      "PerformedProcedureStepStartTime": "171118.210000",
      "PhotometricInterpretation": "MONOCHROME2",
      "PixelBandwidth": 3050.0,
      "PixelRepresentation": 0,
      "PixelSpacing": [2.6829268932343, 2.6829268932343],
      "ProtocolName": "func_run-03_task-social_acq-ap-mb8",
      "RepetitionTime": 460.0,
      "Rows": 656,
      "SAR": 0.08107799965476,
      "SamplesPerPixel": 1,
      "ScanOptions": "FS",
      "ScanningSequence": "EP",
      "SequenceName": "epfid2d1_82",
      "SequenceVariant": [
        "SK",
        "SS"
],
      "SeriesDescription": "func_run-03_task-social_acq-ap-mb8",
      "SeriesNumber": 12,
      "SeriesTime": "173116.679000",
      "SliceLocation": -64.392437526362,
      "SliceThickness": 2.7000000476837,
      "SmallestImagePixelValue": 0,
      "SoftwareVersions": "syngo MR E11",
      "SpacingBetweenSlices": 2.7000001310982,
      "SpecificCharacterSet": "ISO_IR 100",
      "StudyID": "2",
      "StudyTime": "171118.173000",
      "TransmitCoilName": "Body",
      "VariableFlipAngleFlag": "N",
      "WindowCenterWidthExplanation": "Algo1"
    },
    "slices": {}
  },
  "time": {
    "samples": {
      "AcquisitionNumber": [1, 2, 3, 4, 5, 6, 7, 8, 9, 10, 11, 12, 13, 14, 15, 16, 17, 18, 19, 20, 21, 22, 23, 24, 25, 26, 27, 28, 29, 30, 31, 32, 33, 34, 35, 36, 37, 38, 39, 40, 41, 42, 43, 44, 45, 46, 47, 48, 49, 50, 51, 52, 53, 54, 55, 56, 57, 58, 59, 60, 61, 62, 63, 64, 65, 66, 67, 68, 69, 70, 71, 72, 73, 74, 75, 76, 77, 78, 79, 80, 81, 82, 83, 84, 85, 86, 87, 88, 89, 90, 91, 92, 93, 94, 95, 96, 97, 98, 99, 100, 101, 102, 103, 104, 105, 106, 107, 108, 109, 110, 111, 112, 113, 114, 115, 116, 117, 118, 119, 120, 121, 122, 123, 124, 125, 126, 127, 128, 129, 130, 131, 132, 133, 134, 135, 136, 137, 138, 139, 140, 141, 142, 143, 144, 145, 146, 147, 148, 149, 150, 151, 152, 153, 154, 155, 156, 157, 158, 159, 160, 161, 162, 163, 164, 165, 166, 167, 168, 169, 170, 171, 172, 173, 174, 175, 176, 177, 178, 179, 180, 181, 182, 183, 184, 185, 186, 187, 188, 189, 190, 191, 192, 193, 194, 195, 196, 197, 198, 199, 200, 201, 202, 203, 204, 205, 206, 207, 208, 209, 210, 211, 212, 213, 214, 215, 216, 217, 218, 219, 220, 221, 222, 223, 224, 225, 226, 227, 228, 229, 230, 231, 232, 233, 234, 235, 236, 237, 238, 239, 240, 241, 242, 243, 244, 245, 246, 247, 248, 249, 250, 251, 252, 253, 254, 255, 256, 257, 258, 259, 260, 261, 262, 263, 264, 265, 266, 267, 268, 269, 270, 271, 272, 273, 274, 275, 276, 277, 278, 279, 280, 281, 282, 283, 284, 285, 286, 287, 288, 289, 290, 291, 292, 293, 294, 295, 296, 297, 298, 299, 300, 301, 302, 303, 304, 305, 306, 307, 308, 309, 310, 311, 312, 313, 314, 315, 316, 317, 318, 319, 320, 321, 322, 323, 324, 325, 326, 327, 328, 329, 330, 331, 332, 333, 334, 335, 336, 337, 338, 339, 340, 341, 342, 343, 344, 345, 346, 347, 348, 349, 350, 351, 352, 353, 354, 355, 356, 357, 358, 359, 360, 361, 362, 363, 364, 365, 366, 367, 368, 369, 370, 371, 372, 373, 374, 375, 376, 377, 378, 379, 380, 381, 382, 383, 384, 385, 386, 387, 388, 389, 390, 391, 392, 393, 394, 395, 396, 397, 398, 399, 400, 401, 402, 403, 404, 405, 406, 407, 408, 409, 410, 411, 412, 413, 414, 415, 416, 417, 418, 419, 420, 421, 422, 423, 424, 425, 426, 427, 428, 429, 430, 431, 432, 433, 434, 435, 436, 437, 438, 439, 440, 441, 442, 443, 444, 445, 446, 447, 448, 449, 450, 451, 452, 453, 454, 455, 456, 457, 458, 459, 460, 461, 462, 463, 464, 465, 466, 467, 468, 469, 470, 471, 472, 473, 474, 475, 476, 477, 478, 479, 480, 481, 482, 483, 484, 485, 486, 487, 488, 489, 490, 491, 492, 493, 494, 495, 496, 497, 498, 499, 500, 501, 502, 503, 504, 505, 506, 507, 508, 509, 510, 511, 512, 513, 514, 515, 516, 517, 518, 519, 520, 521, 522, 523, 524, 525, 526, 527, 528, 529, 530, 531, 532, 533, 534, 535, 536, 537, 538, 539, 540, 541, 542, 543, 544, 545, 546, 547, 548, 549, 550, 551, 552, 553, 554, 555, 556, 557, 558, 559, 560, 561, 562, 563, 564, 565, 566, 567, 568, 569, 570, 571, 572, 573, 574, 575, 576, 577, 578, 579, 580, 581, 582, 583, 584, 585, 586, 587, 588, 589, 590, 591, 592, 593, 594, 595, 596, 597, 598, 599, 600, 601, 602, 603, 604, 605, 606, 607, 608, 609, 610, 611, 612, 613, 614, 615, 616, 617, 618, 619, 620, 621, 622, 623, 624, 625, 626, 627, 628, 629, 630, 631, 632, 633, 634, 635, 636, 637, 638, 639, 640, 641, 642, 643, 644, 645, 646, 647, 648, 649, 650, 651, 652, 653, 654, 655, 656, 657, 658, 659, 660, 661, 662, 663, 664, 665, 666, 667, 668, 669, 670, 671, 672, 673, 674, 675, 676, 677, 678, 679, 680, 681, 682, 683, 684, 685, 686, 687, 688, 689, 690, 691, 692, 693, 694, 695, 696, 697, 698, 699, 700, 701, 702, 703, 704, 705, 706, 707, 708, 709, 710, 711, 712, 713, 714, 715, 716, 717, 718, 719, 720, 721, 722, 723, 724, 725, 726, 727, 728, 729, 730, 731, 732, 733, 734, 735, 736, 737, 738, 739, 740, 741, 742, 743, 744, 745, 746, 747, 748, 749, 750, 751, 752, 753, 754, 755, 756, 757, 758, 759, 760, 761, 762, 763, 764, 765, 766, 767, 768, 769, 770, 771, 772, 773, 774, 775, 776, 777, 778, 779, 780, 781, 782, 783, 784, 785, 786, 787, 788, 789, 790, 791, 792, 793, 794, 795, 796, 797, 798, 799, 800, 801, 802, 803, 804, 805, 806, 807, 808, 809, 810, 811, 812, 813, 814, 815, 816, 817, 818, 819, 820, 821, 822, 823, 824, 825, 826, 827, 828, 829, 830, 831, 832, 833, 834, 835, 836, 837, 838, 839, 840, 841, 842, 843, 844, 845, 846, 847, 848, 849, 850, 851, 852, 853, 854, 855, 856, 857, 858, 859, 860, 861, 862, 863, 864, 865, 866, 867, 868, 869, 870, 871, 872],
      "AcquisitionTime": ["173046.702500", "173047.162500", "173047.622500", "173048.082500", "173048.542500", "173049.002500", "173049.462500", "173049.922500", "173050.382500", "173050.842500", "173051.302500", "173051.762500", "173052.222500", "173052.682500", "173053.142500", "173053.602500", "173054.062500", "173054.522500", "173054.982500", "173055.442500", "173055.902500", "173056.362500", "173056.822500", "173057.282500", "173057.742500", "173058.202500", "173058.662500", "173059.122500", "173059.582500", "173100.042500", "173100.502500", "173100.962500", "173101.422500", "173101.882500", "173102.342500", "173102.802500", "173103.262500", "173103.722500", "173104.182500", "173104.642500", "173105.102500", "173105.562500", "173106.022500", "173106.482500", "173106.942500", "173107.402500", "173107.862500", "173108.322500", "173108.782500", "173109.242500", "173109.702500", "173110.162500", "173110.622500", "173111.082500", "173111.542500", "173112.002500", "173112.462500", "173112.922500", "173113.382500", "173113.842500", "173114.302500", "173114.762500", "173115.222500", "173115.682500", "173116.142500", "173116.602500", "173117.062500", "173117.522500", "173117.982500", "173118.442500", "173118.902500", "173119.362500", "173119.822500", "173120.282500", "173120.742500", "173121.202500", "173121.662500", "173122.122500", "173122.582500", "173123.042500", "173123.502500", "173123.962500", "173124.422500", "173124.882500", "173125.342500", "173125.802500", "173126.262500", "173126.722500", "173127.182500", "173127.642500", "173128.102500", "173128.562500", "173129.022500", "173129.482500", "173129.942500", "173130.402500", "173130.862500", "173131.322500", "173131.782500", "173132.242500", "173132.702500", "173133.162500", "173133.622500", "173134.082500", "173134.542500", "173135.002500", "173135.462500", "173135.922500", "173136.382500", "173136.842500", "173137.302500", "173137.762500", "173138.222500", "173138.682500", "173139.142500", "173139.602500", "173140.062500", "173140.522500", "173140.982500", "173141.442500", "173141.902500", "173142.362500", "173142.822500", "173143.282500", "173143.742500", "173144.202500", "173144.662500", "173145.122500", "173145.582500", "173146.042500", "173146.502500", "173146.962500", "173147.422500", "173147.882500", "173148.342500", "173148.802500", "173149.262500", "173149.722500", "173150.182500", "173150.642500", "173151.102500", "173151.562500", "173152.022500", "173152.482500", "173152.942500", "173153.402500", "173153.862500", "173154.322500", "173154.782500", "173155.242500", "173155.702500", "173156.162500", "173156.622500", "173157.082500", "173157.542500", "173158.002500", "173158.462500", "173158.922500", "173159.382500", "173159.842500", "173200.302500", "173200.762500", "173201.222500", "173201.682500", "173202.142500", "173202.602500", "173203.062500", "173203.522500", "173203.982500", "173204.442500", "173204.902500", "173205.362500", "173205.822500", "173206.282500", "173206.742500", "173207.202500", "173207.662500", "173208.122500", "173208.582500", "173209.042500", "173209.502500", "173209.962500", "173210.422500", "173210.882500", "173211.342500", "173211.802500", "173212.262500", "173212.722500", "173213.182500", "173213.642500", "173214.102500", "173214.562500", "173215.022500", "173215.482500", "173215.942500", "173216.402500", "173216.862500", "173217.322500", "173217.782500", "173218.242500", "173218.702500", "173219.162500", "173219.622500", "173220.082500", "173220.542500", "173221.002500", "173221.462500", "173221.922500", "173222.382500", "173222.842500", "173223.302500", "173223.762500", "173224.222500", "173224.682500", "173225.142500", "173225.602500", "173226.062500", "173226.522500", "173226.982500", "173227.442500", "173227.902500", "173228.362500", "173228.822500", "173229.282500", "173229.742500", "173230.202500", "173230.662500", "173231.122500", "173231.582500", "173232.042500", "173232.502500", "173232.962500", "173233.422500", "173233.882500", "173234.342500", "173234.802500", "173235.262500", "173235.722500", "173236.182500", "173236.642500", "173237.102500", "173237.562500", "173238.022500", "173238.482500", "173238.942500", "173239.402500", "173239.862500", "173240.322500", "173240.782500", "173241.242500", "173241.702500", "173242.162500", "173242.622500", "173243.082500", "173243.542500", "173244.002500", "173244.462500", "173244.922500", "173245.382500", "173245.842500", "173246.302500", "173246.762500", "173247.222500", "173247.682500", "173248.142500", "173248.602500", "173249.062500", "173249.522500", "173249.982500", "173250.442500", "173250.902500", "173251.362500", "173251.822500", "173252.282500", "173252.742500", "173253.202500", "173253.662500", "173254.122500", "173254.582500", "173255.042500", "173255.502500", "173255.962500", "173256.422500", "173256.882500", "173257.342500", "173257.802500", "173258.262500", "173258.722500", "173259.182500", "173259.642500", "173300.102500", "173300.562500", "173301.022500", "173301.482500", "173301.942500", "173302.402500", "173302.862500", "173303.322500", "173303.782500", "173304.242500", "173304.702500", "173305.162500", "173305.622500", "173306.082500", "173306.542500", "173307.002500", "173307.462500", "173307.922500", "173308.382500", "173308.842500", "173309.302500", "173309.762500", "173310.222500", "173310.682500", "173311.142500", "173311.602500", "173312.062500", "173312.522500", "173312.982500", "173313.442500", "173313.902500", "173314.362500", "173314.822500", "173315.282500", "173315.742500", "173316.202500", "173316.662500", "173317.122500", "173317.582500", "173318.042500", "173318.502500", "173318.962500", "173319.422500", "173319.882500", "173320.342500", "173320.802500", "173321.262500", "173321.722500", "173322.182500", "173322.642500", "173323.102500", "173323.562500", "173324.022500", "173324.482500", "173324.942500", "173325.402500", "173325.862500", "173326.322500", "173326.782500", "173327.242500", "173327.702500", "173328.162500", "173328.622500", "173329.082500", "173329.542500", "173330.002500", "173330.462500", "173330.922500", "173331.382500", "173331.842500", "173332.302500", "173332.762500", "173333.222500", "173333.682500", "173334.142500", "173334.602500", "173335.062500", "173335.522500", "173335.982500", "173336.442500", "173336.902500", "173337.362500", "173337.822500", "173338.282500", "173338.742500", "173339.202500", "173339.662500", "173340.122500", "173340.582500", "173341.042500", "173341.502500", "173341.962500", "173342.422500", "173342.882500", "173343.342500", "173343.802500", "173344.262500", "173344.722500", "173345.182500", "173345.642500", "173346.102500", "173346.562500", "173347.022500", "173347.482500", "173347.942500", "173348.402500", "173348.862500", "173349.322500", "173349.782500", "173350.242500", "173350.702500", "173351.162500", "173351.622500", "173352.082500", "173352.542500", "173353.002500", "173353.462500", "173353.922500", "173354.382500", "173354.842500", "173355.302500", "173355.762500", "173356.222500", "173356.682500", "173357.142500", "173357.602500", "173358.062500", "173358.522500", "173358.982500", "173359.442500", "173359.902500", "173400.362500", "173400.822500", "173401.282500", "173401.742500", "173402.202500", "173402.662500", "173403.122500", "173403.582500", "173404.042500", "173404.502500", "173404.962500", "173405.422500", "173405.882500", "173406.342500", "173406.802500", "173407.262500", "173407.722500", "173408.182500", "173408.642500", "173409.102500", "173409.562500", "173410.022500", "173410.482500", "173410.942500", "173411.402500", "173411.862500", "173412.322500", "173412.782500", "173413.242500", "173413.702500", "173414.162500", "173414.622500", "173415.082500", "173415.542500", "173416.002500", "173416.462500", "173416.922500", "173417.382500", "173417.842500", "173418.302500", "173418.762500", "173419.222500", "173419.682500", "173420.142500", "173420.602500", "173421.062500", "173421.522500", "173421.982500", "173422.442500", "173422.902500", "173423.362500", "173423.822500", "173424.282500", "173424.742500", "173425.202500", "173425.662500", "173426.122500", "173426.582500", "173427.042500", "173427.502500", "173427.962500", "173428.422500", "173428.882500", "173429.342500", "173429.802500", "173430.262500", "173430.722500", "173431.182500", "173431.642500", "173432.102500", "173432.562500", "173433.022500", "173433.482500", "173433.942500", "173434.402500", "173434.862500", "173435.322500", "173435.782500", "173436.242500", "173436.702500", "173437.162500", "173437.622500", "173438.082500", "173438.542500", "173439.002500", "173439.462500", "173439.922500", "173440.382500", "173440.842500", "173441.302500", "173441.762500", "173442.222500", "173442.682500", "173443.142500", "173443.602500", "173444.062500", "173444.522500", "173444.982500", "173445.442500", "173445.902500", "173446.362500", "173446.822500", "173447.282500", "173447.742500", "173448.202500", "173448.662500", "173449.122500", "173449.582500", "173450.042500", "173450.502500", "173450.962500", "173451.422500", "173451.882500", "173452.342500", "173452.802500", "173453.262500", "173453.722500", "173454.182500", "173454.642500", "173455.102500", "173455.562500", "173456.022500", "173456.482500", "173456.942500", "173457.402500", "173457.862500", "173458.322500", "173458.782500", "173459.242500", "173459.702500", "173500.162500", "173500.622500", "173501.082500", "173501.542500", "173502.002500", "173502.462500", "173502.922500", "173503.382500", "173503.842500", "173504.302500", "173504.762500", "173505.222500", "173505.682500", "173506.142500", "173506.602500", "173507.062500", "173507.522500", "173507.982500", "173508.442500", "173508.902500", "173509.362500", "173509.822500", "173510.282500", "173510.742500", "173511.202500", "173511.662500", "173512.122500", "173512.582500", "173513.042500", "173513.502500", "173513.962500", "173514.422500", "173514.882500", "173515.342500", "173515.802500", "173516.262500", "173516.722500", "173517.182500", "173517.642500", "173518.102500", "173518.562500", "173519.022500", "173519.482500", "173519.942500", "173520.402500", "173520.862500", "173521.322500", "173521.782500", "173522.242500", "173522.702500", "173523.162500", "173523.622500", "173524.082500", "173524.542500", "173525.002500", "173525.462500", "173525.922500", "173526.382500", "173526.842500", "173527.302500", "173527.762500", "173528.222500", "173528.682500", "173529.142500", "173529.602500", "173530.062500", "173530.522500", "173530.982500", "173531.442500", "173531.902500", "173532.362500", "173532.822500", "173533.282500", "173533.742500", "173534.202500", "173534.662500", "173535.122500", "173535.582500", "173536.042500", "173536.502500", "173536.962500", "173537.422500", "173537.882500", "173538.342500", "173538.802500", "173539.262500", "173539.722500", "173540.182500", "173540.642500", "173541.102500", "173541.562500", "173542.022500", "173542.482500", "173542.942500", "173543.402500", "173543.862500", "173544.322500", "173544.782500", "173545.242500", "173545.702500", "173546.162500", "173546.622500", "173547.082500", "173547.542500", "173548.002500", "173548.462500", "173548.922500", "173549.382500", "173549.842500", "173550.302500", "173550.762500", "173551.222500", "173551.682500", "173552.142500", "173552.602500", "173553.062500", "173553.522500", "173553.982500", "173554.442500", "173554.902500", "173555.362500", "173555.822500", "173556.282500", "173556.742500", "173557.202500", "173557.662500", "173558.122500", "173558.582500", "173559.042500", "173559.502500", "173559.962500", "173600.422500", "173600.882500", "173601.342500", "173601.802500", "173602.262500", "173602.722500", "173603.182500", "173603.642500", "173604.102500", "173604.562500", "173605.022500", "173605.482500", "173605.942500", "173606.402500", "173606.862500", "173607.322500", "173607.782500", "173608.242500", "173608.702500", "173609.162500", "173609.622500", "173610.082500", "173610.542500", "173611.002500", "173611.462500", "173611.922500", "173612.382500", "173612.842500", "173613.302500", "173613.762500", "173614.222500", "173614.682500", "173615.142500", "173615.602500", "173616.062500", "173616.522500", "173616.982500", "173617.442500", "173617.902500", "173618.362500", "173618.822500", "173619.282500", "173619.742500", "173620.202500", "173620.662500", "173621.122500", "173621.582500", "173622.042500", "173622.502500", "173622.962500", "173623.422500", "173623.882500", "173624.342500", "173624.802500", "173625.262500", "173625.722500", "173626.182500", "173626.642500", "173627.102500", "173627.562500", "173628.022500", "173628.482500", "173628.942500", "173629.402500", "173629.862500", "173630.322500", "173630.782500", "173631.242500", "173631.702500", "173632.162500", "173632.622500", "173633.082500", "173633.542500", "173634.002500", "173634.462500", "173634.922500", "173635.382500", "173635.842500", "173636.302500", "173636.762500", "173637.222500", "173637.682500", "173638.142500", "173638.602500", "173639.062500", "173639.522500", "173639.982500", "173640.442500", "173640.902500", "173641.362500", "173641.822500", "173642.282500", "173642.742500", "173643.202500", "173643.662500", "173644.122500", "173644.582500", "173645.042500", "173645.502500", "173645.962500", "173646.422500", "173646.882500", "173647.342500", "173647.802500", "173648.262500", "173648.722500", "173649.182500", "173649.642500", "173650.102500", "173650.562500", "173651.022500", "173651.482500", "173651.942500", "173652.402500", "173652.862500", "173653.322500", "173653.782500", "173654.242500", "173654.702500", "173655.162500", "173655.622500", "173656.082500", "173656.542500", "173657.002500", "173657.462500", "173657.922500", "173658.382500", "173658.842500", "173659.302500", "173659.762500", "173700.222500", "173700.682500", "173701.142500", "173701.602500", "173702.062500", "173702.522500", "173702.982500", "173703.442500", "173703.902500", "173704.362500", "173704.822500", "173705.282500", "173705.742500", "173706.202500", "173706.662500", "173707.122500", "173707.582500", "173708.042500", "173708.502500", "173708.962500", "173709.422500", "173709.882500", "173710.342500", "173710.802500", "173711.262500", "173711.722500", "173712.182500", "173712.642500", "173713.102500", "173713.562500", "173714.022500", "173714.482500", "173714.942500", "173715.402500", "173715.862500", "173716.322500", "173716.782500", "173717.242500", "173717.702500", "173718.162500", "173718.622500", "173719.082500", "173719.542500", "173720.002500", "173720.462500", "173720.922500", "173721.382500", "173721.842500", "173722.302500", "173722.762500", "173723.222500", "173723.682500", "173724.142500", "173724.602500", "173725.062500", "173725.522500", "173725.982500", "173726.442500", "173726.902500", "173727.362500"],
