{
  "AcquisitionMatrixPE": 82,
  "AcquisitionNumber": 1,
  "AcquisitionTime": "17:38:28.705000",
  "BandwidthPerPixelPhaseEncode": 24.888,
  "BaseResolution": 82,
  "BodyPartExamined": "BRAIN",
  "ConsistencyInfo": "N4_VE11E_LATEST_20181129",
  "ConversionSoftware": "dcm2niix",
  "ConversionSoftwareVersion": "v1.0.20201102",
  "DerivedVendorReportedEchoSpacing": 0.00049,
  "DeviceSerialNumber": "66112",
  "DwellTime": 2e-06,
  "EchoTime": 0.0272,
  "EchoTrainLength": 82,
  "EffectiveEchoSpacing": 0.00049,
  "FlipAngle": 44,
  "ImageComments": "Unaliased MB8/PE3",
  "ImageOrientationPatientDICOM": [0.995401, 0.0405339, -0.0867932, -0.0420678, 0.998988, -0.0159161],
  "ImageType": [
    "ORIGINAL",
    "PRIMARY",
    "M",
    "MB",
    "ND",
    "NORM",
    "MOSAIC"
],
  "ImagingFrequency": 123.259,
  "InPlanePhaseEncodingDirectionDICOM": "COL",
  "InstitutionAddress": "Maynard 3,Hanover,NH,US,03755",
  "InstitutionName": "Dartmouth College - PBS",
  "InstitutionalDepartmentName": "Department",
  "MRAcquisitionType": "2D",
  "MagneticFieldStrength": 3,
  "Manufacturer": "Siemens",
  "ManufacturersModelName": "Prisma",
  "Modality": "MR",
  "MultibandAccelerationFactor": 8,
  "PartialFourier": 1,
  "PatientPosition": "HFS",
  "PercentPhaseFOV": 100,
  "PercentSampling": 100,
  "PhaseEncodingDirection": "j-",
  "PhaseEncodingSteps": 82,
  "PhaseResolution": 1,
  "PixelBandwidth": 3050,
  "ProcedureStepDescription": "Wager_Wager^1076_spacetop",
  "ProtocolName": "func_run-04_task-social_acq-ap-mb8",
  "PulseSequenceDetails": "%CustomerSeq%\\cmrr_mbep2d_bold",
  "ReceiveCoilActiveElements": "HEA;HEP",
  "ReceiveCoilName": "Head_32",
  "ReconMatrixPE": 82,
  "RepetitionTime": 0.46,
  "SAR": 0.081078,
  "ScanOptions": "FS",
  "ScanningSequence": "EP",
  "SequenceName": "epfid2d1_82",
  "SequenceVariant": "SK\\SS",
  "SeriesDescription": "func_run-04_task-social_acq-ap-mb8",
  "SeriesNumber": 14,
  "ShimSetting": [4198, -7741, -7193, 435, -180, 129, 20, 41],
  "SliceThickness": 2.7,
  "SliceTiming": [0, 0.2525, 0.0625, 0.315, 0.125, 0.3775, 0.19, 0, 0.2525, 0.0625, 0.315, 0.125, 0.3775, 0.19, 0, 0.2525, 0.0625, 0.315, 0.125, 0.3775, 0.19, 0, 0.2525, 0.0625, 0.315, 0.125, 0.3775, 0.19, 0, 0.2525, 0.0625, 0.315, 0.125, 0.3775, 0.19, 0, 0.2525, 0.0625, 0.315, 0.125, 0.3775, 0.19, 0, 0.2525, 0.0625, 0.315, 0.125, 0.3775, 0.19, 0, 0.2525, 0.0625, 0.315, 0.125, 0.3775, 0.19],
  "SoftwareVersions": "syngo MR E11",
  "SpacingBetweenSlices": 2.7,
  "StationName": "AWP66112",
  "TaskName": "social",
  "TotalReadoutTime": 0.03969,
  "TxRefAmp": 232.454,
  "WipMemBlock": "2e7e7429-29ec-4879-b5f4-310156cd58ac||Sequence: R016 ve11e/master r/434b28f1; Aug  7 2019 18:53:46 by eja",
  "dcmmeta_affine": [
    [-2.6705892086029053, -0.11286469548940659, -0.23236265778541565, 117.4312515258789],
    [-0.10874950140714645, 2.6802117824554443, -0.05263418331742287, -102.65340423583984],
    [-0.23285986483097076, 0.042701832950115204, 2.6894679069519043, -56.507843017578125],
    [0.0, 0.0, 0.0, 1.0]
],
  "dcmmeta_reorient_transform": [
    [0.0, -1.0, 0.0, 81.0],
    [1.0, 0.0, 0.0, 0.0],
    [0.0, 0.0, 1.0, 0.0],
    [0.0, 0.0, 0.0, 1.0]
],
  "dcmmeta_shape": [82, 82, 56, 872],
  "dcmmeta_slice_dim": 2,
  "dcmmeta_version": 0.6,
  "global": {
    "const": {
      "AccessionNumber": "A004728",
      "AcquisitionMatrix": [82, 0, 0, 82],
      "AngioFlag": "N",
      "BitsAllocated": 16,
      "BitsStored": 16,
      "BodyPartExamined": "BRAIN",
      "Columns": 656,
      "EchoNumbers": 1,
      "EchoTime": 27.2,
      "EchoTrainLength": 82,
      "FlipAngle": 44.0,
      "HighBit": 15,
      "ImageOrientationPatient": [0.99540139610052, 0.04053390546593, -0.0867932206386, -0.0420677499861, 0.99898797840349, -0.0159161369815],
      "ImagePositionPatient": [-842.35613253065, -914.87561420663, 26.037213850378],
      "ImageType": [
        "ORIGINAL",
        "PRIMARY",
        "M",
        "MB",
        "ND",
        "NORM",
        "MOSAIC"
],
      "ImagedNucleus": "1H",
      "ImagingFrequency": 123.259055,
      "InPlanePhaseEncodingDirection": "COL",
      "MRAcquisitionType": "2D",
      "MagneticFieldStrength": 3.0,
      "Manufacturer": "SIEMENS",
      "ManufacturerModelName": "Prisma",
      "Modality": "MR",
      "NumberOfAverages": 1.0,
      "NumberOfPhaseEncodingSteps": 82,
      "PercentPhaseFieldOfView": 100.0,
      "PercentSampling": 100.0,
      "PerformedProcedureStepStartTime": "171118.210000",
      "PhotometricInterpretation": "MONOCHROME2",
      "PixelBandwidth": 3050.0,
      "PixelRepresentation": 0,
      "PixelSpacing": [2.6829268932343, 2.6829268932343],
      "ProtocolName": "func_run-04_task-social_acq-ap-mb8",
      "RepetitionTime": 460.0,
      "Rows": 656,
      "SAR": 0.08107799965476,
      "SamplesPerPixel": 1,
      "ScanOptions": "FS",
      "ScanningSequence": "EP",
      "SequenceName": "epfid2d1_82",
      "SequenceVariant": [
        "SK",
        "SS"
],
      "SeriesDescription": "func_run-04_task-social_acq-ap-mb8",
      "SeriesNumber": 14,
      "SeriesTime": "173856.776000",
      "SliceLocation": -64.392437526362,
      "SliceThickness": 2.7000000476837,
      "SmallestImagePixelValue": 0,
      "SoftwareVersions": "syngo MR E11",
      "SpacingBetweenSlices": 2.7000001310982,
      "SpecificCharacterSet": "ISO_IR 100",
      "StudyID": "2",
      "StudyTime": "171118.173000",
      "TransmitCoilName": "Body",
      "VariableFlipAngleFlag": "N",
      "WindowCenterWidthExplanation": "Algo1"
    },
    "slices": {}
  },
  "time": {
    "samples": {
      "AcquisitionNumber": [1, 2, 3, 4, 5, 6, 7, 8, 9, 10, 11, 12, 13, 14, 15, 16, 17, 18, 19, 20, 21, 22, 23, 24, 25, 26, 27, 28, 29, 30, 31, 32, 33, 34, 35, 36, 37, 38, 39, 40, 41, 42, 43, 44, 45, 46, 47, 48, 49, 50, 51, 52, 53, 54, 55, 56, 57, 58, 59, 60, 61, 62, 63, 64, 65, 66, 67, 68, 69, 70, 71, 72, 73, 74, 75, 76, 77, 78, 79, 80, 81, 82, 83, 84, 85, 86, 87, 88, 89, 90, 91, 92, 93, 94, 95, 96, 97, 98, 99, 100, 101, 102, 103, 104, 105, 106, 107, 108, 109, 110, 111, 112, 113, 114, 115, 116, 117, 118, 119, 120, 121, 122, 123, 124, 125, 126, 127, 128, 129, 130, 131, 132, 133, 134, 135, 136, 137, 138, 139, 140, 141, 142, 143, 144, 145, 146, 147, 148, 149, 150, 151, 152, 153, 154, 155, 156, 157, 158, 159, 160, 161, 162, 163, 164, 165, 166, 167, 168, 169, 170, 171, 172, 173, 174, 175, 176, 177, 178, 179, 180, 181, 182, 183, 184, 185, 186, 187, 188, 189, 190, 191, 192, 193, 194, 195, 196, 197, 198, 199, 200, 201, 202, 203, 204, 205, 206, 207, 208, 209, 210, 211, 212, 213, 214, 215, 216, 217, 218, 219, 220, 221, 222, 223, 224, 225, 226, 227, 228, 229, 230, 231, 232, 233, 234, 235, 236, 237, 238, 239, 240, 241, 242, 243, 244, 245, 246, 247, 248, 249, 250, 251, 252, 253, 254, 255, 256, 257, 258, 259, 260, 261, 262, 263, 264, 265, 266, 267, 268, 269, 270, 271, 272, 273, 274, 275, 276, 277, 278, 279, 280, 281, 282, 283, 284, 285, 286, 287, 288, 289, 290, 291, 292, 293, 294, 295, 296, 297, 298, 299, 300, 301, 302, 303, 304, 305, 306, 307, 308, 309, 310, 311, 312, 313, 314, 315, 316, 317, 318, 319, 320, 321, 322, 323, 324, 325, 326, 327, 328, 329, 330, 331, 332, 333, 334, 335, 336, 337, 338, 339, 340, 341, 342, 343, 344, 345, 346, 347, 348, 349, 350, 351, 352, 353, 354, 355, 356, 357, 358, 359, 360, 361, 362, 363, 364, 365, 366, 367, 368, 369, 370, 371, 372, 373, 374, 375, 376, 377, 378, 379, 380, 381, 382, 383, 384, 385, 386, 387, 388, 389, 390, 391, 392, 393, 394, 395, 396, 397, 398, 399, 400, 401, 402, 403, 404, 405, 406, 407, 408, 409, 410, 411, 412, 413, 414, 415, 416, 417, 418, 419, 420, 421, 422, 423, 424, 425, 426, 427, 428, 429, 430, 431, 432, 433, 434, 435, 436, 437, 438, 439, 440, 441, 442, 443, 444, 445, 446, 447, 448, 449, 450, 451, 452, 453, 454, 455, 456, 457, 458, 459, 460, 461, 462, 463, 464, 465, 466, 467, 468, 469, 470, 471, 472, 473, 474, 475, 476, 477, 478, 479, 480, 481, 482, 483, 484, 485, 486, 487, 488, 489, 490, 491, 492, 493, 494, 495, 496, 497, 498, 499, 500, 501, 502, 503, 504, 505, 506, 507, 508, 509, 510, 511, 512, 513, 514, 515, 516, 517, 518, 519, 520, 521, 522, 523, 524, 525, 526, 527, 528, 529, 530, 531, 532, 533, 534, 535, 536, 537, 538, 539, 540, 541, 542, 543, 544, 545, 546, 547, 548, 549, 550, 551, 552, 553, 554, 555, 556, 557, 558, 559, 560, 561, 562, 563, 564, 565, 566, 567, 568, 569, 570, 571, 572, 573, 574, 575, 576, 577, 578, 579, 580, 581, 582, 583, 584, 585, 586, 587, 588, 589, 590, 591, 592, 593, 594, 595, 596, 597, 598, 599, 600, 601, 602, 603, 604, 605, 606, 607, 608, 609, 610, 611, 612, 613, 614, 615, 616, 617, 618, 619, 620, 621, 622, 623, 624, 625, 626, 627, 628, 629, 630, 631, 632, 633, 634, 635, 636, 637, 638, 639, 640, 641, 642, 643, 644, 645, 646, 647, 648, 649, 650, 651, 652, 653, 654, 655, 656, 657, 658, 659, 660, 661, 662, 663, 664, 665, 666, 667, 668, 669, 670, 671, 672, 673, 674, 675, 676, 677, 678, 679, 680, 681, 682, 683, 684, 685, 686, 687, 688, 689, 690, 691, 692, 693, 694, 695, 696, 697, 698, 699, 700, 701, 702, 703, 704, 705, 706, 707, 708, 709, 710, 711, 712, 713, 714, 715, 716, 717, 718, 719, 720, 721, 722, 723, 724, 725, 726, 727, 728, 729, 730, 731, 732, 733, 734, 735, 736, 737, 738, 739, 740, 741, 742, 743, 744, 745, 746, 747, 748, 749, 750, 751, 752, 753, 754, 755, 756, 757, 758, 759, 760, 761, 762, 763, 764, 765, 766, 767, 768, 769, 770, 771, 772, 773, 774, 775, 776, 777, 778, 779, 780, 781, 782, 783, 784, 785, 786, 787, 788, 789, 790, 791, 792, 793, 794, 795, 796, 797, 798, 799, 800, 801, 802, 803, 804, 805, 806, 807, 808, 809, 810, 811, 812, 813, 814, 815, 816, 817, 818, 819, 820, 821, 822, 823, 824, 825, 826, 827, 828, 829, 830, 831, 832, 833, 834, 835, 836, 837, 838, 839, 840, 841, 842, 843, 844, 845, 846, 847, 848, 849, 850, 851, 852, 853, 854, 855, 856, 857, 858, 859, 860, 861, 862, 863, 864, 865, 866, 867, 868, 869, 870, 871, 872],
      "AcquisitionTime": ["173828.705000", "173829.165000", "173829.625000", "173830.085000", "173830.545000", "173831.005000", "173831.465000", "173831.925000", "173832.385000", "173832.845000", "173833.305000", "173833.765000", "173834.225000", "173834.685000", "173835.145000", "173835.605000", "173836.065000", "173836.525000", "173836.985000", "173837.445000", "173837.905000", "173838.365000", "173838.825000", "173839.285000", "173839.745000", "173840.205000", "173840.665000", "173841.125000", "173841.585000", "173842.045000", "173842.505000", "173842.965000", "173843.425000", "173843.885000", "173844.345000", "173844.805000", "173845.265000", "173845.725000", "173846.185000", "173846.645000", "173847.105000", "173847.565000", "173848.025000", "173848.485000", "173848.945000", "173849.405000", "173849.865000", "173850.325000", "173850.785000", "173851.245000", "173851.705000", "173852.165000", "173852.625000", "173853.085000", "173853.545000", "173854.005000", "173854.465000", "173854.925000", "173855.385000", "173855.845000", "173856.305000", "173856.765000", "173857.225000", "173857.685000", "173858.145000", "173858.605000", "173859.065000", "173859.525000", "173859.985000", "173900.445000", "173900.905000", "173901.365000", "173901.825000", "173902.285000", "173902.745000", "173903.205000", "173903.665000", "173904.125000", "173904.585000", "173905.045000", "173905.505000", "173905.965000", "173906.425000", "173906.885000", "173907.345000", "173907.805000", "173908.265000", "173908.725000", "173909.185000", "173909.645000", "173910.105000", "173910.565000", "173911.025000", "173911.485000", "173911.945000", "173912.405000", "173912.865000", "173913.325000", "173913.785000", "173914.245000", "173914.705000", "173915.165000", "173915.625000", "173916.085000", "173916.545000", "173917.005000", "173917.465000", "173917.925000", "173918.385000", "173918.845000", "173919.305000", "173919.765000", "173920.225000", "173920.685000", "173921.145000", "173921.605000", "173922.065000", "173922.525000", "173922.985000", "173923.445000", "173923.905000", "173924.365000", "173924.825000", "173925.285000", "173925.745000", "173926.205000", "173926.665000", "173927.125000", "173927.585000", "173928.045000", "173928.505000", "173928.965000", "173929.425000", "173929.885000", "173930.345000", "173930.805000", "173931.265000", "173931.725000", "173932.185000", "173932.645000", "173933.105000", "173933.565000", "173934.025000", "173934.485000", "173934.945000", "173935.405000", "173935.865000", "173936.325000", "173936.785000", "173937.245000", "173937.705000", "173938.165000", "173938.625000", "173939.085000", "173939.545000", "173940.005000", "173940.465000", "173940.925000", "173941.385000", "173941.845000", "173942.305000", "173942.765000", "173943.225000", "173943.685000", "173944.145000", "173944.605000", "173945.065000", "173945.525000", "173945.985000", "173946.445000", "173946.905000", "173947.365000", "173947.825000", "173948.285000", "173948.745000", "173949.205000", "173949.665000", "173950.125000", "173950.585000", "173951.045000", "173951.505000", "173951.965000", "173952.425000", "173952.885000", "173953.345000", "173953.805000", "173954.265000", "173954.725000", "173955.185000", "173955.645000", "173956.105000", "173956.565000", "173957.025000", "173957.485000", "173957.945000", "173958.405000", "173958.865000", "173959.325000", "173959.785000", "174000.245000", "174000.705000", "174001.165000", "174001.625000", "174002.085000", "174002.545000", "174003.005000", "174003.465000", "174003.925000", "174004.385000", "174004.845000", "174005.305000", "174005.765000", "174006.225000", "174006.685000", "174007.145000", "174007.605000", "174008.065000", "174008.525000", "174008.985000", "174009.445000", "174009.905000", "174010.365000", "174010.825000", "174011.285000", "174011.745000", "174012.205000", "174012.665000", "174013.125000", "174013.585000", "174014.045000", "174014.505000", "174014.965000", "174015.425000", "174015.885000", "174016.345000", "174016.805000", "174017.265000", "174017.725000", "174018.185000", "174018.645000", "174019.105000", "174019.565000", "174020.025000", "174020.485000", "174020.945000", "174021.405000", "174021.865000", "174022.325000", "174022.785000", "174023.245000", "174023.705000", "174024.165000", "174024.625000", "174025.085000", "174025.545000", "174026.005000", "174026.465000", "174026.925000", "174027.385000", "174027.845000", "174028.305000", "174028.765000", "174029.225000", "174029.685000", "174030.145000", "174030.605000", "174031.065000", "174031.525000", "174031.985000", "174032.445000", "174032.905000", "174033.365000", "174033.825000", "174034.285000", "174034.745000", "174035.205000", "174035.665000", "174036.125000", "174036.585000", "174037.045000", "174037.505000", "174037.965000", "174038.425000", "174038.885000", "174039.345000", "174039.805000", "174040.265000", "174040.725000", "174041.185000", "174041.645000", "174042.105000", "174042.565000", "174043.025000", "174043.485000", "174043.945000", "174044.405000", "174044.865000", "174045.325000", "174045.785000", "174046.245000", "174046.705000", "174047.165000", "174047.625000", "174048.085000", "174048.545000", "174049.005000", "174049.465000", "174049.925000", "174050.385000", "174050.845000", "174051.305000", "174051.765000", "174052.225000", "174052.685000", "174053.145000", "174053.605000", "174054.065000", "174054.525000", "174054.985000", "174055.445000", "174055.905000", "174056.365000", "174056.825000", "174057.285000", "174057.745000", "174058.205000", "174058.665000", "174059.125000", "174059.585000", "174100.045000", "174100.505000", "174100.965000", "174101.425000", "174101.885000", "174102.345000", "174102.805000", "174103.265000", "174103.725000", "174104.185000", "174104.645000", "174105.105000", "174105.565000", "174106.025000", "174106.485000", "174106.945000", "174107.405000", "174107.865000", "174108.325000", "174108.785000", "174109.245000", "174109.705000", "174110.165000", "174110.625000", "174111.085000", "174111.545000", "174112.005000", "174112.465000", "174112.925000", "174113.385000", "174113.845000", "174114.305000", "174114.765000", "174115.225000", "174115.685000", "174116.145000", "174116.605000", "174117.065000", "174117.525000", "174117.985000", "174118.445000", "174118.905000", "174119.365000", "174119.825000", "174120.285000", "174120.745000", "174121.205000", "174121.665000", "174122.125000", "174122.585000", "174123.045000", "174123.505000", "174123.965000", "174124.425000", "174124.885000", "174125.345000", "174125.805000", "174126.265000", "174126.725000", "174127.185000", "174127.645000", "174128.105000", "174128.565000", "174129.025000", "174129.485000", "174129.945000", "174130.405000", "174130.865000", "174131.325000", "174131.785000", "174132.245000", "174132.705000", "174133.165000", "174133.625000", "174134.085000", "174134.545000", "174135.005000", "174135.465000", "174135.925000", "174136.385000", "174136.845000", "174137.305000", "174137.765000", "174138.225000", "174138.685000", "174139.145000", "174139.605000", "174140.065000", "174140.525000", "174140.985000", "174141.445000", "174141.905000", "174142.365000", "174142.825000", "174143.285000", "174143.745000", "174144.205000", "174144.665000", "174145.125000", "174145.585000", "174146.045000", "174146.505000", "174146.965000", "174147.425000", "174147.885000", "174148.345000", "174148.805000", "174149.265000", "174149.725000", "174150.185000", "174150.645000", "174151.105000", "174151.565000", "174152.025000", "174152.485000", "174152.945000", "174153.405000", "174153.865000", "174154.325000", "174154.785000", "174155.245000", "174155.705000", "174156.165000", "174156.625000", "174157.085000", "174157.545000", "174158.005000", "174158.465000", "174158.925000", "174159.385000", "174159.845000", "174200.305000", "174200.765000", "174201.225000", "174201.685000", "174202.145000", "174202.605000", "174203.065000", "174203.525000", "174203.985000", "174204.445000", "174204.905000", "174205.365000", "174205.825000", "174206.285000", "174206.745000", "174207.205000", "174207.665000", "174208.125000", "174208.585000", "174209.045000", "174209.505000", "174209.965000", "174210.425000", "174210.885000", "174211.345000", "174211.805000", "174212.265000", "174212.725000", "174213.185000", "174213.645000", "174214.105000", "174214.565000", "174215.025000", "174215.485000", "174215.945000", "174216.405000", "174216.865000", "174217.325000", "174217.785000", "174218.245000", "174218.705000", "174219.165000", "174219.625000", "174220.085000", "174220.545000", "174221.005000", "174221.465000", "174221.925000", "174222.385000", "174222.845000", "174223.305000", "174223.765000", "174224.225000", "174224.685000", "174225.145000", "174225.605000", "174226.065000", "174226.525000", "174226.985000", "174227.445000", "174227.905000", "174228.365000", "174228.825000", "174229.285000", "174229.745000", "174230.205000", "174230.665000", "174231.125000", "174231.585000", "174232.045000", "174232.505000", "174232.965000", "174233.425000", "174233.885000", "174234.345000", "174234.805000", "174235.265000", "174235.725000", "174236.185000", "174236.645000", "174237.105000", "174237.565000", "174238.025000", "174238.485000", "174238.945000", "174239.405000", "174239.865000", "174240.325000", "174240.785000", "174241.245000", "174241.705000", "174242.165000", "174242.625000", "174243.085000", "174243.545000", "174244.005000", "174244.465000", "174244.925000", "174245.385000", "174245.845000", "174246.305000", "174246.765000", "174247.225000", "174247.685000", "174248.145000", "174248.605000", "174249.065000", "174249.525000", "174249.985000", "174250.445000", "174250.905000", "174251.365000", "174251.825000", "174252.285000", "174252.745000", "174253.205000", "174253.665000", "174254.125000", "174254.585000", "174255.045000", "174255.505000", "174255.965000", "174256.425000", "174256.885000", "174257.345000", "174257.805000", "174258.265000", "174258.725000", "174259.185000", "174259.645000", "174300.105000", "174300.565000", "174301.025000", "174301.485000", "174301.945000", "174302.405000", "174302.865000", "174303.325000", "174303.785000", "174304.245000", "174304.705000", "174305.165000", "174305.625000", "174306.085000", "174306.545000", "174307.005000", "174307.465000", "174307.925000", "174308.385000", "174308.845000", "174309.305000", "174309.765000", "174310.225000", "174310.685000", "174311.145000", "174311.605000", "174312.065000", "174312.525000", "174312.985000", "174313.445000", "174313.905000", "174314.365000", "174314.825000", "174315.285000", "174315.745000", "174316.205000", "174316.665000", "174317.125000", "174317.585000", "174318.045000", "174318.505000", "174318.965000", "174319.425000", "174319.885000", "174320.345000", "174320.805000", "174321.265000", "174321.725000", "174322.185000", "174322.645000", "174323.105000", "174323.565000", "174324.025000", "174324.485000", "174324.945000", "174325.405000", "174325.865000", "174326.325000", "174326.785000", "174327.245000", "174327.705000", "174328.165000", "174328.625000", "174329.085000", "174329.545000", "174330.005000", "174330.465000", "174330.925000", "174331.385000", "174331.845000", "174332.305000", "174332.765000", "174333.225000", "174333.685000", "174334.145000", "174334.605000", "174335.065000", "174335.525000", "174335.985000", "174336.445000", "174336.905000", "174337.365000", "174337.825000", "174338.285000", "174338.745000", "174339.205000", "174339.665000", "174340.125000", "174340.585000", "174341.045000", "174341.505000", "174341.965000", "174342.425000", "174342.885000", "174343.345000", "174343.805000", "174344.265000", "174344.725000", "174345.185000", "174345.645000", "174346.105000", "174346.565000", "174347.025000", "174347.485000", "174347.945000", "174348.405000", "174348.865000", "174349.325000", "174349.785000", "174350.245000", "174350.705000", "174351.165000", "174351.625000", "174352.085000", "174352.545000", "174353.005000", "174353.465000", "174353.925000", "174354.385000", "174354.845000", "174355.305000", "174355.765000", "174356.225000", "174356.685000", "174357.145000", "174357.605000", "174358.065000", "174358.525000", "174358.985000", "174359.445000", "174359.905000", "174400.365000", "174400.825000", "174401.285000", "174401.745000", "174402.205000", "174402.665000", "174403.125000", "174403.585000", "174404.045000", "174404.505000", "174404.965000", "174405.425000", "174405.885000", "174406.345000", "174406.805000", "174407.265000", "174407.725000", "174408.185000", "174408.645000", "174409.105000", "174409.565000", "174410.025000", "174410.485000", "174410.945000", "174411.405000", "174411.865000", "174412.325000", "174412.785000", "174413.245000", "174413.705000", "174414.165000", "174414.625000", "174415.085000", "174415.545000", "174416.005000", "174416.465000", "174416.925000", "174417.385000", "174417.845000", "174418.305000", "174418.765000", "174419.225000", "174419.685000", "174420.145000", "174420.605000", "174421.065000", "174421.525000", "174421.985000", "174422.445000", "174422.905000", "174423.365000", "174423.825000", "174424.285000", "174424.745000", "174425.205000", "174425.665000", "174426.125000", "174426.585000", "174427.045000", "174427.505000", "174427.965000", "174428.425000", "174428.885000", "174429.345000", "174429.805000", "174430.265000", "174430.725000", "174431.185000", "174431.645000", "174432.105000", "174432.565000", "174433.025000", "174433.485000", "174433.945000", "174434.405000", "174434.865000", "174435.325000", "174435.785000", "174436.245000", "174436.705000", "174437.165000", "174437.625000", "174438.085000", "174438.545000", "174439.005000", "174439.465000", "174439.925000", "174440.385000", "174440.845000", "174441.305000", "174441.765000", "174442.225000", "174442.685000", "174443.145000", "174443.605000", "174444.065000", "174444.525000", "174444.985000", "174445.445000", "174445.905000", "174446.365000", "174446.825000", "174447.285000", "174447.745000", "174448.205000", "174448.665000", "174449.125000", "174449.585000", "174450.045000", "174450.505000", "174450.965000", "174451.425000", "174451.885000", "174452.345000", "174452.805000", "174453.265000", "174453.725000", "174454.185000", "174454.645000", "174455.105000", "174455.565000", "174456.025000", "174456.485000", "174456.945000", "174457.405000", "174457.865000", "174458.325000", "174458.785000", "174459.245000", "174459.705000", "174500.165000", "174500.625000", "174501.085000", "174501.545000", "174502.005000", "174502.465000", "174502.925000", "174503.385000", "174503.845000", "174504.305000", "174504.765000", "174505.225000", "174505.685000", "174506.145000", "174506.605000", "174507.065000", "174507.525000", "174507.985000", "174508.445000", "174508.905000", "174509.365000"],
