{
  "AcquisitionMatrixPE": 82,
  "AcquisitionNumber": 1,
  "AcquisitionTime": "14:07:3.985000",
  "BandwidthPerPixelPhaseEncode": 24.888,
  "BaseResolution": 82,
  "BodyPartExamined": "BRAIN",
  "ConsistencyInfo": "N4_VE11C_LATEST_20160120",
  "ConversionSoftware": "dcm2niix",
  "ConversionSoftwareVersion": "v1.0.20201102",
  "DerivedVendorReportedEchoSpacing": 0.00049,
  "DeviceSerialNumber": "66112",
  "DwellTime": 2e-06,
  "EchoTime": 0.0272,
  "EchoTrainLength": 82,
  "EffectiveEchoSpacing": 0.00049,
  "FlipAngle": 44,
  "ImageComments": "Unaliased MB8/PE3",
  "ImageOrientationPatientDICOM": [0.997785, -0.0283759, 0.0601717, 0.0278706, 0.999569, 0.00921956],
  "ImageType": [
    "ORIGINAL",
    "PRIMARY",
    "M",
    "MB",
    "ND",
    "NORM",
    "MOSAIC"
],
  "ImagingFrequency": 123.252,
  "InPlanePhaseEncodingDirectionDICOM": "COL",
  "InstitutionAddress": "Maynard 3,Hanover,NH,US,03755",
  "InstitutionName": "Dartmouth College - PBS",
  "InstitutionalDepartmentName": "Department",
  "MRAcquisitionType": "2D",
  "MagneticFieldStrength": 3,
  "Manufacturer": "Siemens",
  "ManufacturersModelName": "Prisma",
  "Modality": "MR",
  "MultibandAccelerationFactor": 8,
  "PartialFourier": 1,
  "PatientPosition": "HFS",
  "PercentPhaseFOV": 100,
  "PercentSampling": 100,
  "PhaseEncodingDirection": "j-",
  "PhaseEncodingSteps": 82,
  "PhaseResolution": 1,
  "PixelBandwidth": 3050,
  "ProcedureStepDescription": "Wager_Wager^1076_spacetop",
  "ProtocolName": "func_run-03_task-alignvideo_acq-ap-mb8",
  "PulseSequenceDetails": "%CustomerSeq%\\cmrr_mbep2d_bold",
  "ReceiveCoilActiveElements": "HEA;HEP",
  "ReceiveCoilName": "Head_32",
  "ReconMatrixPE": 82,
  "RepetitionTime": 0.46,
  "SAR": 0.0783145,
  "ScanOptions": "FS",
  "ScanningSequence": "EP",
  "SequenceName": "epfid2d1_82",
  "SequenceVariant": "SK\\SS",
  "SeriesDescription": "func_run-03_task-alignvideo_acq-ap-mb8",
  "SeriesNumber": 34,
  "ShimSetting": [4145, -7717, -7317, 646, -111, -33, -80, 106],
  "SliceThickness": 2.7,
  "SliceTiming": [0, 0.2525, 0.065, 0.315, 0.1275, 0.3775, 0.19, 0, 0.2525, 0.065, 0.315, 0.1275, 0.3775, 0.19, 0, 0.2525, 0.065, 0.315, 0.1275, 0.3775, 0.19, 0, 0.2525, 0.065, 0.315, 0.1275, 0.3775, 0.19, 0, 0.2525, 0.065, 0.315, 0.1275, 0.3775, 0.19, 0, 0.2525, 0.065, 0.315, 0.1275, 0.3775, 0.19, 0, 0.2525, 0.065, 0.315, 0.1275, 0.3775, 0.19, 0, 0.2525, 0.065, 0.315, 0.1275, 0.3775, 0.19],
  "SoftwareVersions": "syngo MR E11",
  "SpacingBetweenSlices": 2.7,
  "StationName": "AWP66112",
  "TaskName": "alignvideo",
  "TotalReadoutTime": 0.03969,
  "TxRefAmp": 222.29,
  "WipMemBlock": "3662ca56-b379-4235-81f8-df276f7d896c||Sequence: R016 ve11c/master r/e634e98; Dec 19 2017 11:00:25 by eja",
  "dcmmeta_affine": [
    [-2.676983118057251, 0.07477486878633499, 0.16310001909732819, 105.92430877685547],
    [0.07613039761781693, 2.6817705631256104, 0.020309703424572945, -104.74772644042969],
    [0.16143636405467987, -0.024735409766435623, 2.694992780685425, -67.274658203125],
    [0.0, 0.0, 0.0, 1.0]
],
  "dcmmeta_reorient_transform": [
    [0.0, -1.0, 0.0, 81.0],
    [1.0, 0.0, 0.0, 0.0],
    [0.0, 0.0, 1.0, 0.0],
    [0.0, 0.0, 0.0, 1.0]
],
  "dcmmeta_shape": [82, 82, 56, 1065],
  "dcmmeta_slice_dim": 2,
  "dcmmeta_version": 0.6,
  "global": {
    "const": {
      "AccessionNumber": "A003479",
      "AcquisitionMatrix": [82, 0, 0, 82],
      "AngioFlag": "N",
      "BitsAllocated": 16,
      "BitsStored": 16,
      "BodyPartExamined": "BRAIN",
      "Columns": 656,
      "EchoNumbers": 1,
      "EchoTime": 27.2,
      "EchoTrainLength": 82,
      "FlipAngle": 44.0,
      "HighBit": 15,
      "ImageOrientationPatient": [0.99778463214059, -0.0283758758752, 0.0601717336661, 0.02787063315467, 0.99956902087268, 0.00921956176765],
      "ImagePositionPatient": [-901.73565024966, -860.29443291672, -122.70952500082],
      "ImageType": [
        "ORIGINAL",
        "PRIMARY",
        "M",
        "MB",
        "ND",
        "NORM",
        "MOSAIC"
],
      "ImagedNucleus": "1H",
      "ImagingFrequency": 123.2522,
      "InPlanePhaseEncodingDirection": "COL",
      "MRAcquisitionType": "2D",
      "MagneticFieldStrength": 3.0,
      "Manufacturer": "SIEMENS",
      "ManufacturerModelName": "Prisma",
      "Modality": "MR",
      "NumberOfAverages": 1.0,
      "NumberOfPhaseEncodingSteps": 82,
      "PercentPhaseFieldOfView": 100.0,
      "PercentSampling": 100.0,
      "PerformedProcedureStepStartTime": "120331.434000",
      "PhotometricInterpretation": "MONOCHROME2",
      "PixelBandwidth": 3050.0,
      "PixelRepresentation": 0,
      "PixelSpacing": [2.6829268932343, 2.6829268932343],
      "ProtocolName": "func_run-03_task-alignvideo_acq-ap-mb8",
      "RepetitionTime": 460.0,
      "Rows": 656,
      "SAR": 0.07831445963525,
      "SamplesPerPixel": 1,
      "ScanOptions": "FS",
      "ScanningSequence": "EP",
      "SequenceName": "epfid2d1_82",
      "SequenceVariant": [
        "SK",
        "SS"
],
      "SeriesDescription": "func_run-03_task-alignvideo_acq-ap-mb8",
      "SeriesNumber": 34,
      "SeriesTime": "140724.141000",
      "SliceLocation": -61.539204961622,
      "SliceThickness": 2.7000000476837,
      "SmallestImagePixelValue": 0,
      "SoftwareVersions": "syngo MR E11",
      "SpacingBetweenSlices": 2.6999999442435,
      "SpecificCharacterSet": "ISO_IR 100",
      "StudyID": "1",
      "StudyTime": "120331.309000",
      "TransmitCoilName": "Body",
      "VariableFlipAngleFlag": "N",
      "WindowCenterWidthExplanation": "Algo1",
      "dBdt": 0.0},
    "slices": {}
  },
  "time": {
    "samples": {
      "AcquisitionNumber": [1, 2, 3, 4, 5, 6, 7, 8, 9, 10, 11, 12, 13, 14, 15, 16, 17, 18, 19, 20, 21, 22, 23, 24, 25, 26, 27, 28, 29, 30, 31, 32, 33, 34, 35, 36, 37, 38, 39, 40, 41, 42, 43, 44, 45, 46, 47, 48, 49, 50, 51, 52, 53, 54, 55, 56, 57, 58, 59, 60, 61, 62, 63, 64, 65, 66, 67, 68, 69, 70, 71, 72, 73, 74, 75, 76, 77, 78, 79, 80, 81, 82, 83, 84, 85, 86, 87, 88, 89, 90, 91, 92, 93, 94, 95, 96, 97, 98, 99, 100, 101, 102, 103, 104, 105, 106, 107, 108, 109, 110, 111, 112, 113, 114, 115, 116, 117, 118, 119, 120, 121, 122, 123, 124, 125, 126, 127, 128, 129, 130, 131, 132, 133, 134, 135, 136, 137, 138, 139, 140, 141, 142, 143, 144, 145, 146, 147, 148, 149, 150, 151, 152, 153, 154, 155, 156, 157, 158, 159, 160, 161, 162, 163, 164, 165, 166, 167, 168, 169, 170, 171, 172, 173, 174, 175, 176, 177, 178, 179, 180, 181, 182, 183, 184, 185, 186, 187, 188, 189, 190, 191, 192, 193, 194, 195, 196, 197, 198, 199, 200, 201, 202, 203, 204, 205, 206, 207, 208, 209, 210, 211, 212, 213, 214, 215, 216, 217, 218, 219, 220, 221, 222, 223, 224, 225, 226, 227, 228, 229, 230, 231, 232, 233, 234, 235, 236, 237, 238, 239, 240, 241, 242, 243, 244, 245, 246, 247, 248, 249, 250, 251, 252, 253, 254, 255, 256, 257, 258, 259, 260, 261, 262, 263, 264, 265, 266, 267, 268, 269, 270, 271, 272, 273, 274, 275, 276, 277, 278, 279, 280, 281, 282, 283, 284, 285, 286, 287, 288, 289, 290, 291, 292, 293, 294, 295, 296, 297, 298, 299, 300, 301, 302, 303, 304, 305, 306, 307, 308, 309, 310, 311, 312, 313, 314, 315, 316, 317, 318, 319, 320, 321, 322, 323, 324, 325, 326, 327, 328, 329, 330, 331, 332, 333, 334, 335, 336, 337, 338, 339, 340, 341, 342, 343, 344, 345, 346, 347, 348, 349, 350, 351, 352, 353, 354, 355, 356, 357, 358, 359, 360, 361, 362, 363, 364, 365, 366, 367, 368, 369, 370, 371, 372, 373, 374, 375, 376, 377, 378, 379, 380, 381, 382, 383, 384, 385, 386, 387, 388, 389, 390, 391, 392, 393, 394, 395, 396, 397, 398, 399, 400, 401, 402, 403, 404, 405, 406, 407, 408, 409, 410, 411, 412, 413, 414, 415, 416, 417, 418, 419, 420, 421, 422, 423, 424, 425, 426, 427, 428, 429, 430, 431, 432, 433, 434, 435, 436, 437, 438, 439, 440, 441, 442, 443, 444, 445, 446, 447, 448, 449, 450, 451, 452, 453, 454, 455, 456, 457, 458, 459, 460, 461, 462, 463, 464, 465, 466, 467, 468, 469, 470, 471, 472, 473, 474, 475, 476, 477, 478, 479, 480, 481, 482, 483, 484, 485, 486, 487, 488, 489, 490, 491, 492, 493, 494, 495, 496, 497, 498, 499, 500, 501, 502, 503, 504, 505, 506, 507, 508, 509, 510, 511, 512, 513, 514, 515, 516, 517, 518, 519, 520, 521, 522, 523, 524, 525, 526, 527, 528, 529, 530, 531, 532, 533, 534, 535, 536, 537, 538, 539, 540, 541, 542, 543, 544, 545, 546, 547, 548, 549, 550, 551, 552, 553, 554, 555, 556, 557, 558, 559, 560, 561, 562, 563, 564, 565, 566, 567, 568, 569, 570, 571, 572, 573, 574, 575, 576, 577, 578, 579, 580, 581, 582, 583, 584, 585, 586, 587, 588, 589, 590, 591, 592, 593, 594, 595, 596, 597, 598, 599, 600, 601, 602, 603, 604, 605, 606, 607, 608, 609, 610, 611, 612, 613, 614, 615, 616, 617, 618, 619, 620, 621, 622, 623, 624, 625, 626, 627, 628, 629, 630, 631, 632, 633, 634, 635, 636, 637, 638, 639, 640, 641, 642, 643, 644, 645, 646, 647, 648, 649, 650, 651, 652, 653, 654, 655, 656, 657, 658, 659, 660, 661, 662, 663, 664, 665, 666, 667, 668, 669, 670, 671, 672, 673, 674, 675, 676, 677, 678, 679, 680, 681, 682, 683, 684, 685, 686, 687, 688, 689, 690, 691, 692, 693, 694, 695, 696, 697, 698, 699, 700, 701, 702, 703, 704, 705, 706, 707, 708, 709, 710, 711, 712, 713, 714, 715, 716, 717, 718, 719, 720, 721, 722, 723, 724, 725, 726, 727, 728, 729, 730, 731, 732, 733, 734, 735, 736, 737, 738, 739, 740, 741, 742, 743, 744, 745, 746, 747, 748, 749, 750, 751, 752, 753, 754, 755, 756, 757, 758, 759, 760, 761, 762, 763, 764, 765, 766, 767, 768, 769, 770, 771, 772, 773, 774, 775, 776, 777, 778, 779, 780, 781, 782, 783, 784, 785, 786, 787, 788, 789, 790, 791, 792, 793, 794, 795, 796, 797, 798, 799, 800, 801, 802, 803, 804, 805, 806, 807, 808, 809, 810, 811, 812, 813, 814, 815, 816, 817, 818, 819, 820, 821, 822, 823, 824, 825, 826, 827, 828, 829, 830, 831, 832, 833, 834, 835, 836, 837, 838, 839, 840, 841, 842, 843, 844, 845, 846, 847, 848, 849, 850, 851, 852, 853, 854, 855, 856, 857, 858, 859, 860, 861, 862, 863, 864, 865, 866, 867, 868, 869, 870, 871, 872, 873, 874, 875, 876, 877, 878, 879, 880, 881, 882, 883, 884, 885, 886, 887, 888, 889, 890, 891, 892, 893, 894, 895, 896, 897, 898, 899, 900, 901, 902, 903, 904, 905, 906, 907, 908, 909, 910, 911, 912, 913, 914, 915, 916, 917, 918, 919, 920, 921, 922, 923, 924, 925, 926, 927, 928, 929, 930, 931, 932, 933, 934, 935, 936, 937, 938, 939, 940, 941, 942, 943, 944, 945, 946, 947, 948, 949, 950, 951, 952, 953, 954, 955, 956, 957, 958, 959, 960, 961, 962, 963, 964, 965, 966, 967, 968, 969, 970, 971, 972, 973, 974, 975, 976, 977, 978, 979, 980, 981, 982, 983, 984, 985, 986, 987, 988, 989, 990, 991, 992, 993, 994, 995, 996, 997, 998, 999, 1000, 1001, 1002, 1003, 1004, 1005, 1006, 1007, 1008, 1009, 1010, 1011, 1012, 1013, 1014, 1015, 1016, 1017, 1018, 1019, 1020, 1021, 1022, 1023, 1024, 1025, 1026, 1027, 1028, 1029, 1030, 1031, 1032, 1033, 1034, 1035, 1036, 1037, 1038, 1039, 1040, 1041, 1042, 1043, 1044, 1045, 1046, 1047, 1048, 1049, 1050, 1051, 1052, 1053, 1054, 1055, 1056, 1057, 1058, 1059, 1060, 1061, 1062, 1063, 1064, 1065],
      "AcquisitionTime": ["140703.985000", "140704.445000", "140704.905000", "140705.365000", "140705.825000", "140706.285000", "140706.745000", "140707.205000", "140707.665000", "140708.125000", "140708.585000", "140709.045000", "140709.505000", "140709.965000", "140710.425000", "140710.885000", "140711.345000", "140711.805000", "140712.265000", "140712.725000", "140713.185000", "140713.645000", "140714.105000", "140714.565000", "140715.025000", "140715.485000", "140715.945000", "140716.405000", "140716.865000", "140717.325000", "140717.785000", "140718.245000", "140718.705000", "140719.165000", "140719.625000", "140720.085000", "140720.545000", "140721.005000", "140721.465000", "140721.925000", "140722.385000", "140722.845000", "140723.305000", "140723.765000", "140724.225000", "140724.685000", "140725.145000", "140725.605000", "140726.065000", "140726.525000", "140726.985000", "140727.445000", "140727.905000", "140728.365000", "140728.825000", "140729.285000", "140729.745000", "140730.205000", "140730.665000", "140731.125000", "140731.585000", "140732.045000", "140732.505000", "140732.965000", "140733.425000", "140733.885000", "140734.345000", "140734.805000", "140735.265000", "140735.725000", "140736.185000", "140736.645000", "140737.105000", "140737.565000", "140738.025000", "140738.485000", "140738.945000", "140739.405000", "140739.865000", "140740.325000", "140740.785000", "140741.245000", "140741.705000", "140742.165000", "140742.625000", "140743.085000", "140743.545000", "140744.005000", "140744.465000", "140744.925000", "140745.385000", "140745.845000", "140746.305000", "140746.765000", "140747.225000", "140747.685000", "140748.145000", "140748.605000", "140749.065000", "140749.525000", "140749.985000", "140750.445000", "140750.905000", "140751.365000", "140751.825000", "140752.285000", "140752.745000", "140753.205000", "140753.665000", "140754.125000", "140754.585000", "140755.045000", "140755.505000", "140755.965000", "140756.425000", "140756.885000", "140757.345000", "140757.805000", "140758.265000", "140758.725000", "140759.185000", "140759.645000", "140800.105000", "140800.565000", "140801.025000", "140801.485000", "140801.945000", "140802.405000", "140802.865000", "140803.325000", "140803.785000", "140804.245000", "140804.705000", "140805.165000", "140805.625000", "140806.085000", "140806.545000", "140807.005000", "140807.465000", "140807.925000", "140808.385000", "140808.845000", "140809.305000", "140809.765000", "140810.225000", "140810.685000", "140811.145000", "140811.605000", "140812.065000", "140812.525000", "140812.985000", "140813.445000", "140813.905000", "140814.365000", "140814.825000", "140815.285000", "140815.745000", "140816.205000", "140816.665000", "140817.125000", "140817.585000", "140818.045000", "140818.505000", "140818.965000", "140819.425000", "140819.885000", "140820.345000", "140820.805000", "140821.265000", "140821.725000", "140822.185000", "140822.645000", "140823.105000", "140823.565000", "140824.025000", "140824.485000", "140824.945000", "140825.405000", "140825.865000", "140826.325000", "140826.785000", "140827.245000", "140827.705000", "140828.165000", "140828.625000", "140829.085000", "140829.545000", "140830.005000", "140830.465000", "140830.925000", "140831.385000", "140831.845000", "140832.305000", "140832.765000", "140833.225000", "140833.685000", "140834.145000", "140834.605000", "140835.065000", "140835.525000", "140835.985000", "140836.445000", "140836.905000", "140837.365000", "140837.825000", "140838.285000", "140838.745000", "140839.205000", "140839.665000", "140840.125000", "140840.585000", "140841.045000", "140841.505000", "140841.965000", "140842.425000", "140842.885000", "140843.345000", "140843.805000", "140844.265000", "140844.725000", "140845.185000", "140845.645000", "140846.105000", "140846.565000", "140847.025000", "140847.485000", "140847.945000", "140848.405000", "140848.865000", "140849.325000", "140849.785000", "140850.245000", "140850.705000", "140851.165000", "140851.625000", "140852.085000", "140852.545000", "140853.005000", "140853.465000", "140853.925000", "140854.385000", "140854.845000", "140855.305000", "140855.765000", "140856.225000", "140856.685000", "140857.145000", "140857.605000", "140858.065000", "140858.525000", "140858.985000", "140859.445000", "140859.905000", "140900.365000", "140900.825000", "140901.285000", "140901.745000", "140902.205000", "140902.665000", "140903.125000", "140903.585000", "140904.045000", "140904.505000", "140904.965000", "140905.425000", "140905.885000", "140906.345000", "140906.805000", "140907.265000", "140907.725000", "140908.185000", "140908.645000", "140909.105000", "140909.565000", "140910.025000", "140910.485000", "140910.945000", "140911.405000", "140911.865000", "140912.325000", "140912.785000", "140913.245000", "140913.705000", "140914.165000", "140914.625000", "140915.085000", "140915.545000", "140916.005000", "140916.465000", "140916.925000", "140917.385000", "140917.845000", "140918.305000", "140918.765000", "140919.225000", "140919.685000", "140920.145000", "140920.605000", "140921.065000", "140921.525000", "140921.985000", "140922.445000", "140922.905000", "140923.365000", "140923.825000", "140924.285000", "140924.745000", "140925.205000", "140925.665000", "140926.125000", "140926.585000", "140927.045000", "140927.505000", "140927.965000", "140928.425000", "140928.885000", "140929.345000", "140929.805000", "140930.265000", "140930.725000", "140931.185000", "140931.645000", "140932.105000", "140932.565000", "140933.025000", "140933.485000", "140933.945000", "140934.405000", "140934.865000", "140935.325000", "140935.785000", "140936.245000", "140936.705000", "140937.165000", "140937.625000", "140938.085000", "140938.545000", "140939.005000", "140939.465000", "140939.925000", "140940.385000", "140940.845000", "140941.305000", "140941.765000", "140942.225000", "140942.685000", "140943.145000", "140943.605000", "140944.065000", "140944.525000", "140944.985000", "140945.445000", "140945.905000", "140946.365000", "140946.825000", "140947.285000", "140947.745000", "140948.205000", "140948.665000", "140949.125000", "140949.585000", "140950.045000", "140950.505000", "140950.965000", "140951.425000", "140951.885000", "140952.345000", "140952.805000", "140953.265000", "140953.725000", "140954.185000", "140954.645000", "140955.105000", "140955.565000", "140956.025000", "140956.485000", "140956.945000", "140957.405000", "140957.865000", "140958.325000", "140958.785000", "140959.245000", "140959.705000", "141000.165000", "141000.625000", "141001.085000", "141001.545000", "141002.005000", "141002.465000", "141002.925000", "141003.385000", "141003.845000", "141004.305000", "141004.765000", "141005.225000", "141005.685000", "141006.145000", "141006.605000", "141007.065000", "141007.525000", "141007.985000", "141008.445000", "141008.905000", "141009.365000", "141009.825000", "141010.285000", "141010.745000", "141011.205000", "141011.665000", "141012.125000", "141012.585000", "141013.045000", "141013.505000", "141013.965000", "141014.425000", "141014.885000", "141015.345000", "141015.805000", "141016.265000", "141016.725000", "141017.185000", "141017.645000", "141018.105000", "141018.565000", "141019.025000", "141019.485000", "141019.945000", "141020.405000", "141020.865000", "141021.325000", "141021.785000", "141022.245000", "141022.705000", "141023.165000", "141023.625000", "141024.085000", "141024.545000", "141025.005000", "141025.465000", "141025.925000", "141026.385000", "141026.845000", "141027.305000", "141027.765000", "141028.225000", "141028.685000", "141029.145000", "141029.605000", "141030.065000", "141030.525000", "141030.985000", "141031.445000", "141031.905000", "141032.365000", "141032.825000", "141033.285000", "141033.745000", "141034.205000", "141034.665000", "141035.125000", "141035.585000", "141036.045000", "141036.505000", "141036.965000", "141037.425000", "141037.885000", "141038.345000", "141038.805000", "141039.265000", "141039.725000", "141040.185000", "141040.645000", "141041.105000", "141041.565000", "141042.025000", "141042.485000", "141042.945000", "141043.405000", "141043.865000", "141044.325000", "141044.785000", "141045.245000", "141045.705000", "141046.165000", "141046.625000", "141047.085000", "141047.545000", "141048.005000", "141048.465000", "141048.925000", "141049.385000", "141049.845000", "141050.305000", "141050.765000", "141051.225000", "141051.685000", "141052.145000", "141052.605000", "141053.065000", "141053.525000", "141053.985000", "141054.445000", "141054.905000", "141055.365000", "141055.825000", "141056.285000", "141056.745000", "141057.205000", "141057.665000", "141058.125000", "141058.585000", "141059.045000", "141059.505000", "141059.965000", "141100.425000", "141100.885000", "141101.345000", "141101.805000", "141102.265000", "141102.725000", "141103.185000", "141103.645000", "141104.105000", "141104.565000", "141105.025000", "141105.485000", "141105.945000", "141106.405000", "141106.865000", "141107.325000", "141107.785000", "141108.245000", "141108.705000", "141109.165000", "141109.625000", "141110.085000", "141110.545000", "141111.005000", "141111.465000", "141111.925000", "141112.385000", "141112.845000", "141113.305000", "141113.765000", "141114.225000", "141114.685000", "141115.145000", "141115.605000", "141116.065000", "141116.525000", "141116.985000", "141117.445000", "141117.905000", "141118.365000", "141118.825000", "141119.285000", "141119.745000", "141120.205000", "141120.665000", "141121.125000", "141121.585000", "141122.045000", "141122.505000", "141122.965000", "141123.425000", "141123.885000", "141124.345000", "141124.805000", "141125.265000", "141125.725000", "141126.185000", "141126.645000", "141127.105000", "141127.565000", "141128.025000", "141128.485000", "141128.945000", "141129.405000", "141129.865000", "141130.325000", "141130.785000", "141131.245000", "141131.705000", "141132.165000", "141132.625000", "141133.085000", "141133.545000", "141134.005000", "141134.465000", "141134.925000", "141135.385000", "141135.845000", "141136.305000", "141136.765000", "141137.225000", "141137.685000", "141138.145000", "141138.605000", "141139.065000", "141139.525000", "141139.985000", "141140.445000", "141140.905000", "141141.365000", "141141.825000", "141142.285000", "141142.745000", "141143.205000", "141143.665000", "141144.125000", "141144.585000", "141145.045000", "141145.505000", "141145.965000", "141146.425000", "141146.885000", "141147.345000", "141147.805000", "141148.265000", "141148.725000", "141149.185000", "141149.645000", "141150.105000", "141150.565000", "141151.025000", "141151.485000", "141151.945000", "141152.405000", "141152.865000", "141153.325000", "141153.785000", "141154.245000", "141154.705000", "141155.165000", "141155.625000", "141156.085000", "141156.545000", "141157.005000", "141157.465000", "141157.925000", "141158.385000", "141158.845000", "141159.305000", "141159.765000", "141200.225000", "141200.685000", "141201.145000", "141201.605000", "141202.065000", "141202.525000", "141202.985000", "141203.445000", "141203.905000", "141204.365000", "141204.825000", "141205.285000", "141205.745000", "141206.205000", "141206.665000", "141207.125000", "141207.585000", "141208.045000", "141208.505000", "141208.965000", "141209.425000", "141209.885000", "141210.345000", "141210.805000", "141211.265000", "141211.725000", "141212.185000", "141212.645000", "141213.105000", "141213.565000", "141214.025000", "141214.485000", "141214.945000", "141215.405000", "141215.865000", "141216.325000", "141216.785000", "141217.245000", "141217.705000", "141218.165000", "141218.625000", "141219.085000", "141219.545000", "141220.005000", "141220.465000", "141220.925000", "141221.385000", "141221.845000", "141222.305000", "141222.765000", "141223.225000", "141223.685000", "141224.145000", "141224.605000", "141225.065000", "141225.525000", "141225.985000", "141226.445000", "141226.905000", "141227.365000", "141227.825000", "141228.285000", "141228.745000", "141229.205000", "141229.665000", "141230.125000", "141230.585000", "141231.045000", "141231.505000", "141231.965000", "141232.425000", "141232.885000", "141233.345000", "141233.805000", "141234.265000", "141234.725000", "141235.185000", "141235.645000", "141236.105000", "141236.565000", "141237.025000", "141237.485000", "141237.945000", "141238.405000", "141238.865000", "141239.325000", "141239.785000", "141240.245000", "141240.705000", "141241.165000", "141241.625000", "141242.085000", "141242.545000", "141243.005000", "141243.465000", "141243.925000", "141244.385000", "141244.845000", "141245.305000", "141245.765000", "141246.225000", "141246.685000", "141247.145000", "141247.605000", "141248.065000", "141248.525000", "141248.985000", "141249.445000", "141249.905000", "141250.365000", "141250.825000", "141251.285000", "141251.745000", "141252.205000", "141252.665000", "141253.125000", "141253.585000", "141254.045000", "141254.505000", "141254.965000", "141255.425000", "141255.885000", "141256.345000", "141256.805000", "141257.265000", "141257.725000", "141258.185000", "141258.645000", "141259.105000", "141259.565000", "141300.025000", "141300.485000", "141300.945000", "141301.405000", "141301.865000", "141302.325000", "141302.785000", "141303.245000", "141303.705000", "141304.165000", "141304.625000", "141305.085000", "141305.545000", "141306.005000", "141306.465000", "141306.925000", "141307.385000", "141307.845000", "141308.305000", "141308.765000", "141309.225000", "141309.685000", "141310.145000", "141310.605000", "141311.065000", "141311.525000", "141311.985000", "141312.445000", "141312.905000", "141313.365000", "141313.825000", "141314.285000", "141314.745000", "141315.205000", "141315.665000", "141316.125000", "141316.585000", "141317.045000", "141317.505000", "141317.965000", "141318.425000", "141318.885000", "141319.345000", "141319.805000", "141320.265000", "141320.725000", "141321.185000", "141321.645000", "141322.105000", "141322.565000", "141323.025000", "141323.485000", "141323.945000", "141324.405000", "141324.865000", "141325.325000", "141325.785000", "141326.245000", "141326.705000", "141327.165000", "141327.625000", "141328.085000", "141328.545000", "141329.005000", "141329.465000", "141329.925000", "141330.385000", "141330.845000", "141331.305000", "141331.765000", "141332.225000", "141332.685000", "141333.145000", "141333.605000", "141334.065000", "141334.525000", "141334.985000", "141335.445000", "141335.905000", "141336.365000", "141336.825000", "141337.285000", "141337.745000", "141338.205000", "141338.665000", "141339.125000", "141339.585000", "141340.045000", "141340.505000", "141340.965000", "141341.425000", "141341.885000", "141342.345000", "141342.805000", "141343.265000", "141343.725000", "141344.185000", "141344.645000", "141345.105000", "141345.565000", "141346.025000", "141346.485000", "141346.945000", "141347.405000", "141347.865000", "141348.325000", "141348.785000", "141349.245000", "141349.705000", "141350.165000", "141350.625000", "141351.085000", "141351.545000", "141352.005000", "141352.465000", "141352.925000", "141353.385000", "141353.845000", "141354.305000", "141354.765000", "141355.225000", "141355.685000", "141356.145000", "141356.605000", "141357.065000", "141357.525000", "141357.985000", "141358.445000", "141358.905000", "141359.365000", "141359.825000", "141400.285000", "141400.745000", "141401.205000", "141401.665000", "141402.125000", "141402.585000", "141403.045000", "141403.505000", "141403.965000", "141404.425000", "141404.885000", "141405.345000", "141405.805000", "141406.265000", "141406.725000", "141407.185000", "141407.645000", "141408.105000", "141408.565000", "141409.025000", "141409.485000", "141409.945000", "141410.405000", "141410.865000", "141411.325000", "141411.785000", "141412.245000", "141412.705000", "141413.165000", "141413.625000", "141414.085000", "141414.545000", "141415.005000", "141415.465000", "141415.925000", "141416.385000", "141416.845000", "141417.305000", "141417.765000", "141418.225000", "141418.685000", "141419.145000", "141419.605000", "141420.065000", "141420.525000", "141420.985000", "141421.445000", "141421.905000", "141422.365000", "141422.825000", "141423.285000", "141423.745000", "141424.205000", "141424.665000", "141425.125000", "141425.585000", "141426.045000", "141426.505000", "141426.965000", "141427.425000", "141427.885000", "141428.345000", "141428.805000", "141429.265000", "141429.725000", "141430.185000", "141430.645000", "141431.105000", "141431.565000", "141432.025000", "141432.485000", "141432.945000", "141433.405000", "141433.865000", "141434.325000", "141434.785000", "141435.245000", "141435.705000", "141436.165000", "141436.625000", "141437.085000", "141437.545000", "141438.005000", "141438.465000", "141438.925000", "141439.385000", "141439.845000", "141440.305000", "141440.765000", "141441.225000", "141441.685000", "141442.145000", "141442.605000", "141443.065000", "141443.525000", "141443.985000", "141444.445000", "141444.905000", "141445.365000", "141445.825000", "141446.285000", "141446.745000", "141447.205000", "141447.665000", "141448.125000", "141448.585000", "141449.045000", "141449.505000", "141449.965000", "141450.425000", "141450.885000", "141451.345000", "141451.805000", "141452.265000", "141452.725000", "141453.185000", "141453.645000", "141454.105000", "141454.565000", "141455.025000", "141455.485000", "141455.945000", "141456.405000", "141456.865000", "141457.325000", "141457.785000", "141458.245000", "141458.705000", "141459.165000", "141459.625000", "141500.085000", "141500.545000", "141501.005000", "141501.465000", "141501.925000", "141502.385000", "141502.845000", "141503.305000", "141503.765000", "141504.225000", "141504.685000", "141505.145000", "141505.605000", "141506.065000", "141506.525000", "141506.985000", "141507.445000", "141507.905000", "141508.365000", "141508.825000", "141509.285000", "141509.745000", "141510.205000", "141510.665000", "141511.125000", "141511.585000", "141512.045000", "141512.505000", "141512.965000", "141513.425000"],
