{
  "AcquisitionMatrixPE": 82,
  "AcquisitionNumber": 1,
  "AcquisitionTime": "11:00:13.110000",
  "BandwidthPerPixelPhaseEncode": 24.888,
  "BaseResolution": 82,
  "BodyPartExamined": "BRAIN",
  "ConsistencyInfo": "N4_VE11E_LATEST_20181129",
  "ConversionSoftware": "dcm2niix",
  "ConversionSoftwareVersion": "v1.0.20201102",
  "DerivedVendorReportedEchoSpacing": 0.00049,
  "DeviceSerialNumber": "66112",
  "DwellTime": 2e-06,
  "EchoTime": 0.0272,
  "EchoTrainLength": 82,
  "EffectiveEchoSpacing": 0.00049,
  "FlipAngle": 44,
  "ImageComments": "Unaliased MB8/PE3",
  "ImageOrientationPatientDICOM": [0.999732, 0.0223292, -0.00614155, -0.0214651, 0.992996, 0.116183],
  "ImageType": [
    "ORIGINAL",
    "PRIMARY",
    "M",
    "MB",
    "ND",
    "NORM",
    "MOSAIC"
],
  "ImagingFrequency": 123.259,
  "InPlanePhaseEncodingDirectionDICOM": "COL",
  "InstitutionAddress": "Maynard 3,Hanover,NH,US,03755",
  "InstitutionName": "Dartmouth College - PBS",
  "InstitutionalDepartmentName": "Department",
  "MRAcquisitionType": "2D",
  "MagneticFieldStrength": 3,
  "Manufacturer": "Siemens",
  "ManufacturersModelName": "Prisma",
  "Modality": "MR",
  "MultibandAccelerationFactor": 8,
  "PartialFourier": 1,
  "PatientPosition": "HFS",
  "PercentPhaseFOV": 100,
  "PercentSampling": 100,
  "PhaseEncodingDirection": "j-",
  "PhaseEncodingSteps": 82,
  "PhaseResolution": 1,
  "PixelBandwidth": 3050,
  "ProcedureStepDescription": "Wager_Wager^1076_spacetop",
  "ProtocolName": "func_run-02_task-narratives_acq-ap-mb8",
  "PulseSequenceDetails": "%CustomerSeq%\\cmrr_mbep2d_bold",
  "ReceiveCoilActiveElements": "HEA;HEP",
  "ReceiveCoilName": "Head_32",
  "ReconMatrixPE": 82,
  "RepetitionTime": 0.46,
  "SAR": 0.0820448,
  "ScanOptions": "FS",
  "ScanningSequence": "EP",
  "SequenceName": "epfid2d1_82",
  "SequenceVariant": "SK\\SS",
  "SeriesDescription": "func_run-02_task-narratives_acq-ap-mb8",
  "SeriesNumber": 10,
  "ShimSetting": [4216, -7777, -7214, 354, -155, 45, 91, 82],
  "SliceThickness": 2.7,
  "SliceTiming": [0, 0.25, 0.0625, 0.3125, 0.125, 0.375, 0.1875, 0, 0.25, 0.0625, 0.3125, 0.125, 0.375, 0.1875, 0, 0.25, 0.0625, 0.3125, 0.125, 0.375, 0.1875, 0, 0.25, 0.0625, 0.3125, 0.125, 0.375, 0.1875, 0, 0.25, 0.0625, 0.3125, 0.125, 0.375, 0.1875, 0, 0.25, 0.0625, 0.3125, 0.125, 0.375, 0.1875, 0, 0.25, 0.0625, 0.3125, 0.125, 0.375, 0.1875, 0, 0.25, 0.0625, 0.3125, 0.125, 0.375, 0.1875],
  "SoftwareVersions": "syngo MR E11",
  "SpacingBetweenSlices": 2.7,
  "StationName": "AWP66112",
  "TaskName": "narratives",
  "TotalReadoutTime": 0.03969,
  "TxRefAmp": 228.14,
  "WipMemBlock": "dcb962cf-9758-4f6f-87da-ce7d19c40085||Sequence: R016 ve11e/master r/434b28f1; Aug  7 2019 18:53:46 by eja",
  "dcmmeta_affine": [
    [-2.6822073459625244, -0.05758918821811676, -0.02347058802843094, 116.10602569580078],
    [-0.05990773066878319, 2.664135217666626, 0.313254177570343, -110.92465209960938],
    [-0.016477322205901146, -0.3117106556892395, 2.681663751602173, -49.07248306274414],
    [0.0, 0.0, 0.0, 1.0]
],
  "dcmmeta_reorient_transform": [
    [0.0, -1.0, 0.0, 81.0],
    [1.0, 0.0, 0.0, 0.0],
    [0.0, 0.0, 1.0, 0.0],
    [0.0, 0.0, 0.0, 1.0]
],
  "dcmmeta_shape": [82, 82, 56, 1098],
  "dcmmeta_slice_dim": 2,
  "dcmmeta_version": 0.6,
  "global": {
    "const": {
      "AccessionNumber": "A004495",
      "AcquisitionMatrix": [82, 0, 0, 82],
      "AngioFlag": "N",
      "BitsAllocated": 16,
      "BitsStored": 16,
      "BodyPartExamined": "BRAIN",
      "Columns": 656,
      "EchoNumbers": 1,
      "EchoTime": 27.2,
      "EchoTrainLength": 82,
      "FlipAngle": 44.0,
      "HighBit": 15,
      "ImageOrientationPatient": [0.99973180714252, 0.0223292451279, -0.0061415470013, -0.0214650606998, 0.9929958450229, 0.11618305787169],
      "ImagePositionPatient": [-864.70671544995, -886.67063899948, -159.05301212985],
      "ImageType": [
        "ORIGINAL",
        "PRIMARY",
        "M",
        "MB",
        "ND",
        "NORM",
        "MOSAIC"
],
      "ImagedNucleus": "1H",
      "ImagingFrequency": 123.259273,
      "InPlanePhaseEncodingDirection": "COL",
      "MRAcquisitionType": "2D",
      "MagneticFieldStrength": 3.0,
      "Manufacturer": "SIEMENS",
      "ManufacturerModelName": "Prisma",
      "Modality": "MR",
      "NumberOfAverages": 1.0,
      "NumberOfPhaseEncodingSteps": 82,
      "PercentPhaseFieldOfView": 100.0,
      "PercentSampling": 100.0,
      "PerformedProcedureStepStartTime": "104701.976000",
      "PhotometricInterpretation": "MONOCHROME2",
      "PixelBandwidth": 3050.0,
      "PixelRepresentation": 0,
      "PixelSpacing": [2.6829268932343, 2.6829268932343],
      "ProtocolName": "func_run-02_task-narratives_acq-ap-mb8",
      "RepetitionTime": 460.0,
      "Rows": 656,
      "SAR": 0.08204477118817,
      "SamplesPerPixel": 1,
      "ScanOptions": "FS",
      "ScanningSequence": "EP",
      "SequenceName": "epfid2d1_82",
      "SequenceVariant": [
        "SK",
        "SS"
],
      "SeriesDescription": "func_run-02_task-narratives_acq-ap-mb8",
      "SeriesNumber": 10,
      "SeriesTime": "110034.953000",
      "SliceLocation": -62.617998333027,
      "SliceThickness": 2.7000000476837,
      "SmallestImagePixelValue": 0,
      "SoftwareVersions": "syngo MR E11",
      "SpacingBetweenSlices": 2.7000000213326,
      "SpecificCharacterSet": "ISO_IR 100",
      "StudyID": "1",
      "StudyTime": "104701.916000",
      "TransmitCoilName": "Body",
      "VariableFlipAngleFlag": "N",
      "WindowCenterWidthExplanation": "Algo1"
    },
    "slices": {}
  },
  "time": {
    "samples": {
      "AcquisitionNumber": [1, 2, 3, 4, 5, 6, 7, 8, 9, 10, 11, 12, 13, 14, 15, 16, 17, 18, 19, 20, 21, 22, 23, 24, 25, 26, 27, 28, 29, 30, 31, 32, 33, 34, 35, 36, 37, 38, 39, 40, 41, 42, 43, 44, 45, 46, 47, 48, 49, 50, 51, 52, 53, 54, 55, 56, 57, 58, 59, 60, 61, 62, 63, 64, 65, 66, 67, 68, 69, 70, 71, 72, 73, 74, 75, 76, 77, 78, 79, 80, 81, 82, 83, 84, 85, 86, 87, 88, 89, 90, 91, 92, 93, 94, 95, 96, 97, 98, 99, 100, 101, 102, 103, 104, 105, 106, 107, 108, 109, 110, 111, 112, 113, 114, 115, 116, 117, 118, 119, 120, 121, 122, 123, 124, 125, 126, 127, 128, 129, 130, 131, 132, 133, 134, 135, 136, 137, 138, 139, 140, 141, 142, 143, 144, 145, 146, 147, 148, 149, 150, 151, 152, 153, 154, 155, 156, 157, 158, 159, 160, 161, 162, 163, 164, 165, 166, 167, 168, 169, 170, 171, 172, 173, 174, 175, 176, 177, 178, 179, 180, 181, 182, 183, 184, 185, 186, 187, 188, 189, 190, 191, 192, 193, 194, 195, 196, 197, 198, 199, 200, 201, 202, 203, 204, 205, 206, 207, 208, 209, 210, 211, 212, 213, 214, 215, 216, 217, 218, 219, 220, 221, 222, 223, 224, 225, 226, 227, 228, 229, 230, 231, 232, 233, 234, 235, 236, 237, 238, 239, 240, 241, 242, 243, 244, 245, 246, 247, 248, 249, 250, 251, 252, 253, 254, 255, 256, 257, 258, 259, 260, 261, 262, 263, 264, 265, 266, 267, 268, 269, 270, 271, 272, 273, 274, 275, 276, 277, 278, 279, 280, 281, 282, 283, 284, 285, 286, 287, 288, 289, 290, 291, 292, 293, 294, 295, 296, 297, 298, 299, 300, 301, 302, 303, 304, 305, 306, 307, 308, 309, 310, 311, 312, 313, 314, 315, 316, 317, 318, 319, 320, 321, 322, 323, 324, 325, 326, 327, 328, 329, 330, 331, 332, 333, 334, 335, 336, 337, 338, 339, 340, 341, 342, 343, 344, 345, 346, 347, 348, 349, 350, 351, 352, 353, 354, 355, 356, 357, 358, 359, 360, 361, 362, 363, 364, 365, 366, 367, 368, 369, 370, 371, 372, 373, 374, 375, 376, 377, 378, 379, 380, 381, 382, 383, 384, 385, 386, 387, 388, 389, 390, 391, 392, 393, 394, 395, 396, 397, 398, 399, 400, 401, 402, 403, 404, 405, 406, 407, 408, 409, 410, 411, 412, 413, 414, 415, 416, 417, 418, 419, 420, 421, 422, 423, 424, 425, 426, 427, 428, 429, 430, 431, 432, 433, 434, 435, 436, 437, 438, 439, 440, 441, 442, 443, 444, 445, 446, 447, 448, 449, 450, 451, 452, 453, 454, 455, 456, 457, 458, 459, 460, 461, 462, 463, 464, 465, 466, 467, 468, 469, 470, 471, 472, 473, 474, 475, 476, 477, 478, 479, 480, 481, 482, 483, 484, 485, 486, 487, 488, 489, 490, 491, 492, 493, 494, 495, 496, 497, 498, 499, 500, 501, 502, 503, 504, 505, 506, 507, 508, 509, 510, 511, 512, 513, 514, 515, 516, 517, 518, 519, 520, 521, 522, 523, 524, 525, 526, 527, 528, 529, 530, 531, 532, 533, 534, 535, 536, 537, 538, 539, 540, 541, 542, 543, 544, 545, 546, 547, 548, 549, 550, 551, 552, 553, 554, 555, 556, 557, 558, 559, 560, 561, 562, 563, 564, 565, 566, 567, 568, 569, 570, 571, 572, 573, 574, 575, 576, 577, 578, 579, 580, 581, 582, 583, 584, 585, 586, 587, 588, 589, 590, 591, 592, 593, 594, 595, 596, 597, 598, 599, 600, 601, 602, 603, 604, 605, 606, 607, 608, 609, 610, 611, 612, 613, 614, 615, 616, 617, 618, 619, 620, 621, 622, 623, 624, 625, 626, 627, 628, 629, 630, 631, 632, 633, 634, 635, 636, 637, 638, 639, 640, 641, 642, 643, 644, 645, 646, 647, 648, 649, 650, 651, 652, 653, 654, 655, 656, 657, 658, 659, 660, 661, 662, 663, 664, 665, 666, 667, 668, 669, 670, 671, 672, 673, 674, 675, 676, 677, 678, 679, 680, 681, 682, 683, 684, 685, 686, 687, 688, 689, 690, 691, 692, 693, 694, 695, 696, 697, 698, 699, 700, 701, 702, 703, 704, 705, 706, 707, 708, 709, 710, 711, 712, 713, 714, 715, 716, 717, 718, 719, 720, 721, 722, 723, 724, 725, 726, 727, 728, 729, 730, 731, 732, 733, 734, 735, 736, 737, 738, 739, 740, 741, 742, 743, 744, 745, 746, 747, 748, 749, 750, 751, 752, 753, 754, 755, 756, 757, 758, 759, 760, 761, 762, 763, 764, 765, 766, 767, 768, 769, 770, 771, 772, 773, 774, 775, 776, 777, 778, 779, 780, 781, 782, 783, 784, 785, 786, 787, 788, 789, 790, 791, 792, 793, 794, 795, 796, 797, 798, 799, 800, 801, 802, 803, 804, 805, 806, 807, 808, 809, 810, 811, 812, 813, 814, 815, 816, 817, 818, 819, 820, 821, 822, 823, 824, 825, 826, 827, 828, 829, 830, 831, 832, 833, 834, 835, 836, 837, 838, 839, 840, 841, 842, 843, 844, 845, 846, 847, 848, 849, 850, 851, 852, 853, 854, 855, 856, 857, 858, 859, 860, 861, 862, 863, 864, 865, 866, 867, 868, 869, 870, 871, 872, 873, 874, 875, 876, 877, 878, 879, 880, 881, 882, 883, 884, 885, 886, 887, 888, 889, 890, 891, 892, 893, 894, 895, 896, 897, 898, 899, 900, 901, 902, 903, 904, 905, 906, 907, 908, 909, 910, 911, 912, 913, 914, 915, 916, 917, 918, 919, 920, 921, 922, 923, 924, 925, 926, 927, 928, 929, 930, 931, 932, 933, 934, 935, 936, 937, 938, 939, 940, 941, 942, 943, 944, 945, 946, 947, 948, 949, 950, 951, 952, 953, 954, 955, 956, 957, 958, 959, 960, 961, 962, 963, 964, 965, 966, 967, 968, 969, 970, 971, 972, 973, 974, 975, 976, 977, 978, 979, 980, 981, 982, 983, 984, 985, 986, 987, 988, 989, 990, 991, 992, 993, 994, 995, 996, 997, 998, 999, 1000, 1001, 1002, 1003, 1004, 1005, 1006, 1007, 1008, 1009, 1010, 1011, 1012, 1013, 1014, 1015, 1016, 1017, 1018, 1019, 1020, 1021, 1022, 1023, 1024, 1025, 1026, 1027, 1028, 1029, 1030, 1031, 1032, 1033, 1034, 1035, 1036, 1037, 1038, 1039, 1040, 1041, 1042, 1043, 1044, 1045, 1046, 1047, 1048, 1049, 1050, 1051, 1052, 1053, 1054, 1055, 1056, 1057, 1058, 1059, 1060, 1061, 1062, 1063, 1064, 1065, 1066, 1067, 1068, 1069, 1070, 1071, 1072, 1073, 1074, 1075, 1076, 1077, 1078, 1079, 1080, 1081, 1082, 1083, 1084, 1085, 1086, 1087, 1088, 1089, 1090, 1091, 1092, 1093, 1094, 1095, 1096, 1097, 1098],
      "AcquisitionTime": ["110013.110000", "110013.570000", "110014.030000", "110014.490000", "110014.950000", "110015.410000", "110015.870000", "110016.330000", "110016.790000", "110017.250000", "110017.710000", "110018.170000", "110018.630000", "110019.090000", "110019.550000", "110020.010000", "110020.470000", "110020.930000", "110021.390000", "110021.850000", "110022.310000", "110022.770000", "110023.230000", "110023.690000", "110024.150000", "110024.610000", "110025.070000", "110025.530000", "110025.990000", "110026.450000", "110026.910000", "110027.370000", "110027.830000", "110028.290000", "110028.750000", "110029.210000", "110029.670000", "110030.130000", "110030.590000", "110031.050000", "110031.510000", "110031.970000", "110032.430000", "110032.890000", "110033.350000", "110033.810000", "110034.270000", "110034.730000", "110035.190000", "110035.650000", "110036.110000", "110036.570000", "110037.030000", "110037.490000", "110037.950000", "110038.410000", "110038.870000", "110039.330000", "110039.790000", "110040.250000", "110040.710000", "110041.170000", "110041.630000", "110042.090000", "110042.550000", "110043.010000", "110043.470000", "110043.930000", "110044.390000", "110044.850000", "110045.310000", "110045.770000", "110046.230000", "110046.690000", "110047.150000", "110047.610000", "110048.070000", "110048.530000", "110048.990000", "110049.450000", "110049.910000", "110050.370000", "110050.830000", "110051.290000", "110051.750000", "110052.210000", "110052.670000", "110053.130000", "110053.590000", "110054.050000", "110054.510000", "110054.970000", "110055.430000", "110055.890000", "110056.350000", "110056.810000", "110057.270000", "110057.730000", "110058.190000", "110058.650000", "110059.110000", "110059.570000", "110100.030000", "110100.490000", "110100.950000", "110101.410000", "110101.870000", "110102.330000", "110102.790000", "110103.250000", "110103.710000", "110104.170000", "110104.630000", "110105.090000", "110105.550000", "110106.010000", "110106.470000", "110106.930000", "110107.390000", "110107.850000", "110108.310000", "110108.770000", "110109.230000", "110109.690000", "110110.150000", "110110.610000", "110111.070000", "110111.530000", "110111.990000", "110112.450000", "110112.910000", "110113.370000", "110113.830000", "110114.290000", "110114.750000", "110115.210000", "110115.670000", "110116.130000", "110116.590000", "110117.050000", "110117.510000", "110117.970000", "110118.430000", "110118.890000", "110119.350000", "110119.810000", "110120.270000", "110120.730000", "110121.190000", "110121.650000", "110122.110000", "110122.570000", "110123.030000", "110123.490000", "110123.950000", "110124.410000", "110124.870000", "110125.330000", "110125.790000", "110126.250000", "110126.710000", "110127.170000", "110127.630000", "110128.090000", "110128.550000", "110129.010000", "110129.470000", "110129.930000", "110130.390000", "110130.850000", "110131.310000", "110131.770000", "110132.230000", "110132.690000", "110133.150000", "110133.610000", "110134.070000", "110134.530000", "110134.990000", "110135.450000", "110135.910000", "110136.370000", "110136.830000", "110137.290000", "110137.750000", "110138.210000", "110138.670000", "110139.130000", "110139.590000", "110140.050000", "110140.510000", "110140.970000", "110141.430000", "110141.890000", "110142.350000", "110142.810000", "110143.270000", "110143.730000", "110144.190000", "110144.650000", "110145.110000", "110145.570000", "110146.030000", "110146.490000", "110146.950000", "110147.410000", "110147.870000", "110148.330000", "110148.790000", "110149.250000", "110149.710000", "110150.170000", "110150.630000", "110151.090000", "110151.550000", "110152.010000", "110152.470000", "110152.930000", "110153.390000", "110153.850000", "110154.310000", "110154.770000", "110155.230000", "110155.690000", "110156.150000", "110156.610000", "110157.070000", "110157.530000", "110157.990000", "110158.450000", "110158.910000", "110159.370000", "110159.830000", "110200.290000", "110200.750000", "110201.210000", "110201.670000", "110202.130000", "110202.590000", "110203.050000", "110203.510000", "110203.970000", "110204.430000", "110204.890000", "110205.350000", "110205.810000", "110206.270000", "110206.730000", "110207.190000", "110207.650000", "110208.110000", "110208.570000", "110209.030000", "110209.490000", "110209.950000", "110210.410000", "110210.870000", "110211.330000", "110211.790000", "110212.250000", "110212.710000", "110213.170000", "110213.630000", "110214.090000", "110214.550000", "110215.010000", "110215.470000", "110215.930000", "110216.390000", "110216.850000", "110217.310000", "110217.770000", "110218.230000", "110218.690000", "110219.150000", "110219.610000", "110220.070000", "110220.530000", "110220.990000", "110221.450000", "110221.910000", "110222.370000", "110222.830000", "110223.290000", "110223.750000", "110224.210000", "110224.670000", "110225.130000", "110225.590000", "110226.050000", "110226.510000", "110226.970000", "110227.430000", "110227.890000", "110228.350000", "110228.810000", "110229.270000", "110229.730000", "110230.190000", "110230.650000", "110231.110000", "110231.570000", "110232.030000", "110232.490000", "110232.950000", "110233.410000", "110233.870000", "110234.330000", "110234.790000", "110235.250000", "110235.710000", "110236.170000", "110236.630000", "110237.090000", "110237.550000", "110238.010000", "110238.470000", "110238.930000", "110239.390000", "110239.850000", "110240.310000", "110240.770000", "110241.230000", "110241.690000", "110242.150000", "110242.610000", "110243.070000", "110243.530000", "110243.990000", "110244.450000", "110244.910000", "110245.370000", "110245.830000", "110246.290000", "110246.750000", "110247.210000", "110247.670000", "110248.130000", "110248.590000", "110249.050000", "110249.510000", "110249.970000", "110250.430000", "110250.890000", "110251.350000", "110251.810000", "110252.270000", "110252.730000", "110253.190000", "110253.650000", "110254.110000", "110254.570000", "110255.030000", "110255.490000", "110255.950000", "110256.410000", "110256.870000", "110257.330000", "110257.790000", "110258.250000", "110258.710000", "110259.170000", "110259.630000", "110300.090000", "110300.550000", "110301.010000", "110301.470000", "110301.930000", "110302.390000", "110302.850000", "110303.310000", "110303.770000", "110304.230000", "110304.690000", "110305.150000", "110305.610000", "110306.070000", "110306.530000", "110306.990000", "110307.450000", "110307.910000", "110308.370000", "110308.830000", "110309.290000", "110309.750000", "110310.210000", "110310.670000", "110311.130000", "110311.590000", "110312.050000", "110312.510000", "110312.970000", "110313.430000", "110313.890000", "110314.350000", "110314.810000", "110315.270000", "110315.730000", "110316.190000", "110316.650000", "110317.110000", "110317.570000", "110318.030000", "110318.490000", "110318.950000", "110319.410000", "110319.870000", "110320.330000", "110320.790000", "110321.250000", "110321.710000", "110322.170000", "110322.630000", "110323.090000", "110323.550000", "110324.010000", "110324.470000", "110324.930000", "110325.390000", "110325.850000", "110326.310000", "110326.770000", "110327.230000", "110327.690000", "110328.150000", "110328.610000", "110329.070000", "110329.530000", "110329.990000", "110330.450000", "110330.910000", "110331.370000", "110331.830000", "110332.290000", "110332.750000", "110333.210000", "110333.670000", "110334.130000", "110334.590000", "110335.050000", "110335.510000", "110335.970000", "110336.430000", "110336.890000", "110337.350000", "110337.810000", "110338.270000", "110338.730000", "110339.190000", "110339.650000", "110340.110000", "110340.570000", "110341.030000", "110341.490000", "110341.950000", "110342.410000", "110342.870000", "110343.330000", "110343.790000", "110344.250000", "110344.710000", "110345.170000", "110345.630000", "110346.090000", "110346.550000", "110347.010000", "110347.470000", "110347.930000", "110348.390000", "110348.850000", "110349.310000", "110349.770000", "110350.230000", "110350.690000", "110351.150000", "110351.610000", "110352.070000", "110352.530000", "110352.990000", "110353.450000", "110353.910000", "110354.370000", "110354.830000", "110355.290000", "110355.750000", "110356.210000", "110356.670000", "110357.130000", "110357.590000", "110358.050000", "110358.510000", "110358.970000", "110359.430000", "110359.890000", "110400.350000", "110400.810000", "110401.270000", "110401.730000", "110402.190000", "110402.650000", "110403.110000", "110403.570000", "110404.030000", "110404.490000", "110404.950000", "110405.410000", "110405.870000", "110406.330000", "110406.790000", "110407.250000", "110407.710000", "110408.170000", "110408.630000", "110409.090000", "110409.550000", "110410.010000", "110410.470000", "110410.930000", "110411.390000", "110411.850000", "110412.310000", "110412.770000", "110413.230000", "110413.690000", "110414.150000", "110414.610000", "110415.070000", "110415.530000", "110415.990000", "110416.450000", "110416.910000", "110417.370000", "110417.830000", "110418.290000", "110418.750000", "110419.210000", "110419.670000", "110420.130000", "110420.590000", "110421.050000", "110421.510000", "110421.970000", "110422.430000", "110422.890000", "110423.350000", "110423.810000", "110424.270000", "110424.730000", "110425.190000", "110425.650000", "110426.110000", "110426.570000", "110427.030000", "110427.490000", "110427.950000", "110428.410000", "110428.870000", "110429.330000", "110429.790000", "110430.250000", "110430.710000", "110431.170000", "110431.630000", "110432.090000", "110432.550000", "110433.010000", "110433.470000", "110433.930000", "110434.390000", "110434.850000", "110435.310000", "110435.770000", "110436.230000", "110436.690000", "110437.150000", "110437.610000", "110438.070000", "110438.530000", "110438.990000", "110439.450000", "110439.910000", "110440.370000", "110440.830000", "110441.290000", "110441.750000", "110442.210000", "110442.670000", "110443.130000", "110443.590000", "110444.050000", "110444.510000", "110444.970000", "110445.430000", "110445.890000", "110446.350000", "110446.810000", "110447.270000", "110447.730000", "110448.190000", "110448.650000", "110449.110000", "110449.570000", "110450.030000", "110450.490000", "110450.950000", "110451.410000", "110451.870000", "110452.330000", "110452.790000", "110453.250000", "110453.710000", "110454.170000", "110454.630000", "110455.090000", "110455.550000", "110456.010000", "110456.470000", "110456.930000", "110457.390000", "110457.850000", "110458.310000", "110458.770000", "110459.230000", "110459.690000", "110500.150000", "110500.610000", "110501.070000", "110501.530000", "110501.990000", "110502.450000", "110502.910000", "110503.370000", "110503.830000", "110504.290000", "110504.750000", "110505.210000", "110505.670000", "110506.130000", "110506.590000", "110507.050000", "110507.510000", "110507.970000", "110508.430000", "110508.890000", "110509.350000", "110509.810000", "110510.270000", "110510.730000", "110511.190000", "110511.650000", "110512.110000", "110512.570000", "110513.030000", "110513.490000", "110513.950000", "110514.410000", "110514.870000", "110515.330000", "110515.790000", "110516.250000", "110516.710000", "110517.170000", "110517.630000", "110518.090000", "110518.550000", "110519.010000", "110519.470000", "110519.930000", "110520.390000", "110520.850000", "110521.310000", "110521.770000", "110522.230000", "110522.690000", "110523.150000", "110523.610000", "110524.070000", "110524.530000", "110524.990000", "110525.450000", "110525.910000", "110526.370000", "110526.830000", "110527.290000", "110527.750000", "110528.210000", "110528.670000", "110529.130000", "110529.590000", "110530.050000", "110530.510000", "110530.970000", "110531.430000", "110531.890000", "110532.350000", "110532.810000", "110533.270000", "110533.730000", "110534.190000", "110534.650000", "110535.110000", "110535.570000", "110536.030000", "110536.490000", "110536.950000", "110537.410000", "110537.870000", "110538.330000", "110538.790000", "110539.250000", "110539.710000", "110540.170000", "110540.630000", "110541.090000", "110541.550000", "110542.010000", "110542.470000", "110542.930000", "110543.390000", "110543.850000", "110544.310000", "110544.770000", "110545.230000", "110545.690000", "110546.150000", "110546.610000", "110547.070000", "110547.530000", "110547.990000", "110548.450000", "110548.910000", "110549.370000", "110549.830000", "110550.290000", "110550.750000", "110551.210000", "110551.670000", "110552.130000", "110552.590000", "110553.050000", "110553.510000", "110553.970000", "110554.430000", "110554.890000", "110555.350000", "110555.810000", "110556.270000", "110556.730000", "110557.190000", "110557.650000", "110558.110000", "110558.570000", "110559.030000", "110559.490000", "110559.950000", "110600.410000", "110600.870000", "110601.330000", "110601.790000", "110602.250000", "110602.710000", "110603.170000", "110603.630000", "110604.090000", "110604.550000", "110605.010000", "110605.470000", "110605.930000", "110606.390000", "110606.850000", "110607.310000", "110607.770000", "110608.230000", "110608.690000", "110609.150000", "110609.610000", "110610.070000", "110610.530000", "110610.990000", "110611.450000", "110611.910000", "110612.370000", "110612.830000", "110613.290000", "110613.750000", "110614.210000", "110614.670000", "110615.130000", "110615.590000", "110616.050000", "110616.510000", "110616.970000", "110617.430000", "110617.890000", "110618.350000", "110618.810000", "110619.270000", "110619.730000", "110620.190000", "110620.650000", "110621.110000", "110621.570000", "110622.030000", "110622.490000", "110622.950000", "110623.410000", "110623.870000", "110624.330000", "110624.790000", "110625.250000", "110625.710000", "110626.170000", "110626.630000", "110627.090000", "110627.550000", "110628.010000", "110628.470000", "110628.930000", "110629.390000", "110629.850000", "110630.310000", "110630.770000", "110631.230000", "110631.690000", "110632.150000", "110632.610000", "110633.070000", "110633.530000", "110633.990000", "110634.450000", "110634.910000", "110635.370000", "110635.830000", "110636.290000", "110636.750000", "110637.210000", "110637.670000", "110638.130000", "110638.590000", "110639.050000", "110639.510000", "110639.970000", "110640.430000", "110640.890000", "110641.350000", "110641.810000", "110642.270000", "110642.730000", "110643.190000", "110643.650000", "110644.110000", "110644.570000", "110645.030000", "110645.490000", "110645.950000", "110646.410000", "110646.870000", "110647.330000", "110647.790000", "110648.250000", "110648.710000", "110649.170000", "110649.630000", "110650.090000", "110650.550000", "110651.010000", "110651.470000", "110651.930000", "110652.390000", "110652.850000", "110653.310000", "110653.770000", "110654.230000", "110654.690000", "110655.150000", "110655.610000", "110656.070000", "110656.530000", "110656.990000", "110657.450000", "110657.910000", "110658.370000", "110658.830000", "110659.290000", "110659.750000", "110700.210000", "110700.670000", "110701.130000", "110701.590000", "110702.050000", "110702.510000", "110702.970000", "110703.430000", "110703.890000", "110704.350000", "110704.810000", "110705.270000", "110705.730000", "110706.190000", "110706.650000", "110707.110000", "110707.570000", "110708.030000", "110708.490000", "110708.950000", "110709.410000", "110709.870000", "110710.330000", "110710.790000", "110711.250000", "110711.710000", "110712.170000", "110712.630000", "110713.090000", "110713.550000", "110714.010000", "110714.470000", "110714.930000", "110715.390000", "110715.850000", "110716.310000", "110716.770000", "110717.230000", "110717.690000", "110718.150000", "110718.610000", "110719.070000", "110719.530000", "110719.990000", "110720.450000", "110720.910000", "110721.370000", "110721.830000", "110722.290000", "110722.750000", "110723.210000", "110723.670000", "110724.130000", "110724.590000", "110725.050000", "110725.510000", "110725.970000", "110726.430000", "110726.890000", "110727.350000", "110727.810000", "110728.270000", "110728.730000", "110729.190000", "110729.650000", "110730.110000", "110730.570000", "110731.030000", "110731.490000", "110731.950000", "110732.410000", "110732.870000", "110733.330000", "110733.790000", "110734.250000", "110734.710000", "110735.170000", "110735.630000", "110736.090000", "110736.550000", "110737.010000", "110737.470000", "110737.930000", "110738.390000", "110738.850000", "110739.310000", "110739.770000", "110740.230000", "110740.690000", "110741.150000", "110741.610000", "110742.070000", "110742.530000", "110742.990000", "110743.450000", "110743.910000", "110744.370000", "110744.830000", "110745.290000", "110745.750000", "110746.210000", "110746.670000", "110747.130000", "110747.590000", "110748.050000", "110748.510000", "110748.970000", "110749.430000", "110749.890000", "110750.350000", "110750.810000", "110751.270000", "110751.730000", "110752.190000", "110752.650000", "110753.110000", "110753.570000", "110754.030000", "110754.490000", "110754.950000", "110755.410000", "110755.870000", "110756.330000", "110756.790000", "110757.250000", "110757.710000", "110758.170000", "110758.630000", "110759.090000", "110759.550000", "110800.010000", "110800.470000", "110800.930000", "110801.390000", "110801.850000", "110802.310000", "110802.770000", "110803.230000", "110803.690000", "110804.150000", "110804.610000", "110805.070000", "110805.530000", "110805.990000", "110806.450000", "110806.910000", "110807.370000", "110807.830000", "110808.290000", "110808.750000", "110809.210000", "110809.670000", "110810.130000", "110810.590000", "110811.050000", "110811.510000", "110811.970000", "110812.430000", "110812.890000", "110813.350000", "110813.810000", "110814.270000", "110814.730000", "110815.190000", "110815.650000", "110816.110000", "110816.570000", "110817.030000", "110817.490000", "110817.950000", "110818.410000", "110818.870000", "110819.330000", "110819.790000", "110820.250000", "110820.710000", "110821.170000", "110821.630000", "110822.090000", "110822.550000", "110823.010000", "110823.470000", "110823.930000", "110824.390000", "110824.850000", "110825.310000", "110825.770000", "110826.230000", "110826.690000", "110827.150000", "110827.610000", "110828.070000", "110828.530000", "110828.990000", "110829.450000", "110829.910000", "110830.370000", "110830.830000", "110831.290000", "110831.750000", "110832.210000", "110832.670000", "110833.130000", "110833.590000", "110834.050000", "110834.510000", "110834.970000", "110835.430000", "110835.890000", "110836.350000", "110836.810000", "110837.270000", "110837.730000"],
