{
  "AcquisitionMatrixPE": 82,
  "AcquisitionNumber": 1,
  "AcquisitionTime": "10:52:20.495000",
  "BandwidthPerPixelPhaseEncode": 24.888,
  "BaseResolution": 82,
  "BodyPartExamined": "BRAIN",
  "ConsistencyInfo": "N4_VE11E_LATEST_20181129",
  "ConversionSoftware": "dcm2niix",
  "ConversionSoftwareVersion": "v1.0.20201102",
  "DerivedVendorReportedEchoSpacing": 0.00049,
  "DeviceSerialNumber": "66112",
  "DwellTime": 2e-06,
  "EchoTime": 0.0272,
  "EchoTrainLength": 82,
  "EffectiveEchoSpacing": 0.00049,
  "FlipAngle": 44,
  "ImageComments": "Unaliased MB8/PE3",
  "ImageOrientationPatientDICOM": [0.999732, 0.0223292, -0.00614155, -0.0214651, 0.992996, 0.116183],
  "ImageType": [
    "ORIGINAL",
    "PRIMARY",
    "M",
    "MB",
    "ND",
    "NORM",
    "MOSAIC"
],
  "ImagingFrequency": 123.259,
  "InPlanePhaseEncodingDirectionDICOM": "COL",
  "InstitutionAddress": "Maynard 3,Hanover,NH,US,03755",
  "InstitutionName": "Dartmouth College - PBS",
  "InstitutionalDepartmentName": "Department",
  "MRAcquisitionType": "2D",
  "MagneticFieldStrength": 3,
  "Manufacturer": "Siemens",
  "ManufacturersModelName": "Prisma",
  "Modality": "MR",
  "MultibandAccelerationFactor": 8,
  "PartialFourier": 1,
  "PatientPosition": "HFS",
  "PercentPhaseFOV": 100,
  "PercentSampling": 100,
  "PhaseEncodingDirection": "j-",
  "PhaseEncodingSteps": 82,
  "PhaseResolution": 1,
  "PixelBandwidth": 3050,
  "ProcedureStepDescription": "Wager_Wager^1076_spacetop",
  "ProtocolName": "func_run-01_task-narratives_acq-ap-mb8",
  "PulseSequenceDetails": "%CustomerSeq%\\cmrr_mbep2d_bold",
  "ReceiveCoilActiveElements": "HEA;HEP",
  "ReceiveCoilName": "Head_32",
  "ReconMatrixPE": 82,
  "RepetitionTime": 0.46,
  "SAR": 0.0819898,
  "ScanOptions": "FS",
  "ScanningSequence": "EP",
  "SequenceName": "epfid2d1_82",
  "SequenceVariant": "SK\\SS",
  "SeriesDescription": "func_run-01_task-narratives_acq-ap-mb8",
  "SeriesNumber": 8,
  "ShimSetting": [4216, -7777, -7214, 354, -155, 45, 91, 82],
  "SliceThickness": 2.7,
  "SliceTiming": [0, 0.2525, 0.0625, 0.315, 0.1275, 0.3775, 0.19, 0, 0.2525, 0.0625, 0.315, 0.1275, 0.3775, 0.19, 0, 0.2525, 0.0625, 0.315, 0.1275, 0.3775, 0.19, 0, 0.2525, 0.0625, 0.315, 0.1275, 0.3775, 0.19, 0, 0.2525, 0.0625, 0.315, 0.1275, 0.3775, 0.19, 0, 0.2525, 0.0625, 0.315, 0.1275, 0.3775, 0.19, 0, 0.2525, 0.0625, 0.315, 0.1275, 0.3775, 0.19, 0, 0.2525, 0.0625, 0.315, 0.1275, 0.3775, 0.19],
  "SoftwareVersions": "syngo MR E11",
  "SpacingBetweenSlices": 2.7,
  "StationName": "AWP66112",
  "TaskName": "narratives",
  "TotalReadoutTime": 0.03969,
  "TxRefAmp": 228.14,
  "WipMemBlock": "fd9e840c-327f-4619-a726-73d349e7a71d||Sequence: R016 ve11e/master r/434b28f1; Aug  7 2019 18:53:46 by eja",
  "dcmmeta_affine": [
    [-2.6822073459625244, -0.05758918821811676, -0.02347058802843094, 116.10602569580078],
    [-0.05990773066878319, 2.664135217666626, 0.313254177570343, -110.92465209960938],
    [-0.016477322205901146, -0.3117106556892395, 2.681663751602173, -49.07248306274414],
    [0.0, 0.0, 0.0, 1.0]
],
  "dcmmeta_reorient_transform": [
    [0.0, -1.0, 0.0, 81.0],
    [1.0, 0.0, 0.0, 0.0],
    [0.0, 0.0, 1.0, 0.0],
    [0.0, 0.0, 0.0, 1.0]
],
  "dcmmeta_shape": [82, 82, 56, 967],
  "dcmmeta_slice_dim": 2,
  "dcmmeta_version": 0.6,
  "global": {
    "const": {
      "AccessionNumber": "A004495",
      "AcquisitionMatrix": [82, 0, 0, 82],
      "AngioFlag": "N",
      "BitsAllocated": 16,
      "BitsStored": 16,
      "BodyPartExamined": "BRAIN",
      "Columns": 656,
      "EchoNumbers": 1,
      "EchoTime": 27.2,
      "EchoTrainLength": 82,
      "FlipAngle": 44.0,
      "HighBit": 15,
      "ImageOrientationPatient": [0.99973180714252, 0.0223292451279, -0.0061415470013, -0.0214650606998, 0.9929958450229, 0.11618305787169],
      "ImagePositionPatient": [-864.70671544995, -886.67063899948, -159.05301212985],
      "ImageType": [
        "ORIGINAL",
        "PRIMARY",
        "M",
        "MB",
        "ND",
        "NORM",
        "MOSAIC"
],
      "ImagedNucleus": "1H",
      "ImagingFrequency": 123.259263,
      "InPlanePhaseEncodingDirection": "COL",
      "MRAcquisitionType": "2D",
      "MagneticFieldStrength": 3.0,
      "Manufacturer": "SIEMENS",
      "ManufacturerModelName": "Prisma",
      "Modality": "MR",
      "NumberOfAverages": 1.0,
      "NumberOfPhaseEncodingSteps": 82,
      "PercentPhaseFieldOfView": 100.0,
      "PercentSampling": 100.0,
      "PerformedProcedureStepStartTime": "104701.976000",
      "PhotometricInterpretation": "MONOCHROME2",
      "PixelBandwidth": 3050.0,
      "PixelRepresentation": 0,
      "PixelSpacing": [2.6829268932343, 2.6829268932343],
      "ProtocolName": "func_run-01_task-narratives_acq-ap-mb8",
      "RepetitionTime": 460.0,
      "Rows": 656,
      "SAR": 0.08198978278509,
      "SamplesPerPixel": 1,
      "ScanOptions": "FS",
      "ScanningSequence": "EP",
      "SequenceName": "epfid2d1_82",
      "SequenceVariant": [
        "SK",
        "SS"
],
      "SeriesDescription": "func_run-01_task-narratives_acq-ap-mb8",
      "SeriesNumber": 8,
      "SeriesTime": "105234.889000",
      "SliceLocation": -62.617998333027,
      "SliceThickness": 2.7000000476837,
      "SmallestImagePixelValue": 0,
      "SoftwareVersions": "syngo MR E11",
      "SpacingBetweenSlices": 2.7000000213326,
      "SpecificCharacterSet": "ISO_IR 100",
      "StudyID": "1",
      "StudyTime": "104701.916000",
      "TransmitCoilName": "Body",
      "VariableFlipAngleFlag": "N",
      "WindowCenterWidthExplanation": "Algo1"
    },
    "slices": {}
  },
  "time": {
    "samples": {
      "AcquisitionNumber": [1, 2, 3, 4, 5, 6, 7, 8, 9, 10, 11, 12, 13, 14, 15, 16, 17, 18, 19, 20, 21, 22, 23, 24, 25, 26, 27, 28, 29, 30, 31, 32, 33, 34, 35, 36, 37, 38, 39, 40, 41, 42, 43, 44, 45, 46, 47, 48, 49, 50, 51, 52, 53, 54, 55, 56, 57, 58, 59, 60, 61, 62, 63, 64, 65, 66, 67, 68, 69, 70, 71, 72, 73, 74, 75, 76, 77, 78, 79, 80, 81, 82, 83, 84, 85, 86, 87, 88, 89, 90, 91, 92, 93, 94, 95, 96, 97, 98, 99, 100, 101, 102, 103, 104, 105, 106, 107, 108, 109, 110, 111, 112, 113, 114, 115, 116, 117, 118, 119, 120, 121, 122, 123, 124, 125, 126, 127, 128, 129, 130, 131, 132, 133, 134, 135, 136, 137, 138, 139, 140, 141, 142, 143, 144, 145, 146, 147, 148, 149, 150, 151, 152, 153, 154, 155, 156, 157, 158, 159, 160, 161, 162, 163, 164, 165, 166, 167, 168, 169, 170, 171, 172, 173, 174, 175, 176, 177, 178, 179, 180, 181, 182, 183, 184, 185, 186, 187, 188, 189, 190, 191, 192, 193, 194, 195, 196, 197, 198, 199, 200, 201, 202, 203, 204, 205, 206, 207, 208, 209, 210, 211, 212, 213, 214, 215, 216, 217, 218, 219, 220, 221, 222, 223, 224, 225, 226, 227, 228, 229, 230, 231, 232, 233, 234, 235, 236, 237, 238, 239, 240, 241, 242, 243, 244, 245, 246, 247, 248, 249, 250, 251, 252, 253, 254, 255, 256, 257, 258, 259, 260, 261, 262, 263, 264, 265, 266, 267, 268, 269, 270, 271, 272, 273, 274, 275, 276, 277, 278, 279, 280, 281, 282, 283, 284, 285, 286, 287, 288, 289, 290, 291, 292, 293, 294, 295, 296, 297, 298, 299, 300, 301, 302, 303, 304, 305, 306, 307, 308, 309, 310, 311, 312, 313, 314, 315, 316, 317, 318, 319, 320, 321, 322, 323, 324, 325, 326, 327, 328, 329, 330, 331, 332, 333, 334, 335, 336, 337, 338, 339, 340, 341, 342, 343, 344, 345, 346, 347, 348, 349, 350, 351, 352, 353, 354, 355, 356, 357, 358, 359, 360, 361, 362, 363, 364, 365, 366, 367, 368, 369, 370, 371, 372, 373, 374, 375, 376, 377, 378, 379, 380, 381, 382, 383, 384, 385, 386, 387, 388, 389, 390, 391, 392, 393, 394, 395, 396, 397, 398, 399, 400, 401, 402, 403, 404, 405, 406, 407, 408, 409, 410, 411, 412, 413, 414, 415, 416, 417, 418, 419, 420, 421, 422, 423, 424, 425, 426, 427, 428, 429, 430, 431, 432, 433, 434, 435, 436, 437, 438, 439, 440, 441, 442, 443, 444, 445, 446, 447, 448, 449, 450, 451, 452, 453, 454, 455, 456, 457, 458, 459, 460, 461, 462, 463, 464, 465, 466, 467, 468, 469, 470, 471, 472, 473, 474, 475, 476, 477, 478, 479, 480, 481, 482, 483, 484, 485, 486, 487, 488, 489, 490, 491, 492, 493, 494, 495, 496, 497, 498, 499, 500, 501, 502, 503, 504, 505, 506, 507, 508, 509, 510, 511, 512, 513, 514, 515, 516, 517, 518, 519, 520, 521, 522, 523, 524, 525, 526, 527, 528, 529, 530, 531, 532, 533, 534, 535, 536, 537, 538, 539, 540, 541, 542, 543, 544, 545, 546, 547, 548, 549, 550, 551, 552, 553, 554, 555, 556, 557, 558, 559, 560, 561, 562, 563, 564, 565, 566, 567, 568, 569, 570, 571, 572, 573, 574, 575, 576, 577, 578, 579, 580, 581, 582, 583, 584, 585, 586, 587, 588, 589, 590, 591, 592, 593, 594, 595, 596, 597, 598, 599, 600, 601, 602, 603, 604, 605, 606, 607, 608, 609, 610, 611, 612, 613, 614, 615, 616, 617, 618, 619, 620, 621, 622, 623, 624, 625, 626, 627, 628, 629, 630, 631, 632, 633, 634, 635, 636, 637, 638, 639, 640, 641, 642, 643, 644, 645, 646, 647, 648, 649, 650, 651, 652, 653, 654, 655, 656, 657, 658, 659, 660, 661, 662, 663, 664, 665, 666, 667, 668, 669, 670, 671, 672, 673, 674, 675, 676, 677, 678, 679, 680, 681, 682, 683, 684, 685, 686, 687, 688, 689, 690, 691, 692, 693, 694, 695, 696, 697, 698, 699, 700, 701, 702, 703, 704, 705, 706, 707, 708, 709, 710, 711, 712, 713, 714, 715, 716, 717, 718, 719, 720, 721, 722, 723, 724, 725, 726, 727, 728, 729, 730, 731, 732, 733, 734, 735, 736, 737, 738, 739, 740, 741, 742, 743, 744, 745, 746, 747, 748, 749, 750, 751, 752, 753, 754, 755, 756, 757, 758, 759, 760, 761, 762, 763, 764, 765, 766, 767, 768, 769, 770, 771, 772, 773, 774, 775, 776, 777, 778, 779, 780, 781, 782, 783, 784, 785, 786, 787, 788, 789, 790, 791, 792, 793, 794, 795, 796, 797, 798, 799, 800, 801, 802, 803, 804, 805, 806, 807, 808, 809, 810, 811, 812, 813, 814, 815, 816, 817, 818, 819, 820, 821, 822, 823, 824, 825, 826, 827, 828, 829, 830, 831, 832, 833, 834, 835, 836, 837, 838, 839, 840, 841, 842, 843, 844, 845, 846, 847, 848, 849, 850, 851, 852, 853, 854, 855, 856, 857, 858, 859, 860, 861, 862, 863, 864, 865, 866, 867, 868, 869, 870, 871, 872, 873, 874, 875, 876, 877, 878, 879, 880, 881, 882, 883, 884, 885, 886, 887, 888, 889, 890, 891, 892, 893, 894, 895, 896, 897, 898, 899, 900, 901, 902, 903, 904, 905, 906, 907, 908, 909, 910, 911, 912, 913, 914, 915, 916, 917, 918, 919, 920, 921, 922, 923, 924, 925, 926, 927, 928, 929, 930, 931, 932, 933, 934, 935, 936, 937, 938, 939, 940, 941, 942, 943, 944, 945, 946, 947, 948, 949, 950, 951, 952, 953, 954, 955, 956, 957, 958, 959, 960, 961, 962, 963, 964, 965, 966, 967],
      "AcquisitionTime": ["105220.495000", "105220.955000", "105221.415000", "105221.875000", "105222.335000", "105222.795000", "105223.255000", "105223.715000", "105224.175000", "105224.635000", "105225.095000", "105225.555000", "105226.015000", "105226.475000", "105226.935000", "105227.395000", "105227.855000", "105228.315000", "105228.775000", "105229.235000", "105229.695000", "105230.155000", "105230.615000", "105231.075000", "105231.535000", "105231.995000", "105232.455000", "105232.915000", "105233.375000", "105233.835000", "105234.295000", "105234.755000", "105235.215000", "105235.675000", "105236.135000", "105236.595000", "105237.055000", "105237.515000", "105237.975000", "105238.435000", "105238.895000", "105239.355000", "105239.815000", "105240.275000", "105240.735000", "105241.195000", "105241.655000", "105242.115000", "105242.575000", "105243.035000", "105243.495000", "105243.955000", "105244.415000", "105244.875000", "105245.335000", "105245.795000", "105246.255000", "105246.715000", "105247.175000", "105247.635000", "105248.095000", "105248.555000", "105249.015000", "105249.475000", "105249.935000", "105250.395000", "105250.855000", "105251.315000", "105251.775000", "105252.235000", "105252.695000", "105253.155000", "105253.615000", "105254.075000", "105254.535000", "105254.995000", "105255.455000", "105255.915000", "105256.375000", "105256.835000", "105257.295000", "105257.755000", "105258.215000", "105258.675000", "105259.135000", "105259.595000", "105300.055000", "105300.515000", "105300.975000", "105301.435000", "105301.895000", "105302.355000", "105302.815000", "105303.275000", "105303.735000", "105304.195000", "105304.655000", "105305.115000", "105305.575000", "105306.035000", "105306.495000", "105306.955000", "105307.415000", "105307.875000", "105308.335000", "105308.795000", "105309.255000", "105309.715000", "105310.175000", "105310.635000", "105311.095000", "105311.555000", "105312.015000", "105312.475000", "105312.935000", "105313.395000", "105313.855000", "105314.315000", "105314.775000", "105315.235000", "105315.695000", "105316.155000", "105316.615000", "105317.075000", "105317.535000", "105317.995000", "105318.455000", "105318.915000", "105319.375000", "105319.835000", "105320.295000", "105320.755000", "105321.215000", "105321.675000", "105322.135000", "105322.595000", "105323.055000", "105323.515000", "105323.975000", "105324.435000", "105324.895000", "105325.355000", "105325.815000", "105326.275000", "105326.735000", "105327.195000", "105327.655000", "105328.115000", "105328.575000", "105329.035000", "105329.495000", "105329.955000", "105330.415000", "105330.875000", "105331.335000", "105331.795000", "105332.255000", "105332.715000", "105333.175000", "105333.635000", "105334.095000", "105334.555000", "105335.015000", "105335.475000", "105335.935000", "105336.395000", "105336.855000", "105337.315000", "105337.775000", "105338.235000", "105338.695000", "105339.155000", "105339.615000", "105340.075000", "105340.535000", "105340.995000", "105341.455000", "105341.915000", "105342.375000", "105342.835000", "105343.295000", "105343.755000", "105344.215000", "105344.675000", "105345.135000", "105345.595000", "105346.055000", "105346.515000", "105346.975000", "105347.435000", "105347.895000", "105348.355000", "105348.815000", "105349.275000", "105349.735000", "105350.195000", "105350.655000", "105351.115000", "105351.575000", "105352.035000", "105352.495000", "105352.955000", "105353.415000", "105353.875000", "105354.335000", "105354.795000", "105355.255000", "105355.715000", "105356.175000", "105356.635000", "105357.095000", "105357.555000", "105358.015000", "105358.475000", "105358.935000", "105359.395000", "105359.855000", "105400.315000", "105400.775000", "105401.235000", "105401.695000", "105402.155000", "105402.615000", "105403.075000", "105403.535000", "105403.995000", "105404.455000", "105404.915000", "105405.375000", "105405.835000", "105406.295000", "105406.755000", "105407.215000", "105407.675000", "105408.135000", "105408.595000", "105409.055000", "105409.515000", "105409.975000", "105410.435000", "105410.895000", "105411.355000", "105411.815000", "105412.275000", "105412.735000", "105413.195000", "105413.655000", "105414.115000", "105414.575000", "105415.035000", "105415.495000", "105415.955000", "105416.415000", "105416.875000", "105417.335000", "105417.795000", "105418.255000", "105418.715000", "105419.175000", "105419.635000", "105420.095000", "105420.555000", "105421.015000", "105421.475000", "105421.935000", "105422.395000", "105422.855000", "105423.315000", "105423.775000", "105424.235000", "105424.695000", "105425.155000", "105425.615000", "105426.075000", "105426.535000", "105426.995000", "105427.455000", "105427.915000", "105428.375000", "105428.835000", "105429.295000", "105429.755000", "105430.215000", "105430.675000", "105431.135000", "105431.595000", "105432.055000", "105432.515000", "105432.975000", "105433.435000", "105433.895000", "105434.355000", "105434.815000", "105435.275000", "105435.735000", "105436.195000", "105436.655000", "105437.115000", "105437.575000", "105438.035000", "105438.495000", "105438.955000", "105439.415000", "105439.875000", "105440.335000", "105440.795000", "105441.255000", "105441.715000", "105442.175000", "105442.635000", "105443.095000", "105443.555000", "105444.015000", "105444.475000", "105444.935000", "105445.395000", "105445.855000", "105446.315000", "105446.775000", "105447.235000", "105447.695000", "105448.155000", "105448.615000", "105449.075000", "105449.535000", "105449.995000", "105450.455000", "105450.915000", "105451.375000", "105451.835000", "105452.295000", "105452.755000", "105453.215000", "105453.675000", "105454.135000", "105454.595000", "105455.055000", "105455.515000", "105455.975000", "105456.435000", "105456.895000", "105457.355000", "105457.815000", "105458.275000", "105458.735000", "105459.195000", "105459.655000", "105500.115000", "105500.575000", "105501.035000", "105501.495000", "105501.955000", "105502.415000", "105502.875000", "105503.335000", "105503.795000", "105504.255000", "105504.715000", "105505.175000", "105505.635000", "105506.095000", "105506.555000", "105507.015000", "105507.475000", "105507.935000", "105508.395000", "105508.855000", "105509.315000", "105509.775000", "105510.235000", "105510.695000", "105511.155000", "105511.615000", "105512.075000", "105512.535000", "105512.995000", "105513.455000", "105513.915000", "105514.375000", "105514.835000", "105515.295000", "105515.755000", "105516.215000", "105516.675000", "105517.135000", "105517.595000", "105518.055000", "105518.515000", "105518.975000", "105519.435000", "105519.895000", "105520.355000", "105520.815000", "105521.275000", "105521.735000", "105522.195000", "105522.655000", "105523.115000", "105523.575000", "105524.035000", "105524.495000", "105524.955000", "105525.415000", "105525.875000", "105526.335000", "105526.795000", "105527.255000", "105527.715000", "105528.175000", "105528.635000", "105529.095000", "105529.555000", "105530.015000", "105530.475000", "105530.935000", "105531.395000", "105531.855000", "105532.315000", "105532.775000", "105533.235000", "105533.695000", "105534.155000", "105534.615000", "105535.075000", "105535.535000", "105535.995000", "105536.455000", "105536.915000", "105537.375000", "105537.835000", "105538.295000", "105538.755000", "105539.215000", "105539.675000", "105540.135000", "105540.595000", "105541.055000", "105541.515000", "105541.975000", "105542.435000", "105542.895000", "105543.355000", "105543.815000", "105544.275000", "105544.735000", "105545.195000", "105545.655000", "105546.115000", "105546.575000", "105547.035000", "105547.495000", "105547.955000", "105548.415000", "105548.875000", "105549.335000", "105549.795000", "105550.255000", "105550.715000", "105551.175000", "105551.635000", "105552.095000", "105552.555000", "105553.015000", "105553.475000", "105553.935000", "105554.395000", "105554.855000", "105555.315000", "105555.775000", "105556.235000", "105556.695000", "105557.155000", "105557.615000", "105558.075000", "105558.535000", "105558.995000", "105559.455000", "105559.915000", "105600.375000", "105600.835000", "105601.295000", "105601.755000", "105602.215000", "105602.675000", "105603.135000", "105603.595000", "105604.055000", "105604.515000", "105604.975000", "105605.435000", "105605.895000", "105606.355000", "105606.815000", "105607.275000", "105607.735000", "105608.195000", "105608.655000", "105609.115000", "105609.575000", "105610.035000", "105610.495000", "105610.955000", "105611.415000", "105611.875000", "105612.335000", "105612.795000", "105613.255000", "105613.715000", "105614.175000", "105614.635000", "105615.095000", "105615.555000", "105616.015000", "105616.475000", "105616.935000", "105617.395000", "105617.855000", "105618.315000", "105618.775000", "105619.235000", "105619.695000", "105620.155000", "105620.615000", "105621.075000", "105621.535000", "105621.995000", "105622.455000", "105622.915000", "105623.375000", "105623.835000", "105624.295000", "105624.755000", "105625.215000", "105625.675000", "105626.135000", "105626.595000", "105627.055000", "105627.515000", "105627.975000", "105628.435000", "105628.895000", "105629.355000", "105629.815000", "105630.275000", "105630.735000", "105631.195000", "105631.655000", "105632.115000", "105632.575000", "105633.035000", "105633.495000", "105633.955000", "105634.415000", "105634.875000", "105635.335000", "105635.795000", "105636.255000", "105636.715000", "105637.175000", "105637.635000", "105638.095000", "105638.555000", "105639.015000", "105639.475000", "105639.935000", "105640.395000", "105640.855000", "105641.315000", "105641.775000", "105642.235000", "105642.695000", "105643.155000", "105643.615000", "105644.075000", "105644.535000", "105644.995000", "105645.455000", "105645.915000", "105646.375000", "105646.835000", "105647.295000", "105647.755000", "105648.215000", "105648.675000", "105649.135000", "105649.595000", "105650.055000", "105650.515000", "105650.975000", "105651.435000", "105651.895000", "105652.355000", "105652.815000", "105653.275000", "105653.735000", "105654.195000", "105654.655000", "105655.115000", "105655.575000", "105656.035000", "105656.495000", "105656.955000", "105657.415000", "105657.875000", "105658.335000", "105658.795000", "105659.255000", "105659.715000", "105700.175000", "105700.635000", "105701.095000", "105701.555000", "105702.015000", "105702.475000", "105702.935000", "105703.395000", "105703.855000", "105704.315000", "105704.775000", "105705.235000", "105705.695000", "105706.155000", "105706.615000", "105707.075000", "105707.535000", "105707.995000", "105708.455000", "105708.915000", "105709.375000", "105709.835000", "105710.295000", "105710.755000", "105711.215000", "105711.675000", "105712.135000", "105712.595000", "105713.055000", "105713.515000", "105713.975000", "105714.435000", "105714.895000", "105715.355000", "105715.815000", "105716.275000", "105716.735000", "105717.195000", "105717.655000", "105718.115000", "105718.575000", "105719.035000", "105719.495000", "105719.955000", "105720.415000", "105720.875000", "105721.335000", "105721.795000", "105722.255000", "105722.715000", "105723.175000", "105723.635000", "105724.095000", "105724.555000", "105725.015000", "105725.475000", "105725.935000", "105726.395000", "105726.855000", "105727.315000", "105727.775000", "105728.235000", "105728.695000", "105729.155000", "105729.615000", "105730.075000", "105730.535000", "105730.995000", "105731.455000", "105731.915000", "105732.375000", "105732.835000", "105733.295000", "105733.755000", "105734.215000", "105734.675000", "105735.135000", "105735.595000", "105736.055000", "105736.515000", "105736.975000", "105737.435000", "105737.895000", "105738.355000", "105738.815000", "105739.275000", "105739.735000", "105740.195000", "105740.655000", "105741.115000", "105741.575000", "105742.035000", "105742.495000", "105742.955000", "105743.415000", "105743.875000", "105744.335000", "105744.795000", "105745.255000", "105745.715000", "105746.175000", "105746.635000", "105747.095000", "105747.555000", "105748.015000", "105748.475000", "105748.935000", "105749.395000", "105749.855000", "105750.315000", "105750.775000", "105751.235000", "105751.695000", "105752.155000", "105752.615000", "105753.075000", "105753.535000", "105753.995000", "105754.455000", "105754.915000", "105755.375000", "105755.835000", "105756.295000", "105756.755000", "105757.215000", "105757.675000", "105758.135000", "105758.595000", "105759.055000", "105759.515000", "105759.975000", "105800.435000", "105800.895000", "105801.355000", "105801.815000", "105802.275000", "105802.735000", "105803.195000", "105803.655000", "105804.115000", "105804.575000", "105805.035000", "105805.495000", "105805.955000", "105806.415000", "105806.875000", "105807.335000", "105807.795000", "105808.255000", "105808.715000", "105809.175000", "105809.635000", "105810.095000", "105810.555000", "105811.015000", "105811.475000", "105811.935000", "105812.395000", "105812.855000", "105813.315000", "105813.775000", "105814.235000", "105814.695000", "105815.155000", "105815.615000", "105816.075000", "105816.535000", "105816.995000", "105817.455000", "105817.915000", "105818.375000", "105818.835000", "105819.295000", "105819.755000", "105820.215000", "105820.675000", "105821.135000", "105821.595000", "105822.055000", "105822.515000", "105822.975000", "105823.435000", "105823.895000", "105824.355000", "105824.815000", "105825.275000", "105825.735000", "105826.195000", "105826.655000", "105827.115000", "105827.575000", "105828.035000", "105828.495000", "105828.955000", "105829.415000", "105829.875000", "105830.335000", "105830.795000", "105831.255000", "105831.715000", "105832.175000", "105832.635000", "105833.095000", "105833.555000", "105834.015000", "105834.475000", "105834.935000", "105835.395000", "105835.855000", "105836.315000", "105836.775000", "105837.235000", "105837.695000", "105838.155000", "105838.615000", "105839.075000", "105839.535000", "105839.995000", "105840.455000", "105840.915000", "105841.375000", "105841.835000", "105842.295000", "105842.755000", "105843.215000", "105843.675000", "105844.135000", "105844.595000", "105845.055000", "105845.515000", "105845.975000", "105846.435000", "105846.895000", "105847.355000", "105847.815000", "105848.275000", "105848.735000", "105849.195000", "105849.655000", "105850.115000", "105850.575000", "105851.035000", "105851.495000", "105851.955000", "105852.415000", "105852.875000", "105853.335000", "105853.795000", "105854.255000", "105854.715000", "105855.175000", "105855.635000", "105856.095000", "105856.555000", "105857.015000", "105857.475000", "105857.935000", "105858.395000", "105858.855000", "105859.315000", "105859.775000", "105900.235000", "105900.695000", "105901.155000", "105901.615000", "105902.075000", "105902.535000", "105902.995000", "105903.455000", "105903.915000", "105904.375000", "105904.835000", "105905.295000", "105905.755000", "105906.215000", "105906.675000", "105907.135000", "105907.595000", "105908.055000", "105908.515000", "105908.975000", "105909.435000", "105909.895000", "105910.355000", "105910.815000", "105911.275000", "105911.735000", "105912.195000", "105912.655000", "105913.115000", "105913.575000", "105914.035000", "105914.495000", "105914.955000", "105915.415000", "105915.875000", "105916.335000", "105916.795000", "105917.255000", "105917.715000", "105918.175000", "105918.635000", "105919.095000", "105919.555000", "105920.015000", "105920.475000", "105920.935000", "105921.395000", "105921.855000", "105922.315000", "105922.775000", "105923.235000", "105923.695000", "105924.155000", "105924.615000", "105925.075000", "105925.535000", "105925.995000", "105926.455000", "105926.915000", "105927.375000", "105927.835000", "105928.295000", "105928.755000", "105929.215000", "105929.675000", "105930.135000", "105930.595000", "105931.055000", "105931.515000", "105931.975000", "105932.435000", "105932.895000", "105933.355000", "105933.815000", "105934.275000", "105934.735000", "105935.195000", "105935.655000", "105936.115000", "105936.575000", "105937.035000", "105937.495000", "105937.955000", "105938.415000", "105938.875000", "105939.335000", "105939.795000", "105940.255000", "105940.715000", "105941.175000", "105941.635000", "105942.095000", "105942.555000", "105943.015000", "105943.475000", "105943.935000", "105944.395000", "105944.855000"],
