{
  "AcquisitionMatrixPE": 82,
  "AcquisitionNumber": 1,
  "AcquisitionTime": "11:36:55.540000",
  "BandwidthPerPixelPhaseEncode": 24.888,
  "BaseResolution": 82,
  "BodyPartExamined": "BRAIN",
  "ConsistencyInfo": "N4_VE11E_LATEST_20181129",
  "ConversionSoftware": "dcm2niix",
  "ConversionSoftwareVersion": "v1.0.20201102",
  "DerivedVendorReportedEchoSpacing": 0.00049,
  "DeviceSerialNumber": "66112",
  "DwellTime": 2e-06,
  "EchoTime": 0.0272,
  "EchoTrainLength": 82,
  "EffectiveEchoSpacing": 0.00049,
  "FlipAngle": 44,
  "ImageComments": "Unaliased MB8/PE3",
  "ImageOrientationPatientDICOM": [0.999732, 0.0223292, -0.00614155, -0.0214651, 0.992996, 0.116183],
  "ImageType": [
    "ORIGINAL",
    "PRIMARY",
    "M",
    "MB",
    "ND",
    "NORM",
    "MOSAIC"
],
  "ImagingFrequency": 123.259,
  "InPlanePhaseEncodingDirectionDICOM": "COL",
  "InstitutionAddress": "Maynard 3,Hanover,NH,US,03755",
  "InstitutionName": "Dartmouth College - PBS",
  "InstitutionalDepartmentName": "Department",
  "MRAcquisitionType": "2D",
  "MagneticFieldStrength": 3,
  "Manufacturer": "Siemens",
  "ManufacturersModelName": "Prisma",
  "Modality": "MR",
  "MultibandAccelerationFactor": 8,
  "PartialFourier": 1,
  "PatientPosition": "HFS",
  "PercentPhaseFOV": 100,
  "PercentSampling": 100,
  "PhaseEncodingDirection": "j-",
  "PhaseEncodingSteps": 82,
  "PhaseResolution": 1,
  "PixelBandwidth": 3050,
  "ProcedureStepDescription": "Wager_Wager^1076_spacetop",
  "ProtocolName": "func_run-02_task-faces_acq-ap-mb8",
  "PulseSequenceDetails": "%CustomerSeq%\\cmrr_mbep2d_bold",
  "ReceiveCoilActiveElements": "HEA;HEP",
  "ReceiveCoilName": "Head_32",
  "ReconMatrixPE": 82,
  "RepetitionTime": 0.46,
  "SAR": 0.0819631,
  "ScanOptions": "FS",
  "ScanningSequence": "EP",
  "SequenceName": "epfid2d1_82",
  "SequenceVariant": "SK\\SS",
  "SeriesDescription": "func_run-02_task-faces_acq-ap-mb8",
  "SeriesNumber": 18,
  "ShimSetting": [4216, -7777, -7214, 354, -155, 45, 91, 82],
  "SliceThickness": 2.7,
  "SliceTiming": [0, 0.2525, 0.0625, 0.315, 0.125, 0.3775, 0.1875, 0, 0.2525, 0.0625, 0.315, 0.125, 0.3775, 0.1875, 0, 0.2525, 0.0625, 0.315, 0.125, 0.3775, 0.1875, 0, 0.2525, 0.0625, 0.315, 0.125, 0.3775, 0.1875, 0, 0.2525, 0.0625, 0.315, 0.125, 0.3775, 0.1875, 0, 0.2525, 0.0625, 0.315, 0.125, 0.3775, 0.1875, 0, 0.2525, 0.0625, 0.315, 0.125, 0.3775, 0.1875, 0, 0.2525, 0.0625, 0.315, 0.125, 0.3775, 0.1875],
  "SoftwareVersions": "syngo MR E11",
  "SpacingBetweenSlices": 2.7,
  "StationName": "AWP66112",
  "TaskName": "faces",
  "TotalReadoutTime": 0.03969,
  "TxRefAmp": 228.14,
  "WipMemBlock": "65a278da-d1cd-4abc-bdac-e8577c73e936||Sequence: R016 ve11e/master r/434b28f1; Aug  7 2019 18:53:46 by eja",
  "dcmmeta_affine": [
    [-2.6822073459625244, -0.05758918821811676, -0.02347058802843094, 116.10602569580078],
    [-0.05990773066878319, 2.664135217666626, 0.313254177570343, -110.92465209960938],
    [-0.016477322205901146, -0.3117106556892395, 2.681663751602173, -49.07248306274414],
    [0.0, 0.0, 0.0, 1.0]
],
  "dcmmeta_reorient_transform": [
    [0.0, -1.0, 0.0, 81.0],
    [1.0, 0.0, 0.0, 0.0],
    [0.0, 0.0, 1.0, 0.0],
    [0.0, 0.0, 0.0, 1.0]
],
  "dcmmeta_shape": [82, 82, 56, 914],
  "dcmmeta_slice_dim": 2,
  "dcmmeta_version": 0.6,
  "global": {
    "const": {
      "AccessionNumber": "A004495",
      "AcquisitionMatrix": [82, 0, 0, 82],
      "AngioFlag": "N",
      "BitsAllocated": 16,
      "BitsStored": 16,
      "BodyPartExamined": "BRAIN",
      "Columns": 656,
      "EchoNumbers": 1,
      "EchoTime": 27.2,
      "EchoTrainLength": 82,
      "FlipAngle": 44.0,
      "HighBit": 15,
      "ImageOrientationPatient": [0.99973180714252, 0.0223292451279, -0.0061415470013, -0.0214650606998, 0.9929958450229, 0.11618305787169],
      "ImagePositionPatient": [-864.70671544995, -886.67063899948, -159.05301212985],
      "ImageType": [
        "ORIGINAL",
        "PRIMARY",
        "M",
        "MB",
        "ND",
        "NORM",
        "MOSAIC"
],
      "ImagedNucleus": "1H",
      "ImagingFrequency": 123.25929,
      "InPlanePhaseEncodingDirection": "COL",
      "MRAcquisitionType": "2D",
      "MagneticFieldStrength": 3.0,
      "Manufacturer": "SIEMENS",
      "ManufacturerModelName": "Prisma",
      "Modality": "MR",
      "NumberOfAverages": 1.0,
      "NumberOfPhaseEncodingSteps": 82,
      "PercentPhaseFieldOfView": 100.0,
      "PercentSampling": 100.0,
      "PerformedProcedureStepStartTime": "104701.976000",
      "PhotometricInterpretation": "MONOCHROME2",
      "PixelBandwidth": 3050.0,
      "PixelRepresentation": 0,
      "PixelSpacing": [2.6829268932343, 2.6829268932343],
      "ProtocolName": "func_run-02_task-faces_acq-ap-mb8",
      "RepetitionTime": 460.0,
      "Rows": 656,
      "SAR": 0.08196313122014,
      "SamplesPerPixel": 1,
      "ScanOptions": "FS",
      "ScanningSequence": "EP",
      "SequenceName": "epfid2d1_82",
      "SequenceVariant": [
        "SK",
        "SS"
],
      "SeriesDescription": "func_run-02_task-faces_acq-ap-mb8",
      "SeriesNumber": 18,
      "SeriesTime": "113715.030000",
      "SliceLocation": -62.617998333027,
      "SliceThickness": 2.7000000476837,
      "SmallestImagePixelValue": 0,
      "SoftwareVersions": "syngo MR E11",
      "SpacingBetweenSlices": 2.7000000213326,
      "SpecificCharacterSet": "ISO_IR 100",
      "StudyID": "1",
      "StudyTime": "104701.916000",
      "TransmitCoilName": "Body",
      "VariableFlipAngleFlag": "N",
      "WindowCenterWidthExplanation": "Algo1"
    },
    "slices": {}
  },
  "time": {
    "samples": {
      "AcquisitionNumber": [1, 2, 3, 4, 5, 6, 7, 8, 9, 10, 11, 12, 13, 14, 15, 16, 17, 18, 19, 20, 21, 22, 23, 24, 25, 26, 27, 28, 29, 30, 31, 32, 33, 34, 35, 36, 37, 38, 39, 40, 41, 42, 43, 44, 45, 46, 47, 48, 49, 50, 51, 52, 53, 54, 55, 56, 57, 58, 59, 60, 61, 62, 63, 64, 65, 66, 67, 68, 69, 70, 71, 72, 73, 74, 75, 76, 77, 78, 79, 80, 81, 82, 83, 84, 85, 86, 87, 88, 89, 90, 91, 92, 93, 94, 95, 96, 97, 98, 99, 100, 101, 102, 103, 104, 105, 106, 107, 108, 109, 110, 111, 112, 113, 114, 115, 116, 117, 118, 119, 120, 121, 122, 123, 124, 125, 126, 127, 128, 129, 130, 131, 132, 133, 134, 135, 136, 137, 138, 139, 140, 141, 142, 143, 144, 145, 146, 147, 148, 149, 150, 151, 152, 153, 154, 155, 156, 157, 158, 159, 160, 161, 162, 163, 164, 165, 166, 167, 168, 169, 170, 171, 172, 173, 174, 175, 176, 177, 178, 179, 180, 181, 182, 183, 184, 185, 186, 187, 188, 189, 190, 191, 192, 193, 194, 195, 196, 197, 198, 199, 200, 201, 202, 203, 204, 205, 206, 207, 208, 209, 210, 211, 212, 213, 214, 215, 216, 217, 218, 219, 220, 221, 222, 223, 224, 225, 226, 227, 228, 229, 230, 231, 232, 233, 234, 235, 236, 237, 238, 239, 240, 241, 242, 243, 244, 245, 246, 247, 248, 249, 250, 251, 252, 253, 254, 255, 256, 257, 258, 259, 260, 261, 262, 263, 264, 265, 266, 267, 268, 269, 270, 271, 272, 273, 274, 275, 276, 277, 278, 279, 280, 281, 282, 283, 284, 285, 286, 287, 288, 289, 290, 291, 292, 293, 294, 295, 296, 297, 298, 299, 300, 301, 302, 303, 304, 305, 306, 307, 308, 309, 310, 311, 312, 313, 314, 315, 316, 317, 318, 319, 320, 321, 322, 323, 324, 325, 326, 327, 328, 329, 330, 331, 332, 333, 334, 335, 336, 337, 338, 339, 340, 341, 342, 343, 344, 345, 346, 347, 348, 349, 350, 351, 352, 353, 354, 355, 356, 357, 358, 359, 360, 361, 362, 363, 364, 365, 366, 367, 368, 369, 370, 371, 372, 373, 374, 375, 376, 377, 378, 379, 380, 381, 382, 383, 384, 385, 386, 387, 388, 389, 390, 391, 392, 393, 394, 395, 396, 397, 398, 399, 400, 401, 402, 403, 404, 405, 406, 407, 408, 409, 410, 411, 412, 413, 414, 415, 416, 417, 418, 419, 420, 421, 422, 423, 424, 425, 426, 427, 428, 429, 430, 431, 432, 433, 434, 435, 436, 437, 438, 439, 440, 441, 442, 443, 444, 445, 446, 447, 448, 449, 450, 451, 452, 453, 454, 455, 456, 457, 458, 459, 460, 461, 462, 463, 464, 465, 466, 467, 468, 469, 470, 471, 472, 473, 474, 475, 476, 477, 478, 479, 480, 481, 482, 483, 484, 485, 486, 487, 488, 489, 490, 491, 492, 493, 494, 495, 496, 497, 498, 499, 500, 501, 502, 503, 504, 505, 506, 507, 508, 509, 510, 511, 512, 513, 514, 515, 516, 517, 518, 519, 520, 521, 522, 523, 524, 525, 526, 527, 528, 529, 530, 531, 532, 533, 534, 535, 536, 537, 538, 539, 540, 541, 542, 543, 544, 545, 546, 547, 548, 549, 550, 551, 552, 553, 554, 555, 556, 557, 558, 559, 560, 561, 562, 563, 564, 565, 566, 567, 568, 569, 570, 571, 572, 573, 574, 575, 576, 577, 578, 579, 580, 581, 582, 583, 584, 585, 586, 587, 588, 589, 590, 591, 592, 593, 594, 595, 596, 597, 598, 599, 600, 601, 602, 603, 604, 605, 606, 607, 608, 609, 610, 611, 612, 613, 614, 615, 616, 617, 618, 619, 620, 621, 622, 623, 624, 625, 626, 627, 628, 629, 630, 631, 632, 633, 634, 635, 636, 637, 638, 639, 640, 641, 642, 643, 644, 645, 646, 647, 648, 649, 650, 651, 652, 653, 654, 655, 656, 657, 658, 659, 660, 661, 662, 663, 664, 665, 666, 667, 668, 669, 670, 671, 672, 673, 674, 675, 676, 677, 678, 679, 680, 681, 682, 683, 684, 685, 686, 687, 688, 689, 690, 691, 692, 693, 694, 695, 696, 697, 698, 699, 700, 701, 702, 703, 704, 705, 706, 707, 708, 709, 710, 711, 712, 713, 714, 715, 716, 717, 718, 719, 720, 721, 722, 723, 724, 725, 726, 727, 728, 729, 730, 731, 732, 733, 734, 735, 736, 737, 738, 739, 740, 741, 742, 743, 744, 745, 746, 747, 748, 749, 750, 751, 752, 753, 754, 755, 756, 757, 758, 759, 760, 761, 762, 763, 764, 765, 766, 767, 768, 769, 770, 771, 772, 773, 774, 775, 776, 777, 778, 779, 780, 781, 782, 783, 784, 785, 786, 787, 788, 789, 790, 791, 792, 793, 794, 795, 796, 797, 798, 799, 800, 801, 802, 803, 804, 805, 806, 807, 808, 809, 810, 811, 812, 813, 814, 815, 816, 817, 818, 819, 820, 821, 822, 823, 824, 825, 826, 827, 828, 829, 830, 831, 832, 833, 834, 835, 836, 837, 838, 839, 840, 841, 842, 843, 844, 845, 846, 847, 848, 849, 850, 851, 852, 853, 854, 855, 856, 857, 858, 859, 860, 861, 862, 863, 864, 865, 866, 867, 868, 869, 870, 871, 872, 873, 874, 875, 876, 877, 878, 879, 880, 881, 882, 883, 884, 885, 886, 887, 888, 889, 890, 891, 892, 893, 894, 895, 896, 897, 898, 899, 900, 901, 902, 903, 904, 905, 906, 907, 908, 909, 910, 911, 912, 913, 914],
      "AcquisitionTime": ["113655.540000", "113656.000000", "113656.460000", "113656.920000", "113657.380000", "113657.840000", "113658.300000", "113658.760000", "113659.220000", "113659.680000", "113700.140000", "113700.600000", "113701.060000", "113701.520000", "113701.980000", "113702.440000", "113702.900000", "113703.360000", "113703.820000", "113704.280000", "113704.740000", "113705.200000", "113705.660000", "113706.120000", "113706.580000", "113707.040000", "113707.500000", "113707.960000", "113708.420000", "113708.880000", "113709.340000", "113709.800000", "113710.260000", "113710.720000", "113711.180000", "113711.640000", "113712.100000", "113712.560000", "113713.020000", "113713.480000", "113713.940000", "113714.400000", "113714.860000", "113715.320000", "113715.780000", "113716.240000", "113716.700000", "113717.160000", "113717.620000", "113718.080000", "113718.540000", "113719.000000", "113719.460000", "113719.920000", "113720.380000", "113720.840000", "113721.300000", "113721.760000", "113722.220000", "113722.680000", "113723.140000", "113723.600000", "113724.060000", "113724.520000", "113724.980000", "113725.440000", "113725.900000", "113726.360000", "113726.820000", "113727.280000", "113727.740000", "113728.200000", "113728.660000", "113729.120000", "113729.580000", "113730.040000", "113730.500000", "113730.960000", "113731.420000", "113731.880000", "113732.340000", "113732.800000", "113733.260000", "113733.720000", "113734.180000", "113734.640000", "113735.100000", "113735.560000", "113736.020000", "113736.480000", "113736.940000", "113737.400000", "113737.860000", "113738.320000", "113738.780000", "113739.240000", "113739.700000", "113740.160000", "113740.620000", "113741.080000", "113741.540000", "113742.000000", "113742.460000", "113742.920000", "113743.380000", "113743.840000", "113744.300000", "113744.760000", "113745.220000", "113745.680000", "113746.140000", "113746.600000", "113747.060000", "113747.520000", "113747.980000", "113748.440000", "113748.900000", "113749.360000", "113749.820000", "113750.280000", "113750.740000", "113751.200000", "113751.660000", "113752.120000", "113752.580000", "113753.040000", "113753.500000", "113753.960000", "113754.420000", "113754.880000", "113755.340000", "113755.800000", "113756.260000", "113756.720000", "113757.180000", "113757.640000", "113758.100000", "113758.560000", "113759.020000", "113759.480000", "113759.940000", "113800.400000", "113800.860000", "113801.320000", "113801.780000", "113802.240000", "113802.700000", "113803.160000", "113803.620000", "113804.080000", "113804.540000", "113805.000000", "113805.460000", "113805.920000", "113806.380000", "113806.840000", "113807.300000", "113807.760000", "113808.220000", "113808.680000", "113809.140000", "113809.600000", "113810.060000", "113810.520000", "113810.980000", "113811.440000", "113811.900000", "113812.360000", "113812.820000", "113813.280000", "113813.740000", "113814.200000", "113814.660000", "113815.120000", "113815.580000", "113816.040000", "113816.500000", "113816.960000", "113817.420000", "113817.880000", "113818.340000", "113818.800000", "113819.260000", "113819.720000", "113820.180000", "113820.640000", "113821.100000", "113821.560000", "113822.020000", "113822.480000", "113822.940000", "113823.400000", "113823.860000", "113824.320000", "113824.780000", "113825.240000", "113825.700000", "113826.160000", "113826.620000", "113827.080000", "113827.540000", "113828.000000", "113828.460000", "113828.920000", "113829.380000", "113829.840000", "113830.300000", "113830.760000", "113831.220000", "113831.680000", "113832.140000", "113832.600000", "113833.060000", "113833.520000", "113833.980000", "113834.440000", "113834.900000", "113835.360000", "113835.820000", "113836.280000", "113836.740000", "113837.200000", "113837.660000", "113838.120000", "113838.580000", "113839.040000", "113839.500000", "113839.960000", "113840.420000", "113840.880000", "113841.340000", "113841.800000", "113842.260000", "113842.720000", "113843.180000", "113843.640000", "113844.100000", "113844.560000", "113845.020000", "113845.480000", "113845.940000", "113846.400000", "113846.860000", "113847.320000", "113847.780000", "113848.240000", "113848.700000", "113849.160000", "113849.620000", "113850.080000", "113850.540000", "113851.000000", "113851.460000", "113851.920000", "113852.380000", "113852.840000", "113853.300000", "113853.760000", "113854.220000", "113854.680000", "113855.140000", "113855.600000", "113856.060000", "113856.520000", "113856.980000", "113857.440000", "113857.900000", "113858.360000", "113858.820000", "113859.280000", "113859.740000", "113900.200000", "113900.660000", "113901.120000", "113901.580000", "113902.040000", "113902.500000", "113902.960000", "113903.420000", "113903.880000", "113904.340000", "113904.800000", "113905.260000", "113905.720000", "113906.180000", "113906.640000", "113907.100000", "113907.560000", "113908.020000", "113908.480000", "113908.940000", "113909.400000", "113909.860000", "113910.320000", "113910.780000", "113911.240000", "113911.700000", "113912.160000", "113912.620000", "113913.080000", "113913.540000", "113914.000000", "113914.460000", "113914.920000", "113915.380000", "113915.840000", "113916.300000", "113916.760000", "113917.220000", "113917.680000", "113918.140000", "113918.600000", "113919.060000", "113919.520000", "113919.980000", "113920.440000", "113920.900000", "113921.360000", "113921.820000", "113922.280000", "113922.740000", "113923.200000", "113923.660000", "113924.120000", "113924.580000", "113925.040000", "113925.500000", "113925.960000", "113926.420000", "113926.880000", "113927.340000", "113927.800000", "113928.260000", "113928.720000", "113929.180000", "113929.640000", "113930.100000", "113930.560000", "113931.020000", "113931.480000", "113931.940000", "113932.400000", "113932.860000", "113933.320000", "113933.780000", "113934.240000", "113934.700000", "113935.160000", "113935.620000", "113936.080000", "113936.540000", "113937.000000", "113937.460000", "113937.920000", "113938.380000", "113938.840000", "113939.300000", "113939.760000", "113940.220000", "113940.680000", "113941.140000", "113941.600000", "113942.060000", "113942.520000", "113942.980000", "113943.440000", "113943.900000", "113944.360000", "113944.820000", "113945.280000", "113945.740000", "113946.200000", "113946.660000", "113947.120000", "113947.580000", "113948.040000", "113948.500000", "113948.960000", "113949.420000", "113949.880000", "113950.340000", "113950.800000", "113951.260000", "113951.720000", "113952.180000", "113952.640000", "113953.100000", "113953.560000", "113954.020000", "113954.480000", "113954.940000", "113955.400000", "113955.860000", "113956.320000", "113956.780000", "113957.240000", "113957.700000", "113958.160000", "113958.620000", "113959.080000", "113959.540000", "114000.000000", "114000.460000", "114000.920000", "114001.380000", "114001.840000", "114002.300000", "114002.760000", "114003.220000", "114003.680000", "114004.140000", "114004.600000", "114005.060000", "114005.520000", "114005.980000", "114006.440000", "114006.900000", "114007.360000", "114007.820000", "114008.280000", "114008.740000", "114009.200000", "114009.660000", "114010.120000", "114010.580000", "114011.040000", "114011.500000", "114011.960000", "114012.420000", "114012.880000", "114013.340000", "114013.800000", "114014.260000", "114014.720000", "114015.180000", "114015.640000", "114016.100000", "114016.560000", "114017.020000", "114017.480000", "114017.940000", "114018.400000", "114018.860000", "114019.320000", "114019.780000", "114020.240000", "114020.700000", "114021.160000", "114021.620000", "114022.080000", "114022.540000", "114023.000000", "114023.460000", "114023.920000", "114024.380000", "114024.840000", "114025.300000", "114025.760000", "114026.220000", "114026.680000", "114027.140000", "114027.600000", "114028.060000", "114028.520000", "114028.980000", "114029.440000", "114029.900000", "114030.360000", "114030.820000", "114031.280000", "114031.740000", "114032.200000", "114032.660000", "114033.120000", "114033.580000", "114034.040000", "114034.500000", "114034.960000", "114035.420000", "114035.880000", "114036.340000", "114036.800000", "114037.260000", "114037.720000", "114038.180000", "114038.640000", "114039.100000", "114039.560000", "114040.020000", "114040.480000", "114040.940000", "114041.400000", "114041.860000", "114042.320000", "114042.780000", "114043.240000", "114043.700000", "114044.160000", "114044.620000", "114045.080000", "114045.540000", "114046.000000", "114046.460000", "114046.920000", "114047.380000", "114047.840000", "114048.300000", "114048.760000", "114049.220000", "114049.680000", "114050.140000", "114050.600000", "114051.060000", "114051.520000", "114051.980000", "114052.440000", "114052.900000", "114053.360000", "114053.820000", "114054.280000", "114054.740000", "114055.200000", "114055.660000", "114056.120000", "114056.580000", "114057.040000", "114057.500000", "114057.960000", "114058.420000", "114058.880000", "114059.340000", "114059.800000", "114100.260000", "114100.720000", "114101.180000", "114101.640000", "114102.100000", "114102.560000", "114103.020000", "114103.480000", "114103.940000", "114104.400000", "114104.860000", "114105.320000", "114105.780000", "114106.240000", "114106.700000", "114107.160000", "114107.620000", "114108.080000", "114108.540000", "114109.000000", "114109.460000", "114109.920000", "114110.380000", "114110.840000", "114111.300000", "114111.760000", "114112.220000", "114112.680000", "114113.140000", "114113.600000", "114114.060000", "114114.520000", "114114.980000", "114115.440000", "114115.900000", "114116.360000", "114116.820000", "114117.280000", "114117.740000", "114118.200000", "114118.660000", "114119.120000", "114119.580000", "114120.040000", "114120.500000", "114120.960000", "114121.420000", "114121.880000", "114122.340000", "114122.800000", "114123.260000", "114123.720000", "114124.180000", "114124.640000", "114125.100000", "114125.560000", "114126.020000", "114126.480000", "114126.940000", "114127.400000", "114127.860000", "114128.320000", "114128.780000", "114129.240000", "114129.700000", "114130.160000", "114130.620000", "114131.080000", "114131.540000", "114132.000000", "114132.460000", "114132.920000", "114133.380000", "114133.840000", "114134.300000", "114134.760000", "114135.220000", "114135.680000", "114136.140000", "114136.600000", "114137.060000", "114137.520000", "114137.980000", "114138.440000", "114138.900000", "114139.360000", "114139.820000", "114140.280000", "114140.740000", "114141.200000", "114141.660000", "114142.120000", "114142.580000", "114143.040000", "114143.500000", "114143.960000", "114144.420000", "114144.880000", "114145.340000", "114145.800000", "114146.260000", "114146.720000", "114147.180000", "114147.640000", "114148.100000", "114148.560000", "114149.020000", "114149.480000", "114149.940000", "114150.400000", "114150.860000", "114151.320000", "114151.780000", "114152.240000", "114152.700000", "114153.160000", "114153.620000", "114154.080000", "114154.540000", "114155.000000", "114155.460000", "114155.920000", "114156.380000", "114156.840000", "114157.300000", "114157.760000", "114158.220000", "114158.680000", "114159.140000", "114159.600000", "114200.060000", "114200.520000", "114200.980000", "114201.440000", "114201.900000", "114202.360000", "114202.820000", "114203.280000", "114203.740000", "114204.200000", "114204.660000", "114205.120000", "114205.580000", "114206.040000", "114206.500000", "114206.960000", "114207.420000", "114207.880000", "114208.340000", "114208.800000", "114209.260000", "114209.720000", "114210.180000", "114210.640000", "114211.100000", "114211.560000", "114212.020000", "114212.480000", "114212.940000", "114213.400000", "114213.860000", "114214.320000", "114214.780000", "114215.240000", "114215.700000", "114216.160000", "114216.620000", "114217.080000", "114217.540000", "114218.000000", "114218.460000", "114218.920000", "114219.380000", "114219.840000", "114220.300000", "114220.760000", "114221.220000", "114221.680000", "114222.140000", "114222.600000", "114223.060000", "114223.520000", "114223.980000", "114224.440000", "114224.900000", "114225.360000", "114225.820000", "114226.280000", "114226.740000", "114227.200000", "114227.660000", "114228.120000", "114228.580000", "114229.040000", "114229.500000", "114229.960000", "114230.420000", "114230.880000", "114231.340000", "114231.800000", "114232.260000", "114232.720000", "114233.180000", "114233.640000", "114234.100000", "114234.560000", "114235.020000", "114235.480000", "114235.940000", "114236.400000", "114236.860000", "114237.320000", "114237.780000", "114238.240000", "114238.700000", "114239.160000", "114239.620000", "114240.080000", "114240.540000", "114241.000000", "114241.460000", "114241.920000", "114242.380000", "114242.840000", "114243.300000", "114243.760000", "114244.220000", "114244.680000", "114245.140000", "114245.600000", "114246.060000", "114246.520000", "114246.980000", "114247.440000", "114247.900000", "114248.360000", "114248.820000", "114249.280000", "114249.740000", "114250.200000", "114250.660000", "114251.120000", "114251.580000", "114252.040000", "114252.500000", "114252.960000", "114253.420000", "114253.880000", "114254.340000", "114254.800000", "114255.260000", "114255.720000", "114256.180000", "114256.640000", "114257.100000", "114257.560000", "114258.020000", "114258.480000", "114258.940000", "114259.400000", "114259.860000", "114300.320000", "114300.780000", "114301.240000", "114301.700000", "114302.160000", "114302.620000", "114303.080000", "114303.540000", "114304.000000", "114304.460000", "114304.920000", "114305.380000", "114305.840000", "114306.300000", "114306.760000", "114307.220000", "114307.680000", "114308.140000", "114308.600000", "114309.060000", "114309.520000", "114309.980000", "114310.440000", "114310.900000", "114311.360000", "114311.820000", "114312.280000", "114312.740000", "114313.200000", "114313.660000", "114314.120000", "114314.580000", "114315.040000", "114315.500000", "114315.960000", "114316.420000", "114316.880000", "114317.340000", "114317.800000", "114318.260000", "114318.720000", "114319.180000", "114319.640000", "114320.100000", "114320.560000", "114321.020000", "114321.480000", "114321.940000", "114322.400000", "114322.860000", "114323.320000", "114323.780000", "114324.240000", "114324.700000", "114325.160000", "114325.620000", "114326.080000", "114326.540000", "114327.000000", "114327.460000", "114327.920000", "114328.380000", "114328.840000", "114329.300000", "114329.760000", "114330.220000", "114330.680000", "114331.140000", "114331.600000", "114332.060000", "114332.520000", "114332.980000", "114333.440000", "114333.900000", "114334.360000", "114334.820000", "114335.280000", "114335.740000", "114336.200000", "114336.660000", "114337.120000", "114337.580000", "114338.040000", "114338.500000", "114338.960000", "114339.420000", "114339.880000", "114340.340000", "114340.800000", "114341.260000", "114341.720000", "114342.180000", "114342.640000", "114343.100000", "114343.560000", "114344.020000", "114344.480000", "114344.940000", "114345.400000", "114345.860000", "114346.320000", "114346.780000", "114347.240000", "114347.700000", "114348.160000", "114348.620000", "114349.080000", "114349.540000", "114350.000000", "114350.460000", "114350.920000", "114351.380000", "114351.840000", "114352.300000", "114352.760000", "114353.220000", "114353.680000", "114354.140000", "114354.600000", "114355.060000", "114355.520000"],
