{
  "AcquisitionMatrixPE": 82,
  "AcquisitionNumber": 1,
  "AcquisitionTime": "11:54:17.427500",
  "BandwidthPerPixelPhaseEncode": 24.888,
  "BaseResolution": 82,
  "BodyPartExamined": "BRAIN",
  "ConsistencyInfo": "N4_VE11E_LATEST_20181129",
  "ConversionSoftware": "dcm2niix",
  "ConversionSoftwareVersion": "v1.0.20201102",
  "DerivedVendorReportedEchoSpacing": 0.00049,
  "DeviceSerialNumber": "66112",
  "DwellTime": 2e-06,
  "EchoTime": 0.0272,
  "EchoTrainLength": 82,
  "EffectiveEchoSpacing": 0.00049,
  "FlipAngle": 44,
  "ImageComments": "Unaliased MB8/PE3",
  "ImageOrientationPatientDICOM": [0.999558, 0.0255434, 0.0152292, -0.0265234, 0.997328, 0.0680661],
  "ImageType": [
    "ORIGINAL",
    "PRIMARY",
    "M",
    "MB",
    "ND",
    "NORM",
    "MOSAIC"
],
  "ImagingFrequency": 123.259,
  "InPlanePhaseEncodingDirectionDICOM": "COL",
  "InstitutionAddress": "Maynard 3,Hanover,NH,US,03755",
  "InstitutionName": "Dartmouth College - PBS",
  "InstitutionalDepartmentName": "Department",
  "MRAcquisitionType": "2D",
  "MagneticFieldStrength": 3,
  "Manufacturer": "Siemens",
  "ManufacturersModelName": "Prisma",
  "Modality": "MR",
  "MultibandAccelerationFactor": 8,
  "PartialFourier": 1,
  "PatientPosition": "HFS",
  "PercentPhaseFOV": 100,
  "PercentSampling": 100,
  "PhaseEncodingDirection": "j-",
  "PhaseEncodingSteps": 82,
  "PhaseResolution": 1,
  "PixelBandwidth": 3050,
  "ProcedureStepDescription": "Wager_Wager^1076_spacetop",
  "ProtocolName": "func_run-01_task-alignvideo_acq-ap-mb8",
  "PulseSequenceDetails": "%CustomerSeq%\\cmrr_mbep2d_bold",
  "ReceiveCoilActiveElements": "HEA;HEP",
  "ReceiveCoilName": "Head_32",
  "ReconMatrixPE": 82,
  "RepetitionTime": 0.46,
  "SAR": 0.0819198,
  "ScanOptions": "FS",
  "ScanningSequence": "EP",
  "SequenceName": "epfid2d1_82",
  "SequenceVariant": "SK\\SS",
  "SeriesDescription": "func_run-01_task-alignvideo_acq-ap-mb8",
  "SeriesNumber": 28,
  "ShimSetting": [4216, -7775, -7210, 367, -154, 57, 87, 83],
  "SliceThickness": 2.7,
  "SliceTiming": [0, 0.25, 0.0625, 0.3125, 0.125, 0.3775, 0.1875, 0, 0.25, 0.0625, 0.3125, 0.125, 0.3775, 0.1875, 0, 0.25, 0.0625, 0.3125, 0.125, 0.3775, 0.1875, 0, 0.25, 0.0625, 0.3125, 0.125, 0.3775, 0.1875, 0, 0.25, 0.0625, 0.3125, 0.125, 0.3775, 0.1875, 0, 0.25, 0.0625, 0.3125, 0.125, 0.3775, 0.1875, 0, 0.25, 0.0625, 0.3125, 0.125, 0.3775, 0.1875, 0, 0.25, 0.0625, 0.3125, 0.125, 0.3775, 0.1875],
  "SoftwareVersions": "syngo MR E11",
  "SpacingBetweenSlices": 2.7,
  "StationName": "AWP66112",
  "TaskName": "alignvideo",
  "TotalReadoutTime": 0.03969,
  "TxRefAmp": 228.14,
  "WipMemBlock": "b7b2ea89-ee30-4338-bfee-e274f659f8c1||Sequence: R016 ve11e/master r/434b28f1; Aug  7 2019 18:53:46 by eja",
  "dcmmeta_affine": [
    [-2.6817402839660645, -0.07116043567657471, 0.036314740777015686, 115.18209075927734],
    [-0.06853095442056656, 2.6757586002349854, 0.18478775024414062, -108.25395965576172],
    [0.040858909487724304, -0.18261632323265076, 2.6934244632720947, -54.96819305419922],
    [0.0, 0.0, 0.0, 1.0]
],
  "dcmmeta_reorient_transform": [
    [0.0, -1.0, 0.0, 81.0],
    [1.0, 0.0, 0.0, 0.0],
    [0.0, 0.0, 1.0, 0.0],
    [0.0, 0.0, 0.0, 1.0]
],
  "dcmmeta_shape": [82, 82, 56, 839],
  "dcmmeta_slice_dim": 2,
  "dcmmeta_version": 0.6,
  "global": {
    "const": {
      "AccessionNumber": "A004495",
      "AcquisitionMatrix": [82, 0, 0, 82],
      "AngioFlag": "N",
      "BitsAllocated": 16,
      "BitsStored": 16,
      "BodyPartExamined": "BRAIN",
      "Columns": 656,
      "EchoNumbers": 1,
      "EchoTime": 27.2,
      "EchoTrainLength": 82,
      "FlipAngle": 44.0,
      "HighBit": 15,
      "ImageOrientationPatient": [0.99955770596852, 0.02554335556448, 0.01522922931262, -0.0265234336859, 0.9973281885831, 0.06806608350032],
      "ImagePositionPatient": [-858.65449980603, -896.09359598745, -133.89750657011],
      "ImageType": [
        "ORIGINAL",
        "PRIMARY",
        "M",
        "MB",
        "ND",
        "NORM",
        "MOSAIC"
],
      "ImagedNucleus": "1H",
      "ImagingFrequency": 123.259292,
      "InPlanePhaseEncodingDirection": "COL",
      "MRAcquisitionType": "2D",
      "MagneticFieldStrength": 3.0,
      "Manufacturer": "SIEMENS",
      "ManufacturerModelName": "Prisma",
      "Modality": "MR",
      "NumberOfAverages": 1.0,
      "NumberOfPhaseEncodingSteps": 82,
      "PercentPhaseFieldOfView": 100.0,
      "PercentSampling": 100.0,
      "PerformedProcedureStepStartTime": "104701.976000",
      "PhotometricInterpretation": "MONOCHROME2",
      "PixelBandwidth": 3050.0,
      "PixelRepresentation": 0,
      "PixelSpacing": [2.6829268932343, 2.6829268932343],
      "ProtocolName": "func_run-01_task-alignvideo_acq-ap-mb8",
      "RepetitionTime": 460.0,
      "Rows": 656,
      "SAR": 0.08191975730579,
      "SamplesPerPixel": 1,
      "ScanOptions": "FS",
      "ScanningSequence": "EP",
      "SequenceName": "epfid2d1_82",
      "SequenceVariant": [
        "SK",
        "SS"
],
      "SeriesDescription": "func_run-01_task-alignvideo_acq-ap-mb8",
      "SeriesNumber": 28,
      "SeriesTime": "115434.935000",
      "SliceLocation": -60.694024078941,
      "SliceThickness": 2.7000000476837,
      "SmallestImagePixelValue": 0,
      "SoftwareVersions": "syngo MR E11",
      "SpacingBetweenSlices": 2.700000014514,
      "SpecificCharacterSet": "ISO_IR 100",
      "StudyID": "1",
      "StudyTime": "104701.916000",
      "TransmitCoilName": "Body",
      "VariableFlipAngleFlag": "N",
      "WindowCenterWidthExplanation": "Algo1"
    },
    "slices": {}
  },
  "time": {
    "samples": {
      "AcquisitionNumber": [1, 2, 3, 4, 5, 6, 7, 8, 9, 10, 11, 12, 13, 14, 15, 16, 17, 18, 19, 20, 21, 22, 23, 24, 25, 26, 27, 28, 29, 30, 31, 32, 33, 34, 35, 36, 37, 38, 39, 40, 41, 42, 43, 44, 45, 46, 47, 48, 49, 50, 51, 52, 53, 54, 55, 56, 57, 58, 59, 60, 61, 62, 63, 64, 65, 66, 67, 68, 69, 70, 71, 72, 73, 74, 75, 76, 77, 78, 79, 80, 81, 82, 83, 84, 85, 86, 87, 88, 89, 90, 91, 92, 93, 94, 95, 96, 97, 98, 99, 100, 101, 102, 103, 104, 105, 106, 107, 108, 109, 110, 111, 112, 113, 114, 115, 116, 117, 118, 119, 120, 121, 122, 123, 124, 125, 126, 127, 128, 129, 130, 131, 132, 133, 134, 135, 136, 137, 138, 139, 140, 141, 142, 143, 144, 145, 146, 147, 148, 149, 150, 151, 152, 153, 154, 155, 156, 157, 158, 159, 160, 161, 162, 163, 164, 165, 166, 167, 168, 169, 170, 171, 172, 173, 174, 175, 176, 177, 178, 179, 180, 181, 182, 183, 184, 185, 186, 187, 188, 189, 190, 191, 192, 193, 194, 195, 196, 197, 198, 199, 200, 201, 202, 203, 204, 205, 206, 207, 208, 209, 210, 211, 212, 213, 214, 215, 216, 217, 218, 219, 220, 221, 222, 223, 224, 225, 226, 227, 228, 229, 230, 231, 232, 233, 234, 235, 236, 237, 238, 239, 240, 241, 242, 243, 244, 245, 246, 247, 248, 249, 250, 251, 252, 253, 254, 255, 256, 257, 258, 259, 260, 261, 262, 263, 264, 265, 266, 267, 268, 269, 270, 271, 272, 273, 274, 275, 276, 277, 278, 279, 280, 281, 282, 283, 284, 285, 286, 287, 288, 289, 290, 291, 292, 293, 294, 295, 296, 297, 298, 299, 300, 301, 302, 303, 304, 305, 306, 307, 308, 309, 310, 311, 312, 313, 314, 315, 316, 317, 318, 319, 320, 321, 322, 323, 324, 325, 326, 327, 328, 329, 330, 331, 332, 333, 334, 335, 336, 337, 338, 339, 340, 341, 342, 343, 344, 345, 346, 347, 348, 349, 350, 351, 352, 353, 354, 355, 356, 357, 358, 359, 360, 361, 362, 363, 364, 365, 366, 367, 368, 369, 370, 371, 372, 373, 374, 375, 376, 377, 378, 379, 380, 381, 382, 383, 384, 385, 386, 387, 388, 389, 390, 391, 392, 393, 394, 395, 396, 397, 398, 399, 400, 401, 402, 403, 404, 405, 406, 407, 408, 409, 410, 411, 412, 413, 414, 415, 416, 417, 418, 419, 420, 421, 422, 423, 424, 425, 426, 427, 428, 429, 430, 431, 432, 433, 434, 435, 436, 437, 438, 439, 440, 441, 442, 443, 444, 445, 446, 447, 448, 449, 450, 451, 452, 453, 454, 455, 456, 457, 458, 459, 460, 461, 462, 463, 464, 465, 466, 467, 468, 469, 470, 471, 472, 473, 474, 475, 476, 477, 478, 479, 480, 481, 482, 483, 484, 485, 486, 487, 488, 489, 490, 491, 492, 493, 494, 495, 496, 497, 498, 499, 500, 501, 502, 503, 504, 505, 506, 507, 508, 509, 510, 511, 512, 513, 514, 515, 516, 517, 518, 519, 520, 521, 522, 523, 524, 525, 526, 527, 528, 529, 530, 531, 532, 533, 534, 535, 536, 537, 538, 539, 540, 541, 542, 543, 544, 545, 546, 547, 548, 549, 550, 551, 552, 553, 554, 555, 556, 557, 558, 559, 560, 561, 562, 563, 564, 565, 566, 567, 568, 569, 570, 571, 572, 573, 574, 575, 576, 577, 578, 579, 580, 581, 582, 583, 584, 585, 586, 587, 588, 589, 590, 591, 592, 593, 594, 595, 596, 597, 598, 599, 600, 601, 602, 603, 604, 605, 606, 607, 608, 609, 610, 611, 612, 613, 614, 615, 616, 617, 618, 619, 620, 621, 622, 623, 624, 625, 626, 627, 628, 629, 630, 631, 632, 633, 634, 635, 636, 637, 638, 639, 640, 641, 642, 643, 644, 645, 646, 647, 648, 649, 650, 651, 652, 653, 654, 655, 656, 657, 658, 659, 660, 661, 662, 663, 664, 665, 666, 667, 668, 669, 670, 671, 672, 673, 674, 675, 676, 677, 678, 679, 680, 681, 682, 683, 684, 685, 686, 687, 688, 689, 690, 691, 692, 693, 694, 695, 696, 697, 698, 699, 700, 701, 702, 703, 704, 705, 706, 707, 708, 709, 710, 711, 712, 713, 714, 715, 716, 717, 718, 719, 720, 721, 722, 723, 724, 725, 726, 727, 728, 729, 730, 731, 732, 733, 734, 735, 736, 737, 738, 739, 740, 741, 742, 743, 744, 745, 746, 747, 748, 749, 750, 751, 752, 753, 754, 755, 756, 757, 758, 759, 760, 761, 762, 763, 764, 765, 766, 767, 768, 769, 770, 771, 772, 773, 774, 775, 776, 777, 778, 779, 780, 781, 782, 783, 784, 785, 786, 787, 788, 789, 790, 791, 792, 793, 794, 795, 796, 797, 798, 799, 800, 801, 802, 803, 804, 805, 806, 807, 808, 809, 810, 811, 812, 813, 814, 815, 816, 817, 818, 819, 820, 821, 822, 823, 824, 825, 826, 827, 828, 829, 830, 831, 832, 833, 834, 835, 836, 837, 838, 839],
      "AcquisitionTime": ["115417.427500", "115417.887500", "115418.347500", "115418.807500", "115419.267500", "115419.727500", "115420.187500", "115420.647500", "115421.107500", "115421.567500", "115422.027500", "115422.487500", "115422.947500", "115423.407500", "115423.867500", "115424.327500", "115424.787500", "115425.247500", "115425.707500", "115426.167500", "115426.627500", "115427.087500", "115427.547500", "115428.007500", "115428.467500", "115428.927500", "115429.387500", "115429.847500", "115430.307500", "115430.767500", "115431.227500", "115431.687500", "115432.147500", "115432.607500", "115433.067500", "115433.527500", "115433.987500", "115434.447500", "115434.907500", "115435.367500", "115435.827500", "115436.287500", "115436.747500", "115437.207500", "115437.667500", "115438.127500", "115438.587500", "115439.047500", "115439.507500", "115439.967500", "115440.427500", "115440.887500", "115441.347500", "115441.807500", "115442.267500", "115442.727500", "115443.187500", "115443.647500", "115444.107500", "115444.567500", "115445.027500", "115445.487500", "115445.947500", "115446.407500", "115446.867500", "115447.327500", "115447.787500", "115448.247500", "115448.707500", "115449.167500", "115449.627500", "115450.087500", "115450.547500", "115451.007500", "115451.467500", "115451.927500", "115452.387500", "115452.847500", "115453.307500", "115453.767500", "115454.227500", "115454.687500", "115455.147500", "115455.607500", "115456.067500", "115456.527500", "115456.987500", "115457.447500", "115457.907500", "115458.367500", "115458.827500", "115459.287500", "115459.747500", "115500.207500", "115500.667500", "115501.127500", "115501.587500", "115502.047500", "115502.507500", "115502.967500", "115503.427500", "115503.887500", "115504.347500", "115504.807500", "115505.267500", "115505.727500", "115506.187500", "115506.647500", "115507.107500", "115507.567500", "115508.027500", "115508.487500", "115508.947500", "115509.407500", "115509.867500", "115510.327500", "115510.787500", "115511.247500", "115511.707500", "115512.167500", "115512.627500", "115513.087500", "115513.547500", "115514.007500", "115514.467500", "115514.927500", "115515.387500", "115515.847500", "115516.307500", "115516.767500", "115517.227500", "115517.687500", "115518.147500", "115518.607500", "115519.067500", "115519.527500", "115519.987500", "115520.447500", "115520.907500", "115521.367500", "115521.827500", "115522.287500", "115522.747500", "115523.207500", "115523.667500", "115524.127500", "115524.587500", "115525.047500", "115525.507500", "115525.967500", "115526.427500", "115526.887500", "115527.347500", "115527.807500", "115528.267500", "115528.727500", "115529.187500", "115529.647500", "115530.107500", "115530.567500", "115531.027500", "115531.487500", "115531.947500", "115532.407500", "115532.867500", "115533.327500", "115533.787500", "115534.247500", "115534.707500", "115535.167500", "115535.627500", "115536.087500", "115536.547500", "115537.007500", "115537.467500", "115537.927500", "115538.387500", "115538.847500", "115539.307500", "115539.767500", "115540.227500", "115540.687500", "115541.147500", "115541.607500", "115542.067500", "115542.527500", "115542.987500", "115543.447500", "115543.907500", "115544.367500", "115544.827500", "115545.287500", "115545.747500", "115546.207500", "115546.667500", "115547.127500", "115547.587500", "115548.047500", "115548.507500", "115548.967500", "115549.427500", "115549.887500", "115550.347500", "115550.807500", "115551.267500", "115551.727500", "115552.187500", "115552.647500", "115553.107500", "115553.567500", "115554.027500", "115554.487500", "115554.947500", "115555.407500", "115555.867500", "115556.327500", "115556.787500", "115557.247500", "115557.707500", "115558.167500", "115558.627500", "115559.087500", "115559.547500", "115600.007500", "115600.467500", "115600.927500", "115601.387500", "115601.847500", "115602.307500", "115602.767500", "115603.227500", "115603.687500", "115604.147500", "115604.607500", "115605.067500", "115605.527500", "115605.987500", "115606.447500", "115606.907500", "115607.367500", "115607.827500", "115608.287500", "115608.747500", "115609.207500", "115609.667500", "115610.127500", "115610.587500", "115611.047500", "115611.507500", "115611.967500", "115612.427500", "115612.887500", "115613.347500", "115613.807500", "115614.267500", "115614.727500", "115615.187500", "115615.647500", "115616.107500", "115616.567500", "115617.027500", "115617.487500", "115617.947500", "115618.407500", "115618.867500", "115619.327500", "115619.787500", "115620.247500", "115620.707500", "115621.167500", "115621.627500", "115622.087500", "115622.547500", "115623.007500", "115623.467500", "115623.927500", "115624.387500", "115624.847500", "115625.307500", "115625.767500", "115626.227500", "115626.687500", "115627.147500", "115627.607500", "115628.067500", "115628.527500", "115628.987500", "115629.447500", "115629.907500", "115630.367500", "115630.827500", "115631.287500", "115631.747500", "115632.207500", "115632.667500", "115633.127500", "115633.587500", "115634.047500", "115634.507500", "115634.967500", "115635.427500", "115635.887500", "115636.347500", "115636.807500", "115637.267500", "115637.727500", "115638.187500", "115638.647500", "115639.107500", "115639.567500", "115640.027500", "115640.487500", "115640.947500", "115641.407500", "115641.867500", "115642.327500", "115642.787500", "115643.247500", "115643.707500", "115644.167500", "115644.627500", "115645.087500", "115645.547500", "115646.007500", "115646.467500", "115646.927500", "115647.387500", "115647.847500", "115648.307500", "115648.767500", "115649.227500", "115649.687500", "115650.147500", "115650.607500", "115651.067500", "115651.527500", "115651.987500", "115652.447500", "115652.907500", "115653.367500", "115653.827500", "115654.287500", "115654.747500", "115655.207500", "115655.667500", "115656.127500", "115656.587500", "115657.047500", "115657.507500", "115657.967500", "115658.427500", "115658.887500", "115659.347500", "115659.807500", "115700.267500", "115700.727500", "115701.187500", "115701.647500", "115702.107500", "115702.567500", "115703.027500", "115703.487500", "115703.947500", "115704.407500", "115704.867500", "115705.327500", "115705.787500", "115706.247500", "115706.707500", "115707.167500", "115707.627500", "115708.087500", "115708.547500", "115709.007500", "115709.467500", "115709.927500", "115710.387500", "115710.847500", "115711.307500", "115711.767500", "115712.227500", "115712.687500", "115713.147500", "115713.607500", "115714.067500", "115714.527500", "115714.987500", "115715.447500", "115715.907500", "115716.367500", "115716.827500", "115717.287500", "115717.747500", "115718.207500", "115718.667500", "115719.127500", "115719.587500", "115720.047500", "115720.507500", "115720.967500", "115721.427500", "115721.887500", "115722.347500", "115722.807500", "115723.267500", "115723.727500", "115724.187500", "115724.647500", "115725.107500", "115725.567500", "115726.027500", "115726.487500", "115726.947500", "115727.407500", "115727.867500", "115728.327500", "115728.787500", "115729.247500", "115729.707500", "115730.167500", "115730.627500", "115731.087500", "115731.547500", "115732.007500", "115732.467500", "115732.927500", "115733.387500", "115733.847500", "115734.307500", "115734.767500", "115735.227500", "115735.687500", "115736.147500", "115736.607500", "115737.067500", "115737.527500", "115737.987500", "115738.447500", "115738.907500", "115739.367500", "115739.827500", "115740.287500", "115740.747500", "115741.207500", "115741.667500", "115742.127500", "115742.587500", "115743.047500", "115743.507500", "115743.967500", "115744.427500", "115744.887500", "115745.347500", "115745.807500", "115746.267500", "115746.727500", "115747.187500", "115747.647500", "115748.107500", "115748.567500", "115749.027500", "115749.487500", "115749.947500", "115750.407500", "115750.867500", "115751.327500", "115751.787500", "115752.247500", "115752.707500", "115753.167500", "115753.627500", "115754.087500", "115754.547500", "115755.007500", "115755.467500", "115755.927500", "115756.387500", "115756.847500", "115757.307500", "115757.767500", "115758.227500", "115758.687500", "115759.147500", "115759.607500", "115800.067500", "115800.527500", "115800.987500", "115801.447500", "115801.907500", "115802.367500", "115802.827500", "115803.287500", "115803.747500", "115804.207500", "115804.667500", "115805.127500", "115805.587500", "115806.047500", "115806.507500", "115806.967500", "115807.427500", "115807.887500", "115808.347500", "115808.807500", "115809.267500", "115809.727500", "115810.187500", "115810.647500", "115811.107500", "115811.567500", "115812.027500", "115812.487500", "115812.947500", "115813.407500", "115813.867500", "115814.327500", "115814.787500", "115815.247500", "115815.707500", "115816.167500", "115816.627500", "115817.087500", "115817.547500", "115818.007500", "115818.467500", "115818.927500", "115819.387500", "115819.847500", "115820.307500", "115820.767500", "115821.227500", "115821.687500", "115822.147500", "115822.607500", "115823.067500", "115823.527500", "115823.987500", "115824.447500", "115824.907500", "115825.367500", "115825.827500", "115826.287500", "115826.747500", "115827.207500", "115827.667500", "115828.127500", "115828.587500", "115829.047500", "115829.507500", "115829.967500", "115830.427500", "115830.887500", "115831.347500", "115831.807500", "115832.267500", "115832.727500", "115833.187500", "115833.647500", "115834.107500", "115834.567500", "115835.027500", "115835.487500", "115835.947500", "115836.407500", "115836.867500", "115837.327500", "115837.787500", "115838.247500", "115838.707500", "115839.167500", "115839.627500", "115840.087500", "115840.547500", "115841.007500", "115841.467500", "115841.927500", "115842.387500", "115842.847500", "115843.307500", "115843.767500", "115844.227500", "115844.687500", "115845.147500", "115845.607500", "115846.067500", "115846.527500", "115846.987500", "115847.447500", "115847.907500", "115848.367500", "115848.827500", "115849.287500", "115849.747500", "115850.207500", "115850.667500", "115851.127500", "115851.587500", "115852.047500", "115852.507500", "115852.967500", "115853.427500", "115853.887500", "115854.347500", "115854.807500", "115855.267500", "115855.727500", "115856.187500", "115856.647500", "115857.107500", "115857.567500", "115858.027500", "115858.487500", "115858.947500", "115859.407500", "115859.867500", "115900.327500", "115900.787500", "115901.247500", "115901.707500", "115902.167500", "115902.627500", "115903.087500", "115903.547500", "115904.007500", "115904.467500", "115904.927500", "115905.387500", "115905.847500", "115906.307500", "115906.767500", "115907.227500", "115907.687500", "115908.147500", "115908.607500", "115909.067500", "115909.527500", "115909.987500", "115910.447500", "115910.907500", "115911.367500", "115911.827500", "115912.287500", "115912.747500", "115913.207500", "115913.667500", "115914.127500", "115914.587500", "115915.047500", "115915.507500", "115915.967500", "115916.427500", "115916.887500", "115917.347500", "115917.807500", "115918.267500", "115918.727500", "115919.187500", "115919.647500", "115920.107500", "115920.567500", "115921.027500", "115921.487500", "115921.947500", "115922.407500", "115922.867500", "115923.327500", "115923.787500", "115924.247500", "115924.707500", "115925.167500", "115925.627500", "115926.087500", "115926.547500", "115927.007500", "115927.467500", "115927.927500", "115928.387500", "115928.847500", "115929.307500", "115929.767500", "115930.227500", "115930.687500", "115931.147500", "115931.607500", "115932.067500", "115932.527500", "115932.987500", "115933.447500", "115933.907500", "115934.367500", "115934.827500", "115935.287500", "115935.747500", "115936.207500", "115936.667500", "115937.127500", "115937.587500", "115938.047500", "115938.507500", "115938.967500", "115939.427500", "115939.887500", "115940.347500", "115940.807500", "115941.267500", "115941.727500", "115942.187500", "115942.647500", "115943.107500", "115943.567500", "115944.027500", "115944.487500", "115944.947500", "115945.407500", "115945.867500", "115946.327500", "115946.787500", "115947.247500", "115947.707500", "115948.167500", "115948.627500", "115949.087500", "115949.547500", "115950.007500", "115950.467500", "115950.927500", "115951.387500", "115951.847500", "115952.307500", "115952.767500", "115953.227500", "115953.687500", "115954.147500", "115954.607500", "115955.067500", "115955.527500", "115955.987500", "115956.447500", "115956.907500", "115957.367500", "115957.827500", "115958.287500", "115958.747500", "115959.207500", "115959.667500", "120000.127500", "120000.587500", "120001.047500", "120001.507500", "120001.967500", "120002.427500", "120002.887500", "120003.347500", "120003.807500", "120004.267500", "120004.727500", "120005.187500", "120005.647500", "120006.107500", "120006.567500", "120007.027500", "120007.487500", "120007.947500", "120008.407500", "120008.867500", "120009.327500", "120009.787500", "120010.247500", "120010.707500", "120011.167500", "120011.627500", "120012.087500", "120012.547500", "120013.007500", "120013.467500", "120013.927500", "120014.387500", "120014.847500", "120015.307500", "120015.767500", "120016.227500", "120016.687500", "120017.147500", "120017.607500", "120018.067500", "120018.527500", "120018.987500", "120019.447500", "120019.907500", "120020.367500", "120020.827500", "120021.287500", "120021.747500", "120022.207500", "120022.667500", "120023.127500", "120023.587500", "120024.047500", "120024.507500", "120024.967500", "120025.427500", "120025.887500", "120026.347500", "120026.807500", "120027.267500", "120027.727500", "120028.187500", "120028.647500", "120029.107500", "120029.567500", "120030.027500", "120030.487500", "120030.947500", "120031.407500", "120031.867500", "120032.327500", "120032.787500", "120033.247500", "120033.707500", "120034.167500", "120034.627500", "120035.087500", "120035.547500", "120036.007500", "120036.467500", "120036.927500", "120037.387500", "120037.847500", "120038.307500", "120038.767500", "120039.227500", "120039.687500", "120040.147500", "120040.607500", "120041.067500", "120041.527500", "120041.987500", "120042.447500", "120042.907500"],
