{
  "AcquisitionMatrixPE": 82,
  "AcquisitionNumber": 1,
  "AcquisitionTime": "20:59:11.877500",
  "BandwidthPerPixelPhaseEncode": 24.888,
  "BaseResolution": 82,
  "BodyPartExamined": "BRAIN",
  "ConsistencyInfo": "N4_VE11E_LATEST_20181129",
  "ConversionSoftware": "dcm2niix",
  "ConversionSoftwareVersion": "v1.0.20201102",
  "DerivedVendorReportedEchoSpacing": 0.00049,
  "DeviceSerialNumber": "66112",
  "DwellTime": 2e-06,
  "EchoTime": 0.0272,
  "EchoTrainLength": 82,
  "EffectiveEchoSpacing": 0.00049,
  "FlipAngle": 44,
  "ImageComments": "Unaliased MB8/PE3",
  "ImageOrientationPatientDICOM": [0.999735, 0.0226404, 0.00416075, -0.0228617, 0.997657, 0.0644778],
  "ImageType": [
    "ORIGINAL",
    "PRIMARY",
    "M",
    "MB",
    "ND",
    "NORM",
    "MOSAIC"
],
  "ImagingFrequency": 123.259,
  "InPlanePhaseEncodingDirectionDICOM": "COL",
  "InstitutionAddress": "Maynard 3,Hanover,NH,US,03755",
  "InstitutionName": "Dartmouth College - PBS",
  "InstitutionalDepartmentName": "Department",
  "MRAcquisitionType": "2D",
  "MagneticFieldStrength": 3,
  "Manufacturer": "Siemens",
  "ManufacturersModelName": "Prisma",
  "Modality": "MR",
  "MultibandAccelerationFactor": 8,
  "PartialFourier": 1,
  "PatientPosition": "HFS",
  "PercentPhaseFOV": 100,
  "PercentSampling": 100,
  "PhaseEncodingDirection": "j-",
  "PhaseEncodingSteps": 82,
  "PhaseResolution": 1,
  "PixelBandwidth": 3050,
  "ProcedureStepDescription": "Wager_Wager^1076_spacetop",
  "ProtocolName": "func_run-02_task-narratives_acq-ap-mb8",
  "PulseSequenceDetails": "%CustomerSeq%\\cmrr_mbep2d_bold",
  "ReceiveCoilActiveElements": "HEA;HEP",
  "ReceiveCoilName": "Head_32",
  "ReconMatrixPE": 82,
  "RepetitionTime": 0.46,
  "SAR": 0.0820485,
  "ScanOptions": "FS",
  "ScanningSequence": "EP",
  "SequenceName": "epfid2d1_82",
  "SequenceVariant": "SK\\SS",
  "SeriesDescription": "func_run-02_task-narratives_acq-ap-mb8",
  "SeriesNumber": 10,
  "ShimSetting": [4229, -7635, -7101, 878, -170, 296, -456, 76],
  "SliceThickness": 2.7,
  "SliceTiming": [0, 0.2525, 0.0625, 0.315, 0.125, 0.3775, 0.1875, 0, 0.2525, 0.0625, 0.315, 0.125, 0.3775, 0.1875, 0, 0.2525, 0.0625, 0.315, 0.125, 0.3775, 0.1875, 0, 0.2525, 0.0625, 0.315, 0.125, 0.3775, 0.1875, 0, 0.2525, 0.0625, 0.315, 0.125, 0.3775, 0.1875, 0, 0.2525, 0.0625, 0.315, 0.125, 0.3775, 0.1875, 0, 0.2525, 0.0625, 0.315, 0.125, 0.3775, 0.1875, 0, 0.2525, 0.0625, 0.315, 0.125, 0.3775, 0.1875],
  "SoftwareVersions": "syngo MR E11",
  "SpacingBetweenSlices": 2.7,
  "StationName": "AWP66112",
  "TaskName": "narratives",
  "TotalReadoutTime": 0.03969,
  "TxRefAmp": 232.155,
  "WipMemBlock": "a7063e82-0391-434a-9096-d9fc8f5433d2||Sequence: R016 ve11e/master r/434b28f1; Aug  7 2019 18:53:46 by eja",
  "dcmmeta_affine": [
    [-2.682215929031372, -0.06133631244301796, 0.007266220636665821, 112.47217559814453],
    [-0.06074260175228119, 2.6766414642333984, 0.17430077493190765, -97.40086364746094],
    [0.011162974871695042, -0.17298923432826996, 2.6943583488464355, -53.669227600097656],
    [0.0, 0.0, 0.0, 1.0]
],
  "dcmmeta_reorient_transform": [
    [0.0, -1.0, 0.0, 81.0],
    [1.0, 0.0, 0.0, 0.0],
    [0.0, 0.0, 1.0, 0.0],
    [0.0, 0.0, 0.0, 1.0]
],
  "dcmmeta_shape": [82, 82, 56, 1098],
  "dcmmeta_slice_dim": 2,
  "dcmmeta_version": 0.6,
  "global": {
    "const": {
      "AccessionNumber": "A004692",
      "AcquisitionMatrix": [82, 0, 0, 82],
      "AngioFlag": "N",
      "BitsAllocated": 16,
      "BitsStored": 16,
      "BodyPartExamined": "BRAIN",
      "Columns": 656,
      "EchoNumbers": 1,
      "EchoTime": 27.2,
      "EchoTrainLength": 82,
      "FlipAngle": 44.0,
      "HighBit": 15,
      "ImageOrientationPatient": [0.99973501460164, 0.02264042356268, 0.00416074516797, -0.0228617160589, 0.99765723310852, 0.06447780366216],
      "ImagePositionPatient": [-859.69639099563, -905.03630763169, -120.53303937033],
      "ImageType": [
        "ORIGINAL",
        "PRIMARY",
        "M",
        "MB",
        "ND",
        "NORM",
        "MOSAIC"
],
      "ImagedNucleus": "1H",
      "ImagingFrequency": 123.259127,
      "InPlanePhaseEncodingDirection": "COL",
      "MRAcquisitionType": "2D",
      "MagneticFieldStrength": 3.0,
      "Manufacturer": "SIEMENS",
      "ManufacturerModelName": "Prisma",
      "Modality": "MR",
      "NumberOfAverages": 1.0,
      "NumberOfPhaseEncodingSteps": 82,
      "PercentPhaseFieldOfView": 100.0,
      "PercentSampling": 100.0,
      "PerformedProcedureStepStartTime": "203149.343000",
      "PhotometricInterpretation": "MONOCHROME2",
      "PixelBandwidth": 3050.0,
      "PixelRepresentation": 0,
      "PixelSpacing": [2.6829268932343, 2.6829268932343],
      "ProtocolName": "func_run-02_task-narratives_acq-ap-mb8",
      "RepetitionTime": 460.0,
      "Rows": 656,
      "SAR": 0.08204850240951,
      "SamplesPerPixel": 1,
      "ScanOptions": "FS",
      "ScanningSequence": "EP",
      "SequenceName": "epfid2d1_82",
      "SequenceVariant": [
        "SK",
        "SS"
],
      "SeriesDescription": "func_run-02_task-narratives_acq-ap-mb8",
      "SeriesNumber": 10,
      "SeriesTime": "205938.229000",
      "SliceLocation": -59.542194133212,
      "SliceThickness": 2.7000000476837,
      "SmallestImagePixelValue": 0,
      "SoftwareVersions": "syngo MR E11",
      "SpacingBetweenSlices": 2.7000000783766,
      "SpecificCharacterSet": "ISO_IR 100",
      "StudyID": "1",
      "StudyTime": "203149.280000",
      "TransmitCoilName": "Body",
      "VariableFlipAngleFlag": "N",
      "WindowCenterWidthExplanation": "Algo1"
    },
    "slices": {}
  },
  "time": {
    "samples": {
      "AcquisitionNumber": [1, 2, 3, 4, 5, 6, 7, 8, 9, 10, 11, 12, 13, 14, 15, 16, 17, 18, 19, 20, 21, 22, 23, 24, 25, 26, 27, 28, 29, 30, 31, 32, 33, 34, 35, 36, 37, 38, 39, 40, 41, 42, 43, 44, 45, 46, 47, 48, 49, 50, 51, 52, 53, 54, 55, 56, 57, 58, 59, 60, 61, 62, 63, 64, 65, 66, 67, 68, 69, 70, 71, 72, 73, 74, 75, 76, 77, 78, 79, 80, 81, 82, 83, 84, 85, 86, 87, 88, 89, 90, 91, 92, 93, 94, 95, 96, 97, 98, 99, 100, 101, 102, 103, 104, 105, 106, 107, 108, 109, 110, 111, 112, 113, 114, 115, 116, 117, 118, 119, 120, 121, 122, 123, 124, 125, 126, 127, 128, 129, 130, 131, 132, 133, 134, 135, 136, 137, 138, 139, 140, 141, 142, 143, 144, 145, 146, 147, 148, 149, 150, 151, 152, 153, 154, 155, 156, 157, 158, 159, 160, 161, 162, 163, 164, 165, 166, 167, 168, 169, 170, 171, 172, 173, 174, 175, 176, 177, 178, 179, 180, 181, 182, 183, 184, 185, 186, 187, 188, 189, 190, 191, 192, 193, 194, 195, 196, 197, 198, 199, 200, 201, 202, 203, 204, 205, 206, 207, 208, 209, 210, 211, 212, 213, 214, 215, 216, 217, 218, 219, 220, 221, 222, 223, 224, 225, 226, 227, 228, 229, 230, 231, 232, 233, 234, 235, 236, 237, 238, 239, 240, 241, 242, 243, 244, 245, 246, 247, 248, 249, 250, 251, 252, 253, 254, 255, 256, 257, 258, 259, 260, 261, 262, 263, 264, 265, 266, 267, 268, 269, 270, 271, 272, 273, 274, 275, 276, 277, 278, 279, 280, 281, 282, 283, 284, 285, 286, 287, 288, 289, 290, 291, 292, 293, 294, 295, 296, 297, 298, 299, 300, 301, 302, 303, 304, 305, 306, 307, 308, 309, 310, 311, 312, 313, 314, 315, 316, 317, 318, 319, 320, 321, 322, 323, 324, 325, 326, 327, 328, 329, 330, 331, 332, 333, 334, 335, 336, 337, 338, 339, 340, 341, 342, 343, 344, 345, 346, 347, 348, 349, 350, 351, 352, 353, 354, 355, 356, 357, 358, 359, 360, 361, 362, 363, 364, 365, 366, 367, 368, 369, 370, 371, 372, 373, 374, 375, 376, 377, 378, 379, 380, 381, 382, 383, 384, 385, 386, 387, 388, 389, 390, 391, 392, 393, 394, 395, 396, 397, 398, 399, 400, 401, 402, 403, 404, 405, 406, 407, 408, 409, 410, 411, 412, 413, 414, 415, 416, 417, 418, 419, 420, 421, 422, 423, 424, 425, 426, 427, 428, 429, 430, 431, 432, 433, 434, 435, 436, 437, 438, 439, 440, 441, 442, 443, 444, 445, 446, 447, 448, 449, 450, 451, 452, 453, 454, 455, 456, 457, 458, 459, 460, 461, 462, 463, 464, 465, 466, 467, 468, 469, 470, 471, 472, 473, 474, 475, 476, 477, 478, 479, 480, 481, 482, 483, 484, 485, 486, 487, 488, 489, 490, 491, 492, 493, 494, 495, 496, 497, 498, 499, 500, 501, 502, 503, 504, 505, 506, 507, 508, 509, 510, 511, 512, 513, 514, 515, 516, 517, 518, 519, 520, 521, 522, 523, 524, 525, 526, 527, 528, 529, 530, 531, 532, 533, 534, 535, 536, 537, 538, 539, 540, 541, 542, 543, 544, 545, 546, 547, 548, 549, 550, 551, 552, 553, 554, 555, 556, 557, 558, 559, 560, 561, 562, 563, 564, 565, 566, 567, 568, 569, 570, 571, 572, 573, 574, 575, 576, 577, 578, 579, 580, 581, 582, 583, 584, 585, 586, 587, 588, 589, 590, 591, 592, 593, 594, 595, 596, 597, 598, 599, 600, 601, 602, 603, 604, 605, 606, 607, 608, 609, 610, 611, 612, 613, 614, 615, 616, 617, 618, 619, 620, 621, 622, 623, 624, 625, 626, 627, 628, 629, 630, 631, 632, 633, 634, 635, 636, 637, 638, 639, 640, 641, 642, 643, 644, 645, 646, 647, 648, 649, 650, 651, 652, 653, 654, 655, 656, 657, 658, 659, 660, 661, 662, 663, 664, 665, 666, 667, 668, 669, 670, 671, 672, 673, 674, 675, 676, 677, 678, 679, 680, 681, 682, 683, 684, 685, 686, 687, 688, 689, 690, 691, 692, 693, 694, 695, 696, 697, 698, 699, 700, 701, 702, 703, 704, 705, 706, 707, 708, 709, 710, 711, 712, 713, 714, 715, 716, 717, 718, 719, 720, 721, 722, 723, 724, 725, 726, 727, 728, 729, 730, 731, 732, 733, 734, 735, 736, 737, 738, 739, 740, 741, 742, 743, 744, 745, 746, 747, 748, 749, 750, 751, 752, 753, 754, 755, 756, 757, 758, 759, 760, 761, 762, 763, 764, 765, 766, 767, 768, 769, 770, 771, 772, 773, 774, 775, 776, 777, 778, 779, 780, 781, 782, 783, 784, 785, 786, 787, 788, 789, 790, 791, 792, 793, 794, 795, 796, 797, 798, 799, 800, 801, 802, 803, 804, 805, 806, 807, 808, 809, 810, 811, 812, 813, 814, 815, 816, 817, 818, 819, 820, 821, 822, 823, 824, 825, 826, 827, 828, 829, 830, 831, 832, 833, 834, 835, 836, 837, 838, 839, 840, 841, 842, 843, 844, 845, 846, 847, 848, 849, 850, 851, 852, 853, 854, 855, 856, 857, 858, 859, 860, 861, 862, 863, 864, 865, 866, 867, 868, 869, 870, 871, 872, 873, 874, 875, 876, 877, 878, 879, 880, 881, 882, 883, 884, 885, 886, 887, 888, 889, 890, 891, 892, 893, 894, 895, 896, 897, 898, 899, 900, 901, 902, 903, 904, 905, 906, 907, 908, 909, 910, 911, 912, 913, 914, 915, 916, 917, 918, 919, 920, 921, 922, 923, 924, 925, 926, 927, 928, 929, 930, 931, 932, 933, 934, 935, 936, 937, 938, 939, 940, 941, 942, 943, 944, 945, 946, 947, 948, 949, 950, 951, 952, 953, 954, 955, 956, 957, 958, 959, 960, 961, 962, 963, 964, 965, 966, 967, 968, 969, 970, 971, 972, 973, 974, 975, 976, 977, 978, 979, 980, 981, 982, 983, 984, 985, 986, 987, 988, 989, 990, 991, 992, 993, 994, 995, 996, 997, 998, 999, 1000, 1001, 1002, 1003, 1004, 1005, 1006, 1007, 1008, 1009, 1010, 1011, 1012, 1013, 1014, 1015, 1016, 1017, 1018, 1019, 1020, 1021, 1022, 1023, 1024, 1025, 1026, 1027, 1028, 1029, 1030, 1031, 1032, 1033, 1034, 1035, 1036, 1037, 1038, 1039, 1040, 1041, 1042, 1043, 1044, 1045, 1046, 1047, 1048, 1049, 1050, 1051, 1052, 1053, 1054, 1055, 1056, 1057, 1058, 1059, 1060, 1061, 1062, 1063, 1064, 1065, 1066, 1067, 1068, 1069, 1070, 1071, 1072, 1073, 1074, 1075, 1076, 1077, 1078, 1079, 1080, 1081, 1082, 1083, 1084, 1085, 1086, 1087, 1088, 1089, 1090, 1091, 1092, 1093, 1094, 1095, 1096, 1097, 1098],
      "AcquisitionTime": ["205911.877500", "205912.337500", "205912.797500", "205913.257500", "205913.717500", "205914.177500", "205914.637500", "205915.097500", "205915.557500", "205916.017500", "205916.477500", "205916.937500", "205917.397500", "205917.857500", "205918.317500", "205918.777500", "205919.237500", "205919.697500", "205920.157500", "205920.617500", "205921.077500", "205921.537500", "205921.997500", "205922.457500", "205922.917500", "205923.377500", "205923.837500", "205924.297500", "205924.757500", "205925.217500", "205925.677500", "205926.137500", "205926.597500", "205927.057500", "205927.517500", "205927.977500", "205928.437500", "205928.897500", "205929.357500", "205929.817500", "205930.277500", "205930.737500", "205931.197500", "205931.657500", "205932.117500", "205932.577500", "205933.037500", "205933.497500", "205933.957500", "205934.417500", "205934.877500", "205935.337500", "205935.797500", "205936.257500", "205936.717500", "205937.177500", "205937.637500", "205938.097500", "205938.557500", "205939.017500", "205939.477500", "205939.937500", "205940.397500", "205940.857500", "205941.317500", "205941.777500", "205942.237500", "205942.697500", "205943.157500", "205943.617500", "205944.077500", "205944.537500", "205944.997500", "205945.457500", "205945.917500", "205946.377500", "205946.837500", "205947.297500", "205947.757500", "205948.217500", "205948.677500", "205949.137500", "205949.597500", "205950.057500", "205950.517500", "205950.977500", "205951.437500", "205951.897500", "205952.357500", "205952.817500", "205953.277500", "205953.737500", "205954.197500", "205954.657500", "205955.117500", "205955.577500", "205956.037500", "205956.497500", "205956.957500", "205957.417500", "205957.877500", "205958.337500", "205958.797500", "205959.257500", "205959.717500", "210000.177500", "210000.637500", "210001.097500", "210001.557500", "210002.017500", "210002.477500", "210002.937500", "210003.397500", "210003.857500", "210004.317500", "210004.777500", "210005.237500", "210005.697500", "210006.157500", "210006.617500", "210007.077500", "210007.537500", "210007.997500", "210008.457500", "210008.917500", "210009.377500", "210009.837500", "210010.297500", "210010.757500", "210011.217500", "210011.677500", "210012.137500", "210012.597500", "210013.057500", "210013.517500", "210013.977500", "210014.437500", "210014.897500", "210015.357500", "210015.817500", "210016.277500", "210016.737500", "210017.197500", "210017.657500", "210018.117500", "210018.577500", "210019.037500", "210019.497500", "210019.957500", "210020.417500", "210020.877500", "210021.337500", "210021.797500", "210022.257500", "210022.717500", "210023.177500", "210023.637500", "210024.097500", "210024.557500", "210025.017500", "210025.477500", "210025.937500", "210026.397500", "210026.857500", "210027.317500", "210027.777500", "210028.237500", "210028.697500", "210029.157500", "210029.617500", "210030.077500", "210030.537500", "210030.997500", "210031.457500", "210031.917500", "210032.377500", "210032.837500", "210033.297500", "210033.757500", "210034.217500", "210034.677500", "210035.137500", "210035.597500", "210036.057500", "210036.517500", "210036.977500", "210037.437500", "210037.897500", "210038.357500", "210038.817500", "210039.277500", "210039.737500", "210040.197500", "210040.657500", "210041.117500", "210041.577500", "210042.037500", "210042.497500", "210042.957500", "210043.417500", "210043.877500", "210044.337500", "210044.797500", "210045.257500", "210045.717500", "210046.177500", "210046.637500", "210047.097500", "210047.557500", "210048.017500", "210048.477500", "210048.937500", "210049.397500", "210049.857500", "210050.317500", "210050.777500", "210051.237500", "210051.697500", "210052.157500", "210052.617500", "210053.077500", "210053.537500", "210053.997500", "210054.457500", "210054.917500", "210055.377500", "210055.837500", "210056.297500", "210056.757500", "210057.217500", "210057.677500", "210058.137500", "210058.597500", "210059.057500", "210059.517500", "210059.977500", "210100.437500", "210100.897500", "210101.357500", "210101.817500", "210102.277500", "210102.737500", "210103.197500", "210103.657500", "210104.117500", "210104.577500", "210105.037500", "210105.497500", "210105.957500", "210106.417500", "210106.877500", "210107.337500", "210107.797500", "210108.257500", "210108.717500", "210109.177500", "210109.637500", "210110.097500", "210110.557500", "210111.017500", "210111.477500", "210111.937500", "210112.397500", "210112.857500", "210113.317500", "210113.777500", "210114.237500", "210114.697500", "210115.157500", "210115.617500", "210116.077500", "210116.537500", "210116.997500", "210117.457500", "210117.917500", "210118.377500", "210118.837500", "210119.297500", "210119.757500", "210120.217500", "210120.677500", "210121.137500", "210121.597500", "210122.057500", "210122.517500", "210122.977500", "210123.437500", "210123.897500", "210124.357500", "210124.817500", "210125.277500", "210125.737500", "210126.197500", "210126.657500", "210127.117500", "210127.577500", "210128.037500", "210128.497500", "210128.957500", "210129.417500", "210129.877500", "210130.337500", "210130.797500", "210131.257500", "210131.717500", "210132.177500", "210132.637500", "210133.097500", "210133.557500", "210134.017500", "210134.477500", "210134.937500", "210135.397500", "210135.857500", "210136.317500", "210136.777500", "210137.237500", "210137.697500", "210138.157500", "210138.617500", "210139.077500", "210139.537500", "210139.997500", "210140.457500", "210140.917500", "210141.377500", "210141.837500", "210142.297500", "210142.757500", "210143.217500", "210143.677500", "210144.137500", "210144.597500", "210145.057500", "210145.517500", "210145.977500", "210146.437500", "210146.897500", "210147.357500", "210147.817500", "210148.277500", "210148.737500", "210149.197500", "210149.657500", "210150.117500", "210150.577500", "210151.037500", "210151.497500", "210151.957500", "210152.417500", "210152.877500", "210153.337500", "210153.797500", "210154.257500", "210154.717500", "210155.177500", "210155.637500", "210156.097500", "210156.557500", "210157.017500", "210157.477500", "210157.937500", "210158.397500", "210158.857500", "210159.317500", "210159.777500", "210200.237500", "210200.697500", "210201.157500", "210201.617500", "210202.077500", "210202.537500", "210202.997500", "210203.457500", "210203.917500", "210204.377500", "210204.837500", "210205.297500", "210205.757500", "210206.217500", "210206.677500", "210207.137500", "210207.597500", "210208.057500", "210208.517500", "210208.977500", "210209.437500", "210209.897500", "210210.357500", "210210.817500", "210211.277500", "210211.737500", "210212.197500", "210212.657500", "210213.117500", "210213.577500", "210214.037500", "210214.497500", "210214.957500", "210215.417500", "210215.877500", "210216.337500", "210216.797500", "210217.257500", "210217.717500", "210218.177500", "210218.637500", "210219.097500", "210219.557500", "210220.017500", "210220.477500", "210220.937500", "210221.397500", "210221.857500", "210222.317500", "210222.777500", "210223.237500", "210223.697500", "210224.157500", "210224.617500", "210225.077500", "210225.537500", "210225.997500", "210226.457500", "210226.917500", "210227.377500", "210227.837500", "210228.297500", "210228.757500", "210229.217500", "210229.677500", "210230.137500", "210230.597500", "210231.057500", "210231.517500", "210231.977500", "210232.437500", "210232.897500", "210233.357500", "210233.817500", "210234.277500", "210234.737500", "210235.197500", "210235.657500", "210236.117500", "210236.577500", "210237.037500", "210237.497500", "210237.957500", "210238.417500", "210238.877500", "210239.337500", "210239.797500", "210240.257500", "210240.717500", "210241.177500", "210241.637500", "210242.097500", "210242.557500", "210243.017500", "210243.477500", "210243.937500", "210244.397500", "210244.857500", "210245.317500", "210245.777500", "210246.237500", "210246.697500", "210247.157500", "210247.617500", "210248.077500", "210248.537500", "210248.997500", "210249.457500", "210249.917500", "210250.377500", "210250.837500", "210251.297500", "210251.757500", "210252.217500", "210252.677500", "210253.137500", "210253.597500", "210254.057500", "210254.517500", "210254.977500", "210255.437500", "210255.897500", "210256.357500", "210256.817500", "210257.277500", "210257.737500", "210258.197500", "210258.657500", "210259.117500", "210259.577500", "210300.037500", "210300.497500", "210300.957500", "210301.417500", "210301.877500", "210302.337500", "210302.797500", "210303.257500", "210303.717500", "210304.177500", "210304.637500", "210305.097500", "210305.557500", "210306.017500", "210306.477500", "210306.937500", "210307.397500", "210307.857500", "210308.317500", "210308.777500", "210309.237500", "210309.697500", "210310.157500", "210310.617500", "210311.077500", "210311.537500", "210311.997500", "210312.457500", "210312.917500", "210313.377500", "210313.837500", "210314.297500", "210314.757500", "210315.217500", "210315.677500", "210316.137500", "210316.597500", "210317.057500", "210317.517500", "210317.977500", "210318.437500", "210318.897500", "210319.357500", "210319.817500", "210320.277500", "210320.737500", "210321.197500", "210321.657500", "210322.117500", "210322.577500", "210323.037500", "210323.497500", "210323.957500", "210324.417500", "210324.877500", "210325.337500", "210325.797500", "210326.257500", "210326.717500", "210327.177500", "210327.637500", "210328.097500", "210328.557500", "210329.017500", "210329.477500", "210329.937500", "210330.397500", "210330.857500", "210331.317500", "210331.777500", "210332.237500", "210332.697500", "210333.157500", "210333.617500", "210334.077500", "210334.537500", "210334.997500", "210335.457500", "210335.917500", "210336.377500", "210336.837500", "210337.297500", "210337.757500", "210338.217500", "210338.677500", "210339.137500", "210339.597500", "210340.057500", "210340.517500", "210340.977500", "210341.437500", "210341.897500", "210342.357500", "210342.817500", "210343.277500", "210343.737500", "210344.197500", "210344.657500", "210345.117500", "210345.577500", "210346.037500", "210346.497500", "210346.957500", "210347.417500", "210347.877500", "210348.337500", "210348.797500", "210349.257500", "210349.717500", "210350.177500", "210350.637500", "210351.097500", "210351.557500", "210352.017500", "210352.477500", "210352.937500", "210353.397500", "210353.857500", "210354.317500", "210354.777500", "210355.237500", "210355.697500", "210356.157500", "210356.617500", "210357.077500", "210357.537500", "210357.997500", "210358.457500", "210358.917500", "210359.377500", "210359.837500", "210400.297500", "210400.757500", "210401.217500", "210401.677500", "210402.137500", "210402.597500", "210403.057500", "210403.517500", "210403.977500", "210404.437500", "210404.897500", "210405.357500", "210405.817500", "210406.277500", "210406.737500", "210407.197500", "210407.657500", "210408.117500", "210408.577500", "210409.037500", "210409.497500", "210409.957500", "210410.417500", "210410.877500", "210411.337500", "210411.797500", "210412.257500", "210412.717500", "210413.177500", "210413.637500", "210414.097500", "210414.557500", "210415.017500", "210415.477500", "210415.937500", "210416.397500", "210416.857500", "210417.317500", "210417.777500", "210418.237500", "210418.697500", "210419.157500", "210419.617500", "210420.077500", "210420.537500", "210420.997500", "210421.457500", "210421.917500", "210422.377500", "210422.837500", "210423.297500", "210423.757500", "210424.217500", "210424.677500", "210425.137500", "210425.597500", "210426.057500", "210426.517500", "210426.977500", "210427.437500", "210427.897500", "210428.357500", "210428.817500", "210429.277500", "210429.737500", "210430.197500", "210430.657500", "210431.117500", "210431.577500", "210432.037500", "210432.497500", "210432.957500", "210433.417500", "210433.877500", "210434.337500", "210434.797500", "210435.257500", "210435.717500", "210436.177500", "210436.637500", "210437.097500", "210437.557500", "210438.017500", "210438.477500", "210438.937500", "210439.397500", "210439.857500", "210440.317500", "210440.777500", "210441.237500", "210441.697500", "210442.157500", "210442.617500", "210443.077500", "210443.537500", "210443.997500", "210444.457500", "210444.917500", "210445.377500", "210445.837500", "210446.297500", "210446.757500", "210447.217500", "210447.677500", "210448.137500", "210448.597500", "210449.057500", "210449.517500", "210449.977500", "210450.437500", "210450.897500", "210451.357500", "210451.817500", "210452.277500", "210452.737500", "210453.197500", "210453.657500", "210454.117500", "210454.577500", "210455.037500", "210455.497500", "210455.957500", "210456.417500", "210456.877500", "210457.337500", "210457.797500", "210458.257500", "210458.717500", "210459.177500", "210459.637500", "210500.097500", "210500.557500", "210501.017500", "210501.477500", "210501.937500", "210502.397500", "210502.857500", "210503.317500", "210503.777500", "210504.237500", "210504.697500", "210505.157500", "210505.617500", "210506.077500", "210506.537500", "210506.997500", "210507.457500", "210507.917500", "210508.377500", "210508.837500", "210509.297500", "210509.757500", "210510.217500", "210510.677500", "210511.137500", "210511.597500", "210512.057500", "210512.517500", "210512.977500", "210513.437500", "210513.897500", "210514.357500", "210514.817500", "210515.277500", "210515.737500", "210516.197500", "210516.657500", "210517.117500", "210517.577500", "210518.037500", "210518.497500", "210518.957500", "210519.417500", "210519.877500", "210520.337500", "210520.797500", "210521.257500", "210521.717500", "210522.177500", "210522.637500", "210523.097500", "210523.557500", "210524.017500", "210524.477500", "210524.937500", "210525.397500", "210525.857500", "210526.317500", "210526.777500", "210527.237500", "210527.697500", "210528.157500", "210528.617500", "210529.077500", "210529.537500", "210529.997500", "210530.457500", "210530.917500", "210531.377500", "210531.837500", "210532.297500", "210532.757500", "210533.217500", "210533.677500", "210534.137500", "210534.597500", "210535.057500", "210535.517500", "210535.977500", "210536.437500", "210536.897500", "210537.357500", "210537.817500", "210538.277500", "210538.737500", "210539.197500", "210539.657500", "210540.117500", "210540.577500", "210541.037500", "210541.497500", "210541.957500", "210542.417500", "210542.877500", "210543.337500", "210543.797500", "210544.257500", "210544.717500", "210545.177500", "210545.637500", "210546.097500", "210546.557500", "210547.017500", "210547.477500", "210547.937500", "210548.397500", "210548.857500", "210549.317500", "210549.777500", "210550.237500", "210550.697500", "210551.157500", "210551.617500", "210552.077500", "210552.537500", "210552.997500", "210553.457500", "210553.917500", "210554.377500", "210554.837500", "210555.297500", "210555.757500", "210556.217500", "210556.677500", "210557.137500", "210557.597500", "210558.057500", "210558.517500", "210558.977500", "210559.437500", "210559.897500", "210600.357500", "210600.817500", "210601.277500", "210601.737500", "210602.197500", "210602.657500", "210603.117500", "210603.577500", "210604.037500", "210604.497500", "210604.957500", "210605.417500", "210605.877500", "210606.337500", "210606.797500", "210607.257500", "210607.717500", "210608.177500", "210608.637500", "210609.097500", "210609.557500", "210610.017500", "210610.477500", "210610.937500", "210611.397500", "210611.857500", "210612.317500", "210612.777500", "210613.237500", "210613.697500", "210614.157500", "210614.617500", "210615.077500", "210615.537500", "210615.997500", "210616.457500", "210616.917500", "210617.377500", "210617.837500", "210618.297500", "210618.757500", "210619.217500", "210619.677500", "210620.137500", "210620.597500", "210621.057500", "210621.517500", "210621.977500", "210622.437500", "210622.897500", "210623.357500", "210623.817500", "210624.277500", "210624.737500", "210625.197500", "210625.657500", "210626.117500", "210626.577500", "210627.037500", "210627.497500", "210627.957500", "210628.417500", "210628.877500", "210629.337500", "210629.797500", "210630.257500", "210630.717500", "210631.177500", "210631.637500", "210632.097500", "210632.557500", "210633.017500", "210633.477500", "210633.937500", "210634.397500", "210634.857500", "210635.317500", "210635.777500", "210636.237500", "210636.697500", "210637.157500", "210637.617500", "210638.077500", "210638.537500", "210638.997500", "210639.457500", "210639.917500", "210640.377500", "210640.837500", "210641.297500", "210641.757500", "210642.217500", "210642.677500", "210643.137500", "210643.597500", "210644.057500", "210644.517500", "210644.977500", "210645.437500", "210645.897500", "210646.357500", "210646.817500", "210647.277500", "210647.737500", "210648.197500", "210648.657500", "210649.117500", "210649.577500", "210650.037500", "210650.497500", "210650.957500", "210651.417500", "210651.877500", "210652.337500", "210652.797500", "210653.257500", "210653.717500", "210654.177500", "210654.637500", "210655.097500", "210655.557500", "210656.017500", "210656.477500", "210656.937500", "210657.397500", "210657.857500", "210658.317500", "210658.777500", "210659.237500", "210659.697500", "210700.157500", "210700.617500", "210701.077500", "210701.537500", "210701.997500", "210702.457500", "210702.917500", "210703.377500", "210703.837500", "210704.297500", "210704.757500", "210705.217500", "210705.677500", "210706.137500", "210706.597500", "210707.057500", "210707.517500", "210707.977500", "210708.437500", "210708.897500", "210709.357500", "210709.817500", "210710.277500", "210710.737500", "210711.197500", "210711.657500", "210712.117500", "210712.577500", "210713.037500", "210713.497500", "210713.957500", "210714.417500", "210714.877500", "210715.337500", "210715.797500", "210716.257500", "210716.717500", "210717.177500", "210717.637500", "210718.097500", "210718.557500", "210719.017500", "210719.477500", "210719.937500", "210720.397500", "210720.857500", "210721.317500", "210721.777500", "210722.237500", "210722.697500", "210723.157500", "210723.617500", "210724.077500", "210724.537500", "210724.997500", "210725.457500", "210725.917500", "210726.377500", "210726.837500", "210727.297500", "210727.757500", "210728.217500", "210728.677500", "210729.137500", "210729.597500", "210730.057500", "210730.517500", "210730.977500", "210731.437500", "210731.897500", "210732.357500", "210732.817500", "210733.277500", "210733.737500", "210734.197500", "210734.657500", "210735.117500", "210735.577500", "210736.037500", "210736.497500"],
