{
  "AcquisitionMatrixPE": 82,
  "AcquisitionNumber": 1,
  "AcquisitionTime": "22:28:31.305000",
  "BandwidthPerPixelPhaseEncode": 24.888,
  "BaseResolution": 82,
  "BodyPartExamined": "BRAIN",
  "ConsistencyInfo": "N4_VE11E_LATEST_20181129",
  "ConversionSoftware": "dcm2niix",
  "ConversionSoftwareVersion": "v1.0.20201102",
  "DerivedVendorReportedEchoSpacing": 0.00049,
  "DeviceSerialNumber": "66112",
  "DwellTime": 2e-06,
  "EchoTime": 0.0272,
  "EchoTrainLength": 82,
  "EffectiveEchoSpacing": 0.00049,
  "FlipAngle": 44,
  "ImageComments": "Unaliased MB8/PE3",
  "ImageOrientationPatientDICOM": [0.999675, 0.0247275, -0.00622593, -0.0242569, 0.997471, 0.0668109],
  "ImageType": [
    "ORIGINAL",
    "PRIMARY",
    "M",
    "MB",
    "ND",
    "NORM",
    "MOSAIC"
],
  "ImagingFrequency": 123.259,
  "InPlanePhaseEncodingDirectionDICOM": "COL",
  "InstitutionAddress": "Maynard 3,Hanover,NH,US,03755",
  "InstitutionName": "Dartmouth College - PBS",
  "InstitutionalDepartmentName": "Department",
  "MRAcquisitionType": "2D",
  "MagneticFieldStrength": 3,
  "Manufacturer": "Siemens",
  "ManufacturersModelName": "Prisma",
  "Modality": "MR",
  "MultibandAccelerationFactor": 8,
  "PartialFourier": 1,
  "PatientPosition": "HFS",
  "PercentPhaseFOV": 100,
  "PercentSampling": 100,
  "PhaseEncodingDirection": "j-",
  "PhaseEncodingSteps": 82,
  "PhaseResolution": 1,
  "PixelBandwidth": 3050,
  "ProcedureStepDescription": "Wager_Wager^1076_spacetop",
  "ProtocolName": "func_run-04_task-alignvideo_acq-ap-mb8",
  "PulseSequenceDetails": "%CustomerSeq%\\cmrr_mbep2d_bold",
  "ReceiveCoilActiveElements": "HEA;HEP",
  "ReceiveCoilName": "Head_32",
  "ReconMatrixPE": 82,
  "RepetitionTime": 0.46,
  "SAR": 0.0819669,
  "ScanOptions": "FS",
  "ScanningSequence": "EP",
  "SequenceName": "epfid2d1_82",
  "SequenceVariant": "SK\\SS",
  "SeriesDescription": "func_run-04_task-alignvideo_acq-ap-mb8",
  "SeriesNumber": 36,
  "ShimSetting": [4228, -7635, -7102, 875, -174, 296, -454, 75],
  "SliceThickness": 2.7,
  "SliceTiming": [0, 0.2525, 0.065, 0.315, 0.1275, 0.3775, 0.19, 0, 0.2525, 0.065, 0.315, 0.1275, 0.3775, 0.19, 0, 0.2525, 0.065, 0.315, 0.1275, 0.3775, 0.19, 0, 0.2525, 0.065, 0.315, 0.1275, 0.3775, 0.19, 0, 0.2525, 0.065, 0.315, 0.1275, 0.3775, 0.19, 0, 0.2525, 0.065, 0.315, 0.1275, 0.3775, 0.19, 0, 0.2525, 0.065, 0.315, 0.1275, 0.3775, 0.19, 0, 0.2525, 0.065, 0.315, 0.1275, 0.3775, 0.19],
  "SoftwareVersions": "syngo MR E11",
  "SpacingBetweenSlices": 2.7,
  "StationName": "AWP66112",
  "TaskName": "alignvideo",
  "TotalReadoutTime": 0.03969,
  "TxRefAmp": 232.155,
  "WipMemBlock": "8fff4aab-b058-4687-ba6a-18bd4892c6a1||Sequence: R016 ve11e/master r/434b28f1; Aug  7 2019 18:53:46 by eja",
  "dcmmeta_affine": [
    [-2.6820545196533203, -0.06507955491542816, -0.02122807689011097, 113.68132019042969],
    [-0.06634218245744705, 2.6761410236358643, 0.17992305755615234, -97.89546966552734],
    [-0.016703709959983826, -0.17924880981445312, 2.6939146518707275, -51.6805305480957],
    [0.0, 0.0, 0.0, 1.0]
],
  "dcmmeta_reorient_transform": [
    [0.0, -1.0, 0.0, 81.0],
    [1.0, 0.0, 0.0, 0.0],
    [0.0, 0.0, 1.0, 0.0],
    [0.0, 0.0, 0.0, 1.0]
],
  "dcmmeta_shape": [82, 82, 56, 914],
  "dcmmeta_slice_dim": 2,
  "dcmmeta_version": 0.6,
  "global": {
    "const": {
      "AccessionNumber": "A004692",
      "AcquisitionMatrix": [82, 0, 0, 82],
      "AngioFlag": "N",
      "BitsAllocated": 16,
      "BitsStored": 16,
      "BodyPartExamined": "BRAIN",
      "Columns": 656,
      "EchoNumbers": 1,
      "EchoTime": 27.2,
      "EchoTrainLength": 82,
      "FlipAngle": 44.0,
      "HighBit": 15,
      "ImageOrientationPatient": [0.99967484043497, 0.02472753976529, -0.0062259279206, -0.0242569251056, 0.99747075276234, 0.06681091952783],
      "ImagePositionPatient": [-859.48168745089, -905.96466031986, -112.85012942628],
      "ImageType": [
        "ORIGINAL",
        "PRIMARY",
        "M",
        "MB",
        "ND",
        "NORM",
        "MOSAIC"
],
      "ImagedNucleus": "1H",
      "ImagingFrequency": 123.259146,
      "InPlanePhaseEncodingDirection": "COL",
      "MRAcquisitionType": "2D",
      "MagneticFieldStrength": 3.0,
      "Manufacturer": "SIEMENS",
      "ManufacturerModelName": "Prisma",
      "Modality": "MR",
      "NumberOfAverages": 1.0,
      "NumberOfPhaseEncodingSteps": 82,
      "PercentPhaseFieldOfView": 100.0,
      "PercentSampling": 100.0,
      "PerformedProcedureStepStartTime": "203149.343000",
      "PhotometricInterpretation": "MONOCHROME2",
      "PixelBandwidth": 3050.0,
      "PixelRepresentation": 0,
      "PixelSpacing": [2.6829268932343, 2.6829268932343],
      "ProtocolName": "func_run-04_task-alignvideo_acq-ap-mb8",
      "RepetitionTime": 460.0,
      "Rows": 656,
      "SAR": 0.08196685837559,
      "SamplesPerPixel": 1,
      "ScanOptions": "FS",
      "ScanningSequence": "EP",
      "SequenceName": "epfid2d1_82",
      "SequenceVariant": [
        "SK",
        "SS"
],
      "SeriesDescription": "func_run-04_task-alignvideo_acq-ap-mb8",
      "SeriesNumber": 36,
      "SeriesTime": "222858.319000",
      "SliceLocation": -58.981421460519,
      "SliceThickness": 2.7000000476837,
      "SmallestImagePixelValue": 0,
      "SoftwareVersions": "syngo MR E11",
      "SpacingBetweenSlices": 2.6999999060873,
      "SpecificCharacterSet": "ISO_IR 100",
      "StudyID": "1",
      "StudyTime": "203149.280000",
      "TransmitCoilName": "Body",
      "VariableFlipAngleFlag": "N",
      "WindowCenterWidthExplanation": "Algo1"
    },
    "slices": {}
  },
  "time": {
    "samples": {
      "AcquisitionNumber": [1, 2, 3, 4, 5, 6, 7, 8, 9, 10, 11, 12, 13, 14, 15, 16, 17, 18, 19, 20, 21, 22, 23, 24, 25, 26, 27, 28, 29, 30, 31, 32, 33, 34, 35, 36, 37, 38, 39, 40, 41, 42, 43, 44, 45, 46, 47, 48, 49, 50, 51, 52, 53, 54, 55, 56, 57, 58, 59, 60, 61, 62, 63, 64, 65, 66, 67, 68, 69, 70, 71, 72, 73, 74, 75, 76, 77, 78, 79, 80, 81, 82, 83, 84, 85, 86, 87, 88, 89, 90, 91, 92, 93, 94, 95, 96, 97, 98, 99, 100, 101, 102, 103, 104, 105, 106, 107, 108, 109, 110, 111, 112, 113, 114, 115, 116, 117, 118, 119, 120, 121, 122, 123, 124, 125, 126, 127, 128, 129, 130, 131, 132, 133, 134, 135, 136, 137, 138, 139, 140, 141, 142, 143, 144, 145, 146, 147, 148, 149, 150, 151, 152, 153, 154, 155, 156, 157, 158, 159, 160, 161, 162, 163, 164, 165, 166, 167, 168, 169, 170, 171, 172, 173, 174, 175, 176, 177, 178, 179, 180, 181, 182, 183, 184, 185, 186, 187, 188, 189, 190, 191, 192, 193, 194, 195, 196, 197, 198, 199, 200, 201, 202, 203, 204, 205, 206, 207, 208, 209, 210, 211, 212, 213, 214, 215, 216, 217, 218, 219, 220, 221, 222, 223, 224, 225, 226, 227, 228, 229, 230, 231, 232, 233, 234, 235, 236, 237, 238, 239, 240, 241, 242, 243, 244, 245, 246, 247, 248, 249, 250, 251, 252, 253, 254, 255, 256, 257, 258, 259, 260, 261, 262, 263, 264, 265, 266, 267, 268, 269, 270, 271, 272, 273, 274, 275, 276, 277, 278, 279, 280, 281, 282, 283, 284, 285, 286, 287, 288, 289, 290, 291, 292, 293, 294, 295, 296, 297, 298, 299, 300, 301, 302, 303, 304, 305, 306, 307, 308, 309, 310, 311, 312, 313, 314, 315, 316, 317, 318, 319, 320, 321, 322, 323, 324, 325, 326, 327, 328, 329, 330, 331, 332, 333, 334, 335, 336, 337, 338, 339, 340, 341, 342, 343, 344, 345, 346, 347, 348, 349, 350, 351, 352, 353, 354, 355, 356, 357, 358, 359, 360, 361, 362, 363, 364, 365, 366, 367, 368, 369, 370, 371, 372, 373, 374, 375, 376, 377, 378, 379, 380, 381, 382, 383, 384, 385, 386, 387, 388, 389, 390, 391, 392, 393, 394, 395, 396, 397, 398, 399, 400, 401, 402, 403, 404, 405, 406, 407, 408, 409, 410, 411, 412, 413, 414, 415, 416, 417, 418, 419, 420, 421, 422, 423, 424, 425, 426, 427, 428, 429, 430, 431, 432, 433, 434, 435, 436, 437, 438, 439, 440, 441, 442, 443, 444, 445, 446, 447, 448, 449, 450, 451, 452, 453, 454, 455, 456, 457, 458, 459, 460, 461, 462, 463, 464, 465, 466, 467, 468, 469, 470, 471, 472, 473, 474, 475, 476, 477, 478, 479, 480, 481, 482, 483, 484, 485, 486, 487, 488, 489, 490, 491, 492, 493, 494, 495, 496, 497, 498, 499, 500, 501, 502, 503, 504, 505, 506, 507, 508, 509, 510, 511, 512, 513, 514, 515, 516, 517, 518, 519, 520, 521, 522, 523, 524, 525, 526, 527, 528, 529, 530, 531, 532, 533, 534, 535, 536, 537, 538, 539, 540, 541, 542, 543, 544, 545, 546, 547, 548, 549, 550, 551, 552, 553, 554, 555, 556, 557, 558, 559, 560, 561, 562, 563, 564, 565, 566, 567, 568, 569, 570, 571, 572, 573, 574, 575, 576, 577, 578, 579, 580, 581, 582, 583, 584, 585, 586, 587, 588, 589, 590, 591, 592, 593, 594, 595, 596, 597, 598, 599, 600, 601, 602, 603, 604, 605, 606, 607, 608, 609, 610, 611, 612, 613, 614, 615, 616, 617, 618, 619, 620, 621, 622, 623, 624, 625, 626, 627, 628, 629, 630, 631, 632, 633, 634, 635, 636, 637, 638, 639, 640, 641, 642, 643, 644, 645, 646, 647, 648, 649, 650, 651, 652, 653, 654, 655, 656, 657, 658, 659, 660, 661, 662, 663, 664, 665, 666, 667, 668, 669, 670, 671, 672, 673, 674, 675, 676, 677, 678, 679, 680, 681, 682, 683, 684, 685, 686, 687, 688, 689, 690, 691, 692, 693, 694, 695, 696, 697, 698, 699, 700, 701, 702, 703, 704, 705, 706, 707, 708, 709, 710, 711, 712, 713, 714, 715, 716, 717, 718, 719, 720, 721, 722, 723, 724, 725, 726, 727, 728, 729, 730, 731, 732, 733, 734, 735, 736, 737, 738, 739, 740, 741, 742, 743, 744, 745, 746, 747, 748, 749, 750, 751, 752, 753, 754, 755, 756, 757, 758, 759, 760, 761, 762, 763, 764, 765, 766, 767, 768, 769, 770, 771, 772, 773, 774, 775, 776, 777, 778, 779, 780, 781, 782, 783, 784, 785, 786, 787, 788, 789, 790, 791, 792, 793, 794, 795, 796, 797, 798, 799, 800, 801, 802, 803, 804, 805, 806, 807, 808, 809, 810, 811, 812, 813, 814, 815, 816, 817, 818, 819, 820, 821, 822, 823, 824, 825, 826, 827, 828, 829, 830, 831, 832, 833, 834, 835, 836, 837, 838, 839, 840, 841, 842, 843, 844, 845, 846, 847, 848, 849, 850, 851, 852, 853, 854, 855, 856, 857, 858, 859, 860, 861, 862, 863, 864, 865, 866, 867, 868, 869, 870, 871, 872, 873, 874, 875, 876, 877, 878, 879, 880, 881, 882, 883, 884, 885, 886, 887, 888, 889, 890, 891, 892, 893, 894, 895, 896, 897, 898, 899, 900, 901, 902, 903, 904, 905, 906, 907, 908, 909, 910, 911, 912, 913, 914],
      "AcquisitionTime": ["222831.305000", "222831.765000", "222832.225000", "222832.685000", "222833.145000", "222833.605000", "222834.065000", "222834.525000", "222834.985000", "222835.445000", "222835.905000", "222836.365000", "222836.825000", "222837.285000", "222837.745000", "222838.205000", "222838.665000", "222839.125000", "222839.585000", "222840.045000", "222840.505000", "222840.965000", "222841.425000", "222841.885000", "222842.345000", "222842.805000", "222843.265000", "222843.725000", "222844.185000", "222844.645000", "222845.105000", "222845.565000", "222846.025000", "222846.485000", "222846.945000", "222847.405000", "222847.865000", "222848.325000", "222848.785000", "222849.245000", "222849.705000", "222850.165000", "222850.625000", "222851.085000", "222851.545000", "222852.005000", "222852.465000", "222852.925000", "222853.385000", "222853.845000", "222854.305000", "222854.765000", "222855.225000", "222855.685000", "222856.145000", "222856.605000", "222857.065000", "222857.525000", "222857.985000", "222858.445000", "222858.905000", "222859.365000", "222859.825000", "222900.285000", "222900.745000", "222901.205000", "222901.665000", "222902.125000", "222902.585000", "222903.045000", "222903.505000", "222903.965000", "222904.425000", "222904.885000", "222905.345000", "222905.805000", "222906.265000", "222906.725000", "222907.185000", "222907.645000", "222908.105000", "222908.565000", "222909.025000", "222909.485000", "222909.945000", "222910.405000", "222910.865000", "222911.325000", "222911.785000", "222912.245000", "222912.705000", "222913.165000", "222913.625000", "222914.085000", "222914.545000", "222915.005000", "222915.465000", "222915.925000", "222916.385000", "222916.845000", "222917.305000", "222917.765000", "222918.225000", "222918.685000", "222919.145000", "222919.605000", "222920.065000", "222920.525000", "222920.985000", "222921.445000", "222921.905000", "222922.365000", "222922.825000", "222923.285000", "222923.745000", "222924.205000", "222924.665000", "222925.125000", "222925.585000", "222926.045000", "222926.505000", "222926.965000", "222927.425000", "222927.885000", "222928.345000", "222928.805000", "222929.265000", "222929.725000", "222930.185000", "222930.645000", "222931.105000", "222931.565000", "222932.025000", "222932.485000", "222932.945000", "222933.405000", "222933.865000", "222934.325000", "222934.785000", "222935.245000", "222935.705000", "222936.165000", "222936.625000", "222937.085000", "222937.545000", "222938.005000", "222938.465000", "222938.925000", "222939.385000", "222939.845000", "222940.305000", "222940.765000", "222941.225000", "222941.685000", "222942.145000", "222942.605000", "222943.065000", "222943.525000", "222943.985000", "222944.445000", "222944.905000", "222945.365000", "222945.825000", "222946.285000", "222946.745000", "222947.205000", "222947.665000", "222948.125000", "222948.585000", "222949.045000", "222949.505000", "222949.965000", "222950.425000", "222950.885000", "222951.345000", "222951.805000", "222952.265000", "222952.725000", "222953.185000", "222953.645000", "222954.105000", "222954.565000", "222955.025000", "222955.485000", "222955.945000", "222956.405000", "222956.865000", "222957.325000", "222957.785000", "222958.245000", "222958.705000", "222959.165000", "222959.625000", "223000.085000", "223000.545000", "223001.005000", "223001.465000", "223001.925000", "223002.385000", "223002.845000", "223003.305000", "223003.765000", "223004.225000", "223004.685000", "223005.145000", "223005.605000", "223006.065000", "223006.525000", "223006.985000", "223007.445000", "223007.905000", "223008.365000", "223008.825000", "223009.285000", "223009.745000", "223010.205000", "223010.665000", "223011.125000", "223011.585000", "223012.045000", "223012.505000", "223012.965000", "223013.425000", "223013.885000", "223014.345000", "223014.805000", "223015.265000", "223015.725000", "223016.185000", "223016.645000", "223017.105000", "223017.565000", "223018.025000", "223018.485000", "223018.945000", "223019.405000", "223019.865000", "223020.325000", "223020.785000", "223021.245000", "223021.705000", "223022.165000", "223022.625000", "223023.085000", "223023.545000", "223024.005000", "223024.465000", "223024.925000", "223025.385000", "223025.845000", "223026.305000", "223026.765000", "223027.225000", "223027.685000", "223028.145000", "223028.605000", "223029.065000", "223029.525000", "223029.985000", "223030.445000", "223030.905000", "223031.365000", "223031.825000", "223032.285000", "223032.745000", "223033.205000", "223033.665000", "223034.125000", "223034.585000", "223035.045000", "223035.505000", "223035.965000", "223036.425000", "223036.885000", "223037.345000", "223037.805000", "223038.265000", "223038.725000", "223039.185000", "223039.645000", "223040.105000", "223040.565000", "223041.025000", "223041.485000", "223041.945000", "223042.405000", "223042.865000", "223043.325000", "223043.785000", "223044.245000", "223044.705000", "223045.165000", "223045.625000", "223046.085000", "223046.545000", "223047.005000", "223047.465000", "223047.925000", "223048.385000", "223048.845000", "223049.305000", "223049.765000", "223050.225000", "223050.685000", "223051.145000", "223051.605000", "223052.065000", "223052.525000", "223052.985000", "223053.445000", "223053.905000", "223054.365000", "223054.825000", "223055.285000", "223055.745000", "223056.205000", "223056.665000", "223057.125000", "223057.585000", "223058.045000", "223058.505000", "223058.965000", "223059.425000", "223059.885000", "223100.345000", "223100.805000", "223101.265000", "223101.725000", "223102.185000", "223102.645000", "223103.105000", "223103.565000", "223104.025000", "223104.485000", "223104.945000", "223105.405000", "223105.865000", "223106.325000", "223106.785000", "223107.245000", "223107.705000", "223108.165000", "223108.625000", "223109.085000", "223109.545000", "223110.005000", "223110.465000", "223110.925000", "223111.385000", "223111.845000", "223112.305000", "223112.765000", "223113.225000", "223113.685000", "223114.145000", "223114.605000", "223115.065000", "223115.525000", "223115.985000", "223116.445000", "223116.905000", "223117.365000", "223117.825000", "223118.285000", "223118.745000", "223119.205000", "223119.665000", "223120.125000", "223120.585000", "223121.045000", "223121.505000", "223121.965000", "223122.425000", "223122.885000", "223123.345000", "223123.805000", "223124.265000", "223124.725000", "223125.185000", "223125.645000", "223126.105000", "223126.565000", "223127.025000", "223127.485000", "223127.945000", "223128.405000", "223128.865000", "223129.325000", "223129.785000", "223130.245000", "223130.705000", "223131.165000", "223131.625000", "223132.085000", "223132.545000", "223133.005000", "223133.465000", "223133.925000", "223134.385000", "223134.845000", "223135.305000", "223135.765000", "223136.225000", "223136.685000", "223137.145000", "223137.605000", "223138.065000", "223138.525000", "223138.985000", "223139.445000", "223139.905000", "223140.365000", "223140.825000", "223141.285000", "223141.745000", "223142.205000", "223142.665000", "223143.125000", "223143.585000", "223144.045000", "223144.505000", "223144.965000", "223145.425000", "223145.885000", "223146.345000", "223146.805000", "223147.265000", "223147.725000", "223148.185000", "223148.645000", "223149.105000", "223149.565000", "223150.025000", "223150.485000", "223150.945000", "223151.405000", "223151.865000", "223152.325000", "223152.785000", "223153.245000", "223153.705000", "223154.165000", "223154.625000", "223155.085000", "223155.545000", "223156.005000", "223156.465000", "223156.925000", "223157.385000", "223157.845000", "223158.305000", "223158.765000", "223159.225000", "223159.685000", "223200.145000", "223200.605000", "223201.065000", "223201.525000", "223201.985000", "223202.445000", "223202.905000", "223203.365000", "223203.825000", "223204.285000", "223204.745000", "223205.205000", "223205.665000", "223206.125000", "223206.585000", "223207.045000", "223207.505000", "223207.965000", "223208.425000", "223208.885000", "223209.345000", "223209.805000", "223210.265000", "223210.725000", "223211.185000", "223211.645000", "223212.105000", "223212.565000", "223213.025000", "223213.485000", "223213.945000", "223214.405000", "223214.865000", "223215.325000", "223215.785000", "223216.245000", "223216.705000", "223217.165000", "223217.625000", "223218.085000", "223218.545000", "223219.005000", "223219.465000", "223219.925000", "223220.385000", "223220.845000", "223221.305000", "223221.765000", "223222.225000", "223222.685000", "223223.145000", "223223.605000", "223224.065000", "223224.525000", "223224.985000", "223225.445000", "223225.905000", "223226.365000", "223226.825000", "223227.285000", "223227.745000", "223228.205000", "223228.665000", "223229.125000", "223229.585000", "223230.045000", "223230.505000", "223230.965000", "223231.425000", "223231.885000", "223232.345000", "223232.805000", "223233.265000", "223233.725000", "223234.185000", "223234.645000", "223235.105000", "223235.565000", "223236.025000", "223236.485000", "223236.945000", "223237.405000", "223237.865000", "223238.325000", "223238.785000", "223239.245000", "223239.705000", "223240.165000", "223240.625000", "223241.085000", "223241.545000", "223242.005000", "223242.465000", "223242.925000", "223243.385000", "223243.845000", "223244.305000", "223244.765000", "223245.225000", "223245.685000", "223246.145000", "223246.605000", "223247.065000", "223247.525000", "223247.985000", "223248.445000", "223248.905000", "223249.365000", "223249.825000", "223250.285000", "223250.745000", "223251.205000", "223251.665000", "223252.125000", "223252.585000", "223253.045000", "223253.505000", "223253.965000", "223254.425000", "223254.885000", "223255.345000", "223255.805000", "223256.265000", "223256.725000", "223257.185000", "223257.645000", "223258.105000", "223258.565000", "223259.025000", "223259.485000", "223259.945000", "223300.405000", "223300.865000", "223301.325000", "223301.785000", "223302.245000", "223302.705000", "223303.165000", "223303.625000", "223304.085000", "223304.545000", "223305.005000", "223305.465000", "223305.925000", "223306.385000", "223306.845000", "223307.305000", "223307.765000", "223308.225000", "223308.685000", "223309.145000", "223309.605000", "223310.065000", "223310.525000", "223310.985000", "223311.445000", "223311.905000", "223312.365000", "223312.825000", "223313.285000", "223313.745000", "223314.205000", "223314.665000", "223315.125000", "223315.585000", "223316.045000", "223316.505000", "223316.965000", "223317.425000", "223317.885000", "223318.345000", "223318.805000", "223319.265000", "223319.725000", "223320.185000", "223320.645000", "223321.105000", "223321.565000", "223322.025000", "223322.485000", "223322.945000", "223323.405000", "223323.865000", "223324.325000", "223324.785000", "223325.245000", "223325.705000", "223326.165000", "223326.625000", "223327.085000", "223327.545000", "223328.005000", "223328.465000", "223328.925000", "223329.385000", "223329.845000", "223330.305000", "223330.765000", "223331.225000", "223331.685000", "223332.145000", "223332.605000", "223333.065000", "223333.525000", "223333.985000", "223334.445000", "223334.905000", "223335.365000", "223335.825000", "223336.285000", "223336.745000", "223337.205000", "223337.665000", "223338.125000", "223338.585000", "223339.045000", "223339.505000", "223339.965000", "223340.425000", "223340.885000", "223341.345000", "223341.805000", "223342.265000", "223342.725000", "223343.185000", "223343.645000", "223344.105000", "223344.565000", "223345.025000", "223345.485000", "223345.945000", "223346.405000", "223346.865000", "223347.325000", "223347.785000", "223348.245000", "223348.705000", "223349.165000", "223349.625000", "223350.085000", "223350.545000", "223351.005000", "223351.465000", "223351.925000", "223352.385000", "223352.845000", "223353.305000", "223353.765000", "223354.225000", "223354.685000", "223355.145000", "223355.605000", "223356.065000", "223356.525000", "223356.985000", "223357.445000", "223357.905000", "223358.365000", "223358.825000", "223359.285000", "223359.745000", "223400.205000", "223400.665000", "223401.125000", "223401.585000", "223402.045000", "223402.505000", "223402.965000", "223403.425000", "223403.885000", "223404.345000", "223404.805000", "223405.265000", "223405.725000", "223406.185000", "223406.645000", "223407.105000", "223407.565000", "223408.025000", "223408.485000", "223408.945000", "223409.405000", "223409.865000", "223410.325000", "223410.785000", "223411.245000", "223411.705000", "223412.165000", "223412.625000", "223413.085000", "223413.545000", "223414.005000", "223414.465000", "223414.925000", "223415.385000", "223415.845000", "223416.305000", "223416.765000", "223417.225000", "223417.685000", "223418.145000", "223418.605000", "223419.065000", "223419.525000", "223419.985000", "223420.445000", "223420.905000", "223421.365000", "223421.825000", "223422.285000", "223422.745000", "223423.205000", "223423.665000", "223424.125000", "223424.585000", "223425.045000", "223425.505000", "223425.965000", "223426.425000", "223426.885000", "223427.345000", "223427.805000", "223428.265000", "223428.725000", "223429.185000", "223429.645000", "223430.105000", "223430.565000", "223431.025000", "223431.485000", "223431.945000", "223432.405000", "223432.865000", "223433.325000", "223433.785000", "223434.245000", "223434.705000", "223435.165000", "223435.625000", "223436.085000", "223436.545000", "223437.005000", "223437.465000", "223437.925000", "223438.385000", "223438.845000", "223439.305000", "223439.765000", "223440.225000", "223440.685000", "223441.145000", "223441.605000", "223442.065000", "223442.525000", "223442.985000", "223443.445000", "223443.905000", "223444.365000", "223444.825000", "223445.285000", "223445.745000", "223446.205000", "223446.665000", "223447.125000", "223447.585000", "223448.045000", "223448.505000", "223448.965000", "223449.425000", "223449.885000", "223450.345000", "223450.805000", "223451.265000", "223451.725000", "223452.185000", "223452.645000", "223453.105000", "223453.565000", "223454.025000", "223454.485000", "223454.945000", "223455.405000", "223455.865000", "223456.325000", "223456.785000", "223457.245000", "223457.705000", "223458.165000", "223458.625000", "223459.085000", "223459.545000", "223500.005000", "223500.465000", "223500.925000", "223501.385000", "223501.845000", "223502.305000", "223502.765000", "223503.225000", "223503.685000", "223504.145000", "223504.605000", "223505.065000", "223505.525000", "223505.985000", "223506.445000", "223506.905000", "223507.365000", "223507.825000", "223508.285000", "223508.745000", "223509.205000", "223509.665000", "223510.125000", "223510.585000", "223511.045000", "223511.505000", "223511.965000", "223512.425000", "223512.885000", "223513.345000", "223513.805000", "223514.265000", "223514.725000", "223515.185000", "223515.645000", "223516.105000", "223516.565000", "223517.025000", "223517.485000", "223517.945000", "223518.405000", "223518.865000", "223519.325000", "223519.785000", "223520.245000", "223520.705000", "223521.165000", "223521.625000", "223522.085000", "223522.545000", "223523.005000", "223523.465000", "223523.925000", "223524.385000", "223524.845000", "223525.305000", "223525.765000", "223526.225000", "223526.685000", "223527.145000", "223527.605000", "223528.065000", "223528.525000", "223528.985000", "223529.445000", "223529.905000", "223530.365000", "223530.825000", "223531.285000"],
