{
  "AcquisitionMatrixPE": 82,
  "AcquisitionNumber": 1,
  "AcquisitionTime": "21:57:51.925000",
  "BandwidthPerPixelPhaseEncode": 24.888,
  "BaseResolution": 82,
  "BodyPartExamined": "BRAIN",
  "ConsistencyInfo": "N4_VE11E_LATEST_20181129",
  "ConversionSoftware": "dcm2niix",
  "ConversionSoftwareVersion": "v1.0.20201102",
  "DerivedVendorReportedEchoSpacing": 0.00049,
  "DeviceSerialNumber": "66112",
  "DwellTime": 2e-06,
  "EchoTime": 0.0272,
  "EchoTrainLength": 82,
  "EffectiveEchoSpacing": 0.00049,
  "FlipAngle": 44,
  "ImageComments": "Unaliased MB8/PE3",
  "ImageOrientationPatientDICOM": [0.999675, 0.0247275, -0.00622593, -0.0242569, 0.997471, 0.0668109],
  "ImageType": [
    "ORIGINAL",
    "PRIMARY",
    "M",
    "MB",
    "ND",
    "NORM",
    "MOSAIC"
],
  "ImagingFrequency": 123.259,
  "InPlanePhaseEncodingDirectionDICOM": "COL",
  "InstitutionAddress": "Maynard 3,Hanover,NH,US,03755",
  "InstitutionName": "Dartmouth College - PBS",
  "InstitutionalDepartmentName": "Department",
  "MRAcquisitionType": "2D",
  "MagneticFieldStrength": 3,
  "Manufacturer": "Siemens",
  "ManufacturersModelName": "Prisma",
  "Modality": "MR",
  "MultibandAccelerationFactor": 8,
  "PartialFourier": 1,
  "PatientPosition": "HFS",
  "PercentPhaseFOV": 100,
  "PercentSampling": 100,
  "PhaseEncodingDirection": "j-",
  "PhaseEncodingSteps": 82,
  "PhaseResolution": 1,
  "PixelBandwidth": 3050,
  "ProcedureStepDescription": "Wager_Wager^1076_spacetop",
  "ProtocolName": "func_run-01_task-alignvideo_acq-ap-mb8",
  "PulseSequenceDetails": "%CustomerSeq%\\cmrr_mbep2d_bold",
  "ReceiveCoilActiveElements": "HEA;HEP",
  "ReceiveCoilName": "Head_32",
  "ReconMatrixPE": 82,
  "RepetitionTime": 0.46,
  "SAR": 0.0819235,
  "ScanOptions": "FS",
  "ScanningSequence": "EP",
  "SequenceName": "epfid2d1_82",
  "SequenceVariant": "SK\\SS",
  "SeriesDescription": "func_run-01_task-alignvideo_acq-ap-mb8",
  "SeriesNumber": 30,
  "ShimSetting": [4228, -7635, -7102, 875, -174, 296, -454, 75],
  "SliceThickness": 2.7,
  "SliceTiming": [0, 0.25, 0.0625, 0.3125, 0.125, 0.375, 0.1875, 0, 0.25, 0.0625, 0.3125, 0.125, 0.375, 0.1875, 0, 0.25, 0.0625, 0.3125, 0.125, 0.375, 0.1875, 0, 0.25, 0.0625, 0.3125, 0.125, 0.375, 0.1875, 0, 0.25, 0.0625, 0.3125, 0.125, 0.375, 0.1875, 0, 0.25, 0.0625, 0.3125, 0.125, 0.375, 0.1875, 0, 0.25, 0.0625, 0.3125, 0.125, 0.375, 0.1875, 0, 0.25, 0.0625, 0.3125, 0.125, 0.375, 0.1875],
  "SoftwareVersions": "syngo MR E11",
  "SpacingBetweenSlices": 2.7,
  "StationName": "AWP66112",
  "TaskName": "alignvideo",
  "TotalReadoutTime": 0.03969,
  "TxRefAmp": 232.155,
  "WipMemBlock": "d887d778-fdea-4858-b75c-b6fe6535a99b||Sequence: R016 ve11e/master r/434b28f1; Aug  7 2019 18:53:46 by eja",
  "dcmmeta_affine": [
    [-2.6820545196533203, -0.06507955491542816, -0.02122807689011097, 113.68132019042969],
    [-0.06634218245744705, 2.6761410236358643, 0.17992305755615234, -97.89546966552734],
    [-0.016703709959983826, -0.17924880981445312, 2.6939146518707275, -51.6805305480957],
    [0.0, 0.0, 0.0, 1.0]
],
  "dcmmeta_reorient_transform": [
    [0.0, -1.0, 0.0, 81.0],
    [1.0, 0.0, 0.0, 0.0],
    [0.0, 0.0, 1.0, 0.0],
    [0.0, 0.0, 0.0, 1.0]
],
  "dcmmeta_shape": [82, 82, 56, 839],
  "dcmmeta_slice_dim": 2,
  "dcmmeta_version": 0.6,
  "global": {
    "const": {
      "AccessionNumber": "A004692",
      "AcquisitionMatrix": [82, 0, 0, 82],
      "AngioFlag": "N",
      "BitsAllocated": 16,
      "BitsStored": 16,
      "BodyPartExamined": "BRAIN",
      "Columns": 656,
      "EchoNumbers": 1,
      "EchoTime": 27.2,
      "EchoTrainLength": 82,
      "FlipAngle": 44.0,
      "HighBit": 15,
      "ImageOrientationPatient": [0.99967484043497, 0.02472753976529, -0.0062259279206, -0.0242569251056, 0.99747075276234, 0.06681091952783],
      "ImagePositionPatient": [-859.48168745089, -905.96466031986, -112.85012942628],
      "ImageType": [
        "ORIGINAL",
        "PRIMARY",
        "M",
        "MB",
        "ND",
        "NORM",
        "MOSAIC"
],
      "ImagedNucleus": "1H",
      "ImagingFrequency": 123.259132,
      "InPlanePhaseEncodingDirection": "COL",
      "MRAcquisitionType": "2D",
      "MagneticFieldStrength": 3.0,
      "Manufacturer": "SIEMENS",
      "ManufacturerModelName": "Prisma",
      "Modality": "MR",
      "NumberOfAverages": 1.0,
      "NumberOfPhaseEncodingSteps": 82,
      "PercentPhaseFieldOfView": 100.0,
      "PercentSampling": 100.0,
      "PerformedProcedureStepStartTime": "203149.343000",
      "PhotometricInterpretation": "MONOCHROME2",
      "PixelBandwidth": 3050.0,
      "PixelRepresentation": 0,
      "PixelSpacing": [2.6829268932343, 2.6829268932343],
      "ProtocolName": "func_run-01_task-alignvideo_acq-ap-mb8",
      "RepetitionTime": 460.0,
      "Rows": 656,
      "SAR": 0.08192348682871,
      "SamplesPerPixel": 1,
      "ScanOptions": "FS",
      "ScanningSequence": "EP",
      "SequenceName": "epfid2d1_82",
      "SequenceVariant": [
        "SK",
        "SS"
],
      "SeriesDescription": "func_run-01_task-alignvideo_acq-ap-mb8",
      "SeriesNumber": 30,
      "SeriesTime": "215818.322000",
      "SliceLocation": -58.981421460519,
      "SliceThickness": 2.7000000476837,
      "SmallestImagePixelValue": 0,
      "SoftwareVersions": "syngo MR E11",
      "SpacingBetweenSlices": 2.6999999060873,
      "SpecificCharacterSet": "ISO_IR 100",
      "StudyID": "1",
      "StudyTime": "203149.280000",
      "TransmitCoilName": "Body",
      "VariableFlipAngleFlag": "N",
      "WindowCenterWidthExplanation": "Algo1"
    },
    "slices": {}
  },
  "time": {
    "samples": {
      "AcquisitionNumber": [1, 2, 3, 4, 5, 6, 7, 8, 9, 10, 11, 12, 13, 14, 15, 16, 17, 18, 19, 20, 21, 22, 23, 24, 25, 26, 27, 28, 29, 30, 31, 32, 33, 34, 35, 36, 37, 38, 39, 40, 41, 42, 43, 44, 45, 46, 47, 48, 49, 50, 51, 52, 53, 54, 55, 56, 57, 58, 59, 60, 61, 62, 63, 64, 65, 66, 67, 68, 69, 70, 71, 72, 73, 74, 75, 76, 77, 78, 79, 80, 81, 82, 83, 84, 85, 86, 87, 88, 89, 90, 91, 92, 93, 94, 95, 96, 97, 98, 99, 100, 101, 102, 103, 104, 105, 106, 107, 108, 109, 110, 111, 112, 113, 114, 115, 116, 117, 118, 119, 120, 121, 122, 123, 124, 125, 126, 127, 128, 129, 130, 131, 132, 133, 134, 135, 136, 137, 138, 139, 140, 141, 142, 143, 144, 145, 146, 147, 148, 149, 150, 151, 152, 153, 154, 155, 156, 157, 158, 159, 160, 161, 162, 163, 164, 165, 166, 167, 168, 169, 170, 171, 172, 173, 174, 175, 176, 177, 178, 179, 180, 181, 182, 183, 184, 185, 186, 187, 188, 189, 190, 191, 192, 193, 194, 195, 196, 197, 198, 199, 200, 201, 202, 203, 204, 205, 206, 207, 208, 209, 210, 211, 212, 213, 214, 215, 216, 217, 218, 219, 220, 221, 222, 223, 224, 225, 226, 227, 228, 229, 230, 231, 232, 233, 234, 235, 236, 237, 238, 239, 240, 241, 242, 243, 244, 245, 246, 247, 248, 249, 250, 251, 252, 253, 254, 255, 256, 257, 258, 259, 260, 261, 262, 263, 264, 265, 266, 267, 268, 269, 270, 271, 272, 273, 274, 275, 276, 277, 278, 279, 280, 281, 282, 283, 284, 285, 286, 287, 288, 289, 290, 291, 292, 293, 294, 295, 296, 297, 298, 299, 300, 301, 302, 303, 304, 305, 306, 307, 308, 309, 310, 311, 312, 313, 314, 315, 316, 317, 318, 319, 320, 321, 322, 323, 324, 325, 326, 327, 328, 329, 330, 331, 332, 333, 334, 335, 336, 337, 338, 339, 340, 341, 342, 343, 344, 345, 346, 347, 348, 349, 350, 351, 352, 353, 354, 355, 356, 357, 358, 359, 360, 361, 362, 363, 364, 365, 366, 367, 368, 369, 370, 371, 372, 373, 374, 375, 376, 377, 378, 379, 380, 381, 382, 383, 384, 385, 386, 387, 388, 389, 390, 391, 392, 393, 394, 395, 396, 397, 398, 399, 400, 401, 402, 403, 404, 405, 406, 407, 408, 409, 410, 411, 412, 413, 414, 415, 416, 417, 418, 419, 420, 421, 422, 423, 424, 425, 426, 427, 428, 429, 430, 431, 432, 433, 434, 435, 436, 437, 438, 439, 440, 441, 442, 443, 444, 445, 446, 447, 448, 449, 450, 451, 452, 453, 454, 455, 456, 457, 458, 459, 460, 461, 462, 463, 464, 465, 466, 467, 468, 469, 470, 471, 472, 473, 474, 475, 476, 477, 478, 479, 480, 481, 482, 483, 484, 485, 486, 487, 488, 489, 490, 491, 492, 493, 494, 495, 496, 497, 498, 499, 500, 501, 502, 503, 504, 505, 506, 507, 508, 509, 510, 511, 512, 513, 514, 515, 516, 517, 518, 519, 520, 521, 522, 523, 524, 525, 526, 527, 528, 529, 530, 531, 532, 533, 534, 535, 536, 537, 538, 539, 540, 541, 542, 543, 544, 545, 546, 547, 548, 549, 550, 551, 552, 553, 554, 555, 556, 557, 558, 559, 560, 561, 562, 563, 564, 565, 566, 567, 568, 569, 570, 571, 572, 573, 574, 575, 576, 577, 578, 579, 580, 581, 582, 583, 584, 585, 586, 587, 588, 589, 590, 591, 592, 593, 594, 595, 596, 597, 598, 599, 600, 601, 602, 603, 604, 605, 606, 607, 608, 609, 610, 611, 612, 613, 614, 615, 616, 617, 618, 619, 620, 621, 622, 623, 624, 625, 626, 627, 628, 629, 630, 631, 632, 633, 634, 635, 636, 637, 638, 639, 640, 641, 642, 643, 644, 645, 646, 647, 648, 649, 650, 651, 652, 653, 654, 655, 656, 657, 658, 659, 660, 661, 662, 663, 664, 665, 666, 667, 668, 669, 670, 671, 672, 673, 674, 675, 676, 677, 678, 679, 680, 681, 682, 683, 684, 685, 686, 687, 688, 689, 690, 691, 692, 693, 694, 695, 696, 697, 698, 699, 700, 701, 702, 703, 704, 705, 706, 707, 708, 709, 710, 711, 712, 713, 714, 715, 716, 717, 718, 719, 720, 721, 722, 723, 724, 725, 726, 727, 728, 729, 730, 731, 732, 733, 734, 735, 736, 737, 738, 739, 740, 741, 742, 743, 744, 745, 746, 747, 748, 749, 750, 751, 752, 753, 754, 755, 756, 757, 758, 759, 760, 761, 762, 763, 764, 765, 766, 767, 768, 769, 770, 771, 772, 773, 774, 775, 776, 777, 778, 779, 780, 781, 782, 783, 784, 785, 786, 787, 788, 789, 790, 791, 792, 793, 794, 795, 796, 797, 798, 799, 800, 801, 802, 803, 804, 805, 806, 807, 808, 809, 810, 811, 812, 813, 814, 815, 816, 817, 818, 819, 820, 821, 822, 823, 824, 825, 826, 827, 828, 829, 830, 831, 832, 833, 834, 835, 836, 837, 838, 839],
      "AcquisitionTime": ["215751.925000", "215752.385000", "215752.845000", "215753.305000", "215753.765000", "215754.225000", "215754.685000", "215755.145000", "215755.605000", "215756.065000", "215756.525000", "215756.985000", "215757.445000", "215757.905000", "215758.365000", "215758.825000", "215759.285000", "215759.745000", "215800.205000", "215800.665000", "215801.125000", "215801.585000", "215802.045000", "215802.505000", "215802.965000", "215803.425000", "215803.885000", "215804.345000", "215804.805000", "215805.265000", "215805.725000", "215806.185000", "215806.645000", "215807.105000", "215807.565000", "215808.025000", "215808.485000", "215808.945000", "215809.405000", "215809.865000", "215810.325000", "215810.785000", "215811.245000", "215811.705000", "215812.165000", "215812.625000", "215813.085000", "215813.545000", "215814.005000", "215814.465000", "215814.925000", "215815.385000", "215815.845000", "215816.305000", "215816.765000", "215817.225000", "215817.685000", "215818.145000", "215818.605000", "215819.065000", "215819.525000", "215819.985000", "215820.445000", "215820.905000", "215821.365000", "215821.825000", "215822.285000", "215822.745000", "215823.205000", "215823.665000", "215824.125000", "215824.585000", "215825.045000", "215825.505000", "215825.965000", "215826.425000", "215826.885000", "215827.345000", "215827.805000", "215828.265000", "215828.725000", "215829.185000", "215829.645000", "215830.105000", "215830.565000", "215831.025000", "215831.485000", "215831.945000", "215832.405000", "215832.865000", "215833.325000", "215833.785000", "215834.245000", "215834.705000", "215835.165000", "215835.625000", "215836.085000", "215836.545000", "215837.005000", "215837.465000", "215837.925000", "215838.385000", "215838.845000", "215839.305000", "215839.765000", "215840.225000", "215840.685000", "215841.145000", "215841.605000", "215842.065000", "215842.525000", "215842.985000", "215843.445000", "215843.905000", "215844.365000", "215844.825000", "215845.285000", "215845.745000", "215846.205000", "215846.665000", "215847.125000", "215847.585000", "215848.045000", "215848.505000", "215848.965000", "215849.425000", "215849.885000", "215850.345000", "215850.805000", "215851.265000", "215851.725000", "215852.185000", "215852.645000", "215853.105000", "215853.565000", "215854.025000", "215854.485000", "215854.945000", "215855.405000", "215855.865000", "215856.325000", "215856.785000", "215857.245000", "215857.705000", "215858.165000", "215858.625000", "215859.085000", "215859.545000", "215900.005000", "215900.465000", "215900.925000", "215901.385000", "215901.845000", "215902.305000", "215902.765000", "215903.225000", "215903.685000", "215904.145000", "215904.605000", "215905.065000", "215905.525000", "215905.985000", "215906.445000", "215906.905000", "215907.365000", "215907.825000", "215908.285000", "215908.745000", "215909.205000", "215909.665000", "215910.125000", "215910.585000", "215911.045000", "215911.505000", "215911.965000", "215912.425000", "215912.885000", "215913.345000", "215913.805000", "215914.265000", "215914.725000", "215915.185000", "215915.645000", "215916.105000", "215916.565000", "215917.025000", "215917.485000", "215917.945000", "215918.405000", "215918.865000", "215919.325000", "215919.785000", "215920.245000", "215920.705000", "215921.165000", "215921.625000", "215922.085000", "215922.545000", "215923.005000", "215923.465000", "215923.925000", "215924.385000", "215924.845000", "215925.305000", "215925.765000", "215926.225000", "215926.685000", "215927.145000", "215927.605000", "215928.065000", "215928.525000", "215928.985000", "215929.445000", "215929.905000", "215930.365000", "215930.825000", "215931.285000", "215931.745000", "215932.205000", "215932.665000", "215933.125000", "215933.585000", "215934.045000", "215934.505000", "215934.965000", "215935.425000", "215935.885000", "215936.345000", "215936.805000", "215937.265000", "215937.725000", "215938.185000", "215938.645000", "215939.105000", "215939.565000", "215940.025000", "215940.485000", "215940.945000", "215941.405000", "215941.865000", "215942.325000", "215942.785000", "215943.245000", "215943.705000", "215944.165000", "215944.625000", "215945.085000", "215945.545000", "215946.005000", "215946.465000", "215946.925000", "215947.385000", "215947.845000", "215948.305000", "215948.765000", "215949.225000", "215949.685000", "215950.145000", "215950.605000", "215951.065000", "215951.525000", "215951.985000", "215952.445000", "215952.905000", "215953.365000", "215953.825000", "215954.285000", "215954.745000", "215955.205000", "215955.665000", "215956.125000", "215956.585000", "215957.045000", "215957.505000", "215957.965000", "215958.425000", "215958.885000", "215959.345000", "215959.805000", "220000.265000", "220000.725000", "220001.185000", "220001.645000", "220002.105000", "220002.565000", "220003.025000", "220003.485000", "220003.945000", "220004.405000", "220004.865000", "220005.325000", "220005.785000", "220006.245000", "220006.705000", "220007.165000", "220007.625000", "220008.085000", "220008.545000", "220009.005000", "220009.465000", "220009.925000", "220010.385000", "220010.845000", "220011.305000", "220011.765000", "220012.225000", "220012.685000", "220013.145000", "220013.605000", "220014.065000", "220014.525000", "220014.985000", "220015.445000", "220015.905000", "220016.365000", "220016.825000", "220017.285000", "220017.745000", "220018.205000", "220018.665000", "220019.125000", "220019.585000", "220020.045000", "220020.505000", "220020.965000", "220021.425000", "220021.885000", "220022.345000", "220022.805000", "220023.265000", "220023.725000", "220024.185000", "220024.645000", "220025.105000", "220025.565000", "220026.025000", "220026.485000", "220026.945000", "220027.405000", "220027.865000", "220028.325000", "220028.785000", "220029.245000", "220029.705000", "220030.165000", "220030.625000", "220031.085000", "220031.545000", "220032.005000", "220032.465000", "220032.925000", "220033.385000", "220033.845000", "220034.305000", "220034.765000", "220035.225000", "220035.685000", "220036.145000", "220036.605000", "220037.065000", "220037.525000", "220037.985000", "220038.445000", "220038.905000", "220039.365000", "220039.825000", "220040.285000", "220040.745000", "220041.205000", "220041.665000", "220042.125000", "220042.585000", "220043.045000", "220043.505000", "220043.965000", "220044.425000", "220044.885000", "220045.345000", "220045.805000", "220046.265000", "220046.725000", "220047.185000", "220047.645000", "220048.105000", "220048.565000", "220049.025000", "220049.485000", "220049.945000", "220050.405000", "220050.865000", "220051.325000", "220051.785000", "220052.245000", "220052.705000", "220053.165000", "220053.625000", "220054.085000", "220054.545000", "220055.005000", "220055.465000", "220055.925000", "220056.385000", "220056.845000", "220057.305000", "220057.765000", "220058.225000", "220058.685000", "220059.145000", "220059.605000", "220100.065000", "220100.525000", "220100.985000", "220101.445000", "220101.905000", "220102.365000", "220102.825000", "220103.285000", "220103.745000", "220104.205000", "220104.665000", "220105.125000", "220105.585000", "220106.045000", "220106.505000", "220106.965000", "220107.425000", "220107.885000", "220108.345000", "220108.805000", "220109.265000", "220109.725000", "220110.185000", "220110.645000", "220111.105000", "220111.565000", "220112.025000", "220112.485000", "220112.945000", "220113.405000", "220113.865000", "220114.325000", "220114.785000", "220115.245000", "220115.705000", "220116.165000", "220116.625000", "220117.085000", "220117.545000", "220118.005000", "220118.465000", "220118.925000", "220119.385000", "220119.845000", "220120.305000", "220120.765000", "220121.225000", "220121.685000", "220122.145000", "220122.605000", "220123.065000", "220123.525000", "220123.985000", "220124.445000", "220124.905000", "220125.365000", "220125.825000", "220126.285000", "220126.745000", "220127.205000", "220127.665000", "220128.125000", "220128.585000", "220129.045000", "220129.505000", "220129.965000", "220130.425000", "220130.885000", "220131.345000", "220131.805000", "220132.265000", "220132.725000", "220133.185000", "220133.645000", "220134.105000", "220134.565000", "220135.025000", "220135.485000", "220135.945000", "220136.405000", "220136.865000", "220137.325000", "220137.785000", "220138.245000", "220138.705000", "220139.165000", "220139.625000", "220140.085000", "220140.545000", "220141.005000", "220141.465000", "220141.925000", "220142.385000", "220142.845000", "220143.305000", "220143.765000", "220144.225000", "220144.685000", "220145.145000", "220145.605000", "220146.065000", "220146.525000", "220146.985000", "220147.445000", "220147.905000", "220148.365000", "220148.825000", "220149.285000", "220149.745000", "220150.205000", "220150.665000", "220151.125000", "220151.585000", "220152.045000", "220152.505000", "220152.965000", "220153.425000", "220153.885000", "220154.345000", "220154.805000", "220155.265000", "220155.725000", "220156.185000", "220156.645000", "220157.105000", "220157.565000", "220158.025000", "220158.485000", "220158.945000", "220159.405000", "220159.865000", "220200.325000", "220200.785000", "220201.245000", "220201.705000", "220202.165000", "220202.625000", "220203.085000", "220203.545000", "220204.005000", "220204.465000", "220204.925000", "220205.385000", "220205.845000", "220206.305000", "220206.765000", "220207.225000", "220207.685000", "220208.145000", "220208.605000", "220209.065000", "220209.525000", "220209.985000", "220210.445000", "220210.905000", "220211.365000", "220211.825000", "220212.285000", "220212.745000", "220213.205000", "220213.665000", "220214.125000", "220214.585000", "220215.045000", "220215.505000", "220215.965000", "220216.425000", "220216.885000", "220217.345000", "220217.805000", "220218.265000", "220218.725000", "220219.185000", "220219.645000", "220220.105000", "220220.565000", "220221.025000", "220221.485000", "220221.945000", "220222.405000", "220222.865000", "220223.325000", "220223.785000", "220224.245000", "220224.705000", "220225.165000", "220225.625000", "220226.085000", "220226.545000", "220227.005000", "220227.465000", "220227.925000", "220228.385000", "220228.845000", "220229.305000", "220229.765000", "220230.225000", "220230.685000", "220231.145000", "220231.605000", "220232.065000", "220232.525000", "220232.985000", "220233.445000", "220233.905000", "220234.365000", "220234.825000", "220235.285000", "220235.745000", "220236.205000", "220236.665000", "220237.125000", "220237.585000", "220238.045000", "220238.505000", "220238.965000", "220239.425000", "220239.885000", "220240.345000", "220240.805000", "220241.265000", "220241.725000", "220242.185000", "220242.645000", "220243.105000", "220243.565000", "220244.025000", "220244.485000", "220244.945000", "220245.405000", "220245.865000", "220246.325000", "220246.785000", "220247.245000", "220247.705000", "220248.165000", "220248.625000", "220249.085000", "220249.545000", "220250.005000", "220250.465000", "220250.925000", "220251.385000", "220251.845000", "220252.305000", "220252.765000", "220253.225000", "220253.685000", "220254.145000", "220254.605000", "220255.065000", "220255.525000", "220255.985000", "220256.445000", "220256.905000", "220257.365000", "220257.825000", "220258.285000", "220258.745000", "220259.205000", "220259.665000", "220300.125000", "220300.585000", "220301.045000", "220301.505000", "220301.965000", "220302.425000", "220302.885000", "220303.345000", "220303.805000", "220304.265000", "220304.725000", "220305.185000", "220305.645000", "220306.105000", "220306.565000", "220307.025000", "220307.485000", "220307.945000", "220308.405000", "220308.865000", "220309.325000", "220309.785000", "220310.245000", "220310.705000", "220311.165000", "220311.625000", "220312.085000", "220312.545000", "220313.005000", "220313.465000", "220313.925000", "220314.385000", "220314.845000", "220315.305000", "220315.765000", "220316.225000", "220316.685000", "220317.145000", "220317.605000", "220318.065000", "220318.525000", "220318.985000", "220319.445000", "220319.905000", "220320.365000", "220320.825000", "220321.285000", "220321.745000", "220322.205000", "220322.665000", "220323.125000", "220323.585000", "220324.045000", "220324.505000", "220324.965000", "220325.425000", "220325.885000", "220326.345000", "220326.805000", "220327.265000", "220327.725000", "220328.185000", "220328.645000", "220329.105000", "220329.565000", "220330.025000", "220330.485000", "220330.945000", "220331.405000", "220331.865000", "220332.325000", "220332.785000", "220333.245000", "220333.705000", "220334.165000", "220334.625000", "220335.085000", "220335.545000", "220336.005000", "220336.465000", "220336.925000", "220337.385000", "220337.845000", "220338.305000", "220338.765000", "220339.225000", "220339.685000", "220340.145000", "220340.605000", "220341.065000", "220341.525000", "220341.985000", "220342.445000", "220342.905000", "220343.365000", "220343.825000", "220344.285000", "220344.745000", "220345.205000", "220345.665000", "220346.125000", "220346.585000", "220347.045000", "220347.505000", "220347.965000", "220348.425000", "220348.885000", "220349.345000", "220349.805000", "220350.265000", "220350.725000", "220351.185000", "220351.645000", "220352.105000", "220352.565000", "220353.025000", "220353.485000", "220353.945000", "220354.405000", "220354.865000", "220355.325000", "220355.785000", "220356.245000", "220356.705000", "220357.165000", "220357.625000", "220358.085000", "220358.545000", "220359.005000", "220359.465000", "220359.925000", "220400.385000", "220400.845000", "220401.305000", "220401.765000", "220402.225000", "220402.685000", "220403.145000", "220403.605000", "220404.065000", "220404.525000", "220404.985000", "220405.445000", "220405.905000", "220406.365000", "220406.825000", "220407.285000", "220407.745000", "220408.205000", "220408.665000", "220409.125000", "220409.585000", "220410.045000", "220410.505000", "220410.965000", "220411.425000", "220411.885000", "220412.345000", "220412.805000", "220413.265000", "220413.725000", "220414.185000", "220414.645000", "220415.105000", "220415.565000", "220416.025000", "220416.485000", "220416.945000", "220417.405000"],
