{
  "AcquisitionMatrixPE": 82,
  "AcquisitionNumber": 1,
  "AcquisitionTime": "21:37:23.685000",
  "BandwidthPerPixelPhaseEncode": 24.888,
  "BaseResolution": 82,
  "BodyPartExamined": "BRAIN",
  "ConsistencyInfo": "N4_VE11E_LATEST_20181129",
  "ConversionSoftware": "dcm2niix",
  "ConversionSoftwareVersion": "v1.0.20201102",
  "DerivedVendorReportedEchoSpacing": 0.00049,
  "DeviceSerialNumber": "66112",
  "DwellTime": 2e-06,
  "EchoTime": 0.0272,
  "EchoTrainLength": 82,
  "EffectiveEchoSpacing": 0.00049,
  "FlipAngle": 44,
  "ImageComments": "Unaliased MB8/PE3",
  "ImageOrientationPatientDICOM": [0.999735, 0.0226404, 0.00416075, -0.0228617, 0.997657, 0.0644778],
  "ImageType": [
    "ORIGINAL",
    "PRIMARY",
    "M",
    "MB",
    "ND",
    "NORM",
    "MOSAIC"
],
  "ImagingFrequency": 123.259,
  "InPlanePhaseEncodingDirectionDICOM": "COL",
  "InstitutionAddress": "Maynard 3,Hanover,NH,US,03755",
  "InstitutionName": "Dartmouth College - PBS",
  "InstitutionalDepartmentName": "Department",
  "MRAcquisitionType": "2D",
  "MagneticFieldStrength": 3,
  "Manufacturer": "Siemens",
  "ManufacturersModelName": "Prisma",
  "Modality": "MR",
  "MultibandAccelerationFactor": 8,
  "PartialFourier": 1,
  "PatientPosition": "HFS",
  "PercentPhaseFOV": 100,
  "PercentSampling": 100,
  "PhaseEncodingDirection": "j-",
  "PhaseEncodingSteps": 82,
  "PhaseResolution": 1,
  "PixelBandwidth": 3050,
  "ProcedureStepDescription": "Wager_Wager^1076_spacetop",
  "ProtocolName": "func_run-02_task-faces_acq-ap-mb8",
  "PulseSequenceDetails": "%CustomerSeq%\\cmrr_mbep2d_bold",
  "ReceiveCoilActiveElements": "HEA;HEP",
  "ReceiveCoilName": "Head_32",
  "ReconMatrixPE": 82,
  "RepetitionTime": 0.46,
  "SAR": 0.0819669,
  "ScanOptions": "FS",
  "ScanningSequence": "EP",
  "SequenceName": "epfid2d1_82",
  "SequenceVariant": "SK\\SS",
  "SeriesDescription": "func_run-02_task-faces_acq-ap-mb8",
  "SeriesNumber": 20,
  "ShimSetting": [4229, -7635, -7101, 878, -170, 296, -456, 76],
  "SliceThickness": 2.7,
  "SliceTiming": [0, 0.2525, 0.065, 0.315, 0.1275, 0.3775, 0.19, 0, 0.2525, 0.065, 0.315, 0.1275, 0.3775, 0.19, 0, 0.2525, 0.065, 0.315, 0.1275, 0.3775, 0.19, 0, 0.2525, 0.065, 0.315, 0.1275, 0.3775, 0.19, 0, 0.2525, 0.065, 0.315, 0.1275, 0.3775, 0.19, 0, 0.2525, 0.065, 0.315, 0.1275, 0.3775, 0.19, 0, 0.2525, 0.065, 0.315, 0.1275, 0.3775, 0.19, 0, 0.2525, 0.065, 0.315, 0.1275, 0.3775, 0.19],
  "SoftwareVersions": "syngo MR E11",
  "SpacingBetweenSlices": 2.7,
  "StationName": "AWP66112",
  "TaskName": "faces",
  "TotalReadoutTime": 0.03969,
  "TxRefAmp": 232.155,
  "WipMemBlock": "ca3db792-5f88-4b10-87ad-865c7a827d84||Sequence: R016 ve11e/master r/434b28f1; Aug  7 2019 18:53:46 by eja",
  "dcmmeta_affine": [
    [-2.682215929031372, -0.06133631244301796, 0.007266220636665821, 112.47217559814453],
    [-0.06074260175228119, 2.6766414642333984, 0.17430077493190765, -97.40086364746094],
    [0.011162974871695042, -0.17298923432826996, 2.6943583488464355, -53.669227600097656],
    [0.0, 0.0, 0.0, 1.0]
],
  "dcmmeta_reorient_transform": [
    [0.0, -1.0, 0.0, 81.0],
    [1.0, 0.0, 0.0, 0.0],
    [0.0, 0.0, 1.0, 0.0],
    [0.0, 0.0, 0.0, 1.0]
],
  "dcmmeta_shape": [82, 82, 56, 914],
  "dcmmeta_slice_dim": 2,
  "dcmmeta_version": 0.6,
  "global": {
    "const": {
      "AccessionNumber": "A004692",
      "AcquisitionMatrix": [82, 0, 0, 82],
      "AngioFlag": "N",
      "BitsAllocated": 16,
      "BitsStored": 16,
      "BodyPartExamined": "BRAIN",
      "Columns": 656,
      "EchoNumbers": 1,
      "EchoTime": 27.2,
      "EchoTrainLength": 82,
      "FlipAngle": 44.0,
      "HighBit": 15,
      "ImageOrientationPatient": [0.99973501460164, 0.02264042356268, 0.00416074516797, -0.0228617160589, 0.99765723310852, 0.06447780366216],
      "ImagePositionPatient": [-859.69639099563, -905.03630763169, -120.53303937033],
      "ImageType": [
        "ORIGINAL",
        "PRIMARY",
        "M",
        "MB",
        "ND",
        "NORM",
        "MOSAIC"
],
      "ImagedNucleus": "1H",
      "ImagingFrequency": 123.259137,
      "InPlanePhaseEncodingDirection": "COL",
      "MRAcquisitionType": "2D",
      "MagneticFieldStrength": 3.0,
      "Manufacturer": "SIEMENS",
      "ManufacturerModelName": "Prisma",
      "Modality": "MR",
      "NumberOfAverages": 1.0,
      "NumberOfPhaseEncodingSteps": 82,
      "PercentPhaseFieldOfView": 100.0,
      "PercentSampling": 100.0,
      "PerformedProcedureStepStartTime": "203149.343000",
      "PhotometricInterpretation": "MONOCHROME2",
      "PixelBandwidth": 3050.0,
      "PixelRepresentation": 0,
      "PixelSpacing": [2.6829268932343, 2.6829268932343],
      "ProtocolName": "func_run-02_task-faces_acq-ap-mb8",
      "RepetitionTime": 460.0,
      "Rows": 656,
      "SAR": 0.08196685837559,
      "SamplesPerPixel": 1,
      "ScanOptions": "FS",
      "ScanningSequence": "EP",
      "SequenceName": "epfid2d1_82",
      "SequenceVariant": [
        "SK",
        "SS"
],
      "SeriesDescription": "func_run-02_task-faces_acq-ap-mb8",
      "SeriesNumber": 20,
      "SeriesTime": "213738.163000",
      "SliceLocation": -59.542194133212,
      "SliceThickness": 2.7000000476837,
      "SmallestImagePixelValue": 0,
      "SoftwareVersions": "syngo MR E11",
      "SpacingBetweenSlices": 2.7000000783766,
      "SpecificCharacterSet": "ISO_IR 100",
      "StudyID": "1",
      "StudyTime": "203149.280000",
      "TransmitCoilName": "Body",
      "VariableFlipAngleFlag": "N",
      "WindowCenterWidthExplanation": "Algo1"
    },
    "slices": {}
  },
  "time": {
    "samples": {
      "AcquisitionNumber": [1, 2, 3, 4, 5, 6, 7, 8, 9, 10, 11, 12, 13, 14, 15, 16, 17, 18, 19, 20, 21, 22, 23, 24, 25, 26, 27, 28, 29, 30, 31, 32, 33, 34, 35, 36, 37, 38, 39, 40, 41, 42, 43, 44, 45, 46, 47, 48, 49, 50, 51, 52, 53, 54, 55, 56, 57, 58, 59, 60, 61, 62, 63, 64, 65, 66, 67, 68, 69, 70, 71, 72, 73, 74, 75, 76, 77, 78, 79, 80, 81, 82, 83, 84, 85, 86, 87, 88, 89, 90, 91, 92, 93, 94, 95, 96, 97, 98, 99, 100, 101, 102, 103, 104, 105, 106, 107, 108, 109, 110, 111, 112, 113, 114, 115, 116, 117, 118, 119, 120, 121, 122, 123, 124, 125, 126, 127, 128, 129, 130, 131, 132, 133, 134, 135, 136, 137, 138, 139, 140, 141, 142, 143, 144, 145, 146, 147, 148, 149, 150, 151, 152, 153, 154, 155, 156, 157, 158, 159, 160, 161, 162, 163, 164, 165, 166, 167, 168, 169, 170, 171, 172, 173, 174, 175, 176, 177, 178, 179, 180, 181, 182, 183, 184, 185, 186, 187, 188, 189, 190, 191, 192, 193, 194, 195, 196, 197, 198, 199, 200, 201, 202, 203, 204, 205, 206, 207, 208, 209, 210, 211, 212, 213, 214, 215, 216, 217, 218, 219, 220, 221, 222, 223, 224, 225, 226, 227, 228, 229, 230, 231, 232, 233, 234, 235, 236, 237, 238, 239, 240, 241, 242, 243, 244, 245, 246, 247, 248, 249, 250, 251, 252, 253, 254, 255, 256, 257, 258, 259, 260, 261, 262, 263, 264, 265, 266, 267, 268, 269, 270, 271, 272, 273, 274, 275, 276, 277, 278, 279, 280, 281, 282, 283, 284, 285, 286, 287, 288, 289, 290, 291, 292, 293, 294, 295, 296, 297, 298, 299, 300, 301, 302, 303, 304, 305, 306, 307, 308, 309, 310, 311, 312, 313, 314, 315, 316, 317, 318, 319, 320, 321, 322, 323, 324, 325, 326, 327, 328, 329, 330, 331, 332, 333, 334, 335, 336, 337, 338, 339, 340, 341, 342, 343, 344, 345, 346, 347, 348, 349, 350, 351, 352, 353, 354, 355, 356, 357, 358, 359, 360, 361, 362, 363, 364, 365, 366, 367, 368, 369, 370, 371, 372, 373, 374, 375, 376, 377, 378, 379, 380, 381, 382, 383, 384, 385, 386, 387, 388, 389, 390, 391, 392, 393, 394, 395, 396, 397, 398, 399, 400, 401, 402, 403, 404, 405, 406, 407, 408, 409, 410, 411, 412, 413, 414, 415, 416, 417, 418, 419, 420, 421, 422, 423, 424, 425, 426, 427, 428, 429, 430, 431, 432, 433, 434, 435, 436, 437, 438, 439, 440, 441, 442, 443, 444, 445, 446, 447, 448, 449, 450, 451, 452, 453, 454, 455, 456, 457, 458, 459, 460, 461, 462, 463, 464, 465, 466, 467, 468, 469, 470, 471, 472, 473, 474, 475, 476, 477, 478, 479, 480, 481, 482, 483, 484, 485, 486, 487, 488, 489, 490, 491, 492, 493, 494, 495, 496, 497, 498, 499, 500, 501, 502, 503, 504, 505, 506, 507, 508, 509, 510, 511, 512, 513, 514, 515, 516, 517, 518, 519, 520, 521, 522, 523, 524, 525, 526, 527, 528, 529, 530, 531, 532, 533, 534, 535, 536, 537, 538, 539, 540, 541, 542, 543, 544, 545, 546, 547, 548, 549, 550, 551, 552, 553, 554, 555, 556, 557, 558, 559, 560, 561, 562, 563, 564, 565, 566, 567, 568, 569, 570, 571, 572, 573, 574, 575, 576, 577, 578, 579, 580, 581, 582, 583, 584, 585, 586, 587, 588, 589, 590, 591, 592, 593, 594, 595, 596, 597, 598, 599, 600, 601, 602, 603, 604, 605, 606, 607, 608, 609, 610, 611, 612, 613, 614, 615, 616, 617, 618, 619, 620, 621, 622, 623, 624, 625, 626, 627, 628, 629, 630, 631, 632, 633, 634, 635, 636, 637, 638, 639, 640, 641, 642, 643, 644, 645, 646, 647, 648, 649, 650, 651, 652, 653, 654, 655, 656, 657, 658, 659, 660, 661, 662, 663, 664, 665, 666, 667, 668, 669, 670, 671, 672, 673, 674, 675, 676, 677, 678, 679, 680, 681, 682, 683, 684, 685, 686, 687, 688, 689, 690, 691, 692, 693, 694, 695, 696, 697, 698, 699, 700, 701, 702, 703, 704, 705, 706, 707, 708, 709, 710, 711, 712, 713, 714, 715, 716, 717, 718, 719, 720, 721, 722, 723, 724, 725, 726, 727, 728, 729, 730, 731, 732, 733, 734, 735, 736, 737, 738, 739, 740, 741, 742, 743, 744, 745, 746, 747, 748, 749, 750, 751, 752, 753, 754, 755, 756, 757, 758, 759, 760, 761, 762, 763, 764, 765, 766, 767, 768, 769, 770, 771, 772, 773, 774, 775, 776, 777, 778, 779, 780, 781, 782, 783, 784, 785, 786, 787, 788, 789, 790, 791, 792, 793, 794, 795, 796, 797, 798, 799, 800, 801, 802, 803, 804, 805, 806, 807, 808, 809, 810, 811, 812, 813, 814, 815, 816, 817, 818, 819, 820, 821, 822, 823, 824, 825, 826, 827, 828, 829, 830, 831, 832, 833, 834, 835, 836, 837, 838, 839, 840, 841, 842, 843, 844, 845, 846, 847, 848, 849, 850, 851, 852, 853, 854, 855, 856, 857, 858, 859, 860, 861, 862, 863, 864, 865, 866, 867, 868, 869, 870, 871, 872, 873, 874, 875, 876, 877, 878, 879, 880, 881, 882, 883, 884, 885, 886, 887, 888, 889, 890, 891, 892, 893, 894, 895, 896, 897, 898, 899, 900, 901, 902, 903, 904, 905, 906, 907, 908, 909, 910, 911, 912, 913, 914],
      "AcquisitionTime": ["213723.685000", "213724.145000", "213724.605000", "213725.065000", "213725.525000", "213725.985000", "213726.445000", "213726.905000", "213727.365000", "213727.825000", "213728.285000", "213728.745000", "213729.205000", "213729.665000", "213730.125000", "213730.585000", "213731.045000", "213731.505000", "213731.965000", "213732.425000", "213732.885000", "213733.345000", "213733.805000", "213734.265000", "213734.725000", "213735.185000", "213735.645000", "213736.105000", "213736.565000", "213737.025000", "213737.485000", "213737.945000", "213738.405000", "213738.865000", "213739.325000", "213739.785000", "213740.245000", "213740.705000", "213741.165000", "213741.625000", "213742.085000", "213742.545000", "213743.005000", "213743.465000", "213743.925000", "213744.385000", "213744.845000", "213745.305000", "213745.765000", "213746.225000", "213746.685000", "213747.145000", "213747.605000", "213748.065000", "213748.525000", "213748.985000", "213749.445000", "213749.905000", "213750.365000", "213750.825000", "213751.285000", "213751.745000", "213752.205000", "213752.665000", "213753.125000", "213753.585000", "213754.045000", "213754.505000", "213754.965000", "213755.425000", "213755.885000", "213756.345000", "213756.805000", "213757.265000", "213757.725000", "213758.185000", "213758.645000", "213759.105000", "213759.565000", "213800.025000", "213800.485000", "213800.945000", "213801.405000", "213801.865000", "213802.325000", "213802.785000", "213803.245000", "213803.705000", "213804.165000", "213804.625000", "213805.085000", "213805.545000", "213806.005000", "213806.465000", "213806.925000", "213807.385000", "213807.845000", "213808.305000", "213808.765000", "213809.225000", "213809.685000", "213810.145000", "213810.605000", "213811.065000", "213811.525000", "213811.985000", "213812.445000", "213812.905000", "213813.365000", "213813.825000", "213814.285000", "213814.745000", "213815.205000", "213815.665000", "213816.125000", "213816.585000", "213817.045000", "213817.505000", "213817.965000", "213818.425000", "213818.885000", "213819.345000", "213819.805000", "213820.265000", "213820.725000", "213821.185000", "213821.645000", "213822.105000", "213822.565000", "213823.025000", "213823.485000", "213823.945000", "213824.405000", "213824.865000", "213825.325000", "213825.785000", "213826.245000", "213826.705000", "213827.165000", "213827.625000", "213828.085000", "213828.545000", "213829.005000", "213829.465000", "213829.925000", "213830.385000", "213830.845000", "213831.305000", "213831.765000", "213832.225000", "213832.685000", "213833.145000", "213833.605000", "213834.065000", "213834.525000", "213834.985000", "213835.445000", "213835.905000", "213836.365000", "213836.825000", "213837.285000", "213837.745000", "213838.205000", "213838.665000", "213839.125000", "213839.585000", "213840.045000", "213840.505000", "213840.965000", "213841.425000", "213841.885000", "213842.345000", "213842.805000", "213843.265000", "213843.725000", "213844.185000", "213844.645000", "213845.105000", "213845.565000", "213846.025000", "213846.485000", "213846.945000", "213847.405000", "213847.865000", "213848.325000", "213848.785000", "213849.245000", "213849.705000", "213850.165000", "213850.625000", "213851.085000", "213851.545000", "213852.005000", "213852.465000", "213852.925000", "213853.385000", "213853.845000", "213854.305000", "213854.765000", "213855.225000", "213855.685000", "213856.145000", "213856.605000", "213857.065000", "213857.525000", "213857.985000", "213858.445000", "213858.905000", "213859.365000", "213859.825000", "213900.285000", "213900.745000", "213901.205000", "213901.665000", "213902.125000", "213902.585000", "213903.045000", "213903.505000", "213903.965000", "213904.425000", "213904.885000", "213905.345000", "213905.805000", "213906.265000", "213906.725000", "213907.185000", "213907.645000", "213908.105000", "213908.565000", "213909.025000", "213909.485000", "213909.945000", "213910.405000", "213910.865000", "213911.325000", "213911.785000", "213912.245000", "213912.705000", "213913.165000", "213913.625000", "213914.085000", "213914.545000", "213915.005000", "213915.465000", "213915.925000", "213916.385000", "213916.845000", "213917.305000", "213917.765000", "213918.225000", "213918.685000", "213919.145000", "213919.605000", "213920.065000", "213920.525000", "213920.985000", "213921.445000", "213921.905000", "213922.365000", "213922.825000", "213923.285000", "213923.745000", "213924.205000", "213924.665000", "213925.125000", "213925.585000", "213926.045000", "213926.505000", "213926.965000", "213927.425000", "213927.885000", "213928.345000", "213928.805000", "213929.265000", "213929.725000", "213930.185000", "213930.645000", "213931.105000", "213931.565000", "213932.025000", "213932.485000", "213932.945000", "213933.405000", "213933.865000", "213934.325000", "213934.785000", "213935.245000", "213935.705000", "213936.165000", "213936.625000", "213937.085000", "213937.545000", "213938.005000", "213938.465000", "213938.925000", "213939.385000", "213939.845000", "213940.305000", "213940.765000", "213941.225000", "213941.685000", "213942.145000", "213942.605000", "213943.065000", "213943.525000", "213943.985000", "213944.445000", "213944.905000", "213945.365000", "213945.825000", "213946.285000", "213946.745000", "213947.205000", "213947.665000", "213948.125000", "213948.585000", "213949.045000", "213949.505000", "213949.965000", "213950.425000", "213950.885000", "213951.345000", "213951.805000", "213952.265000", "213952.725000", "213953.185000", "213953.645000", "213954.105000", "213954.565000", "213955.025000", "213955.485000", "213955.945000", "213956.405000", "213956.865000", "213957.325000", "213957.785000", "213958.245000", "213958.705000", "213959.165000", "213959.625000", "214000.085000", "214000.545000", "214001.005000", "214001.465000", "214001.925000", "214002.385000", "214002.845000", "214003.305000", "214003.765000", "214004.225000", "214004.685000", "214005.145000", "214005.605000", "214006.065000", "214006.525000", "214006.985000", "214007.445000", "214007.905000", "214008.365000", "214008.825000", "214009.285000", "214009.745000", "214010.205000", "214010.665000", "214011.125000", "214011.585000", "214012.045000", "214012.505000", "214012.965000", "214013.425000", "214013.885000", "214014.345000", "214014.805000", "214015.265000", "214015.725000", "214016.185000", "214016.645000", "214017.105000", "214017.565000", "214018.025000", "214018.485000", "214018.945000", "214019.405000", "214019.865000", "214020.325000", "214020.785000", "214021.245000", "214021.705000", "214022.165000", "214022.625000", "214023.085000", "214023.545000", "214024.005000", "214024.465000", "214024.925000", "214025.385000", "214025.845000", "214026.305000", "214026.765000", "214027.225000", "214027.685000", "214028.145000", "214028.605000", "214029.065000", "214029.525000", "214029.985000", "214030.445000", "214030.905000", "214031.365000", "214031.825000", "214032.285000", "214032.745000", "214033.205000", "214033.665000", "214034.125000", "214034.585000", "214035.045000", "214035.505000", "214035.965000", "214036.425000", "214036.885000", "214037.345000", "214037.805000", "214038.265000", "214038.725000", "214039.185000", "214039.645000", "214040.105000", "214040.565000", "214041.025000", "214041.485000", "214041.945000", "214042.405000", "214042.865000", "214043.325000", "214043.785000", "214044.245000", "214044.705000", "214045.165000", "214045.625000", "214046.085000", "214046.545000", "214047.005000", "214047.465000", "214047.925000", "214048.385000", "214048.845000", "214049.305000", "214049.765000", "214050.225000", "214050.685000", "214051.145000", "214051.605000", "214052.065000", "214052.525000", "214052.985000", "214053.445000", "214053.905000", "214054.365000", "214054.825000", "214055.285000", "214055.745000", "214056.205000", "214056.665000", "214057.125000", "214057.585000", "214058.045000", "214058.505000", "214058.965000", "214059.425000", "214059.885000", "214100.345000", "214100.805000", "214101.265000", "214101.725000", "214102.185000", "214102.645000", "214103.105000", "214103.565000", "214104.025000", "214104.485000", "214104.945000", "214105.405000", "214105.865000", "214106.325000", "214106.785000", "214107.245000", "214107.705000", "214108.165000", "214108.625000", "214109.085000", "214109.545000", "214110.005000", "214110.465000", "214110.925000", "214111.385000", "214111.845000", "214112.305000", "214112.765000", "214113.225000", "214113.685000", "214114.145000", "214114.605000", "214115.065000", "214115.525000", "214115.985000", "214116.445000", "214116.905000", "214117.365000", "214117.825000", "214118.285000", "214118.745000", "214119.205000", "214119.665000", "214120.125000", "214120.585000", "214121.045000", "214121.505000", "214121.965000", "214122.425000", "214122.885000", "214123.345000", "214123.805000", "214124.265000", "214124.725000", "214125.185000", "214125.645000", "214126.105000", "214126.565000", "214127.025000", "214127.485000", "214127.945000", "214128.405000", "214128.865000", "214129.325000", "214129.785000", "214130.245000", "214130.705000", "214131.165000", "214131.625000", "214132.085000", "214132.545000", "214133.005000", "214133.465000", "214133.925000", "214134.385000", "214134.845000", "214135.305000", "214135.765000", "214136.225000", "214136.685000", "214137.145000", "214137.605000", "214138.065000", "214138.525000", "214138.985000", "214139.445000", "214139.905000", "214140.365000", "214140.825000", "214141.285000", "214141.745000", "214142.205000", "214142.665000", "214143.125000", "214143.585000", "214144.045000", "214144.505000", "214144.965000", "214145.425000", "214145.885000", "214146.345000", "214146.805000", "214147.265000", "214147.725000", "214148.185000", "214148.645000", "214149.105000", "214149.565000", "214150.025000", "214150.485000", "214150.945000", "214151.405000", "214151.865000", "214152.325000", "214152.785000", "214153.245000", "214153.705000", "214154.165000", "214154.625000", "214155.085000", "214155.545000", "214156.005000", "214156.465000", "214156.925000", "214157.385000", "214157.845000", "214158.305000", "214158.765000", "214159.225000", "214159.685000", "214200.145000", "214200.605000", "214201.065000", "214201.525000", "214201.985000", "214202.445000", "214202.905000", "214203.365000", "214203.825000", "214204.285000", "214204.745000", "214205.205000", "214205.665000", "214206.125000", "214206.585000", "214207.045000", "214207.505000", "214207.965000", "214208.425000", "214208.885000", "214209.345000", "214209.805000", "214210.265000", "214210.725000", "214211.185000", "214211.645000", "214212.105000", "214212.565000", "214213.025000", "214213.485000", "214213.945000", "214214.405000", "214214.865000", "214215.325000", "214215.785000", "214216.245000", "214216.705000", "214217.165000", "214217.625000", "214218.085000", "214218.545000", "214219.005000", "214219.465000", "214219.925000", "214220.385000", "214220.845000", "214221.305000", "214221.765000", "214222.225000", "214222.685000", "214223.145000", "214223.605000", "214224.065000", "214224.525000", "214224.985000", "214225.445000", "214225.905000", "214226.365000", "214226.825000", "214227.285000", "214227.745000", "214228.205000", "214228.665000", "214229.125000", "214229.585000", "214230.045000", "214230.505000", "214230.965000", "214231.425000", "214231.885000", "214232.345000", "214232.805000", "214233.265000", "214233.725000", "214234.185000", "214234.645000", "214235.105000", "214235.565000", "214236.025000", "214236.485000", "214236.945000", "214237.405000", "214237.865000", "214238.325000", "214238.785000", "214239.245000", "214239.705000", "214240.165000", "214240.625000", "214241.085000", "214241.545000", "214242.005000", "214242.465000", "214242.925000", "214243.385000", "214243.845000", "214244.305000", "214244.765000", "214245.225000", "214245.685000", "214246.145000", "214246.605000", "214247.065000", "214247.525000", "214247.985000", "214248.445000", "214248.905000", "214249.365000", "214249.825000", "214250.285000", "214250.745000", "214251.205000", "214251.665000", "214252.125000", "214252.585000", "214253.045000", "214253.505000", "214253.965000", "214254.425000", "214254.885000", "214255.345000", "214255.805000", "214256.265000", "214256.725000", "214257.185000", "214257.645000", "214258.105000", "214258.565000", "214259.025000", "214259.485000", "214259.945000", "214300.405000", "214300.865000", "214301.325000", "214301.785000", "214302.245000", "214302.705000", "214303.165000", "214303.625000", "214304.085000", "214304.545000", "214305.005000", "214305.465000", "214305.925000", "214306.385000", "214306.845000", "214307.305000", "214307.765000", "214308.225000", "214308.685000", "214309.145000", "214309.605000", "214310.065000", "214310.525000", "214310.985000", "214311.445000", "214311.905000", "214312.365000", "214312.825000", "214313.285000", "214313.745000", "214314.205000", "214314.665000", "214315.125000", "214315.585000", "214316.045000", "214316.505000", "214316.965000", "214317.425000", "214317.885000", "214318.345000", "214318.805000", "214319.265000", "214319.725000", "214320.185000", "214320.645000", "214321.105000", "214321.565000", "214322.025000", "214322.485000", "214322.945000", "214323.405000", "214323.865000", "214324.325000", "214324.785000", "214325.245000", "214325.705000", "214326.165000", "214326.625000", "214327.085000", "214327.545000", "214328.005000", "214328.465000", "214328.925000", "214329.385000", "214329.845000", "214330.305000", "214330.765000", "214331.225000", "214331.685000", "214332.145000", "214332.605000", "214333.065000", "214333.525000", "214333.985000", "214334.445000", "214334.905000", "214335.365000", "214335.825000", "214336.285000", "214336.745000", "214337.205000", "214337.665000", "214338.125000", "214338.585000", "214339.045000", "214339.505000", "214339.965000", "214340.425000", "214340.885000", "214341.345000", "214341.805000", "214342.265000", "214342.725000", "214343.185000", "214343.645000", "214344.105000", "214344.565000", "214345.025000", "214345.485000", "214345.945000", "214346.405000", "214346.865000", "214347.325000", "214347.785000", "214348.245000", "214348.705000", "214349.165000", "214349.625000", "214350.085000", "214350.545000", "214351.005000", "214351.465000", "214351.925000", "214352.385000", "214352.845000", "214353.305000", "214353.765000", "214354.225000", "214354.685000", "214355.145000", "214355.605000", "214356.065000", "214356.525000", "214356.985000", "214357.445000", "214357.905000", "214358.365000", "214358.825000", "214359.285000", "214359.745000", "214400.205000", "214400.665000", "214401.125000", "214401.585000", "214402.045000", "214402.505000", "214402.965000", "214403.425000", "214403.885000", "214404.345000", "214404.805000", "214405.265000", "214405.725000", "214406.185000", "214406.645000", "214407.105000", "214407.565000", "214408.025000", "214408.485000", "214408.945000", "214409.405000", "214409.865000", "214410.325000", "214410.785000", "214411.245000", "214411.705000", "214412.165000", "214412.625000", "214413.085000", "214413.545000", "214414.005000", "214414.465000", "214414.925000", "214415.385000", "214415.845000", "214416.305000", "214416.765000", "214417.225000", "214417.685000", "214418.145000", "214418.605000", "214419.065000", "214419.525000", "214419.985000", "214420.445000", "214420.905000", "214421.365000", "214421.825000", "214422.285000", "214422.745000", "214423.205000", "214423.665000"],
