{
  "AcquisitionMatrixPE": 82,
  "AcquisitionNumber": 1,
  "AcquisitionTime": "21:29:56.665000",
  "BandwidthPerPixelPhaseEncode": 24.888,
  "BaseResolution": 82,
  "BodyPartExamined": "BRAIN",
  "ConsistencyInfo": "N4_VE11E_LATEST_20181129",
  "ConversionSoftware": "dcm2niix",
  "ConversionSoftwareVersion": "v1.0.20201102",
  "DerivedVendorReportedEchoSpacing": 0.00049,
  "DeviceSerialNumber": "66112",
  "DwellTime": 2e-06,
  "EchoTime": 0.0272,
  "EchoTrainLength": 82,
  "EffectiveEchoSpacing": 0.00049,
  "FlipAngle": 44,
  "ImageComments": "Unaliased MB8/PE3",
  "ImageOrientationPatientDICOM": [0.999735, 0.0226404, 0.00416075, -0.0228617, 0.997657, 0.0644778],
  "ImageType": [
    "ORIGINAL",
    "PRIMARY",
    "M",
    "MB",
    "ND",
    "NORM",
    "MOSAIC"
],
  "ImagingFrequency": 123.259,
  "InPlanePhaseEncodingDirectionDICOM": "COL",
  "InstitutionAddress": "Maynard 3,Hanover,NH,US,03755",
  "InstitutionName": "Dartmouth College - PBS",
  "InstitutionalDepartmentName": "Department",
  "MRAcquisitionType": "2D",
  "MagneticFieldStrength": 3,
  "Manufacturer": "Siemens",
  "ManufacturersModelName": "Prisma",
  "Modality": "MR",
  "MultibandAccelerationFactor": 8,
  "PartialFourier": 1,
  "PatientPosition": "HFS",
  "PercentPhaseFOV": 100,
  "PercentSampling": 100,
  "PhaseEncodingDirection": "j-",
  "PhaseEncodingSteps": 82,
  "PhaseResolution": 1,
  "PixelBandwidth": 3050,
  "ProcedureStepDescription": "Wager_Wager^1076_spacetop",
  "ProtocolName": "func_run-01_task-faces_acq-ap-mb8",
  "PulseSequenceDetails": "%CustomerSeq%\\cmrr_mbep2d_bold",
  "ReceiveCoilActiveElements": "HEA;HEP",
  "ReceiveCoilName": "Head_32",
  "ReconMatrixPE": 82,
  "RepetitionTime": 0.46,
  "SAR": 0.0819669,
  "ScanOptions": "FS",
  "ScanningSequence": "EP",
  "SequenceName": "epfid2d1_82",
  "SequenceVariant": "SK\\SS",
  "SeriesDescription": "func_run-01_task-faces_acq-ap-mb8",
  "SeriesNumber": 18,
  "ShimSetting": [4229, -7635, -7101, 878, -170, 296, -456, 76],
  "SliceThickness": 2.7,
  "SliceTiming": [0, 0.2525, 0.0625, 0.315, 0.125, 0.3775, 0.19, 0, 0.2525, 0.0625, 0.315, 0.125, 0.3775, 0.19, 0, 0.2525, 0.0625, 0.315, 0.125, 0.3775, 0.19, 0, 0.2525, 0.0625, 0.315, 0.125, 0.3775, 0.19, 0, 0.2525, 0.0625, 0.315, 0.125, 0.3775, 0.19, 0, 0.2525, 0.0625, 0.315, 0.125, 0.3775, 0.19, 0, 0.2525, 0.0625, 0.315, 0.125, 0.3775, 0.19, 0, 0.2525, 0.0625, 0.315, 0.125, 0.3775, 0.19],
  "SoftwareVersions": "syngo MR E11",
  "SpacingBetweenSlices": 2.7,
  "StationName": "AWP66112",
  "TaskName": "faces",
  "TotalReadoutTime": 0.03969,
  "TxRefAmp": 232.155,
  "WipMemBlock": "576c11b2-e028-4fbe-a2b2-55fffa78a5ce||Sequence: R016 ve11e/master r/434b28f1; Aug  7 2019 18:53:46 by eja",
  "dcmmeta_affine": [
    [-2.682215929031372, -0.06133631244301796, 0.007266220636665821, 112.47217559814453],
    [-0.06074260175228119, 2.6766414642333984, 0.17430077493190765, -97.40086364746094],
    [0.011162974871695042, -0.17298923432826996, 2.6943583488464355, -53.669227600097656],
    [0.0, 0.0, 0.0, 1.0]
],
  "dcmmeta_reorient_transform": [
    [0.0, -1.0, 0.0, 81.0],
    [1.0, 0.0, 0.0, 0.0],
    [0.0, 0.0, 1.0, 0.0],
    [0.0, 0.0, 0.0, 1.0]
],
  "dcmmeta_shape": [82, 82, 56, 914],
  "dcmmeta_slice_dim": 2,
  "dcmmeta_version": 0.6,
  "global": {
    "const": {
      "AccessionNumber": "A004692",
      "AcquisitionMatrix": [82, 0, 0, 82],
      "AngioFlag": "N",
      "BitsAllocated": 16,
      "BitsStored": 16,
      "BodyPartExamined": "BRAIN",
      "Columns": 656,
      "EchoNumbers": 1,
      "EchoTime": 27.2,
      "EchoTrainLength": 82,
      "FlipAngle": 44.0,
      "HighBit": 15,
      "ImageOrientationPatient": [0.99973501460164, 0.02264042356268, 0.00416074516797, -0.0228617160589, 0.99765723310852, 0.06447780366216],
      "ImagePositionPatient": [-859.69639099563, -905.03630763169, -120.53303937033],
      "ImageType": [
        "ORIGINAL",
        "PRIMARY",
        "M",
        "MB",
        "ND",
        "NORM",
        "MOSAIC"
],
      "ImagedNucleus": "1H",
      "ImagingFrequency": 123.259133,
      "InPlanePhaseEncodingDirection": "COL",
      "MRAcquisitionType": "2D",
      "MagneticFieldStrength": 3.0,
      "Manufacturer": "SIEMENS",
      "ManufacturerModelName": "Prisma",
      "Modality": "MR",
      "NumberOfAverages": 1.0,
      "NumberOfPhaseEncodingSteps": 82,
      "PercentPhaseFieldOfView": 100.0,
      "PercentSampling": 100.0,
      "PerformedProcedureStepStartTime": "203149.343000",
      "PhotometricInterpretation": "MONOCHROME2",
      "PixelBandwidth": 3050.0,
      "PixelRepresentation": 0,
      "PixelSpacing": [2.6829268932343, 2.6829268932343],
      "ProtocolName": "func_run-01_task-faces_acq-ap-mb8",
      "RepetitionTime": 460.0,
      "Rows": 656,
      "SAR": 0.08196685837559,
      "SamplesPerPixel": 1,
      "ScanOptions": "FS",
      "ScanningSequence": "EP",
      "SequenceName": "epfid2d1_82",
      "SequenceVariant": [
        "SK",
        "SS"
],
      "SeriesDescription": "func_run-01_task-faces_acq-ap-mb8",
      "SeriesNumber": 18,
      "SeriesTime": "213018.336000",
      "SliceLocation": -59.542194133212,
      "SliceThickness": 2.7000000476837,
      "SmallestImagePixelValue": 0,
      "SoftwareVersions": "syngo MR E11",
      "SpacingBetweenSlices": 2.7000000783766,
      "SpecificCharacterSet": "ISO_IR 100",
      "StudyID": "1",
      "StudyTime": "203149.280000",
      "TransmitCoilName": "Body",
      "VariableFlipAngleFlag": "N",
      "WindowCenterWidthExplanation": "Algo1"
    },
    "slices": {}
  },
  "time": {
    "samples": {
      "AcquisitionNumber": [1, 2, 3, 4, 5, 6, 7, 8, 9, 10, 11, 12, 13, 14, 15, 16, 17, 18, 19, 20, 21, 22, 23, 24, 25, 26, 27, 28, 29, 30, 31, 32, 33, 34, 35, 36, 37, 38, 39, 40, 41, 42, 43, 44, 45, 46, 47, 48, 49, 50, 51, 52, 53, 54, 55, 56, 57, 58, 59, 60, 61, 62, 63, 64, 65, 66, 67, 68, 69, 70, 71, 72, 73, 74, 75, 76, 77, 78, 79, 80, 81, 82, 83, 84, 85, 86, 87, 88, 89, 90, 91, 92, 93, 94, 95, 96, 97, 98, 99, 100, 101, 102, 103, 104, 105, 106, 107, 108, 109, 110, 111, 112, 113, 114, 115, 116, 117, 118, 119, 120, 121, 122, 123, 124, 125, 126, 127, 128, 129, 130, 131, 132, 133, 134, 135, 136, 137, 138, 139, 140, 141, 142, 143, 144, 145, 146, 147, 148, 149, 150, 151, 152, 153, 154, 155, 156, 157, 158, 159, 160, 161, 162, 163, 164, 165, 166, 167, 168, 169, 170, 171, 172, 173, 174, 175, 176, 177, 178, 179, 180, 181, 182, 183, 184, 185, 186, 187, 188, 189, 190, 191, 192, 193, 194, 195, 196, 197, 198, 199, 200, 201, 202, 203, 204, 205, 206, 207, 208, 209, 210, 211, 212, 213, 214, 215, 216, 217, 218, 219, 220, 221, 222, 223, 224, 225, 226, 227, 228, 229, 230, 231, 232, 233, 234, 235, 236, 237, 238, 239, 240, 241, 242, 243, 244, 245, 246, 247, 248, 249, 250, 251, 252, 253, 254, 255, 256, 257, 258, 259, 260, 261, 262, 263, 264, 265, 266, 267, 268, 269, 270, 271, 272, 273, 274, 275, 276, 277, 278, 279, 280, 281, 282, 283, 284, 285, 286, 287, 288, 289, 290, 291, 292, 293, 294, 295, 296, 297, 298, 299, 300, 301, 302, 303, 304, 305, 306, 307, 308, 309, 310, 311, 312, 313, 314, 315, 316, 317, 318, 319, 320, 321, 322, 323, 324, 325, 326, 327, 328, 329, 330, 331, 332, 333, 334, 335, 336, 337, 338, 339, 340, 341, 342, 343, 344, 345, 346, 347, 348, 349, 350, 351, 352, 353, 354, 355, 356, 357, 358, 359, 360, 361, 362, 363, 364, 365, 366, 367, 368, 369, 370, 371, 372, 373, 374, 375, 376, 377, 378, 379, 380, 381, 382, 383, 384, 385, 386, 387, 388, 389, 390, 391, 392, 393, 394, 395, 396, 397, 398, 399, 400, 401, 402, 403, 404, 405, 406, 407, 408, 409, 410, 411, 412, 413, 414, 415, 416, 417, 418, 419, 420, 421, 422, 423, 424, 425, 426, 427, 428, 429, 430, 431, 432, 433, 434, 435, 436, 437, 438, 439, 440, 441, 442, 443, 444, 445, 446, 447, 448, 449, 450, 451, 452, 453, 454, 455, 456, 457, 458, 459, 460, 461, 462, 463, 464, 465, 466, 467, 468, 469, 470, 471, 472, 473, 474, 475, 476, 477, 478, 479, 480, 481, 482, 483, 484, 485, 486, 487, 488, 489, 490, 491, 492, 493, 494, 495, 496, 497, 498, 499, 500, 501, 502, 503, 504, 505, 506, 507, 508, 509, 510, 511, 512, 513, 514, 515, 516, 517, 518, 519, 520, 521, 522, 523, 524, 525, 526, 527, 528, 529, 530, 531, 532, 533, 534, 535, 536, 537, 538, 539, 540, 541, 542, 543, 544, 545, 546, 547, 548, 549, 550, 551, 552, 553, 554, 555, 556, 557, 558, 559, 560, 561, 562, 563, 564, 565, 566, 567, 568, 569, 570, 571, 572, 573, 574, 575, 576, 577, 578, 579, 580, 581, 582, 583, 584, 585, 586, 587, 588, 589, 590, 591, 592, 593, 594, 595, 596, 597, 598, 599, 600, 601, 602, 603, 604, 605, 606, 607, 608, 609, 610, 611, 612, 613, 614, 615, 616, 617, 618, 619, 620, 621, 622, 623, 624, 625, 626, 627, 628, 629, 630, 631, 632, 633, 634, 635, 636, 637, 638, 639, 640, 641, 642, 643, 644, 645, 646, 647, 648, 649, 650, 651, 652, 653, 654, 655, 656, 657, 658, 659, 660, 661, 662, 663, 664, 665, 666, 667, 668, 669, 670, 671, 672, 673, 674, 675, 676, 677, 678, 679, 680, 681, 682, 683, 684, 685, 686, 687, 688, 689, 690, 691, 692, 693, 694, 695, 696, 697, 698, 699, 700, 701, 702, 703, 704, 705, 706, 707, 708, 709, 710, 711, 712, 713, 714, 715, 716, 717, 718, 719, 720, 721, 722, 723, 724, 725, 726, 727, 728, 729, 730, 731, 732, 733, 734, 735, 736, 737, 738, 739, 740, 741, 742, 743, 744, 745, 746, 747, 748, 749, 750, 751, 752, 753, 754, 755, 756, 757, 758, 759, 760, 761, 762, 763, 764, 765, 766, 767, 768, 769, 770, 771, 772, 773, 774, 775, 776, 777, 778, 779, 780, 781, 782, 783, 784, 785, 786, 787, 788, 789, 790, 791, 792, 793, 794, 795, 796, 797, 798, 799, 800, 801, 802, 803, 804, 805, 806, 807, 808, 809, 810, 811, 812, 813, 814, 815, 816, 817, 818, 819, 820, 821, 822, 823, 824, 825, 826, 827, 828, 829, 830, 831, 832, 833, 834, 835, 836, 837, 838, 839, 840, 841, 842, 843, 844, 845, 846, 847, 848, 849, 850, 851, 852, 853, 854, 855, 856, 857, 858, 859, 860, 861, 862, 863, 864, 865, 866, 867, 868, 869, 870, 871, 872, 873, 874, 875, 876, 877, 878, 879, 880, 881, 882, 883, 884, 885, 886, 887, 888, 889, 890, 891, 892, 893, 894, 895, 896, 897, 898, 899, 900, 901, 902, 903, 904, 905, 906, 907, 908, 909, 910, 911, 912, 913, 914],
      "AcquisitionTime": ["212956.665000", "212957.125000", "212957.585000", "212958.045000", "212958.505000", "212958.965000", "212959.425000", "212959.885000", "213000.345000", "213000.805000", "213001.265000", "213001.725000", "213002.185000", "213002.645000", "213003.105000", "213003.565000", "213004.025000", "213004.485000", "213004.945000", "213005.405000", "213005.865000", "213006.325000", "213006.785000", "213007.245000", "213007.705000", "213008.165000", "213008.625000", "213009.085000", "213009.545000", "213010.005000", "213010.465000", "213010.925000", "213011.385000", "213011.845000", "213012.305000", "213012.765000", "213013.225000", "213013.685000", "213014.145000", "213014.605000", "213015.065000", "213015.525000", "213015.985000", "213016.445000", "213016.905000", "213017.365000", "213017.825000", "213018.285000", "213018.745000", "213019.205000", "213019.665000", "213020.125000", "213020.585000", "213021.045000", "213021.505000", "213021.965000", "213022.425000", "213022.885000", "213023.345000", "213023.805000", "213024.265000", "213024.725000", "213025.185000", "213025.645000", "213026.105000", "213026.565000", "213027.025000", "213027.485000", "213027.945000", "213028.405000", "213028.865000", "213029.325000", "213029.785000", "213030.245000", "213030.705000", "213031.165000", "213031.625000", "213032.085000", "213032.545000", "213033.005000", "213033.465000", "213033.925000", "213034.385000", "213034.845000", "213035.305000", "213035.765000", "213036.225000", "213036.685000", "213037.145000", "213037.605000", "213038.065000", "213038.525000", "213038.985000", "213039.445000", "213039.905000", "213040.365000", "213040.825000", "213041.285000", "213041.745000", "213042.205000", "213042.665000", "213043.125000", "213043.585000", "213044.045000", "213044.505000", "213044.965000", "213045.425000", "213045.885000", "213046.345000", "213046.805000", "213047.265000", "213047.725000", "213048.185000", "213048.645000", "213049.105000", "213049.565000", "213050.025000", "213050.485000", "213050.945000", "213051.405000", "213051.865000", "213052.325000", "213052.785000", "213053.245000", "213053.705000", "213054.165000", "213054.625000", "213055.085000", "213055.545000", "213056.005000", "213056.465000", "213056.925000", "213057.385000", "213057.845000", "213058.305000", "213058.765000", "213059.225000", "213059.685000", "213100.145000", "213100.605000", "213101.065000", "213101.525000", "213101.985000", "213102.445000", "213102.905000", "213103.365000", "213103.825000", "213104.285000", "213104.745000", "213105.205000", "213105.665000", "213106.125000", "213106.585000", "213107.045000", "213107.505000", "213107.965000", "213108.425000", "213108.885000", "213109.345000", "213109.805000", "213110.265000", "213110.725000", "213111.185000", "213111.645000", "213112.105000", "213112.565000", "213113.025000", "213113.485000", "213113.945000", "213114.405000", "213114.865000", "213115.325000", "213115.785000", "213116.245000", "213116.705000", "213117.165000", "213117.625000", "213118.085000", "213118.545000", "213119.005000", "213119.465000", "213119.925000", "213120.385000", "213120.845000", "213121.305000", "213121.765000", "213122.225000", "213122.685000", "213123.145000", "213123.605000", "213124.065000", "213124.525000", "213124.985000", "213125.445000", "213125.905000", "213126.365000", "213126.825000", "213127.285000", "213127.745000", "213128.205000", "213128.665000", "213129.125000", "213129.585000", "213130.045000", "213130.505000", "213130.965000", "213131.425000", "213131.885000", "213132.345000", "213132.805000", "213133.265000", "213133.725000", "213134.185000", "213134.645000", "213135.105000", "213135.565000", "213136.025000", "213136.485000", "213136.945000", "213137.405000", "213137.865000", "213138.325000", "213138.785000", "213139.245000", "213139.705000", "213140.165000", "213140.625000", "213141.085000", "213141.545000", "213142.005000", "213142.465000", "213142.925000", "213143.385000", "213143.845000", "213144.305000", "213144.765000", "213145.225000", "213145.685000", "213146.145000", "213146.605000", "213147.065000", "213147.525000", "213147.985000", "213148.445000", "213148.905000", "213149.365000", "213149.825000", "213150.285000", "213150.745000", "213151.205000", "213151.665000", "213152.125000", "213152.585000", "213153.045000", "213153.505000", "213153.965000", "213154.425000", "213154.885000", "213155.345000", "213155.805000", "213156.265000", "213156.725000", "213157.185000", "213157.645000", "213158.105000", "213158.565000", "213159.025000", "213159.485000", "213159.945000", "213200.405000", "213200.865000", "213201.325000", "213201.785000", "213202.245000", "213202.705000", "213203.165000", "213203.625000", "213204.085000", "213204.545000", "213205.005000", "213205.465000", "213205.925000", "213206.385000", "213206.845000", "213207.305000", "213207.765000", "213208.225000", "213208.685000", "213209.145000", "213209.605000", "213210.065000", "213210.525000", "213210.985000", "213211.445000", "213211.905000", "213212.365000", "213212.825000", "213213.285000", "213213.745000", "213214.205000", "213214.665000", "213215.125000", "213215.585000", "213216.045000", "213216.505000", "213216.965000", "213217.425000", "213217.885000", "213218.345000", "213218.805000", "213219.265000", "213219.725000", "213220.185000", "213220.645000", "213221.105000", "213221.565000", "213222.025000", "213222.485000", "213222.945000", "213223.405000", "213223.865000", "213224.325000", "213224.785000", "213225.245000", "213225.705000", "213226.165000", "213226.625000", "213227.085000", "213227.545000", "213228.005000", "213228.465000", "213228.925000", "213229.385000", "213229.845000", "213230.305000", "213230.765000", "213231.225000", "213231.685000", "213232.145000", "213232.605000", "213233.065000", "213233.525000", "213233.985000", "213234.445000", "213234.905000", "213235.365000", "213235.825000", "213236.285000", "213236.745000", "213237.205000", "213237.665000", "213238.125000", "213238.585000", "213239.045000", "213239.505000", "213239.965000", "213240.425000", "213240.885000", "213241.345000", "213241.805000", "213242.265000", "213242.725000", "213243.185000", "213243.645000", "213244.105000", "213244.565000", "213245.025000", "213245.485000", "213245.945000", "213246.405000", "213246.865000", "213247.325000", "213247.785000", "213248.245000", "213248.705000", "213249.165000", "213249.625000", "213250.085000", "213250.545000", "213251.005000", "213251.465000", "213251.925000", "213252.385000", "213252.845000", "213253.305000", "213253.765000", "213254.225000", "213254.685000", "213255.145000", "213255.605000", "213256.065000", "213256.525000", "213256.985000", "213257.445000", "213257.905000", "213258.365000", "213258.825000", "213259.285000", "213259.745000", "213300.205000", "213300.665000", "213301.125000", "213301.585000", "213302.045000", "213302.505000", "213302.965000", "213303.425000", "213303.885000", "213304.345000", "213304.805000", "213305.265000", "213305.725000", "213306.185000", "213306.645000", "213307.105000", "213307.565000", "213308.025000", "213308.485000", "213308.945000", "213309.405000", "213309.865000", "213310.325000", "213310.785000", "213311.245000", "213311.705000", "213312.165000", "213312.625000", "213313.085000", "213313.545000", "213314.005000", "213314.465000", "213314.925000", "213315.385000", "213315.845000", "213316.305000", "213316.765000", "213317.225000", "213317.685000", "213318.145000", "213318.605000", "213319.065000", "213319.525000", "213319.985000", "213320.445000", "213320.905000", "213321.365000", "213321.825000", "213322.285000", "213322.745000", "213323.205000", "213323.665000", "213324.125000", "213324.585000", "213325.045000", "213325.505000", "213325.965000", "213326.425000", "213326.885000", "213327.345000", "213327.805000", "213328.265000", "213328.725000", "213329.185000", "213329.645000", "213330.105000", "213330.565000", "213331.025000", "213331.485000", "213331.945000", "213332.405000", "213332.865000", "213333.325000", "213333.785000", "213334.245000", "213334.705000", "213335.165000", "213335.625000", "213336.085000", "213336.545000", "213337.005000", "213337.465000", "213337.925000", "213338.385000", "213338.845000", "213339.305000", "213339.765000", "213340.225000", "213340.685000", "213341.145000", "213341.605000", "213342.065000", "213342.525000", "213342.985000", "213343.445000", "213343.905000", "213344.365000", "213344.825000", "213345.285000", "213345.745000", "213346.205000", "213346.665000", "213347.125000", "213347.585000", "213348.045000", "213348.505000", "213348.965000", "213349.425000", "213349.885000", "213350.345000", "213350.805000", "213351.265000", "213351.725000", "213352.185000", "213352.645000", "213353.105000", "213353.565000", "213354.025000", "213354.485000", "213354.945000", "213355.405000", "213355.865000", "213356.325000", "213356.785000", "213357.245000", "213357.705000", "213358.165000", "213358.625000", "213359.085000", "213359.545000", "213400.005000", "213400.465000", "213400.925000", "213401.385000", "213401.845000", "213402.305000", "213402.765000", "213403.225000", "213403.685000", "213404.145000", "213404.605000", "213405.065000", "213405.525000", "213405.985000", "213406.445000", "213406.905000", "213407.365000", "213407.825000", "213408.285000", "213408.745000", "213409.205000", "213409.665000", "213410.125000", "213410.585000", "213411.045000", "213411.505000", "213411.965000", "213412.425000", "213412.885000", "213413.345000", "213413.805000", "213414.265000", "213414.725000", "213415.185000", "213415.645000", "213416.105000", "213416.565000", "213417.025000", "213417.485000", "213417.945000", "213418.405000", "213418.865000", "213419.325000", "213419.785000", "213420.245000", "213420.705000", "213421.165000", "213421.625000", "213422.085000", "213422.545000", "213423.005000", "213423.465000", "213423.925000", "213424.385000", "213424.845000", "213425.305000", "213425.765000", "213426.225000", "213426.685000", "213427.145000", "213427.605000", "213428.065000", "213428.525000", "213428.985000", "213429.445000", "213429.905000", "213430.365000", "213430.825000", "213431.285000", "213431.745000", "213432.205000", "213432.665000", "213433.125000", "213433.585000", "213434.045000", "213434.505000", "213434.965000", "213435.425000", "213435.885000", "213436.345000", "213436.805000", "213437.265000", "213437.725000", "213438.185000", "213438.645000", "213439.105000", "213439.565000", "213440.025000", "213440.485000", "213440.945000", "213441.405000", "213441.865000", "213442.325000", "213442.785000", "213443.245000", "213443.705000", "213444.165000", "213444.625000", "213445.085000", "213445.545000", "213446.005000", "213446.465000", "213446.925000", "213447.385000", "213447.845000", "213448.305000", "213448.765000", "213449.225000", "213449.685000", "213450.145000", "213450.605000", "213451.065000", "213451.525000", "213451.985000", "213452.445000", "213452.905000", "213453.365000", "213453.825000", "213454.285000", "213454.745000", "213455.205000", "213455.665000", "213456.125000", "213456.585000", "213457.045000", "213457.505000", "213457.965000", "213458.425000", "213458.885000", "213459.345000", "213459.805000", "213500.265000", "213500.725000", "213501.185000", "213501.645000", "213502.105000", "213502.565000", "213503.025000", "213503.485000", "213503.945000", "213504.405000", "213504.865000", "213505.325000", "213505.785000", "213506.245000", "213506.705000", "213507.165000", "213507.625000", "213508.085000", "213508.545000", "213509.005000", "213509.465000", "213509.925000", "213510.385000", "213510.845000", "213511.305000", "213511.765000", "213512.225000", "213512.685000", "213513.145000", "213513.605000", "213514.065000", "213514.525000", "213514.985000", "213515.445000", "213515.905000", "213516.365000", "213516.825000", "213517.285000", "213517.745000", "213518.205000", "213518.665000", "213519.125000", "213519.585000", "213520.045000", "213520.505000", "213520.965000", "213521.425000", "213521.885000", "213522.345000", "213522.805000", "213523.265000", "213523.725000", "213524.185000", "213524.645000", "213525.105000", "213525.565000", "213526.025000", "213526.485000", "213526.945000", "213527.405000", "213527.865000", "213528.325000", "213528.785000", "213529.245000", "213529.705000", "213530.165000", "213530.625000", "213531.085000", "213531.545000", "213532.005000", "213532.465000", "213532.925000", "213533.385000", "213533.845000", "213534.305000", "213534.765000", "213535.225000", "213535.685000", "213536.145000", "213536.605000", "213537.065000", "213537.525000", "213537.985000", "213538.445000", "213538.905000", "213539.365000", "213539.825000", "213540.285000", "213540.745000", "213541.205000", "213541.665000", "213542.125000", "213542.585000", "213543.045000", "213543.505000", "213543.965000", "213544.425000", "213544.885000", "213545.345000", "213545.805000", "213546.265000", "213546.725000", "213547.185000", "213547.645000", "213548.105000", "213548.565000", "213549.025000", "213549.485000", "213549.945000", "213550.405000", "213550.865000", "213551.325000", "213551.785000", "213552.245000", "213552.705000", "213553.165000", "213553.625000", "213554.085000", "213554.545000", "213555.005000", "213555.465000", "213555.925000", "213556.385000", "213556.845000", "213557.305000", "213557.765000", "213558.225000", "213558.685000", "213559.145000", "213559.605000", "213600.065000", "213600.525000", "213600.985000", "213601.445000", "213601.905000", "213602.365000", "213602.825000", "213603.285000", "213603.745000", "213604.205000", "213604.665000", "213605.125000", "213605.585000", "213606.045000", "213606.505000", "213606.965000", "213607.425000", "213607.885000", "213608.345000", "213608.805000", "213609.265000", "213609.725000", "213610.185000", "213610.645000", "213611.105000", "213611.565000", "213612.025000", "213612.485000", "213612.945000", "213613.405000", "213613.865000", "213614.325000", "213614.785000", "213615.245000", "213615.705000", "213616.165000", "213616.625000", "213617.085000", "213617.545000", "213618.005000", "213618.465000", "213618.925000", "213619.385000", "213619.845000", "213620.305000", "213620.765000", "213621.225000", "213621.685000", "213622.145000", "213622.605000", "213623.065000", "213623.525000", "213623.985000", "213624.445000", "213624.905000", "213625.365000", "213625.825000", "213626.285000", "213626.745000", "213627.205000", "213627.665000", "213628.125000", "213628.585000", "213629.045000", "213629.505000", "213629.965000", "213630.425000", "213630.885000", "213631.345000", "213631.805000", "213632.265000", "213632.725000", "213633.185000", "213633.645000", "213634.105000", "213634.565000", "213635.025000", "213635.485000", "213635.945000", "213636.405000", "213636.865000", "213637.325000", "213637.785000", "213638.245000", "213638.705000", "213639.165000", "213639.625000", "213640.085000", "213640.545000", "213641.005000", "213641.465000", "213641.925000", "213642.385000", "213642.845000", "213643.305000", "213643.765000", "213644.225000", "213644.685000", "213645.145000", "213645.605000", "213646.065000", "213646.525000", "213646.985000", "213647.445000", "213647.905000", "213648.365000", "213648.825000", "213649.285000", "213649.745000", "213650.205000", "213650.665000", "213651.125000", "213651.585000", "213652.045000", "213652.505000", "213652.965000", "213653.425000", "213653.885000", "213654.345000", "213654.805000", "213655.265000", "213655.725000", "213656.185000", "213656.645000"],
