{
  "AcquisitionMatrixPE": 82,
  "AcquisitionNumber": 1,
  "AcquisitionTime": "10:36:42.982500",
  "BandwidthPerPixelPhaseEncode": 24.888,
  "BaseResolution": 82,
  "BodyPartExamined": "BRAIN",
  "ConsistencyInfo": "N4_VE11C_LATEST_20160120",
  "ConversionSoftware": "dcm2niix",
  "ConversionSoftwareVersion": "v1.0.20201102",
  "DerivedVendorReportedEchoSpacing": 0.00049,
  "DeviceSerialNumber": "66112",
  "DwellTime": 2e-06,
  "EchoTime": 0.0272,
  "EchoTrainLength": 82,
  "EffectiveEchoSpacing": 0.00049,
  "FlipAngle": 44,
  "ImageComments": "Unaliased MB8/PE3",
  "ImageOrientationPatientDICOM": [0.999126, -0.0153387, 0.0388862, 0.0223244, 0.98227, -0.186137],
  "ImageType": [
    "ORIGINAL",
    "PRIMARY",
    "M",
    "MB",
    "ND",
    "NORM",
    "MOSAIC"
],
  "ImagingFrequency": 123.252,
  "InPlanePhaseEncodingDirectionDICOM": "COL",
  "InstitutionAddress": "Maynard 3,Hanover,NH,US,03755",
  "InstitutionName": "Dartmouth College - PBS",
  "InstitutionalDepartmentName": "Department",
  "MRAcquisitionType": "2D",
  "MagneticFieldStrength": 3,
  "Manufacturer": "Siemens",
  "ManufacturersModelName": "Prisma",
  "Modality": "MR",
  "MultibandAccelerationFactor": 8,
  "PartialFourier": 1,
  "PatientPosition": "HFS",
  "PercentPhaseFOV": 100,
  "PercentSampling": 100,
  "PhaseEncodingDirection": "j-",
  "PhaseEncodingSteps": 82,
  "PhaseResolution": 1,
  "PixelBandwidth": 3050,
  "ProcedureStepDescription": "Wager_Wager^1076_spacetop",
  "ProtocolName": "func_run-04_task-social_acq-ap-mb8",
  "PulseSequenceDetails": "%CustomerSeq%\\cmrr_mbep2d_bold",
  "ReceiveCoilActiveElements": "HEA;HEP",
  "ReceiveCoilName": "Head_32",
  "ReconMatrixPE": 82,
  "RepetitionTime": 0.46,
  "SAR": 0.0970193,
  "ScanOptions": "FS",
  "ScanningSequence": "EP",
  "SequenceName": "epfid2d1_82",
  "SequenceVariant": "SK\\SS",
  "SeriesDescription": "func_run-04_task-social_acq-ap-mb8",
  "SeriesNumber": 26,
  "ShimSetting": [4144, -7709, -7286, 590, -72, -96, -28, 100],
  "SliceThickness": 2.7,
  "SliceTiming": [0, 0.25, 0.0625, 0.3125, 0.125, 0.3775, 0.1875, 0, 0.25, 0.0625, 0.3125, 0.125, 0.3775, 0.1875, 0, 0.25, 0.0625, 0.3125, 0.125, 0.3775, 0.1875, 0, 0.25, 0.0625, 0.3125, 0.125, 0.3775, 0.1875, 0, 0.25, 0.0625, 0.3125, 0.125, 0.3775, 0.1875, 0, 0.25, 0.0625, 0.3125, 0.125, 0.3775, 0.1875, 0, 0.25, 0.0625, 0.3125, 0.125, 0.3775, 0.1875, 0, 0.25, 0.0625, 0.3125, 0.125, 0.3775, 0.1875],
  "SoftwareVersions": "syngo MR E11",
  "SpacingBetweenSlices": 2.7,
  "StationName": "AWP66112",
  "TaskName": "social",
  "TotalReadoutTime": 0.03969,
  "TxRefAmp": 241.165,
  "WipMemBlock": "3bd713ae-b745-424a-9948-fdf738b5ac72||Sequence: R016 ve11c/master r/e634e98; Dec 19 2017 11:00:25 by eja",
  "dcmmeta_affine": [
    [-2.68058180809021, 0.059894680976867676, 0.09542237967252731, 108.20121765136719],
    [0.04115255922079086, 2.635359287261963, -0.5044735670089722, -82.50225830078125],
    [0.1043287143111229, 0.49939101934432983, 2.650735855102539, -90.53385925292969],
    [0.0, 0.0, 0.0, 1.0]
],
  "dcmmeta_reorient_transform": [
    [0.0, -1.0, 0.0, 81.0],
    [1.0, 0.0, 0.0, 0.0],
    [0.0, 0.0, 1.0, 0.0],
    [0.0, 0.0, 0.0, 1.0]
],
  "dcmmeta_shape": [82, 82, 56, 872],
  "dcmmeta_slice_dim": 2,
  "dcmmeta_version": 0.6,
  "global": {
    "const": {
      "AccessionNumber": "A003482",
      "AcquisitionMatrix": [82, 0, 0, 82],
      "AngioFlag": "N",
      "BitsAllocated": 16,
      "BitsStored": 16,
      "BodyPartExamined": "BRAIN",
      "Columns": 656,
      "EchoNumbers": 1,
      "EchoTime": 27.2,
      "EchoTrainLength": 82,
      "FlipAngle": 44.0,
      "HighBit": 15,
      "ImageOrientationPatient": [0.99912591380699, -0.015338680305, 0.03888615750952, 0.02232438112839, 0.98227021287409, -0.1861366457942],
      "ImagePositionPatient": [-899.5694361435, -875.49913036749, 63.299693949424],
      "ImageType": [
        "ORIGINAL",
        "PRIMARY",
        "M",
        "MB",
        "ND",
        "NORM",
        "MOSAIC"
],
      "ImagedNucleus": "1H",
      "ImagingFrequency": 123.252182,
      "InPlanePhaseEncodingDirection": "COL",
      "MRAcquisitionType": "2D",
      "MagneticFieldStrength": 3.0,
      "Manufacturer": "SIEMENS",
      "ManufacturerModelName": "Prisma",
      "Modality": "MR",
      "NumberOfAverages": 1.0,
      "NumberOfPhaseEncodingSteps": 82,
      "PercentPhaseFieldOfView": 100.0,
      "PercentSampling": 100.0,
      "PerformedProcedureStepStartTime": "090921.884000",
      "PhotometricInterpretation": "MONOCHROME2",
      "PixelBandwidth": 3050.0,
      "PixelRepresentation": 0,
      "PixelSpacing": [2.6829268932343, 2.6829268932343],
      "ProtocolName": "func_run-04_task-social_acq-ap-mb8",
      "RepetitionTime": 460.0,
      "Rows": 656,
      "SAR": 0.09701930798266,
      "SamplesPerPixel": 1,
      "ScanOptions": "FS",
      "ScanningSequence": "EP",
      "SequenceName": "epfid2d1_82",
      "SequenceVariant": [
        "SK",
        "SS"
],
      "SeriesDescription": "func_run-04_task-social_acq-ap-mb8",
      "SeriesNumber": 26,
      "SeriesTime": "103653.551000",
      "SliceLocation": -69.643081850848,
      "SliceThickness": 2.7000000476837,
      "SmallestImagePixelValue": 0,
      "SoftwareVersions": "syngo MR E11",
      "SpacingBetweenSlices": 2.6999999526424,
      "SpecificCharacterSet": "ISO_IR 100",
      "StudyID": "2",
      "StudyTime": "090921.776000",
      "TransmitCoilName": "Body",
      "VariableFlipAngleFlag": "N",
      "WindowCenterWidthExplanation": "Algo1",
      "dBdt": 0.0},
    "slices": {}
  },
  "time": {
    "samples": {
      "AcquisitionNumber": [1, 2, 3, 4, 5, 6, 7, 8, 9, 10, 11, 12, 13, 14, 15, 16, 17, 18, 19, 20, 21, 22, 23, 24, 25, 26, 27, 28, 29, 30, 31, 32, 33, 34, 35, 36, 37, 38, 39, 40, 41, 42, 43, 44, 45, 46, 47, 48, 49, 50, 51, 52, 53, 54, 55, 56, 57, 58, 59, 60, 61, 62, 63, 64, 65, 66, 67, 68, 69, 70, 71, 72, 73, 74, 75, 76, 77, 78, 79, 80, 81, 82, 83, 84, 85, 86, 87, 88, 89, 90, 91, 92, 93, 94, 95, 96, 97, 98, 99, 100, 101, 102, 103, 104, 105, 106, 107, 108, 109, 110, 111, 112, 113, 114, 115, 116, 117, 118, 119, 120, 121, 122, 123, 124, 125, 126, 127, 128, 129, 130, 131, 132, 133, 134, 135, 136, 137, 138, 139, 140, 141, 142, 143, 144, 145, 146, 147, 148, 149, 150, 151, 152, 153, 154, 155, 156, 157, 158, 159, 160, 161, 162, 163, 164, 165, 166, 167, 168, 169, 170, 171, 172, 173, 174, 175, 176, 177, 178, 179, 180, 181, 182, 183, 184, 185, 186, 187, 188, 189, 190, 191, 192, 193, 194, 195, 196, 197, 198, 199, 200, 201, 202, 203, 204, 205, 206, 207, 208, 209, 210, 211, 212, 213, 214, 215, 216, 217, 218, 219, 220, 221, 222, 223, 224, 225, 226, 227, 228, 229, 230, 231, 232, 233, 234, 235, 236, 237, 238, 239, 240, 241, 242, 243, 244, 245, 246, 247, 248, 249, 250, 251, 252, 253, 254, 255, 256, 257, 258, 259, 260, 261, 262, 263, 264, 265, 266, 267, 268, 269, 270, 271, 272, 273, 274, 275, 276, 277, 278, 279, 280, 281, 282, 283, 284, 285, 286, 287, 288, 289, 290, 291, 292, 293, 294, 295, 296, 297, 298, 299, 300, 301, 302, 303, 304, 305, 306, 307, 308, 309, 310, 311, 312, 313, 314, 315, 316, 317, 318, 319, 320, 321, 322, 323, 324, 325, 326, 327, 328, 329, 330, 331, 332, 333, 334, 335, 336, 337, 338, 339, 340, 341, 342, 343, 344, 345, 346, 347, 348, 349, 350, 351, 352, 353, 354, 355, 356, 357, 358, 359, 360, 361, 362, 363, 364, 365, 366, 367, 368, 369, 370, 371, 372, 373, 374, 375, 376, 377, 378, 379, 380, 381, 382, 383, 384, 385, 386, 387, 388, 389, 390, 391, 392, 393, 394, 395, 396, 397, 398, 399, 400, 401, 402, 403, 404, 405, 406, 407, 408, 409, 410, 411, 412, 413, 414, 415, 416, 417, 418, 419, 420, 421, 422, 423, 424, 425, 426, 427, 428, 429, 430, 431, 432, 433, 434, 435, 436, 437, 438, 439, 440, 441, 442, 443, 444, 445, 446, 447, 448, 449, 450, 451, 452, 453, 454, 455, 456, 457, 458, 459, 460, 461, 462, 463, 464, 465, 466, 467, 468, 469, 470, 471, 472, 473, 474, 475, 476, 477, 478, 479, 480, 481, 482, 483, 484, 485, 486, 487, 488, 489, 490, 491, 492, 493, 494, 495, 496, 497, 498, 499, 500, 501, 502, 503, 504, 505, 506, 507, 508, 509, 510, 511, 512, 513, 514, 515, 516, 517, 518, 519, 520, 521, 522, 523, 524, 525, 526, 527, 528, 529, 530, 531, 532, 533, 534, 535, 536, 537, 538, 539, 540, 541, 542, 543, 544, 545, 546, 547, 548, 549, 550, 551, 552, 553, 554, 555, 556, 557, 558, 559, 560, 561, 562, 563, 564, 565, 566, 567, 568, 569, 570, 571, 572, 573, 574, 575, 576, 577, 578, 579, 580, 581, 582, 583, 584, 585, 586, 587, 588, 589, 590, 591, 592, 593, 594, 595, 596, 597, 598, 599, 600, 601, 602, 603, 604, 605, 606, 607, 608, 609, 610, 611, 612, 613, 614, 615, 616, 617, 618, 619, 620, 621, 622, 623, 624, 625, 626, 627, 628, 629, 630, 631, 632, 633, 634, 635, 636, 637, 638, 639, 640, 641, 642, 643, 644, 645, 646, 647, 648, 649, 650, 651, 652, 653, 654, 655, 656, 657, 658, 659, 660, 661, 662, 663, 664, 665, 666, 667, 668, 669, 670, 671, 672, 673, 674, 675, 676, 677, 678, 679, 680, 681, 682, 683, 684, 685, 686, 687, 688, 689, 690, 691, 692, 693, 694, 695, 696, 697, 698, 699, 700, 701, 702, 703, 704, 705, 706, 707, 708, 709, 710, 711, 712, 713, 714, 715, 716, 717, 718, 719, 720, 721, 722, 723, 724, 725, 726, 727, 728, 729, 730, 731, 732, 733, 734, 735, 736, 737, 738, 739, 740, 741, 742, 743, 744, 745, 746, 747, 748, 749, 750, 751, 752, 753, 754, 755, 756, 757, 758, 759, 760, 761, 762, 763, 764, 765, 766, 767, 768, 769, 770, 771, 772, 773, 774, 775, 776, 777, 778, 779, 780, 781, 782, 783, 784, 785, 786, 787, 788, 789, 790, 791, 792, 793, 794, 795, 796, 797, 798, 799, 800, 801, 802, 803, 804, 805, 806, 807, 808, 809, 810, 811, 812, 813, 814, 815, 816, 817, 818, 819, 820, 821, 822, 823, 824, 825, 826, 827, 828, 829, 830, 831, 832, 833, 834, 835, 836, 837, 838, 839, 840, 841, 842, 843, 844, 845, 846, 847, 848, 849, 850, 851, 852, 853, 854, 855, 856, 857, 858, 859, 860, 861, 862, 863, 864, 865, 866, 867, 868, 869, 870, 871, 872],
      "AcquisitionTime": ["103642.982500", "103643.442500", "103643.902500", "103644.362500", "103644.822500", "103645.282500", "103645.742500", "103646.202500", "103646.662500", "103647.122500", "103647.582500", "103648.042500", "103648.502500", "103648.962500", "103649.422500", "103649.882500", "103650.342500", "103650.802500", "103651.262500", "103651.722500", "103652.182500", "103652.642500", "103653.102500", "103653.562500", "103654.022500", "103654.482500", "103654.942500", "103655.402500", "103655.862500", "103656.322500", "103656.782500", "103657.242500", "103657.702500", "103658.162500", "103658.622500", "103659.082500", "103659.542500", "103700.002500", "103700.462500", "103700.922500", "103701.382500", "103701.842500", "103702.302500", "103702.762500", "103703.222500", "103703.682500", "103704.142500", "103704.602500", "103705.062500", "103705.522500", "103705.982500", "103706.442500", "103706.902500", "103707.362500", "103707.822500", "103708.282500", "103708.742500", "103709.202500", "103709.662500", "103710.122500", "103710.582500", "103711.042500", "103711.502500", "103711.962500", "103712.422500", "103712.882500", "103713.342500", "103713.802500", "103714.262500", "103714.722500", "103715.182500", "103715.642500", "103716.102500", "103716.562500", "103717.022500", "103717.482500", "103717.942500", "103718.402500", "103718.862500", "103719.322500", "103719.782500", "103720.242500", "103720.702500", "103721.162500", "103721.622500", "103722.082500", "103722.542500", "103723.002500", "103723.462500", "103723.922500", "103724.382500", "103724.842500", "103725.302500", "103725.762500", "103726.222500", "103726.682500", "103727.142500", "103727.602500", "103728.062500", "103728.522500", "103728.982500", "103729.442500", "103729.902500", "103730.362500", "103730.822500", "103731.282500", "103731.742500", "103732.202500", "103732.662500", "103733.122500", "103733.582500", "103734.042500", "103734.502500", "103734.962500", "103735.422500", "103735.882500", "103736.342500", "103736.802500", "103737.262500", "103737.722500", "103738.182500", "103738.642500", "103739.102500", "103739.562500", "103740.022500", "103740.482500", "103740.942500", "103741.402500", "103741.862500", "103742.322500", "103742.782500", "103743.242500", "103743.702500", "103744.162500", "103744.622500", "103745.082500", "103745.542500", "103746.002500", "103746.462500", "103746.922500", "103747.382500", "103747.842500", "103748.302500", "103748.762500", "103749.222500", "103749.682500", "103750.142500", "103750.602500", "103751.062500", "103751.522500", "103751.982500", "103752.442500", "103752.902500", "103753.362500", "103753.822500", "103754.282500", "103754.742500", "103755.202500", "103755.662500", "103756.122500", "103756.582500", "103757.042500", "103757.502500", "103757.962500", "103758.422500", "103758.882500", "103759.342500", "103759.802500", "103800.262500", "103800.722500", "103801.182500", "103801.642500", "103802.102500", "103802.562500", "103803.022500", "103803.482500", "103803.942500", "103804.402500", "103804.862500", "103805.322500", "103805.782500", "103806.242500", "103806.702500", "103807.162500", "103807.622500", "103808.082500", "103808.542500", "103809.002500", "103809.462500", "103809.922500", "103810.382500", "103810.842500", "103811.302500", "103811.762500", "103812.222500", "103812.682500", "103813.142500", "103813.602500", "103814.062500", "103814.522500", "103814.982500", "103815.442500", "103815.902500", "103816.362500", "103816.822500", "103817.282500", "103817.742500", "103818.202500", "103818.662500", "103819.122500", "103819.582500", "103820.042500", "103820.502500", "103820.962500", "103821.422500", "103821.882500", "103822.342500", "103822.802500", "103823.262500", "103823.722500", "103824.182500", "103824.642500", "103825.102500", "103825.562500", "103826.022500", "103826.482500", "103826.942500", "103827.402500", "103827.862500", "103828.322500", "103828.782500", "103829.242500", "103829.702500", "103830.162500", "103830.622500", "103831.082500", "103831.542500", "103832.002500", "103832.462500", "103832.922500", "103833.382500", "103833.842500", "103834.302500", "103834.762500", "103835.222500", "103835.682500", "103836.142500", "103836.602500", "103837.062500", "103837.522500", "103837.982500", "103838.442500", "103838.902500", "103839.362500", "103839.822500", "103840.282500", "103840.742500", "103841.202500", "103841.662500", "103842.122500", "103842.582500", "103843.042500", "103843.502500", "103843.962500", "103844.422500", "103844.882500", "103845.342500", "103845.802500", "103846.262500", "103846.722500", "103847.182500", "103847.642500", "103848.102500", "103848.562500", "103849.022500", "103849.482500", "103849.942500", "103850.402500", "103850.862500", "103851.322500", "103851.782500", "103852.242500", "103852.702500", "103853.162500", "103853.622500", "103854.082500", "103854.542500", "103855.002500", "103855.462500", "103855.922500", "103856.382500", "103856.842500", "103857.302500", "103857.762500", "103858.222500", "103858.682500", "103859.142500", "103859.602500", "103900.062500", "103900.522500", "103900.982500", "103901.442500", "103901.902500", "103902.362500", "103902.822500", "103903.282500", "103903.742500", "103904.202500", "103904.662500", "103905.122500", "103905.582500", "103906.042500", "103906.502500", "103906.962500", "103907.422500", "103907.882500", "103908.342500", "103908.802500", "103909.262500", "103909.722500", "103910.182500", "103910.642500", "103911.102500", "103911.562500", "103912.022500", "103912.482500", "103912.942500", "103913.402500", "103913.862500", "103914.322500", "103914.782500", "103915.242500", "103915.702500", "103916.162500", "103916.622500", "103917.082500", "103917.542500", "103918.002500", "103918.462500", "103918.922500", "103919.382500", "103919.842500", "103920.302500", "103920.762500", "103921.222500", "103921.682500", "103922.142500", "103922.602500", "103923.062500", "103923.522500", "103923.982500", "103924.442500", "103924.902500", "103925.362500", "103925.822500", "103926.282500", "103926.742500", "103927.202500", "103927.662500", "103928.122500", "103928.582500", "103929.042500", "103929.502500", "103929.962500", "103930.422500", "103930.882500", "103931.342500", "103931.802500", "103932.262500", "103932.722500", "103933.182500", "103933.642500", "103934.102500", "103934.562500", "103935.022500", "103935.482500", "103935.942500", "103936.402500", "103936.862500", "103937.322500", "103937.782500", "103938.242500", "103938.702500", "103939.162500", "103939.622500", "103940.082500", "103940.542500", "103941.002500", "103941.462500", "103941.922500", "103942.382500", "103942.842500", "103943.302500", "103943.762500", "103944.222500", "103944.682500", "103945.142500", "103945.602500", "103946.062500", "103946.522500", "103946.982500", "103947.442500", "103947.902500", "103948.362500", "103948.822500", "103949.282500", "103949.742500", "103950.202500", "103950.662500", "103951.122500", "103951.582500", "103952.042500", "103952.502500", "103952.962500", "103953.422500", "103953.882500", "103954.342500", "103954.802500", "103955.262500", "103955.722500", "103956.182500", "103956.642500", "103957.102500", "103957.562500", "103958.022500", "103958.482500", "103958.942500", "103959.402500", "103959.862500", "104000.322500", "104000.782500", "104001.242500", "104001.702500", "104002.162500", "104002.622500", "104003.082500", "104003.542500", "104004.002500", "104004.462500", "104004.922500", "104005.382500", "104005.842500", "104006.302500", "104006.762500", "104007.222500", "104007.682500", "104008.142500", "104008.602500", "104009.062500", "104009.522500", "104009.982500", "104010.442500", "104010.902500", "104011.362500", "104011.822500", "104012.282500", "104012.742500", "104013.202500", "104013.662500", "104014.122500", "104014.582500", "104015.042500", "104015.502500", "104015.962500", "104016.422500", "104016.882500", "104017.342500", "104017.802500", "104018.262500", "104018.722500", "104019.182500", "104019.642500", "104020.102500", "104020.562500", "104021.022500", "104021.482500", "104021.942500", "104022.402500", "104022.862500", "104023.322500", "104023.782500", "104024.242500", "104024.702500", "104025.162500", "104025.622500", "104026.082500", "104026.542500", "104027.002500", "104027.462500", "104027.922500", "104028.382500", "104028.842500", "104029.302500", "104029.762500", "104030.222500", "104030.682500", "104031.142500", "104031.602500", "104032.062500", "104032.522500", "104032.982500", "104033.442500", "104033.902500", "104034.362500", "104034.822500", "104035.282500", "104035.742500", "104036.202500", "104036.662500", "104037.122500", "104037.582500", "104038.042500", "104038.502500", "104038.962500", "104039.422500", "104039.882500", "104040.342500", "104040.802500", "104041.262500", "104041.722500", "104042.182500", "104042.642500", "104043.102500", "104043.562500", "104044.022500", "104044.482500", "104044.942500", "104045.402500", "104045.862500", "104046.322500", "104046.782500", "104047.242500", "104047.702500", "104048.162500", "104048.622500", "104049.082500", "104049.542500", "104050.002500", "104050.462500", "104050.922500", "104051.382500", "104051.842500", "104052.302500", "104052.762500", "104053.222500", "104053.682500", "104054.142500", "104054.602500", "104055.062500", "104055.522500", "104055.982500", "104056.442500", "104056.902500", "104057.362500", "104057.822500", "104058.282500", "104058.742500", "104059.202500", "104059.662500", "104100.122500", "104100.582500", "104101.042500", "104101.502500", "104101.962500", "104102.422500", "104102.882500", "104103.342500", "104103.802500", "104104.262500", "104104.722500", "104105.182500", "104105.642500", "104106.102500", "104106.562500", "104107.022500", "104107.482500", "104107.942500", "104108.402500", "104108.862500", "104109.322500", "104109.782500", "104110.242500", "104110.702500", "104111.162500", "104111.622500", "104112.082500", "104112.542500", "104113.002500", "104113.462500", "104113.922500", "104114.382500", "104114.842500", "104115.302500", "104115.762500", "104116.222500", "104116.682500", "104117.142500", "104117.602500", "104118.062500", "104118.522500", "104118.982500", "104119.442500", "104119.902500", "104120.362500", "104120.822500", "104121.282500", "104121.742500", "104122.202500", "104122.662500", "104123.122500", "104123.582500", "104124.042500", "104124.502500", "104124.962500", "104125.422500", "104125.882500", "104126.342500", "104126.802500", "104127.262500", "104127.722500", "104128.182500", "104128.642500", "104129.102500", "104129.562500", "104130.022500", "104130.482500", "104130.942500", "104131.402500", "104131.862500", "104132.322500", "104132.782500", "104133.242500", "104133.702500", "104134.162500", "104134.622500", "104135.082500", "104135.542500", "104136.002500", "104136.462500", "104136.922500", "104137.382500", "104137.842500", "104138.302500", "104138.762500", "104139.222500", "104139.682500", "104140.142500", "104140.602500", "104141.062500", "104141.522500", "104141.982500", "104142.442500", "104142.902500", "104143.362500", "104143.822500", "104144.282500", "104144.742500", "104145.202500", "104145.662500", "104146.122500", "104146.582500", "104147.042500", "104147.502500", "104147.962500", "104148.422500", "104148.882500", "104149.342500", "104149.802500", "104150.262500", "104150.722500", "104151.182500", "104151.642500", "104152.102500", "104152.562500", "104153.022500", "104153.482500", "104153.942500", "104154.402500", "104154.862500", "104155.322500", "104155.782500", "104156.242500", "104156.702500", "104157.162500", "104157.622500", "104158.082500", "104158.542500", "104159.002500", "104159.462500", "104159.922500", "104200.382500", "104200.842500", "104201.302500", "104201.762500", "104202.222500", "104202.682500", "104203.142500", "104203.602500", "104204.062500", "104204.522500", "104204.982500", "104205.442500", "104205.902500", "104206.362500", "104206.822500", "104207.282500", "104207.742500", "104208.202500", "104208.662500", "104209.122500", "104209.582500", "104210.042500", "104210.502500", "104210.962500", "104211.422500", "104211.882500", "104212.342500", "104212.802500", "104213.262500", "104213.722500", "104214.182500", "104214.642500", "104215.102500", "104215.562500", "104216.022500", "104216.482500", "104216.942500", "104217.402500", "104217.862500", "104218.322500", "104218.782500", "104219.242500", "104219.702500", "104220.162500", "104220.622500", "104221.082500", "104221.542500", "104222.002500", "104222.462500", "104222.922500", "104223.382500", "104223.842500", "104224.302500", "104224.762500", "104225.222500", "104225.682500", "104226.142500", "104226.602500", "104227.062500", "104227.522500", "104227.982500", "104228.442500", "104228.902500", "104229.362500", "104229.822500", "104230.282500", "104230.742500", "104231.202500", "104231.662500", "104232.122500", "104232.582500", "104233.042500", "104233.502500", "104233.962500", "104234.422500", "104234.882500", "104235.342500", "104235.802500", "104236.262500", "104236.722500", "104237.182500", "104237.642500", "104238.102500", "104238.562500", "104239.022500", "104239.482500", "104239.942500", "104240.402500", "104240.862500", "104241.322500", "104241.782500", "104242.242500", "104242.702500", "104243.162500", "104243.622500", "104244.082500", "104244.542500", "104245.002500", "104245.462500", "104245.922500", "104246.382500", "104246.842500", "104247.302500", "104247.762500", "104248.222500", "104248.682500", "104249.142500", "104249.602500", "104250.062500", "104250.522500", "104250.982500", "104251.442500", "104251.902500", "104252.362500", "104252.822500", "104253.282500", "104253.742500", "104254.202500", "104254.662500", "104255.122500", "104255.582500", "104256.042500", "104256.502500", "104256.962500", "104257.422500", "104257.882500", "104258.342500", "104258.802500", "104259.262500", "104259.722500", "104300.182500", "104300.642500", "104301.102500", "104301.562500", "104302.022500", "104302.482500", "104302.942500", "104303.402500", "104303.862500", "104304.322500", "104304.782500", "104305.242500", "104305.702500", "104306.162500", "104306.622500", "104307.082500", "104307.542500", "104308.002500", "104308.462500", "104308.922500", "104309.382500", "104309.842500", "104310.302500", "104310.762500", "104311.222500", "104311.682500", "104312.142500", "104312.602500", "104313.062500", "104313.522500", "104313.982500", "104314.442500", "104314.902500", "104315.362500", "104315.822500", "104316.282500", "104316.742500", "104317.202500", "104317.662500", "104318.122500", "104318.582500", "104319.042500", "104319.502500", "104319.962500", "104320.422500", "104320.882500", "104321.342500", "104321.802500", "104322.262500", "104322.722500", "104323.182500", "104323.642500"],
