{
  "AcquisitionMatrixPE": 82,
  "AcquisitionNumber": 1,
  "AcquisitionTime": "11:14:30.165000",
  "BandwidthPerPixelPhaseEncode": 24.888,
  "BaseResolution": 82,
  "BodyPartExamined": "BRAIN",
  "ConsistencyInfo": "N4_VE11C_LATEST_20160120",
  "ConversionSoftware": "dcm2niix",
  "ConversionSoftwareVersion": "v1.0.20201102",
  "DerivedVendorReportedEchoSpacing": 0.00049,
  "DeviceSerialNumber": "66112",
  "DwellTime": 2e-06,
  "EchoTime": 0.0272,
  "EchoTrainLength": 82,
  "EffectiveEchoSpacing": 0.00049,
  "FlipAngle": 44,
  "ImageComments": "Unaliased MB8/PE3",
  "ImageOrientationPatientDICOM": [0.999756, -0.0166272, 0.0145345, 0.0188472, 0.985418, -0.169101],
  "ImageType": [
    "ORIGINAL",
    "PRIMARY",
    "M",
    "MB",
    "ND",
    "NORM",
    "MOSAIC"
],
  "ImagingFrequency": 123.252,
  "InPlanePhaseEncodingDirectionDICOM": "COL",
  "InstitutionAddress": "Maynard 3,Hanover,NH,US,03755",
  "InstitutionName": "Dartmouth College - PBS",
  "InstitutionalDepartmentName": "Department",
  "MRAcquisitionType": "2D",
  "MagneticFieldStrength": 3,
  "Manufacturer": "Siemens",
  "ManufacturersModelName": "Prisma",
  "Modality": "MR",
  "MultibandAccelerationFactor": 8,
  "PartialFourier": 1,
  "PatientPosition": "HFS",
  "PercentPhaseFOV": 100,
  "PercentSampling": 100,
  "PhaseEncodingDirection": "j-",
  "PhaseEncodingSteps": 82,
  "PhaseResolution": 1,
  "PixelBandwidth": 3050,
  "ProcedureStepDescription": "Wager_Wager^1076_spacetop",
  "ProtocolName": "func_run-02_task-alignvideo_acq-ap-mb8",
  "PulseSequenceDetails": "%CustomerSeq%\\cmrr_mbep2d_bold",
  "ReceiveCoilActiveElements": "HEA;HEP",
  "ReceiveCoilName": "Head_32",
  "ReconMatrixPE": 82,
  "RepetitionTime": 0.46,
  "SAR": 0.0970544,
  "ScanOptions": "FS",
  "ScanningSequence": "EP",
  "SequenceName": "epfid2d1_82",
  "SequenceVariant": "SK\\SS",
  "SeriesDescription": "func_run-02_task-alignvideo_acq-ap-mb8",
  "SeriesNumber": 40,
  "ShimSetting": [4144, -7707, -7285, 591, -78, -79, -18, 97],
  "SliceThickness": 2.7,
  "SliceTiming": [0, 0.2525, 0.0625, 0.315, 0.125, 0.3775, 0.19, 0, 0.2525, 0.0625, 0.315, 0.125, 0.3775, 0.19, 0, 0.2525, 0.0625, 0.315, 0.125, 0.3775, 0.19, 0, 0.2525, 0.0625, 0.315, 0.125, 0.3775, 0.19, 0, 0.2525, 0.0625, 0.315, 0.125, 0.3775, 0.19, 0, 0.2525, 0.0625, 0.315, 0.125, 0.3775, 0.19, 0, 0.2525, 0.0625, 0.315, 0.125, 0.3775, 0.19, 0, 0.2525, 0.0625, 0.315, 0.125, 0.3775, 0.19],
  "SoftwareVersions": "syngo MR E11",
  "SpacingBetweenSlices": 2.7,
  "StationName": "AWP66112",
  "TaskName": "alignvideo",
  "TotalReadoutTime": 0.03969,
  "TxRefAmp": 241.165,
  "WipMemBlock": "4db81dd3-9a0c-4d40-bf02-98991b2a2a0d||Sequence: R016 ve11c/master r/e634e98; Dec 19 2017 11:00:25 by eja",
  "dcmmeta_affine": [
    [-2.6822726726531982, 0.05056553706526756, 0.031079381704330444, 110.27706909179688],
    [0.044609569013118744, 2.643805503845215, -0.45720213651657104, -83.22198486328125],
    [0.03899500519037247, 0.45368677377700806, 2.6608269214630127, -81.53295135498047],
    [0.0, 0.0, 0.0, 1.0]
],
  "dcmmeta_reorient_transform": [
    [0.0, -1.0, 0.0, 81.0],
    [1.0, 0.0, 0.0, 0.0],
    [0.0, 0.0, 1.0, 0.0],
    [0.0, 0.0, 0.0, 1.0]
],
  "dcmmeta_shape": [82, 82, 56, 926],
  "dcmmeta_slice_dim": 2,
  "dcmmeta_version": 0.6,
  "global": {
    "const": {
      "AccessionNumber": "A003482",
      "AcquisitionMatrix": [82, 0, 0, 82],
      "AngioFlag": "N",
      "BitsAllocated": 16,
      "BitsStored": 16,
      "BodyPartExamined": "BRAIN",
      "Columns": 656,
      "EchoNumbers": 1,
      "EchoTime": 27.2,
      "EchoTrainLength": 82,
      "FlipAngle": 44.0,
      "HighBit": 15,
      "ImageOrientationPatient": [0.99975611245288, -0.0166272028282, 0.01453450168465, 0.01884715373839, 0.98541843527805, -0.1691014258075],
      "ImagePositionPatient": [-898.69741153247, -876.89554064547, 74.23221052744],
      "ImageType": [
        "ORIGINAL",
        "PRIMARY",
        "M",
        "MB",
        "ND",
        "NORM",
        "MOSAIC"
],
      "ImagedNucleus": "1H",
      "ImagingFrequency": 123.252188,
      "InPlanePhaseEncodingDirection": "COL",
      "MRAcquisitionType": "2D",
      "MagneticFieldStrength": 3.0,
      "Manufacturer": "SIEMENS",
      "ManufacturerModelName": "Prisma",
      "Modality": "MR",
      "NumberOfAverages": 1.0,
      "NumberOfPhaseEncodingSteps": 82,
      "PercentPhaseFieldOfView": 100.0,
      "PercentSampling": 100.0,
      "PerformedProcedureStepStartTime": "090921.884000",
      "PhotometricInterpretation": "MONOCHROME2",
      "PixelBandwidth": 3050.0,
      "PixelRepresentation": 0,
      "PixelSpacing": [2.6829268932343, 2.6829268932343],
      "ProtocolName": "func_run-02_task-alignvideo_acq-ap-mb8",
      "RepetitionTime": 460.0,
      "Rows": 656,
      "SAR": 0.09705444727553,
      "SamplesPerPixel": 1,
      "ScanOptions": "FS",
      "ScanningSequence": "EP",
      "SequenceName": "epfid2d1_82",
      "SequenceVariant": [
        "SK",
        "SS"
],
      "SeriesDescription": "func_run-02_task-alignvideo_acq-ap-mb8",
      "SeriesNumber": 40,
      "SeriesTime": "111453.473000",
      "SliceLocation": -64.988321994414,
      "SliceThickness": 2.7000000476837,
      "SmallestImagePixelValue": 0,
      "SoftwareVersions": "syngo MR E11",
      "SpacingBetweenSlices": 2.700000021399,
      "SpecificCharacterSet": "ISO_IR 100",
      "StudyID": "2",
      "StudyTime": "090921.776000",
      "TransmitCoilName": "Body",
      "VariableFlipAngleFlag": "N",
      "WindowCenterWidthExplanation": "Algo1",
      "dBdt": 0.0},
    "slices": {}
  },
  "time": {
    "samples": {
      "AcquisitionNumber": [1, 2, 3, 4, 5, 6, 7, 8, 9, 10, 11, 12, 13, 14, 15, 16, 17, 18, 19, 20, 21, 22, 23, 24, 25, 26, 27, 28, 29, 30, 31, 32, 33, 34, 35, 36, 37, 38, 39, 40, 41, 42, 43, 44, 45, 46, 47, 48, 49, 50, 51, 52, 53, 54, 55, 56, 57, 58, 59, 60, 61, 62, 63, 64, 65, 66, 67, 68, 69, 70, 71, 72, 73, 74, 75, 76, 77, 78, 79, 80, 81, 82, 83, 84, 85, 86, 87, 88, 89, 90, 91, 92, 93, 94, 95, 96, 97, 98, 99, 100, 101, 102, 103, 104, 105, 106, 107, 108, 109, 110, 111, 112, 113, 114, 115, 116, 117, 118, 119, 120, 121, 122, 123, 124, 125, 126, 127, 128, 129, 130, 131, 132, 133, 134, 135, 136, 137, 138, 139, 140, 141, 142, 143, 144, 145, 146, 147, 148, 149, 150, 151, 152, 153, 154, 155, 156, 157, 158, 159, 160, 161, 162, 163, 164, 165, 166, 167, 168, 169, 170, 171, 172, 173, 174, 175, 176, 177, 178, 179, 180, 181, 182, 183, 184, 185, 186, 187, 188, 189, 190, 191, 192, 193, 194, 195, 196, 197, 198, 199, 200, 201, 202, 203, 204, 205, 206, 207, 208, 209, 210, 211, 212, 213, 214, 215, 216, 217, 218, 219, 220, 221, 222, 223, 224, 225, 226, 227, 228, 229, 230, 231, 232, 233, 234, 235, 236, 237, 238, 239, 240, 241, 242, 243, 244, 245, 246, 247, 248, 249, 250, 251, 252, 253, 254, 255, 256, 257, 258, 259, 260, 261, 262, 263, 264, 265, 266, 267, 268, 269, 270, 271, 272, 273, 274, 275, 276, 277, 278, 279, 280, 281, 282, 283, 284, 285, 286, 287, 288, 289, 290, 291, 292, 293, 294, 295, 296, 297, 298, 299, 300, 301, 302, 303, 304, 305, 306, 307, 308, 309, 310, 311, 312, 313, 314, 315, 316, 317, 318, 319, 320, 321, 322, 323, 324, 325, 326, 327, 328, 329, 330, 331, 332, 333, 334, 335, 336, 337, 338, 339, 340, 341, 342, 343, 344, 345, 346, 347, 348, 349, 350, 351, 352, 353, 354, 355, 356, 357, 358, 359, 360, 361, 362, 363, 364, 365, 366, 367, 368, 369, 370, 371, 372, 373, 374, 375, 376, 377, 378, 379, 380, 381, 382, 383, 384, 385, 386, 387, 388, 389, 390, 391, 392, 393, 394, 395, 396, 397, 398, 399, 400, 401, 402, 403, 404, 405, 406, 407, 408, 409, 410, 411, 412, 413, 414, 415, 416, 417, 418, 419, 420, 421, 422, 423, 424, 425, 426, 427, 428, 429, 430, 431, 432, 433, 434, 435, 436, 437, 438, 439, 440, 441, 442, 443, 444, 445, 446, 447, 448, 449, 450, 451, 452, 453, 454, 455, 456, 457, 458, 459, 460, 461, 462, 463, 464, 465, 466, 467, 468, 469, 470, 471, 472, 473, 474, 475, 476, 477, 478, 479, 480, 481, 482, 483, 484, 485, 486, 487, 488, 489, 490, 491, 492, 493, 494, 495, 496, 497, 498, 499, 500, 501, 502, 503, 504, 505, 506, 507, 508, 509, 510, 511, 512, 513, 514, 515, 516, 517, 518, 519, 520, 521, 522, 523, 524, 525, 526, 527, 528, 529, 530, 531, 532, 533, 534, 535, 536, 537, 538, 539, 540, 541, 542, 543, 544, 545, 546, 547, 548, 549, 550, 551, 552, 553, 554, 555, 556, 557, 558, 559, 560, 561, 562, 563, 564, 565, 566, 567, 568, 569, 570, 571, 572, 573, 574, 575, 576, 577, 578, 579, 580, 581, 582, 583, 584, 585, 586, 587, 588, 589, 590, 591, 592, 593, 594, 595, 596, 597, 598, 599, 600, 601, 602, 603, 604, 605, 606, 607, 608, 609, 610, 611, 612, 613, 614, 615, 616, 617, 618, 619, 620, 621, 622, 623, 624, 625, 626, 627, 628, 629, 630, 631, 632, 633, 634, 635, 636, 637, 638, 639, 640, 641, 642, 643, 644, 645, 646, 647, 648, 649, 650, 651, 652, 653, 654, 655, 656, 657, 658, 659, 660, 661, 662, 663, 664, 665, 666, 667, 668, 669, 670, 671, 672, 673, 674, 675, 676, 677, 678, 679, 680, 681, 682, 683, 684, 685, 686, 687, 688, 689, 690, 691, 692, 693, 694, 695, 696, 697, 698, 699, 700, 701, 702, 703, 704, 705, 706, 707, 708, 709, 710, 711, 712, 713, 714, 715, 716, 717, 718, 719, 720, 721, 722, 723, 724, 725, 726, 727, 728, 729, 730, 731, 732, 733, 734, 735, 736, 737, 738, 739, 740, 741, 742, 743, 744, 745, 746, 747, 748, 749, 750, 751, 752, 753, 754, 755, 756, 757, 758, 759, 760, 761, 762, 763, 764, 765, 766, 767, 768, 769, 770, 771, 772, 773, 774, 775, 776, 777, 778, 779, 780, 781, 782, 783, 784, 785, 786, 787, 788, 789, 790, 791, 792, 793, 794, 795, 796, 797, 798, 799, 800, 801, 802, 803, 804, 805, 806, 807, 808, 809, 810, 811, 812, 813, 814, 815, 816, 817, 818, 819, 820, 821, 822, 823, 824, 825, 826, 827, 828, 829, 830, 831, 832, 833, 834, 835, 836, 837, 838, 839, 840, 841, 842, 843, 844, 845, 846, 847, 848, 849, 850, 851, 852, 853, 854, 855, 856, 857, 858, 859, 860, 861, 862, 863, 864, 865, 866, 867, 868, 869, 870, 871, 872, 873, 874, 875, 876, 877, 878, 879, 880, 881, 882, 883, 884, 885, 886, 887, 888, 889, 890, 891, 892, 893, 894, 895, 896, 897, 898, 899, 900, 901, 902, 903, 904, 905, 906, 907, 908, 909, 910, 911, 912, 913, 914, 915, 916, 917, 918, 919, 920, 921, 922, 923, 924, 925, 926],
      "AcquisitionTime": ["111430.165000", "111430.625000", "111431.085000", "111431.545000", "111432.005000", "111432.465000", "111432.925000", "111433.385000", "111433.845000", "111434.305000", "111434.765000", "111435.225000", "111435.685000", "111436.145000", "111436.605000", "111437.065000", "111437.525000", "111437.985000", "111438.445000", "111438.905000", "111439.365000", "111439.825000", "111440.285000", "111440.745000", "111441.205000", "111441.665000", "111442.125000", "111442.585000", "111443.045000", "111443.505000", "111443.965000", "111444.425000", "111444.885000", "111445.345000", "111445.805000", "111446.265000", "111446.725000", "111447.185000", "111447.645000", "111448.105000", "111448.565000", "111449.025000", "111449.485000", "111449.945000", "111450.405000", "111450.865000", "111451.325000", "111451.785000", "111452.245000", "111452.705000", "111453.165000", "111453.625000", "111454.085000", "111454.545000", "111455.005000", "111455.465000", "111455.925000", "111456.385000", "111456.845000", "111457.305000", "111457.765000", "111458.225000", "111458.685000", "111459.145000", "111459.605000", "111500.065000", "111500.525000", "111500.985000", "111501.445000", "111501.905000", "111502.365000", "111502.825000", "111503.285000", "111503.745000", "111504.205000", "111504.665000", "111505.125000", "111505.585000", "111506.045000", "111506.505000", "111506.965000", "111507.425000", "111507.885000", "111508.345000", "111508.805000", "111509.265000", "111509.725000", "111510.185000", "111510.645000", "111511.105000", "111511.565000", "111512.025000", "111512.485000", "111512.945000", "111513.405000", "111513.865000", "111514.325000", "111514.785000", "111515.245000", "111515.705000", "111516.165000", "111516.625000", "111517.085000", "111517.545000", "111518.005000", "111518.465000", "111518.925000", "111519.385000", "111519.845000", "111520.305000", "111520.765000", "111521.225000", "111521.685000", "111522.145000", "111522.605000", "111523.065000", "111523.525000", "111523.985000", "111524.445000", "111524.905000", "111525.365000", "111525.825000", "111526.285000", "111526.745000", "111527.205000", "111527.665000", "111528.125000", "111528.585000", "111529.045000", "111529.505000", "111529.965000", "111530.425000", "111530.885000", "111531.345000", "111531.805000", "111532.265000", "111532.725000", "111533.185000", "111533.645000", "111534.105000", "111534.565000", "111535.025000", "111535.485000", "111535.945000", "111536.405000", "111536.865000", "111537.325000", "111537.785000", "111538.245000", "111538.705000", "111539.165000", "111539.625000", "111540.085000", "111540.545000", "111541.005000", "111541.465000", "111541.925000", "111542.385000", "111542.845000", "111543.305000", "111543.765000", "111544.225000", "111544.685000", "111545.145000", "111545.605000", "111546.065000", "111546.525000", "111546.985000", "111547.445000", "111547.905000", "111548.365000", "111548.825000", "111549.285000", "111549.745000", "111550.205000", "111550.665000", "111551.125000", "111551.585000", "111552.045000", "111552.505000", "111552.965000", "111553.425000", "111553.885000", "111554.345000", "111554.805000", "111555.265000", "111555.725000", "111556.185000", "111556.645000", "111557.105000", "111557.565000", "111558.025000", "111558.485000", "111558.945000", "111559.405000", "111559.865000", "111600.325000", "111600.785000", "111601.245000", "111601.705000", "111602.165000", "111602.625000", "111603.085000", "111603.545000", "111604.005000", "111604.465000", "111604.925000", "111605.385000", "111605.845000", "111606.305000", "111606.765000", "111607.225000", "111607.685000", "111608.145000", "111608.605000", "111609.065000", "111609.525000", "111609.985000", "111610.445000", "111610.905000", "111611.365000", "111611.825000", "111612.285000", "111612.745000", "111613.205000", "111613.665000", "111614.125000", "111614.585000", "111615.045000", "111615.505000", "111615.965000", "111616.425000", "111616.885000", "111617.345000", "111617.805000", "111618.265000", "111618.725000", "111619.185000", "111619.645000", "111620.105000", "111620.565000", "111621.025000", "111621.485000", "111621.945000", "111622.405000", "111622.865000", "111623.325000", "111623.785000", "111624.245000", "111624.705000", "111625.165000", "111625.625000", "111626.085000", "111626.545000", "111627.005000", "111627.465000", "111627.925000", "111628.385000", "111628.845000", "111629.305000", "111629.765000", "111630.225000", "111630.685000", "111631.145000", "111631.605000", "111632.065000", "111632.525000", "111632.985000", "111633.445000", "111633.905000", "111634.365000", "111634.825000", "111635.285000", "111635.745000", "111636.205000", "111636.665000", "111637.125000", "111637.585000", "111638.045000", "111638.505000", "111638.965000", "111639.425000", "111639.885000", "111640.345000", "111640.805000", "111641.265000", "111641.725000", "111642.185000", "111642.645000", "111643.105000", "111643.565000", "111644.025000", "111644.485000", "111644.945000", "111645.405000", "111645.865000", "111646.325000", "111646.785000", "111647.245000", "111647.705000", "111648.165000", "111648.625000", "111649.085000", "111649.545000", "111650.005000", "111650.465000", "111650.925000", "111651.385000", "111651.845000", "111652.305000", "111652.765000", "111653.225000", "111653.685000", "111654.145000", "111654.605000", "111655.065000", "111655.525000", "111655.985000", "111656.445000", "111656.905000", "111657.365000", "111657.825000", "111658.285000", "111658.745000", "111659.205000", "111659.665000", "111700.125000", "111700.585000", "111701.045000", "111701.505000", "111701.965000", "111702.425000", "111702.885000", "111703.345000", "111703.805000", "111704.265000", "111704.725000", "111705.185000", "111705.645000", "111706.105000", "111706.565000", "111707.025000", "111707.485000", "111707.945000", "111708.405000", "111708.865000", "111709.325000", "111709.785000", "111710.245000", "111710.705000", "111711.165000", "111711.625000", "111712.085000", "111712.545000", "111713.005000", "111713.465000", "111713.925000", "111714.385000", "111714.845000", "111715.305000", "111715.765000", "111716.225000", "111716.685000", "111717.145000", "111717.605000", "111718.065000", "111718.525000", "111718.985000", "111719.445000", "111719.905000", "111720.365000", "111720.825000", "111721.285000", "111721.745000", "111722.205000", "111722.665000", "111723.125000", "111723.585000", "111724.045000", "111724.505000", "111724.965000", "111725.425000", "111725.885000", "111726.345000", "111726.805000", "111727.265000", "111727.725000", "111728.185000", "111728.645000", "111729.105000", "111729.565000", "111730.025000", "111730.485000", "111730.945000", "111731.405000", "111731.865000", "111732.325000", "111732.785000", "111733.245000", "111733.705000", "111734.165000", "111734.625000", "111735.085000", "111735.545000", "111736.005000", "111736.465000", "111736.925000", "111737.385000", "111737.845000", "111738.305000", "111738.765000", "111739.225000", "111739.685000", "111740.145000", "111740.605000", "111741.065000", "111741.525000", "111741.985000", "111742.445000", "111742.905000", "111743.365000", "111743.825000", "111744.285000", "111744.745000", "111745.205000", "111745.665000", "111746.125000", "111746.585000", "111747.045000", "111747.505000", "111747.965000", "111748.425000", "111748.885000", "111749.345000", "111749.805000", "111750.265000", "111750.725000", "111751.185000", "111751.645000", "111752.105000", "111752.565000", "111753.025000", "111753.485000", "111753.945000", "111754.405000", "111754.865000", "111755.325000", "111755.785000", "111756.245000", "111756.705000", "111757.165000", "111757.625000", "111758.085000", "111758.545000", "111759.005000", "111759.465000", "111759.925000", "111800.385000", "111800.845000", "111801.305000", "111801.765000", "111802.225000", "111802.685000", "111803.145000", "111803.605000", "111804.065000", "111804.525000", "111804.985000", "111805.445000", "111805.905000", "111806.365000", "111806.825000", "111807.285000", "111807.745000", "111808.205000", "111808.665000", "111809.125000", "111809.585000", "111810.045000", "111810.505000", "111810.965000", "111811.425000", "111811.885000", "111812.345000", "111812.805000", "111813.265000", "111813.725000", "111814.185000", "111814.645000", "111815.105000", "111815.565000", "111816.025000", "111816.485000", "111816.945000", "111817.405000", "111817.865000", "111818.325000", "111818.785000", "111819.245000", "111819.705000", "111820.165000", "111820.625000", "111821.085000", "111821.545000", "111822.005000", "111822.465000", "111822.925000", "111823.385000", "111823.845000", "111824.305000", "111824.765000", "111825.225000", "111825.685000", "111826.145000", "111826.605000", "111827.065000", "111827.525000", "111827.985000", "111828.445000", "111828.905000", "111829.365000", "111829.825000", "111830.285000", "111830.745000", "111831.205000", "111831.665000", "111832.125000", "111832.585000", "111833.045000", "111833.505000", "111833.965000", "111834.425000", "111834.885000", "111835.345000", "111835.805000", "111836.265000", "111836.725000", "111837.185000", "111837.645000", "111838.105000", "111838.565000", "111839.025000", "111839.485000", "111839.945000", "111840.405000", "111840.865000", "111841.325000", "111841.785000", "111842.245000", "111842.705000", "111843.165000", "111843.625000", "111844.085000", "111844.545000", "111845.005000", "111845.465000", "111845.925000", "111846.385000", "111846.845000", "111847.305000", "111847.765000", "111848.225000", "111848.685000", "111849.145000", "111849.605000", "111850.065000", "111850.525000", "111850.985000", "111851.445000", "111851.905000", "111852.365000", "111852.825000", "111853.285000", "111853.745000", "111854.205000", "111854.665000", "111855.125000", "111855.585000", "111856.045000", "111856.505000", "111856.965000", "111857.425000", "111857.885000", "111858.345000", "111858.805000", "111859.265000", "111859.725000", "111900.185000", "111900.645000", "111901.105000", "111901.565000", "111902.025000", "111902.485000", "111902.945000", "111903.405000", "111903.865000", "111904.325000", "111904.785000", "111905.245000", "111905.705000", "111906.165000", "111906.625000", "111907.085000", "111907.545000", "111908.005000", "111908.465000", "111908.925000", "111909.385000", "111909.845000", "111910.305000", "111910.765000", "111911.225000", "111911.685000", "111912.145000", "111912.605000", "111913.065000", "111913.525000", "111913.985000", "111914.445000", "111914.905000", "111915.365000", "111915.825000", "111916.285000", "111916.745000", "111917.205000", "111917.665000", "111918.125000", "111918.585000", "111919.045000", "111919.505000", "111919.965000", "111920.425000", "111920.885000", "111921.345000", "111921.805000", "111922.265000", "111922.725000", "111923.185000", "111923.645000", "111924.105000", "111924.565000", "111925.025000", "111925.485000", "111925.945000", "111926.405000", "111926.865000", "111927.325000", "111927.785000", "111928.245000", "111928.705000", "111929.165000", "111929.625000", "111930.085000", "111930.545000", "111931.005000", "111931.465000", "111931.925000", "111932.385000", "111932.845000", "111933.305000", "111933.765000", "111934.225000", "111934.685000", "111935.145000", "111935.605000", "111936.065000", "111936.525000", "111936.985000", "111937.445000", "111937.905000", "111938.365000", "111938.825000", "111939.285000", "111939.745000", "111940.205000", "111940.665000", "111941.125000", "111941.585000", "111942.045000", "111942.505000", "111942.965000", "111943.425000", "111943.885000", "111944.345000", "111944.805000", "111945.265000", "111945.725000", "111946.185000", "111946.645000", "111947.105000", "111947.565000", "111948.025000", "111948.485000", "111948.945000", "111949.405000", "111949.865000", "111950.325000", "111950.785000", "111951.245000", "111951.705000", "111952.165000", "111952.625000", "111953.085000", "111953.545000", "111954.005000", "111954.465000", "111954.925000", "111955.385000", "111955.845000", "111956.305000", "111956.765000", "111957.225000", "111957.685000", "111958.145000", "111958.605000", "111959.065000", "111959.525000", "111959.985000", "112000.445000", "112000.905000", "112001.365000", "112001.825000", "112002.285000", "112002.745000", "112003.205000", "112003.665000", "112004.125000", "112004.585000", "112005.045000", "112005.505000", "112005.965000", "112006.425000", "112006.885000", "112007.345000", "112007.805000", "112008.265000", "112008.725000", "112009.185000", "112009.645000", "112010.105000", "112010.565000", "112011.025000", "112011.485000", "112011.945000", "112012.405000", "112012.865000", "112013.325000", "112013.785000", "112014.245000", "112014.705000", "112015.165000", "112015.625000", "112016.085000", "112016.545000", "112017.005000", "112017.465000", "112017.925000", "112018.385000", "112018.845000", "112019.305000", "112019.765000", "112020.225000", "112020.685000", "112021.145000", "112021.605000", "112022.065000", "112022.525000", "112022.985000", "112023.445000", "112023.905000", "112024.365000", "112024.825000", "112025.285000", "112025.745000", "112026.205000", "112026.665000", "112027.125000", "112027.585000", "112028.045000", "112028.505000", "112028.965000", "112029.425000", "112029.885000", "112030.345000", "112030.805000", "112031.265000", "112031.725000", "112032.185000", "112032.645000", "112033.105000", "112033.565000", "112034.025000", "112034.485000", "112034.945000", "112035.405000", "112035.865000", "112036.325000", "112036.785000", "112037.245000", "112037.705000", "112038.165000", "112038.625000", "112039.085000", "112039.545000", "112040.005000", "112040.465000", "112040.925000", "112041.385000", "112041.845000", "112042.305000", "112042.765000", "112043.225000", "112043.685000", "112044.145000", "112044.605000", "112045.065000", "112045.525000", "112045.985000", "112046.445000", "112046.905000", "112047.365000", "112047.825000", "112048.285000", "112048.745000", "112049.205000", "112049.665000", "112050.125000", "112050.585000", "112051.045000", "112051.505000", "112051.965000", "112052.425000", "112052.885000", "112053.345000", "112053.805000", "112054.265000", "112054.725000", "112055.185000", "112055.645000", "112056.105000", "112056.565000", "112057.025000", "112057.485000", "112057.945000", "112058.405000", "112058.865000", "112059.325000", "112059.785000", "112100.245000", "112100.705000", "112101.165000", "112101.625000", "112102.085000", "112102.545000", "112103.005000", "112103.465000", "112103.925000", "112104.385000", "112104.845000", "112105.305000", "112105.765000", "112106.225000", "112106.685000", "112107.145000", "112107.605000", "112108.065000", "112108.525000", "112108.985000", "112109.445000", "112109.905000", "112110.365000", "112110.825000", "112111.285000", "112111.745000", "112112.205000", "112112.665000", "112113.125000", "112113.585000", "112114.045000", "112114.505000", "112114.965000", "112115.425000", "112115.885000", "112116.345000", "112116.805000", "112117.265000", "112117.725000", "112118.185000", "112118.645000", "112119.105000", "112119.565000", "112120.025000", "112120.485000", "112120.945000", "112121.405000", "112121.865000", "112122.325000", "112122.785000", "112123.245000", "112123.705000", "112124.165000", "112124.625000", "112125.085000", "112125.545000", "112126.005000", "112126.465000", "112126.925000", "112127.385000", "112127.845000", "112128.305000", "112128.765000", "112129.225000", "112129.685000", "112130.145000", "112130.605000", "112131.065000", "112131.525000", "112131.985000", "112132.445000", "112132.905000", "112133.365000", "112133.825000", "112134.285000", "112134.745000", "112135.205000", "112135.665000"],
