{
  "AcquisitionMatrixPE": 82,
  "AcquisitionNumber": 1,
  "AcquisitionTime": "10:15:34.600000",
  "BandwidthPerPixelPhaseEncode": 24.888,
  "BaseResolution": 82,
  "BodyPartExamined": "BRAIN",
  "ConsistencyInfo": "N4_VE11C_LATEST_20160120",
  "ConversionSoftware": "dcm2niix",
  "ConversionSoftwareVersion": "v1.0.20201102",
  "DerivedVendorReportedEchoSpacing": 0.00049,
  "DeviceSerialNumber": "66112",
  "DwellTime": 2e-06,
  "EchoTime": 0.0272,
  "EchoTrainLength": 82,
  "EffectiveEchoSpacing": 0.00049,
  "FlipAngle": 44,
  "ImageComments": "Unaliased MB8/PE3",
  "ImageOrientationPatientDICOM": [0.999126, -0.0153387, 0.0388862, 0.0223244, 0.98227, -0.186137],
  "ImageType": [
    "ORIGINAL",
    "PRIMARY",
    "M",
    "MB",
    "ND",
    "NORM",
    "MOSAIC"
],
  "ImagingFrequency": 123.252,
  "InPlanePhaseEncodingDirectionDICOM": "COL",
  "InstitutionAddress": "Maynard 3,Hanover,NH,US,03755",
  "InstitutionName": "Dartmouth College - PBS",
  "InstitutionalDepartmentName": "Department",
  "MRAcquisitionType": "2D",
  "MagneticFieldStrength": 3,
  "Manufacturer": "Siemens",
  "ManufacturersModelName": "Prisma",
  "Modality": "MR",
  "MultibandAccelerationFactor": 8,
  "PartialFourier": 1,
  "PatientPosition": "HFS",
  "PercentPhaseFOV": 100,
  "PercentSampling": 100,
  "PhaseEncodingDirection": "j-",
  "PhaseEncodingSteps": 82,
  "PhaseResolution": 1,
  "PixelBandwidth": 3050,
  "ProcedureStepDescription": "Wager_Wager^1076_spacetop",
  "ProtocolName": "func_run-01_task-social_acq-ap-mb8",
  "PulseSequenceDetails": "%CustomerSeq%\\cmrr_mbep2d_bold",
  "ReceiveCoilActiveElements": "HEA;HEP",
  "ReceiveCoilName": "Head_32",
  "ReconMatrixPE": 82,
  "RepetitionTime": 0.46,
  "SAR": 0.0970193,
  "ScanOptions": "FS",
  "ScanningSequence": "EP",
  "SequenceName": "epfid2d1_82",
  "SequenceVariant": "SK\\SS",
  "SeriesDescription": "func_run-01_task-social_acq-ap-mb8",
  "SeriesNumber": 20,
  "ShimSetting": [4144, -7709, -7286, 590, -72, -96, -28, 100],
  "SliceThickness": 2.7,
  "SliceTiming": [0, 0.2525, 0.0625, 0.315, 0.125, 0.3775, 0.1875, 0, 0.2525, 0.0625, 0.315, 0.125, 0.3775, 0.1875, 0, 0.2525, 0.0625, 0.315, 0.125, 0.3775, 0.1875, 0, 0.2525, 0.0625, 0.315, 0.125, 0.3775, 0.1875, 0, 0.2525, 0.0625, 0.315, 0.125, 0.3775, 0.1875, 0, 0.2525, 0.0625, 0.315, 0.125, 0.3775, 0.1875, 0, 0.2525, 0.0625, 0.315, 0.125, 0.3775, 0.1875, 0, 0.2525, 0.0625, 0.315, 0.125, 0.3775, 0.1875],
  "SoftwareVersions": "syngo MR E11",
  "SpacingBetweenSlices": 2.7,
  "StationName": "AWP66112",
  "TaskName": "social",
  "TotalReadoutTime": 0.03969,
  "TxRefAmp": 241.165,
  "WipMemBlock": "34dc7533-5e40-4412-9819-0bee7031674c||Sequence: R016 ve11c/master r/e634e98; Dec 19 2017 11:00:25 by eja",
  "dcmmeta_affine": [
    [-2.68058180809021, 0.059894680976867676, 0.09542237967252731, 108.20121765136719],
    [0.04115255922079086, 2.635359287261963, -0.5044735670089722, -82.50225830078125],
    [0.1043287143111229, 0.49939101934432983, 2.650735855102539, -90.53385925292969],
    [0.0, 0.0, 0.0, 1.0]
],
  "dcmmeta_reorient_transform": [
    [0.0, -1.0, 0.0, 81.0],
    [1.0, 0.0, 0.0, 0.0],
    [0.0, 0.0, 1.0, 0.0],
    [0.0, 0.0, 0.0, 1.0]
],
  "dcmmeta_shape": [82, 82, 56, 872],
  "dcmmeta_slice_dim": 2,
  "dcmmeta_version": 0.6,
  "global": {
    "const": {
      "AccessionNumber": "A003482",
      "AcquisitionMatrix": [82, 0, 0, 82],
      "AngioFlag": "N",
      "BitsAllocated": 16,
      "BitsStored": 16,
      "BodyPartExamined": "BRAIN",
      "Columns": 656,
      "EchoNumbers": 1,
      "EchoTime": 27.2,
      "EchoTrainLength": 82,
      "FlipAngle": 44.0,
      "HighBit": 15,
      "ImageOrientationPatient": [0.99912591380699, -0.015338680305, 0.03888615750952, 0.02232438112839, 0.98227021287409, -0.1861366457942],
      "ImagePositionPatient": [-899.5694361435, -875.49913036749, 63.299693949424],
      "ImageType": [
        "ORIGINAL",
        "PRIMARY",
        "M",
        "MB",
        "ND",
        "NORM",
        "MOSAIC"
],
      "ImagedNucleus": "1H",
      "ImagingFrequency": 123.252166,
      "InPlanePhaseEncodingDirection": "COL",
      "MRAcquisitionType": "2D",
      "MagneticFieldStrength": 3.0,
      "Manufacturer": "SIEMENS",
      "ManufacturerModelName": "Prisma",
      "Modality": "MR",
      "NumberOfAverages": 1.0,
      "NumberOfPhaseEncodingSteps": 82,
      "PercentPhaseFieldOfView": 100.0,
      "PercentSampling": 100.0,
      "PerformedProcedureStepStartTime": "090921.884000",
      "PhotometricInterpretation": "MONOCHROME2",
      "PixelBandwidth": 3050.0,
      "PixelRepresentation": 0,
      "PixelSpacing": [2.6829268932343, 2.6829268932343],
      "ProtocolName": "func_run-01_task-social_acq-ap-mb8",
      "RepetitionTime": 460.0,
      "Rows": 656,
      "SAR": 0.09701930798266,
      "SamplesPerPixel": 1,
      "ScanOptions": "FS",
      "ScanningSequence": "EP",
      "SequenceName": "epfid2d1_82",
      "SequenceVariant": [
        "SK",
        "SS"
],
      "SeriesDescription": "func_run-01_task-social_acq-ap-mb8",
      "SeriesNumber": 20,
      "SeriesTime": "101553.550000",
      "SliceLocation": -69.643081850848,
      "SliceThickness": 2.7000000476837,
      "SmallestImagePixelValue": 0,
      "SoftwareVersions": "syngo MR E11",
      "SpacingBetweenSlices": 2.6999999526424,
      "SpecificCharacterSet": "ISO_IR 100",
      "StudyID": "2",
      "StudyTime": "090921.776000",
      "TransmitCoilName": "Body",
      "VariableFlipAngleFlag": "N",
      "WindowCenterWidthExplanation": "Algo1",
      "dBdt": 0.0},
    "slices": {}
  },
  "time": {
    "samples": {
      "AcquisitionNumber": [1, 2, 3, 4, 5, 6, 7, 8, 9, 10, 11, 12, 13, 14, 15, 16, 17, 18, 19, 20, 21, 22, 23, 24, 25, 26, 27, 28, 29, 30, 31, 32, 33, 34, 35, 36, 37, 38, 39, 40, 41, 42, 43, 44, 45, 46, 47, 48, 49, 50, 51, 52, 53, 54, 55, 56, 57, 58, 59, 60, 61, 62, 63, 64, 65, 66, 67, 68, 69, 70, 71, 72, 73, 74, 75, 76, 77, 78, 79, 80, 81, 82, 83, 84, 85, 86, 87, 88, 89, 90, 91, 92, 93, 94, 95, 96, 97, 98, 99, 100, 101, 102, 103, 104, 105, 106, 107, 108, 109, 110, 111, 112, 113, 114, 115, 116, 117, 118, 119, 120, 121, 122, 123, 124, 125, 126, 127, 128, 129, 130, 131, 132, 133, 134, 135, 136, 137, 138, 139, 140, 141, 142, 143, 144, 145, 146, 147, 148, 149, 150, 151, 152, 153, 154, 155, 156, 157, 158, 159, 160, 161, 162, 163, 164, 165, 166, 167, 168, 169, 170, 171, 172, 173, 174, 175, 176, 177, 178, 179, 180, 181, 182, 183, 184, 185, 186, 187, 188, 189, 190, 191, 192, 193, 194, 195, 196, 197, 198, 199, 200, 201, 202, 203, 204, 205, 206, 207, 208, 209, 210, 211, 212, 213, 214, 215, 216, 217, 218, 219, 220, 221, 222, 223, 224, 225, 226, 227, 228, 229, 230, 231, 232, 233, 234, 235, 236, 237, 238, 239, 240, 241, 242, 243, 244, 245, 246, 247, 248, 249, 250, 251, 252, 253, 254, 255, 256, 257, 258, 259, 260, 261, 262, 263, 264, 265, 266, 267, 268, 269, 270, 271, 272, 273, 274, 275, 276, 277, 278, 279, 280, 281, 282, 283, 284, 285, 286, 287, 288, 289, 290, 291, 292, 293, 294, 295, 296, 297, 298, 299, 300, 301, 302, 303, 304, 305, 306, 307, 308, 309, 310, 311, 312, 313, 314, 315, 316, 317, 318, 319, 320, 321, 322, 323, 324, 325, 326, 327, 328, 329, 330, 331, 332, 333, 334, 335, 336, 337, 338, 339, 340, 341, 342, 343, 344, 345, 346, 347, 348, 349, 350, 351, 352, 353, 354, 355, 356, 357, 358, 359, 360, 361, 362, 363, 364, 365, 366, 367, 368, 369, 370, 371, 372, 373, 374, 375, 376, 377, 378, 379, 380, 381, 382, 383, 384, 385, 386, 387, 388, 389, 390, 391, 392, 393, 394, 395, 396, 397, 398, 399, 400, 401, 402, 403, 404, 405, 406, 407, 408, 409, 410, 411, 412, 413, 414, 415, 416, 417, 418, 419, 420, 421, 422, 423, 424, 425, 426, 427, 428, 429, 430, 431, 432, 433, 434, 435, 436, 437, 438, 439, 440, 441, 442, 443, 444, 445, 446, 447, 448, 449, 450, 451, 452, 453, 454, 455, 456, 457, 458, 459, 460, 461, 462, 463, 464, 465, 466, 467, 468, 469, 470, 471, 472, 473, 474, 475, 476, 477, 478, 479, 480, 481, 482, 483, 484, 485, 486, 487, 488, 489, 490, 491, 492, 493, 494, 495, 496, 497, 498, 499, 500, 501, 502, 503, 504, 505, 506, 507, 508, 509, 510, 511, 512, 513, 514, 515, 516, 517, 518, 519, 520, 521, 522, 523, 524, 525, 526, 527, 528, 529, 530, 531, 532, 533, 534, 535, 536, 537, 538, 539, 540, 541, 542, 543, 544, 545, 546, 547, 548, 549, 550, 551, 552, 553, 554, 555, 556, 557, 558, 559, 560, 561, 562, 563, 564, 565, 566, 567, 568, 569, 570, 571, 572, 573, 574, 575, 576, 577, 578, 579, 580, 581, 582, 583, 584, 585, 586, 587, 588, 589, 590, 591, 592, 593, 594, 595, 596, 597, 598, 599, 600, 601, 602, 603, 604, 605, 606, 607, 608, 609, 610, 611, 612, 613, 614, 615, 616, 617, 618, 619, 620, 621, 622, 623, 624, 625, 626, 627, 628, 629, 630, 631, 632, 633, 634, 635, 636, 637, 638, 639, 640, 641, 642, 643, 644, 645, 646, 647, 648, 649, 650, 651, 652, 653, 654, 655, 656, 657, 658, 659, 660, 661, 662, 663, 664, 665, 666, 667, 668, 669, 670, 671, 672, 673, 674, 675, 676, 677, 678, 679, 680, 681, 682, 683, 684, 685, 686, 687, 688, 689, 690, 691, 692, 693, 694, 695, 696, 697, 698, 699, 700, 701, 702, 703, 704, 705, 706, 707, 708, 709, 710, 711, 712, 713, 714, 715, 716, 717, 718, 719, 720, 721, 722, 723, 724, 725, 726, 727, 728, 729, 730, 731, 732, 733, 734, 735, 736, 737, 738, 739, 740, 741, 742, 743, 744, 745, 746, 747, 748, 749, 750, 751, 752, 753, 754, 755, 756, 757, 758, 759, 760, 761, 762, 763, 764, 765, 766, 767, 768, 769, 770, 771, 772, 773, 774, 775, 776, 777, 778, 779, 780, 781, 782, 783, 784, 785, 786, 787, 788, 789, 790, 791, 792, 793, 794, 795, 796, 797, 798, 799, 800, 801, 802, 803, 804, 805, 806, 807, 808, 809, 810, 811, 812, 813, 814, 815, 816, 817, 818, 819, 820, 821, 822, 823, 824, 825, 826, 827, 828, 829, 830, 831, 832, 833, 834, 835, 836, 837, 838, 839, 840, 841, 842, 843, 844, 845, 846, 847, 848, 849, 850, 851, 852, 853, 854, 855, 856, 857, 858, 859, 860, 861, 862, 863, 864, 865, 866, 867, 868, 869, 870, 871, 872],
      "AcquisitionTime": ["101534.600000", "101535.060000", "101535.520000", "101535.980000", "101536.440000", "101536.900000", "101537.360000", "101537.820000", "101538.280000", "101538.740000", "101539.200000", "101539.660000", "101540.120000", "101540.580000", "101541.040000", "101541.500000", "101541.960000", "101542.420000", "101542.880000", "101543.340000", "101543.800000", "101544.260000", "101544.720000", "101545.180000", "101545.640000", "101546.100000", "101546.560000", "101547.020000", "101547.480000", "101547.940000", "101548.400000", "101548.860000", "101549.320000", "101549.780000", "101550.240000", "101550.700000", "101551.160000", "101551.620000", "101552.080000", "101552.540000", "101553.000000", "101553.460000", "101553.920000", "101554.380000", "101554.840000", "101555.300000", "101555.760000", "101556.220000", "101556.680000", "101557.140000", "101557.600000", "101558.060000", "101558.520000", "101558.980000", "101559.440000", "101559.900000", "101600.360000", "101600.820000", "101601.280000", "101601.740000", "101602.200000", "101602.660000", "101603.120000", "101603.580000", "101604.040000", "101604.500000", "101604.960000", "101605.420000", "101605.880000", "101606.340000", "101606.800000", "101607.260000", "101607.720000", "101608.180000", "101608.640000", "101609.100000", "101609.560000", "101610.020000", "101610.480000", "101610.940000", "101611.400000", "101611.860000", "101612.320000", "101612.780000", "101613.240000", "101613.700000", "101614.160000", "101614.620000", "101615.080000", "101615.540000", "101616.000000", "101616.460000", "101616.920000", "101617.380000", "101617.840000", "101618.300000", "101618.760000", "101619.220000", "101619.680000", "101620.140000", "101620.600000", "101621.060000", "101621.520000", "101621.980000", "101622.440000", "101622.900000", "101623.360000", "101623.820000", "101624.280000", "101624.740000", "101625.200000", "101625.660000", "101626.120000", "101626.580000", "101627.040000", "101627.500000", "101627.960000", "101628.420000", "101628.880000", "101629.340000", "101629.800000", "101630.260000", "101630.720000", "101631.180000", "101631.640000", "101632.100000", "101632.560000", "101633.020000", "101633.480000", "101633.940000", "101634.400000", "101634.860000", "101635.320000", "101635.780000", "101636.240000", "101636.700000", "101637.160000", "101637.620000", "101638.080000", "101638.540000", "101639.000000", "101639.460000", "101639.920000", "101640.380000", "101640.840000", "101641.300000", "101641.760000", "101642.220000", "101642.680000", "101643.140000", "101643.600000", "101644.060000", "101644.520000", "101644.980000", "101645.440000", "101645.900000", "101646.360000", "101646.820000", "101647.280000", "101647.740000", "101648.200000", "101648.660000", "101649.120000", "101649.580000", "101650.040000", "101650.500000", "101650.960000", "101651.420000", "101651.880000", "101652.340000", "101652.800000", "101653.260000", "101653.720000", "101654.180000", "101654.640000", "101655.100000", "101655.560000", "101656.020000", "101656.480000", "101656.940000", "101657.400000", "101657.860000", "101658.320000", "101658.780000", "101659.240000", "101659.700000", "101700.160000", "101700.620000", "101701.080000", "101701.540000", "101702.000000", "101702.460000", "101702.920000", "101703.380000", "101703.840000", "101704.300000", "101704.760000", "101705.220000", "101705.680000", "101706.140000", "101706.600000", "101707.060000", "101707.520000", "101707.980000", "101708.440000", "101708.900000", "101709.360000", "101709.820000", "101710.280000", "101710.740000", "101711.200000", "101711.660000", "101712.120000", "101712.580000", "101713.040000", "101713.500000", "101713.960000", "101714.420000", "101714.880000", "101715.340000", "101715.800000", "101716.260000", "101716.720000", "101717.180000", "101717.640000", "101718.100000", "101718.560000", "101719.020000", "101719.480000", "101719.940000", "101720.400000", "101720.860000", "101721.320000", "101721.780000", "101722.240000", "101722.700000", "101723.160000", "101723.620000", "101724.080000", "101724.540000", "101725.000000", "101725.460000", "101725.920000", "101726.380000", "101726.840000", "101727.300000", "101727.760000", "101728.220000", "101728.680000", "101729.140000", "101729.600000", "101730.060000", "101730.520000", "101730.980000", "101731.440000", "101731.900000", "101732.360000", "101732.820000", "101733.280000", "101733.740000", "101734.200000", "101734.660000", "101735.120000", "101735.580000", "101736.040000", "101736.500000", "101736.960000", "101737.420000", "101737.880000", "101738.340000", "101738.800000", "101739.260000", "101739.720000", "101740.180000", "101740.640000", "101741.100000", "101741.560000", "101742.020000", "101742.480000", "101742.940000", "101743.400000", "101743.860000", "101744.320000", "101744.780000", "101745.240000", "101745.700000", "101746.160000", "101746.620000", "101747.080000", "101747.540000", "101748.000000", "101748.460000", "101748.920000", "101749.380000", "101749.840000", "101750.300000", "101750.760000", "101751.220000", "101751.680000", "101752.140000", "101752.600000", "101753.060000", "101753.520000", "101753.980000", "101754.440000", "101754.900000", "101755.360000", "101755.820000", "101756.280000", "101756.740000", "101757.200000", "101757.660000", "101758.120000", "101758.580000", "101759.040000", "101759.500000", "101759.960000", "101800.420000", "101800.880000", "101801.340000", "101801.800000", "101802.260000", "101802.720000", "101803.180000", "101803.640000", "101804.100000", "101804.560000", "101805.020000", "101805.480000", "101805.940000", "101806.400000", "101806.860000", "101807.320000", "101807.780000", "101808.240000", "101808.700000", "101809.160000", "101809.620000", "101810.080000", "101810.540000", "101811.000000", "101811.460000", "101811.920000", "101812.380000", "101812.840000", "101813.300000", "101813.760000", "101814.220000", "101814.680000", "101815.140000", "101815.600000", "101816.060000", "101816.520000", "101816.980000", "101817.440000", "101817.900000", "101818.360000", "101818.820000", "101819.280000", "101819.740000", "101820.200000", "101820.660000", "101821.120000", "101821.580000", "101822.040000", "101822.500000", "101822.960000", "101823.420000", "101823.880000", "101824.340000", "101824.800000", "101825.260000", "101825.720000", "101826.180000", "101826.640000", "101827.100000", "101827.560000", "101828.020000", "101828.480000", "101828.940000", "101829.400000", "101829.860000", "101830.320000", "101830.780000", "101831.240000", "101831.700000", "101832.160000", "101832.620000", "101833.080000", "101833.540000", "101834.000000", "101834.460000", "101834.920000", "101835.380000", "101835.840000", "101836.300000", "101836.760000", "101837.220000", "101837.680000", "101838.140000", "101838.600000", "101839.060000", "101839.520000", "101839.980000", "101840.440000", "101840.900000", "101841.360000", "101841.820000", "101842.280000", "101842.740000", "101843.200000", "101843.660000", "101844.120000", "101844.580000", "101845.040000", "101845.500000", "101845.960000", "101846.420000", "101846.880000", "101847.340000", "101847.800000", "101848.260000", "101848.720000", "101849.180000", "101849.640000", "101850.100000", "101850.560000", "101851.020000", "101851.480000", "101851.940000", "101852.400000", "101852.860000", "101853.320000", "101853.780000", "101854.240000", "101854.700000", "101855.160000", "101855.620000", "101856.080000", "101856.540000", "101857.000000", "101857.460000", "101857.920000", "101858.380000", "101858.840000", "101859.300000", "101859.760000", "101900.220000", "101900.680000", "101901.140000", "101901.600000", "101902.060000", "101902.520000", "101902.980000", "101903.440000", "101903.900000", "101904.360000", "101904.820000", "101905.280000", "101905.740000", "101906.200000", "101906.660000", "101907.120000", "101907.580000", "101908.040000", "101908.500000", "101908.960000", "101909.420000", "101909.880000", "101910.340000", "101910.800000", "101911.260000", "101911.720000", "101912.180000", "101912.640000", "101913.100000", "101913.560000", "101914.020000", "101914.480000", "101914.940000", "101915.400000", "101915.860000", "101916.320000", "101916.780000", "101917.240000", "101917.700000", "101918.160000", "101918.620000", "101919.080000", "101919.540000", "101920.000000", "101920.460000", "101920.920000", "101921.380000", "101921.840000", "101922.300000", "101922.760000", "101923.220000", "101923.680000", "101924.140000", "101924.600000", "101925.060000", "101925.520000", "101925.980000", "101926.440000", "101926.900000", "101927.360000", "101927.820000", "101928.280000", "101928.740000", "101929.200000", "101929.660000", "101930.120000", "101930.580000", "101931.040000", "101931.500000", "101931.960000", "101932.420000", "101932.880000", "101933.340000", "101933.800000", "101934.260000", "101934.720000", "101935.180000", "101935.640000", "101936.100000", "101936.560000", "101937.020000", "101937.480000", "101937.940000", "101938.400000", "101938.860000", "101939.320000", "101939.780000", "101940.240000", "101940.700000", "101941.160000", "101941.620000", "101942.080000", "101942.540000", "101943.000000", "101943.460000", "101943.920000", "101944.380000", "101944.840000", "101945.300000", "101945.760000", "101946.220000", "101946.680000", "101947.140000", "101947.600000", "101948.060000", "101948.520000", "101948.980000", "101949.440000", "101949.900000", "101950.360000", "101950.820000", "101951.280000", "101951.740000", "101952.200000", "101952.660000", "101953.120000", "101953.580000", "101954.040000", "101954.500000", "101954.960000", "101955.420000", "101955.880000", "101956.340000", "101956.800000", "101957.260000", "101957.720000", "101958.180000", "101958.640000", "101959.100000", "101959.560000", "102000.020000", "102000.480000", "102000.940000", "102001.400000", "102001.860000", "102002.320000", "102002.780000", "102003.240000", "102003.700000", "102004.160000", "102004.620000", "102005.080000", "102005.540000", "102006.000000", "102006.460000", "102006.920000", "102007.380000", "102007.840000", "102008.300000", "102008.760000", "102009.220000", "102009.680000", "102010.140000", "102010.600000", "102011.060000", "102011.520000", "102011.980000", "102012.440000", "102012.900000", "102013.360000", "102013.820000", "102014.280000", "102014.740000", "102015.200000", "102015.660000", "102016.120000", "102016.580000", "102017.040000", "102017.500000", "102017.960000", "102018.420000", "102018.880000", "102019.340000", "102019.800000", "102020.260000", "102020.720000", "102021.180000", "102021.640000", "102022.100000", "102022.560000", "102023.020000", "102023.480000", "102023.940000", "102024.400000", "102024.860000", "102025.320000", "102025.780000", "102026.240000", "102026.700000", "102027.160000", "102027.620000", "102028.080000", "102028.540000", "102029.000000", "102029.460000", "102029.920000", "102030.380000", "102030.840000", "102031.300000", "102031.760000", "102032.220000", "102032.680000", "102033.140000", "102033.600000", "102034.060000", "102034.520000", "102034.980000", "102035.440000", "102035.900000", "102036.360000", "102036.820000", "102037.280000", "102037.740000", "102038.200000", "102038.660000", "102039.120000", "102039.580000", "102040.040000", "102040.500000", "102040.960000", "102041.420000", "102041.880000", "102042.340000", "102042.800000", "102043.260000", "102043.720000", "102044.180000", "102044.640000", "102045.100000", "102045.560000", "102046.020000", "102046.480000", "102046.940000", "102047.400000", "102047.860000", "102048.320000", "102048.780000", "102049.240000", "102049.700000", "102050.160000", "102050.620000", "102051.080000", "102051.540000", "102052.000000", "102052.460000", "102052.920000", "102053.380000", "102053.840000", "102054.300000", "102054.760000", "102055.220000", "102055.680000", "102056.140000", "102056.600000", "102057.060000", "102057.520000", "102057.980000", "102058.440000", "102058.900000", "102059.360000", "102059.820000", "102100.280000", "102100.740000", "102101.200000", "102101.660000", "102102.120000", "102102.580000", "102103.040000", "102103.500000", "102103.960000", "102104.420000", "102104.880000", "102105.340000", "102105.800000", "102106.260000", "102106.720000", "102107.180000", "102107.640000", "102108.100000", "102108.560000", "102109.020000", "102109.480000", "102109.940000", "102110.400000", "102110.860000", "102111.320000", "102111.780000", "102112.240000", "102112.700000", "102113.160000", "102113.620000", "102114.080000", "102114.540000", "102115.000000", "102115.460000", "102115.920000", "102116.380000", "102116.840000", "102117.300000", "102117.760000", "102118.220000", "102118.680000", "102119.140000", "102119.600000", "102120.060000", "102120.520000", "102120.980000", "102121.440000", "102121.900000", "102122.360000", "102122.820000", "102123.280000", "102123.740000", "102124.200000", "102124.660000", "102125.120000", "102125.580000", "102126.040000", "102126.500000", "102126.960000", "102127.420000", "102127.880000", "102128.340000", "102128.800000", "102129.260000", "102129.720000", "102130.180000", "102130.640000", "102131.100000", "102131.560000", "102132.020000", "102132.480000", "102132.940000", "102133.400000", "102133.860000", "102134.320000", "102134.780000", "102135.240000", "102135.700000", "102136.160000", "102136.620000", "102137.080000", "102137.540000", "102138.000000", "102138.460000", "102138.920000", "102139.380000", "102139.840000", "102140.300000", "102140.760000", "102141.220000", "102141.680000", "102142.140000", "102142.600000", "102143.060000", "102143.520000", "102143.980000", "102144.440000", "102144.900000", "102145.360000", "102145.820000", "102146.280000", "102146.740000", "102147.200000", "102147.660000", "102148.120000", "102148.580000", "102149.040000", "102149.500000", "102149.960000", "102150.420000", "102150.880000", "102151.340000", "102151.800000", "102152.260000", "102152.720000", "102153.180000", "102153.640000", "102154.100000", "102154.560000", "102155.020000", "102155.480000", "102155.940000", "102156.400000", "102156.860000", "102157.320000", "102157.780000", "102158.240000", "102158.700000", "102159.160000", "102159.620000", "102200.080000", "102200.540000", "102201.000000", "102201.460000", "102201.920000", "102202.380000", "102202.840000", "102203.300000", "102203.760000", "102204.220000", "102204.680000", "102205.140000", "102205.600000", "102206.060000", "102206.520000", "102206.980000", "102207.440000", "102207.900000", "102208.360000", "102208.820000", "102209.280000", "102209.740000", "102210.200000", "102210.660000", "102211.120000", "102211.580000", "102212.040000", "102212.500000", "102212.960000", "102213.420000", "102213.880000", "102214.340000", "102214.800000", "102215.260000"],
