{
  "AcquisitionMatrixPE": 82,
  "AcquisitionNumber": 1,
  "AcquisitionTime": "10:22:42.495000",
  "BandwidthPerPixelPhaseEncode": 24.888,
  "BaseResolution": 82,
  "BodyPartExamined": "BRAIN",
  "ConsistencyInfo": "N4_VE11C_LATEST_20160120",
  "ConversionSoftware": "dcm2niix",
  "ConversionSoftwareVersion": "v1.0.20201102",
  "DerivedVendorReportedEchoSpacing": 0.00049,
  "DeviceSerialNumber": "66112",
  "DwellTime": 2e-06,
  "EchoTime": 0.0272,
  "EchoTrainLength": 82,
  "EffectiveEchoSpacing": 0.00049,
  "FlipAngle": 44,
  "ImageComments": "Unaliased MB8/PE3",
  "ImageOrientationPatientDICOM": [0.999126, -0.0153387, 0.0388862, 0.0223244, 0.98227, -0.186137],
  "ImageType": [
    "ORIGINAL",
    "PRIMARY",
    "M",
    "MB",
    "ND",
    "NORM",
    "MOSAIC"
],
  "ImagingFrequency": 123.252,
  "InPlanePhaseEncodingDirectionDICOM": "COL",
  "InstitutionAddress": "Maynard 3,Hanover,NH,US,03755",
  "InstitutionName": "Dartmouth College - PBS",
  "InstitutionalDepartmentName": "Department",
  "MRAcquisitionType": "2D",
  "MagneticFieldStrength": 3,
  "Manufacturer": "Siemens",
  "ManufacturersModelName": "Prisma",
  "Modality": "MR",
  "MultibandAccelerationFactor": 8,
  "PartialFourier": 1,
  "PatientPosition": "HFS",
  "PercentPhaseFOV": 100,
  "PercentSampling": 100,
  "PhaseEncodingDirection": "j-",
  "PhaseEncodingSteps": 82,
  "PhaseResolution": 1,
  "PixelBandwidth": 3050,
  "ProcedureStepDescription": "Wager_Wager^1076_spacetop",
  "ProtocolName": "func_run-02_task-social_acq-ap-mb8",
  "PulseSequenceDetails": "%CustomerSeq%\\cmrr_mbep2d_bold",
  "ReceiveCoilActiveElements": "HEA;HEP",
  "ReceiveCoilName": "Head_32",
  "ReconMatrixPE": 82,
  "RepetitionTime": 0.46,
  "SAR": 0.0970193,
  "ScanOptions": "FS",
  "ScanningSequence": "EP",
  "SequenceName": "epfid2d1_82",
  "SequenceVariant": "SK\\SS",
  "SeriesDescription": "func_run-02_task-social_acq-ap-mb8",
  "SeriesNumber": 22,
  "ShimSetting": [4144, -7709, -7286, 590, -72, -96, -28, 100],
  "SliceThickness": 2.7,
  "SliceTiming": [0, 0.25, 0.0625, 0.3125, 0.125, 0.375, 0.1875, 0, 0.25, 0.0625, 0.3125, 0.125, 0.375, 0.1875, 0, 0.25, 0.0625, 0.3125, 0.125, 0.375, 0.1875, 0, 0.25, 0.0625, 0.3125, 0.125, 0.375, 0.1875, 0, 0.25, 0.0625, 0.3125, 0.125, 0.375, 0.1875, 0, 0.25, 0.0625, 0.3125, 0.125, 0.375, 0.1875, 0, 0.25, 0.0625, 0.3125, 0.125, 0.375, 0.1875, 0, 0.25, 0.0625, 0.3125, 0.125, 0.375, 0.1875],
  "SoftwareVersions": "syngo MR E11",
  "SpacingBetweenSlices": 2.7,
  "StationName": "AWP66112",
  "TaskName": "social",
  "TotalReadoutTime": 0.03969,
  "TxRefAmp": 241.165,
  "WipMemBlock": "2b9ba35d-d52c-4016-9a13-8b2046c69088||Sequence: R016 ve11c/master r/e634e98; Dec 19 2017 11:00:25 by eja",
  "dcmmeta_affine": [
    [-2.68058180809021, 0.059894680976867676, 0.09542237967252731, 108.20121765136719],
    [0.04115255922079086, 2.635359287261963, -0.5044735670089722, -82.50225830078125],
    [0.1043287143111229, 0.49939101934432983, 2.650735855102539, -90.53385925292969],
    [0.0, 0.0, 0.0, 1.0]
],
  "dcmmeta_reorient_transform": [
    [0.0, -1.0, 0.0, 81.0],
    [1.0, 0.0, 0.0, 0.0],
    [0.0, 0.0, 1.0, 0.0],
    [0.0, 0.0, 0.0, 1.0]
],
  "dcmmeta_shape": [82, 82, 56, 872],
  "dcmmeta_slice_dim": 2,
  "dcmmeta_version": 0.6,
  "global": {
    "const": {
      "AccessionNumber": "A003482",
      "AcquisitionMatrix": [82, 0, 0, 82],
      "AngioFlag": "N",
      "BitsAllocated": 16,
      "BitsStored": 16,
      "BodyPartExamined": "BRAIN",
      "Columns": 656,
      "EchoNumbers": 1,
      "EchoTime": 27.2,
      "EchoTrainLength": 82,
      "FlipAngle": 44.0,
      "HighBit": 15,
      "ImageOrientationPatient": [0.99912591380699, -0.015338680305, 0.03888615750952, 0.02232438112839, 0.98227021287409, -0.1861366457942],
      "ImagePositionPatient": [-899.5694361435, -875.49913036749, 63.299693949424],
      "ImageType": [
        "ORIGINAL",
        "PRIMARY",
        "M",
        "MB",
        "ND",
        "NORM",
        "MOSAIC"
],
      "ImagedNucleus": "1H",
      "ImagingFrequency": 123.252173,
      "InPlanePhaseEncodingDirection": "COL",
      "MRAcquisitionType": "2D",
      "MagneticFieldStrength": 3.0,
      "Manufacturer": "SIEMENS",
      "ManufacturerModelName": "Prisma",
      "Modality": "MR",
      "NumberOfAverages": 1.0,
      "NumberOfPhaseEncodingSteps": 82,
      "PercentPhaseFieldOfView": 100.0,
      "PercentSampling": 100.0,
      "PerformedProcedureStepStartTime": "090921.884000",
      "PhotometricInterpretation": "MONOCHROME2",
      "PixelBandwidth": 3050.0,
      "PixelRepresentation": 0,
      "PixelSpacing": [2.6829268932343, 2.6829268932343],
      "ProtocolName": "func_run-02_task-social_acq-ap-mb8",
      "RepetitionTime": 460.0,
      "Rows": 656,
      "SAR": 0.09701930798266,
      "SamplesPerPixel": 1,
      "ScanOptions": "FS",
      "ScanningSequence": "EP",
      "SequenceName": "epfid2d1_82",
      "SequenceVariant": [
        "SK",
        "SS"
],
      "SeriesDescription": "func_run-02_task-social_acq-ap-mb8",
      "SeriesNumber": 22,
      "SeriesTime": "102253.401000",
      "SliceLocation": -69.643081850848,
      "SliceThickness": 2.7000000476837,
      "SmallestImagePixelValue": 0,
      "SoftwareVersions": "syngo MR E11",
      "SpacingBetweenSlices": 2.6999999526424,
      "SpecificCharacterSet": "ISO_IR 100",
      "StudyID": "2",
      "StudyTime": "090921.776000",
      "TransmitCoilName": "Body",
      "VariableFlipAngleFlag": "N",
      "WindowCenterWidthExplanation": "Algo1",
      "dBdt": 0.0},
    "slices": {}
  },
  "time": {
    "samples": {
      "AcquisitionNumber": [1, 2, 3, 4, 5, 6, 7, 8, 9, 10, 11, 12, 13, 14, 15, 16, 17, 18, 19, 20, 21, 22, 23, 24, 25, 26, 27, 28, 29, 30, 31, 32, 33, 34, 35, 36, 37, 38, 39, 40, 41, 42, 43, 44, 45, 46, 47, 48, 49, 50, 51, 52, 53, 54, 55, 56, 57, 58, 59, 60, 61, 62, 63, 64, 65, 66, 67, 68, 69, 70, 71, 72, 73, 74, 75, 76, 77, 78, 79, 80, 81, 82, 83, 84, 85, 86, 87, 88, 89, 90, 91, 92, 93, 94, 95, 96, 97, 98, 99, 100, 101, 102, 103, 104, 105, 106, 107, 108, 109, 110, 111, 112, 113, 114, 115, 116, 117, 118, 119, 120, 121, 122, 123, 124, 125, 126, 127, 128, 129, 130, 131, 132, 133, 134, 135, 136, 137, 138, 139, 140, 141, 142, 143, 144, 145, 146, 147, 148, 149, 150, 151, 152, 153, 154, 155, 156, 157, 158, 159, 160, 161, 162, 163, 164, 165, 166, 167, 168, 169, 170, 171, 172, 173, 174, 175, 176, 177, 178, 179, 180, 181, 182, 183, 184, 185, 186, 187, 188, 189, 190, 191, 192, 193, 194, 195, 196, 197, 198, 199, 200, 201, 202, 203, 204, 205, 206, 207, 208, 209, 210, 211, 212, 213, 214, 215, 216, 217, 218, 219, 220, 221, 222, 223, 224, 225, 226, 227, 228, 229, 230, 231, 232, 233, 234, 235, 236, 237, 238, 239, 240, 241, 242, 243, 244, 245, 246, 247, 248, 249, 250, 251, 252, 253, 254, 255, 256, 257, 258, 259, 260, 261, 262, 263, 264, 265, 266, 267, 268, 269, 270, 271, 272, 273, 274, 275, 276, 277, 278, 279, 280, 281, 282, 283, 284, 285, 286, 287, 288, 289, 290, 291, 292, 293, 294, 295, 296, 297, 298, 299, 300, 301, 302, 303, 304, 305, 306, 307, 308, 309, 310, 311, 312, 313, 314, 315, 316, 317, 318, 319, 320, 321, 322, 323, 324, 325, 326, 327, 328, 329, 330, 331, 332, 333, 334, 335, 336, 337, 338, 339, 340, 341, 342, 343, 344, 345, 346, 347, 348, 349, 350, 351, 352, 353, 354, 355, 356, 357, 358, 359, 360, 361, 362, 363, 364, 365, 366, 367, 368, 369, 370, 371, 372, 373, 374, 375, 376, 377, 378, 379, 380, 381, 382, 383, 384, 385, 386, 387, 388, 389, 390, 391, 392, 393, 394, 395, 396, 397, 398, 399, 400, 401, 402, 403, 404, 405, 406, 407, 408, 409, 410, 411, 412, 413, 414, 415, 416, 417, 418, 419, 420, 421, 422, 423, 424, 425, 426, 427, 428, 429, 430, 431, 432, 433, 434, 435, 436, 437, 438, 439, 440, 441, 442, 443, 444, 445, 446, 447, 448, 449, 450, 451, 452, 453, 454, 455, 456, 457, 458, 459, 460, 461, 462, 463, 464, 465, 466, 467, 468, 469, 470, 471, 472, 473, 474, 475, 476, 477, 478, 479, 480, 481, 482, 483, 484, 485, 486, 487, 488, 489, 490, 491, 492, 493, 494, 495, 496, 497, 498, 499, 500, 501, 502, 503, 504, 505, 506, 507, 508, 509, 510, 511, 512, 513, 514, 515, 516, 517, 518, 519, 520, 521, 522, 523, 524, 525, 526, 527, 528, 529, 530, 531, 532, 533, 534, 535, 536, 537, 538, 539, 540, 541, 542, 543, 544, 545, 546, 547, 548, 549, 550, 551, 552, 553, 554, 555, 556, 557, 558, 559, 560, 561, 562, 563, 564, 565, 566, 567, 568, 569, 570, 571, 572, 573, 574, 575, 576, 577, 578, 579, 580, 581, 582, 583, 584, 585, 586, 587, 588, 589, 590, 591, 592, 593, 594, 595, 596, 597, 598, 599, 600, 601, 602, 603, 604, 605, 606, 607, 608, 609, 610, 611, 612, 613, 614, 615, 616, 617, 618, 619, 620, 621, 622, 623, 624, 625, 626, 627, 628, 629, 630, 631, 632, 633, 634, 635, 636, 637, 638, 639, 640, 641, 642, 643, 644, 645, 646, 647, 648, 649, 650, 651, 652, 653, 654, 655, 656, 657, 658, 659, 660, 661, 662, 663, 664, 665, 666, 667, 668, 669, 670, 671, 672, 673, 674, 675, 676, 677, 678, 679, 680, 681, 682, 683, 684, 685, 686, 687, 688, 689, 690, 691, 692, 693, 694, 695, 696, 697, 698, 699, 700, 701, 702, 703, 704, 705, 706, 707, 708, 709, 710, 711, 712, 713, 714, 715, 716, 717, 718, 719, 720, 721, 722, 723, 724, 725, 726, 727, 728, 729, 730, 731, 732, 733, 734, 735, 736, 737, 738, 739, 740, 741, 742, 743, 744, 745, 746, 747, 748, 749, 750, 751, 752, 753, 754, 755, 756, 757, 758, 759, 760, 761, 762, 763, 764, 765, 766, 767, 768, 769, 770, 771, 772, 773, 774, 775, 776, 777, 778, 779, 780, 781, 782, 783, 784, 785, 786, 787, 788, 789, 790, 791, 792, 793, 794, 795, 796, 797, 798, 799, 800, 801, 802, 803, 804, 805, 806, 807, 808, 809, 810, 811, 812, 813, 814, 815, 816, 817, 818, 819, 820, 821, 822, 823, 824, 825, 826, 827, 828, 829, 830, 831, 832, 833, 834, 835, 836, 837, 838, 839, 840, 841, 842, 843, 844, 845, 846, 847, 848, 849, 850, 851, 852, 853, 854, 855, 856, 857, 858, 859, 860, 861, 862, 863, 864, 865, 866, 867, 868, 869, 870, 871, 872],
      "AcquisitionTime": ["102242.495000", "102242.955000", "102243.415000", "102243.875000", "102244.335000", "102244.795000", "102245.255000", "102245.715000", "102246.175000", "102246.635000", "102247.095000", "102247.555000", "102248.015000", "102248.475000", "102248.935000", "102249.395000", "102249.855000", "102250.315000", "102250.775000", "102251.235000", "102251.695000", "102252.155000", "102252.615000", "102253.075000", "102253.535000", "102253.995000", "102254.455000", "102254.915000", "102255.375000", "102255.835000", "102256.295000", "102256.755000", "102257.215000", "102257.675000", "102258.135000", "102258.595000", "102259.055000", "102259.515000", "102259.975000", "102300.435000", "102300.895000", "102301.355000", "102301.815000", "102302.275000", "102302.735000", "102303.195000", "102303.655000", "102304.115000", "102304.575000", "102305.035000", "102305.495000", "102305.955000", "102306.415000", "102306.875000", "102307.335000", "102307.795000", "102308.255000", "102308.715000", "102309.175000", "102309.635000", "102310.095000", "102310.555000", "102311.015000", "102311.475000", "102311.935000", "102312.395000", "102312.855000", "102313.315000", "102313.775000", "102314.235000", "102314.695000", "102315.155000", "102315.615000", "102316.075000", "102316.535000", "102316.995000", "102317.455000", "102317.915000", "102318.375000", "102318.835000", "102319.295000", "102319.755000", "102320.215000", "102320.675000", "102321.135000", "102321.595000", "102322.055000", "102322.515000", "102322.975000", "102323.435000", "102323.895000", "102324.355000", "102324.815000", "102325.275000", "102325.735000", "102326.195000", "102326.655000", "102327.115000", "102327.575000", "102328.035000", "102328.495000", "102328.955000", "102329.415000", "102329.875000", "102330.335000", "102330.795000", "102331.255000", "102331.715000", "102332.175000", "102332.635000", "102333.095000", "102333.555000", "102334.015000", "102334.475000", "102334.935000", "102335.395000", "102335.855000", "102336.315000", "102336.775000", "102337.235000", "102337.695000", "102338.155000", "102338.615000", "102339.075000", "102339.535000", "102339.995000", "102340.455000", "102340.915000", "102341.375000", "102341.835000", "102342.295000", "102342.755000", "102343.215000", "102343.675000", "102344.135000", "102344.595000", "102345.055000", "102345.515000", "102345.975000", "102346.435000", "102346.895000", "102347.355000", "102347.815000", "102348.275000", "102348.735000", "102349.195000", "102349.655000", "102350.115000", "102350.575000", "102351.035000", "102351.495000", "102351.955000", "102352.415000", "102352.875000", "102353.335000", "102353.795000", "102354.255000", "102354.715000", "102355.175000", "102355.635000", "102356.095000", "102356.555000", "102357.015000", "102357.475000", "102357.935000", "102358.395000", "102358.855000", "102359.315000", "102359.775000", "102400.235000", "102400.695000", "102401.155000", "102401.615000", "102402.075000", "102402.535000", "102402.995000", "102403.455000", "102403.915000", "102404.375000", "102404.835000", "102405.295000", "102405.755000", "102406.215000", "102406.675000", "102407.135000", "102407.595000", "102408.055000", "102408.515000", "102408.975000", "102409.435000", "102409.895000", "102410.355000", "102410.815000", "102411.275000", "102411.735000", "102412.195000", "102412.655000", "102413.115000", "102413.575000", "102414.035000", "102414.495000", "102414.955000", "102415.415000", "102415.875000", "102416.335000", "102416.795000", "102417.255000", "102417.715000", "102418.175000", "102418.635000", "102419.095000", "102419.555000", "102420.015000", "102420.475000", "102420.935000", "102421.395000", "102421.855000", "102422.315000", "102422.775000", "102423.235000", "102423.695000", "102424.155000", "102424.615000", "102425.075000", "102425.535000", "102425.995000", "102426.455000", "102426.915000", "102427.375000", "102427.835000", "102428.295000", "102428.755000", "102429.215000", "102429.675000", "102430.135000", "102430.595000", "102431.055000", "102431.515000", "102431.975000", "102432.435000", "102432.895000", "102433.355000", "102433.815000", "102434.275000", "102434.735000", "102435.195000", "102435.655000", "102436.115000", "102436.575000", "102437.035000", "102437.495000", "102437.955000", "102438.415000", "102438.875000", "102439.335000", "102439.795000", "102440.255000", "102440.715000", "102441.175000", "102441.635000", "102442.095000", "102442.555000", "102443.015000", "102443.475000", "102443.935000", "102444.395000", "102444.855000", "102445.315000", "102445.775000", "102446.235000", "102446.695000", "102447.155000", "102447.615000", "102448.075000", "102448.535000", "102448.995000", "102449.455000", "102449.915000", "102450.375000", "102450.835000", "102451.295000", "102451.755000", "102452.215000", "102452.675000", "102453.135000", "102453.595000", "102454.055000", "102454.515000", "102454.975000", "102455.435000", "102455.895000", "102456.355000", "102456.815000", "102457.275000", "102457.735000", "102458.195000", "102458.655000", "102459.115000", "102459.575000", "102500.035000", "102500.495000", "102500.955000", "102501.415000", "102501.875000", "102502.335000", "102502.795000", "102503.255000", "102503.715000", "102504.175000", "102504.635000", "102505.095000", "102505.555000", "102506.015000", "102506.475000", "102506.935000", "102507.395000", "102507.855000", "102508.315000", "102508.775000", "102509.235000", "102509.695000", "102510.155000", "102510.615000", "102511.075000", "102511.535000", "102511.995000", "102512.455000", "102512.915000", "102513.375000", "102513.835000", "102514.295000", "102514.755000", "102515.215000", "102515.675000", "102516.135000", "102516.595000", "102517.055000", "102517.515000", "102517.975000", "102518.435000", "102518.895000", "102519.355000", "102519.815000", "102520.275000", "102520.735000", "102521.195000", "102521.655000", "102522.115000", "102522.575000", "102523.035000", "102523.495000", "102523.955000", "102524.415000", "102524.875000", "102525.335000", "102525.795000", "102526.255000", "102526.715000", "102527.175000", "102527.635000", "102528.095000", "102528.555000", "102529.015000", "102529.475000", "102529.935000", "102530.395000", "102530.855000", "102531.315000", "102531.775000", "102532.235000", "102532.695000", "102533.155000", "102533.615000", "102534.075000", "102534.535000", "102534.995000", "102535.455000", "102535.915000", "102536.375000", "102536.835000", "102537.295000", "102537.755000", "102538.215000", "102538.675000", "102539.135000", "102539.595000", "102540.055000", "102540.515000", "102540.975000", "102541.435000", "102541.895000", "102542.355000", "102542.815000", "102543.275000", "102543.735000", "102544.195000", "102544.655000", "102545.115000", "102545.575000", "102546.035000", "102546.495000", "102546.955000", "102547.415000", "102547.875000", "102548.335000", "102548.795000", "102549.255000", "102549.715000", "102550.175000", "102550.635000", "102551.095000", "102551.555000", "102552.015000", "102552.475000", "102552.935000", "102553.395000", "102553.855000", "102554.315000", "102554.775000", "102555.235000", "102555.695000", "102556.155000", "102556.615000", "102557.075000", "102557.535000", "102557.995000", "102558.455000", "102558.915000", "102559.375000", "102559.835000", "102600.295000", "102600.755000", "102601.215000", "102601.675000", "102602.135000", "102602.595000", "102603.055000", "102603.515000", "102603.975000", "102604.435000", "102604.895000", "102605.355000", "102605.815000", "102606.275000", "102606.735000", "102607.195000", "102607.655000", "102608.115000", "102608.575000", "102609.035000", "102609.495000", "102609.955000", "102610.415000", "102610.875000", "102611.335000", "102611.795000", "102612.255000", "102612.715000", "102613.175000", "102613.635000", "102614.095000", "102614.555000", "102615.015000", "102615.475000", "102615.935000", "102616.395000", "102616.855000", "102617.315000", "102617.775000", "102618.235000", "102618.695000", "102619.155000", "102619.615000", "102620.075000", "102620.535000", "102620.995000", "102621.455000", "102621.915000", "102622.375000", "102622.835000", "102623.295000", "102623.755000", "102624.215000", "102624.675000", "102625.135000", "102625.595000", "102626.055000", "102626.515000", "102626.975000", "102627.435000", "102627.895000", "102628.355000", "102628.815000", "102629.275000", "102629.735000", "102630.195000", "102630.655000", "102631.115000", "102631.575000", "102632.035000", "102632.495000", "102632.955000", "102633.415000", "102633.875000", "102634.335000", "102634.795000", "102635.255000", "102635.715000", "102636.175000", "102636.635000", "102637.095000", "102637.555000", "102638.015000", "102638.475000", "102638.935000", "102639.395000", "102639.855000", "102640.315000", "102640.775000", "102641.235000", "102641.695000", "102642.155000", "102642.615000", "102643.075000", "102643.535000", "102643.995000", "102644.455000", "102644.915000", "102645.375000", "102645.835000", "102646.295000", "102646.755000", "102647.215000", "102647.675000", "102648.135000", "102648.595000", "102649.055000", "102649.515000", "102649.975000", "102650.435000", "102650.895000", "102651.355000", "102651.815000", "102652.275000", "102652.735000", "102653.195000", "102653.655000", "102654.115000", "102654.575000", "102655.035000", "102655.495000", "102655.955000", "102656.415000", "102656.875000", "102657.335000", "102657.795000", "102658.255000", "102658.715000", "102659.175000", "102659.635000", "102700.095000", "102700.555000", "102701.015000", "102701.475000", "102701.935000", "102702.395000", "102702.855000", "102703.315000", "102703.775000", "102704.235000", "102704.695000", "102705.155000", "102705.615000", "102706.075000", "102706.535000", "102706.995000", "102707.455000", "102707.915000", "102708.375000", "102708.835000", "102709.295000", "102709.755000", "102710.215000", "102710.675000", "102711.135000", "102711.595000", "102712.055000", "102712.515000", "102712.975000", "102713.435000", "102713.895000", "102714.355000", "102714.815000", "102715.275000", "102715.735000", "102716.195000", "102716.655000", "102717.115000", "102717.575000", "102718.035000", "102718.495000", "102718.955000", "102719.415000", "102719.875000", "102720.335000", "102720.795000", "102721.255000", "102721.715000", "102722.175000", "102722.635000", "102723.095000", "102723.555000", "102724.015000", "102724.475000", "102724.935000", "102725.395000", "102725.855000", "102726.315000", "102726.775000", "102727.235000", "102727.695000", "102728.155000", "102728.615000", "102729.075000", "102729.535000", "102729.995000", "102730.455000", "102730.915000", "102731.375000", "102731.835000", "102732.295000", "102732.755000", "102733.215000", "102733.675000", "102734.135000", "102734.595000", "102735.055000", "102735.515000", "102735.975000", "102736.435000", "102736.895000", "102737.355000", "102737.815000", "102738.275000", "102738.735000", "102739.195000", "102739.655000", "102740.115000", "102740.575000", "102741.035000", "102741.495000", "102741.955000", "102742.415000", "102742.875000", "102743.335000", "102743.795000", "102744.255000", "102744.715000", "102745.175000", "102745.635000", "102746.095000", "102746.555000", "102747.015000", "102747.475000", "102747.935000", "102748.395000", "102748.855000", "102749.315000", "102749.775000", "102750.235000", "102750.695000", "102751.155000", "102751.615000", "102752.075000", "102752.535000", "102752.995000", "102753.455000", "102753.915000", "102754.375000", "102754.835000", "102755.295000", "102755.755000", "102756.215000", "102756.675000", "102757.135000", "102757.595000", "102758.055000", "102758.515000", "102758.975000", "102759.435000", "102759.895000", "102800.355000", "102800.815000", "102801.275000", "102801.735000", "102802.195000", "102802.655000", "102803.115000", "102803.575000", "102804.035000", "102804.495000", "102804.955000", "102805.415000", "102805.875000", "102806.335000", "102806.795000", "102807.255000", "102807.715000", "102808.175000", "102808.635000", "102809.095000", "102809.555000", "102810.015000", "102810.475000", "102810.935000", "102811.395000", "102811.855000", "102812.315000", "102812.775000", "102813.235000", "102813.695000", "102814.155000", "102814.615000", "102815.075000", "102815.535000", "102815.995000", "102816.455000", "102816.915000", "102817.375000", "102817.835000", "102818.295000", "102818.755000", "102819.215000", "102819.675000", "102820.135000", "102820.595000", "102821.055000", "102821.515000", "102821.975000", "102822.435000", "102822.895000", "102823.355000", "102823.815000", "102824.275000", "102824.735000", "102825.195000", "102825.655000", "102826.115000", "102826.575000", "102827.035000", "102827.495000", "102827.955000", "102828.415000", "102828.875000", "102829.335000", "102829.795000", "102830.255000", "102830.715000", "102831.175000", "102831.635000", "102832.095000", "102832.555000", "102833.015000", "102833.475000", "102833.935000", "102834.395000", "102834.855000", "102835.315000", "102835.775000", "102836.235000", "102836.695000", "102837.155000", "102837.615000", "102838.075000", "102838.535000", "102838.995000", "102839.455000", "102839.915000", "102840.375000", "102840.835000", "102841.295000", "102841.755000", "102842.215000", "102842.675000", "102843.135000", "102843.595000", "102844.055000", "102844.515000", "102844.975000", "102845.435000", "102845.895000", "102846.355000", "102846.815000", "102847.275000", "102847.735000", "102848.195000", "102848.655000", "102849.115000", "102849.575000", "102850.035000", "102850.495000", "102850.955000", "102851.415000", "102851.875000", "102852.335000", "102852.795000", "102853.255000", "102853.715000", "102854.175000", "102854.635000", "102855.095000", "102855.555000", "102856.015000", "102856.475000", "102856.935000", "102857.395000", "102857.855000", "102858.315000", "102858.775000", "102859.235000", "102859.695000", "102900.155000", "102900.615000", "102901.075000", "102901.535000", "102901.995000", "102902.455000", "102902.915000", "102903.375000", "102903.835000", "102904.295000", "102904.755000", "102905.215000", "102905.675000", "102906.135000", "102906.595000", "102907.055000", "102907.515000", "102907.975000", "102908.435000", "102908.895000", "102909.355000", "102909.815000", "102910.275000", "102910.735000", "102911.195000", "102911.655000", "102912.115000", "102912.575000", "102913.035000", "102913.495000", "102913.955000", "102914.415000", "102914.875000", "102915.335000", "102915.795000", "102916.255000", "102916.715000", "102917.175000", "102917.635000", "102918.095000", "102918.555000", "102919.015000", "102919.475000", "102919.935000", "102920.395000", "102920.855000", "102921.315000", "102921.775000", "102922.235000", "102922.695000", "102923.155000"],
