{
  "AcquisitionMatrixPE": 82,
  "AcquisitionNumber": 1,
  "AcquisitionTime": "20:56:23.215000",
  "BandwidthPerPixelPhaseEncode": 24.888,
  "BaseResolution": 82,
  "BodyPartExamined": "BRAIN",
  "ConsistencyInfo": "N4_VE11E_LATEST_20181129",
  "ConversionSoftware": "dcm2niix",
  "ConversionSoftwareVersion": "v1.0.20201102",
  "DerivedVendorReportedEchoSpacing": 0.00049,
  "DeviceSerialNumber": "66112",
  "DwellTime": 2e-06,
  "EchoTime": 0.0272,
  "EchoTrainLength": 82,
  "EffectiveEchoSpacing": 0.00049,
  "FlipAngle": 44,
  "ImageComments": "Unaliased MB8/PE3",
  "ImageOrientationPatientDICOM": [0.997455, -0.00235874, 0.0712637, 0.00139272, 0.999907, 0.0136021],
  "ImageType": [
    "ORIGINAL",
    "PRIMARY",
    "M",
    "MB",
    "ND",
    "NORM",
    "MOSAIC"
],
  "ImagingFrequency": 123.252,
  "InPlanePhaseEncodingDirectionDICOM": "COL",
  "InstitutionAddress": "Maynard 3,Hanover,NH,US,03755",
  "InstitutionName": "Dartmouth College - PBS",
  "InstitutionalDepartmentName": "Department",
  "MRAcquisitionType": "2D",
  "MagneticFieldStrength": 3,
  "Manufacturer": "Siemens",
  "ManufacturersModelName": "Prisma",
  "Modality": "MR",
  "MultibandAccelerationFactor": 8,
  "PartialFourier": 1,
  "PatientPosition": "HFS",
  "PercentPhaseFOV": 100,
  "PercentSampling": 100,
  "PhaseEncodingDirection": "j-",
  "PhaseEncodingSteps": 82,
  "PhaseResolution": 1,
  "PixelBandwidth": 3050,
  "ProcedureStepDescription": "Wager_Wager^1076_spacetop",
  "ProtocolName": "func_run-05_task-social_acq-ap-mb8",
  "PulseSequenceDetails": "%CustomerSeq%\\cmrr_mbep2d_bold",
  "ReceiveCoilActiveElements": "HEA;HEP",
  "ReceiveCoilName": "Head_32",
  "ReconMatrixPE": 82,
  "RepetitionTime": 0.46,
  "SAR": 0.106827,
  "ScanOptions": "FS",
  "ScanningSequence": "EP",
  "SequenceName": "epfid2d1_82",
  "SequenceVariant": "SK\\SS",
  "SeriesDescription": "func_run-05_task-social_acq-ap-mb8",
  "SeriesNumber": 16,
  "ShimSetting": [4156, -7739, -7289, 550, -138, -100, -5, 96],
  "SliceThickness": 2.7,
  "SliceTiming": [0, 0.25, 0.0625, 0.315, 0.125, 0.3775, 0.1875, 0, 0.25, 0.0625, 0.315, 0.125, 0.3775, 0.1875, 0, 0.25, 0.0625, 0.315, 0.125, 0.3775, 0.1875, 0, 0.25, 0.0625, 0.315, 0.125, 0.3775, 0.1875, 0, 0.25, 0.0625, 0.315, 0.125, 0.3775, 0.1875, 0, 0.25, 0.0625, 0.315, 0.125, 0.3775, 0.1875, 0, 0.25, 0.0625, 0.315, 0.125, 0.3775, 0.1875, 0, 0.25, 0.0625, 0.315, 0.125, 0.3775, 0.1875],
  "SoftwareVersions": "syngo MR E11",
  "SpacingBetweenSlices": 2.7,
  "StationName": "AWP66112",
  "TaskName": "social",
  "TotalReadoutTime": 0.03969,
  "TxRefAmp": 276.243,
  "WipMemBlock": "3e676e95-a1b8-4080-99f0-f3352e6bf09b||Sequence: R016 ve11e/master r/434b28f1; Aug  7 2019 18:53:46 by eja",
  "dcmmeta_affine": [
    [-2.676098108291626, 0.0037365765310823917, 0.19248075783252716, 106.93843078613281],
    [0.006328316405415535, 2.682676076889038, 0.03636420890688896, -92.2829818725586],
    [0.19119542837142944, -0.03649343177676201, 2.692884922027588, -80.01366424560547],
    [0.0, 0.0, 0.0, 1.0]
],
  "dcmmeta_reorient_transform": [
    [0.0, -1.0, 0.0, 81.0],
    [1.0, 0.0, 0.0, 0.0],
    [0.0, 0.0, 1.0, 0.0],
    [0.0, 0.0, 0.0, 1.0]
],
  "dcmmeta_shape": [82, 82, 56, 872],
  "dcmmeta_slice_dim": 2,
  "dcmmeta_version": 0.6,
  "global": {
    "const": {
      "AccessionNumber": "A003976",
      "AcquisitionMatrix": [82, 0, 0, 82],
      "AngioFlag": "N",
      "BitsAllocated": 16,
      "BitsStored": 16,
      "BodyPartExamined": "BRAIN",
      "Columns": 656,
      "EchoNumbers": 1,
      "EchoTime": 27.2,
      "EchoTrainLength": 82,
      "FlipAngle": 44.0,
      "HighBit": 15,
      "ImageOrientationPatient": [0.99745471815567, -0.0023587359979, 0.0712637466984, 0.00139272398159, 0.99990651726998, 0.01360209693129],
      "ImagePositionPatient": [-876.35364299086, -893.12559105472, -148.31633595936],
      "ImageType": [
        "ORIGINAL",
        "PRIMARY",
        "M",
        "MB",
        "ND",
        "NORM",
        "MOSAIC"
],
      "ImagedNucleus": "1H",
      "ImagingFrequency": 123.252205,
      "InPlanePhaseEncodingDirection": "COL",
      "MRAcquisitionType": "2D",
      "MagneticFieldStrength": 3.0,
      "Manufacturer": "SIEMENS",
      "ManufacturerModelName": "Prisma",
      "Modality": "MR",
      "NumberOfAverages": 1.0,
      "NumberOfPhaseEncodingSteps": 82,
      "PercentPhaseFieldOfView": 100.0,
      "PercentSampling": 100.0,
      "PerformedProcedureStepStartTime": "201744.659000",
      "PhotometricInterpretation": "MONOCHROME2",
      "PixelBandwidth": 3050.0,
      "PixelRepresentation": 0,
      "PixelSpacing": [2.6829268932343, 2.6829268932343],
      "ProtocolName": "func_run-05_task-social_acq-ap-mb8",
      "RepetitionTime": 460.0,
      "Rows": 656,
      "SAR": 0.10682746588557,
      "SamplesPerPixel": 1,
      "ScanOptions": "FS",
      "ScanningSequence": "EP",
      "SequenceName": "epfid2d1_82",
      "SequenceVariant": [
        "SK",
        "SS"
],
      "SeriesDescription": "func_run-05_task-social_acq-ap-mb8",
      "SeriesNumber": 16,
      "SeriesTime": "205633.870000",
      "SliceLocation": -73.422147601596,
      "SliceThickness": 2.7000000476837,
      "SmallestImagePixelValue": 0,
      "SoftwareVersions": "syngo MR E11",
      "SpacingBetweenSlices": 2.6999999792553,
      "SpecificCharacterSet": "ISO_IR 100",
      "StudyID": "1",
      "StudyTime": "201744.605000",
      "TransmitCoilName": "Body",
      "VariableFlipAngleFlag": "N",
      "WindowCenterWidthExplanation": "Algo1"
    },
    "slices": {}
  },
  "time": {
    "samples": {
      "AcquisitionNumber": [1, 2, 3, 4, 5, 6, 7, 8, 9, 10, 11, 12, 13, 14, 15, 16, 17, 18, 19, 20, 21, 22, 23, 24, 25, 26, 27, 28, 29, 30, 31, 32, 33, 34, 35, 36, 37, 38, 39, 40, 41, 42, 43, 44, 45, 46, 47, 48, 49, 50, 51, 52, 53, 54, 55, 56, 57, 58, 59, 60, 61, 62, 63, 64, 65, 66, 67, 68, 69, 70, 71, 72, 73, 74, 75, 76, 77, 78, 79, 80, 81, 82, 83, 84, 85, 86, 87, 88, 89, 90, 91, 92, 93, 94, 95, 96, 97, 98, 99, 100, 101, 102, 103, 104, 105, 106, 107, 108, 109, 110, 111, 112, 113, 114, 115, 116, 117, 118, 119, 120, 121, 122, 123, 124, 125, 126, 127, 128, 129, 130, 131, 132, 133, 134, 135, 136, 137, 138, 139, 140, 141, 142, 143, 144, 145, 146, 147, 148, 149, 150, 151, 152, 153, 154, 155, 156, 157, 158, 159, 160, 161, 162, 163, 164, 165, 166, 167, 168, 169, 170, 171, 172, 173, 174, 175, 176, 177, 178, 179, 180, 181, 182, 183, 184, 185, 186, 187, 188, 189, 190, 191, 192, 193, 194, 195, 196, 197, 198, 199, 200, 201, 202, 203, 204, 205, 206, 207, 208, 209, 210, 211, 212, 213, 214, 215, 216, 217, 218, 219, 220, 221, 222, 223, 224, 225, 226, 227, 228, 229, 230, 231, 232, 233, 234, 235, 236, 237, 238, 239, 240, 241, 242, 243, 244, 245, 246, 247, 248, 249, 250, 251, 252, 253, 254, 255, 256, 257, 258, 259, 260, 261, 262, 263, 264, 265, 266, 267, 268, 269, 270, 271, 272, 273, 274, 275, 276, 277, 278, 279, 280, 281, 282, 283, 284, 285, 286, 287, 288, 289, 290, 291, 292, 293, 294, 295, 296, 297, 298, 299, 300, 301, 302, 303, 304, 305, 306, 307, 308, 309, 310, 311, 312, 313, 314, 315, 316, 317, 318, 319, 320, 321, 322, 323, 324, 325, 326, 327, 328, 329, 330, 331, 332, 333, 334, 335, 336, 337, 338, 339, 340, 341, 342, 343, 344, 345, 346, 347, 348, 349, 350, 351, 352, 353, 354, 355, 356, 357, 358, 359, 360, 361, 362, 363, 364, 365, 366, 367, 368, 369, 370, 371, 372, 373, 374, 375, 376, 377, 378, 379, 380, 381, 382, 383, 384, 385, 386, 387, 388, 389, 390, 391, 392, 393, 394, 395, 396, 397, 398, 399, 400, 401, 402, 403, 404, 405, 406, 407, 408, 409, 410, 411, 412, 413, 414, 415, 416, 417, 418, 419, 420, 421, 422, 423, 424, 425, 426, 427, 428, 429, 430, 431, 432, 433, 434, 435, 436, 437, 438, 439, 440, 441, 442, 443, 444, 445, 446, 447, 448, 449, 450, 451, 452, 453, 454, 455, 456, 457, 458, 459, 460, 461, 462, 463, 464, 465, 466, 467, 468, 469, 470, 471, 472, 473, 474, 475, 476, 477, 478, 479, 480, 481, 482, 483, 484, 485, 486, 487, 488, 489, 490, 491, 492, 493, 494, 495, 496, 497, 498, 499, 500, 501, 502, 503, 504, 505, 506, 507, 508, 509, 510, 511, 512, 513, 514, 515, 516, 517, 518, 519, 520, 521, 522, 523, 524, 525, 526, 527, 528, 529, 530, 531, 532, 533, 534, 535, 536, 537, 538, 539, 540, 541, 542, 543, 544, 545, 546, 547, 548, 549, 550, 551, 552, 553, 554, 555, 556, 557, 558, 559, 560, 561, 562, 563, 564, 565, 566, 567, 568, 569, 570, 571, 572, 573, 574, 575, 576, 577, 578, 579, 580, 581, 582, 583, 584, 585, 586, 587, 588, 589, 590, 591, 592, 593, 594, 595, 596, 597, 598, 599, 600, 601, 602, 603, 604, 605, 606, 607, 608, 609, 610, 611, 612, 613, 614, 615, 616, 617, 618, 619, 620, 621, 622, 623, 624, 625, 626, 627, 628, 629, 630, 631, 632, 633, 634, 635, 636, 637, 638, 639, 640, 641, 642, 643, 644, 645, 646, 647, 648, 649, 650, 651, 652, 653, 654, 655, 656, 657, 658, 659, 660, 661, 662, 663, 664, 665, 666, 667, 668, 669, 670, 671, 672, 673, 674, 675, 676, 677, 678, 679, 680, 681, 682, 683, 684, 685, 686, 687, 688, 689, 690, 691, 692, 693, 694, 695, 696, 697, 698, 699, 700, 701, 702, 703, 704, 705, 706, 707, 708, 709, 710, 711, 712, 713, 714, 715, 716, 717, 718, 719, 720, 721, 722, 723, 724, 725, 726, 727, 728, 729, 730, 731, 732, 733, 734, 735, 736, 737, 738, 739, 740, 741, 742, 743, 744, 745, 746, 747, 748, 749, 750, 751, 752, 753, 754, 755, 756, 757, 758, 759, 760, 761, 762, 763, 764, 765, 766, 767, 768, 769, 770, 771, 772, 773, 774, 775, 776, 777, 778, 779, 780, 781, 782, 783, 784, 785, 786, 787, 788, 789, 790, 791, 792, 793, 794, 795, 796, 797, 798, 799, 800, 801, 802, 803, 804, 805, 806, 807, 808, 809, 810, 811, 812, 813, 814, 815, 816, 817, 818, 819, 820, 821, 822, 823, 824, 825, 826, 827, 828, 829, 830, 831, 832, 833, 834, 835, 836, 837, 838, 839, 840, 841, 842, 843, 844, 845, 846, 847, 848, 849, 850, 851, 852, 853, 854, 855, 856, 857, 858, 859, 860, 861, 862, 863, 864, 865, 866, 867, 868, 869, 870, 871, 872],
      "AcquisitionTime": ["205623.215000", "205623.675000", "205624.135000", "205624.595000", "205625.055000", "205625.515000", "205625.975000", "205626.435000", "205626.895000", "205627.355000", "205627.815000", "205628.275000", "205628.735000", "205629.195000", "205629.655000", "205630.115000", "205630.575000", "205631.035000", "205631.495000", "205631.955000", "205632.415000", "205632.875000", "205633.335000", "205633.795000", "205634.255000", "205634.715000", "205635.175000", "205635.635000", "205636.095000", "205636.555000", "205637.015000", "205637.475000", "205637.935000", "205638.395000", "205638.855000", "205639.315000", "205639.775000", "205640.235000", "205640.695000", "205641.155000", "205641.615000", "205642.075000", "205642.535000", "205642.995000", "205643.455000", "205643.915000", "205644.375000", "205644.835000", "205645.295000", "205645.755000", "205646.215000", "205646.675000", "205647.135000", "205647.595000", "205648.055000", "205648.515000", "205648.975000", "205649.435000", "205649.895000", "205650.355000", "205650.815000", "205651.275000", "205651.735000", "205652.195000", "205652.655000", "205653.115000", "205653.575000", "205654.035000", "205654.495000", "205654.955000", "205655.415000", "205655.875000", "205656.335000", "205656.795000", "205657.255000", "205657.715000", "205658.175000", "205658.635000", "205659.095000", "205659.555000", "205700.015000", "205700.475000", "205700.935000", "205701.395000", "205701.855000", "205702.315000", "205702.775000", "205703.235000", "205703.695000", "205704.155000", "205704.615000", "205705.075000", "205705.535000", "205705.995000", "205706.455000", "205706.915000", "205707.375000", "205707.835000", "205708.295000", "205708.755000", "205709.215000", "205709.675000", "205710.135000", "205710.595000", "205711.055000", "205711.515000", "205711.975000", "205712.435000", "205712.895000", "205713.355000", "205713.815000", "205714.275000", "205714.735000", "205715.195000", "205715.655000", "205716.115000", "205716.575000", "205717.035000", "205717.495000", "205717.955000", "205718.415000", "205718.875000", "205719.335000", "205719.795000", "205720.255000", "205720.715000", "205721.175000", "205721.635000", "205722.095000", "205722.555000", "205723.015000", "205723.475000", "205723.935000", "205724.395000", "205724.855000", "205725.315000", "205725.775000", "205726.235000", "205726.695000", "205727.155000", "205727.615000", "205728.075000", "205728.535000", "205728.995000", "205729.455000", "205729.915000", "205730.375000", "205730.835000", "205731.295000", "205731.755000", "205732.215000", "205732.675000", "205733.135000", "205733.595000", "205734.055000", "205734.515000", "205734.975000", "205735.435000", "205735.895000", "205736.355000", "205736.815000", "205737.275000", "205737.735000", "205738.195000", "205738.655000", "205739.115000", "205739.575000", "205740.035000", "205740.495000", "205740.955000", "205741.415000", "205741.875000", "205742.335000", "205742.795000", "205743.255000", "205743.715000", "205744.175000", "205744.635000", "205745.095000", "205745.555000", "205746.015000", "205746.475000", "205746.935000", "205747.395000", "205747.855000", "205748.315000", "205748.775000", "205749.235000", "205749.695000", "205750.155000", "205750.615000", "205751.075000", "205751.535000", "205751.995000", "205752.455000", "205752.915000", "205753.375000", "205753.835000", "205754.295000", "205754.755000", "205755.215000", "205755.675000", "205756.135000", "205756.595000", "205757.055000", "205757.515000", "205757.975000", "205758.435000", "205758.895000", "205759.355000", "205759.815000", "205800.275000", "205800.735000", "205801.195000", "205801.655000", "205802.115000", "205802.575000", "205803.035000", "205803.495000", "205803.955000", "205804.415000", "205804.875000", "205805.335000", "205805.795000", "205806.255000", "205806.715000", "205807.175000", "205807.635000", "205808.095000", "205808.555000", "205809.015000", "205809.475000", "205809.935000", "205810.395000", "205810.855000", "205811.315000", "205811.775000", "205812.235000", "205812.695000", "205813.155000", "205813.615000", "205814.075000", "205814.535000", "205814.995000", "205815.455000", "205815.915000", "205816.375000", "205816.835000", "205817.295000", "205817.755000", "205818.215000", "205818.675000", "205819.135000", "205819.595000", "205820.055000", "205820.515000", "205820.975000", "205821.435000", "205821.895000", "205822.355000", "205822.815000", "205823.275000", "205823.735000", "205824.195000", "205824.655000", "205825.115000", "205825.575000", "205826.035000", "205826.495000", "205826.955000", "205827.415000", "205827.875000", "205828.335000", "205828.795000", "205829.255000", "205829.715000", "205830.175000", "205830.635000", "205831.095000", "205831.555000", "205832.015000", "205832.475000", "205832.935000", "205833.395000", "205833.855000", "205834.315000", "205834.775000", "205835.235000", "205835.695000", "205836.155000", "205836.615000", "205837.075000", "205837.535000", "205837.995000", "205838.455000", "205838.915000", "205839.375000", "205839.835000", "205840.295000", "205840.755000", "205841.215000", "205841.675000", "205842.135000", "205842.595000", "205843.055000", "205843.515000", "205843.975000", "205844.435000", "205844.895000", "205845.355000", "205845.815000", "205846.275000", "205846.735000", "205847.195000", "205847.655000", "205848.115000", "205848.575000", "205849.035000", "205849.495000", "205849.955000", "205850.415000", "205850.875000", "205851.335000", "205851.795000", "205852.255000", "205852.715000", "205853.175000", "205853.635000", "205854.095000", "205854.555000", "205855.015000", "205855.475000", "205855.935000", "205856.395000", "205856.855000", "205857.315000", "205857.775000", "205858.235000", "205858.695000", "205859.155000", "205859.615000", "205900.075000", "205900.535000", "205900.995000", "205901.455000", "205901.915000", "205902.375000", "205902.835000", "205903.295000", "205903.755000", "205904.215000", "205904.675000", "205905.135000", "205905.595000", "205906.055000", "205906.515000", "205906.975000", "205907.435000", "205907.895000", "205908.355000", "205908.815000", "205909.275000", "205909.735000", "205910.195000", "205910.655000", "205911.115000", "205911.575000", "205912.035000", "205912.495000", "205912.955000", "205913.415000", "205913.875000", "205914.335000", "205914.795000", "205915.255000", "205915.715000", "205916.175000", "205916.635000", "205917.095000", "205917.555000", "205918.015000", "205918.475000", "205918.935000", "205919.395000", "205919.855000", "205920.315000", "205920.775000", "205921.235000", "205921.695000", "205922.155000", "205922.615000", "205923.075000", "205923.535000", "205923.995000", "205924.455000", "205924.915000", "205925.375000", "205925.835000", "205926.295000", "205926.755000", "205927.215000", "205927.675000", "205928.135000", "205928.595000", "205929.055000", "205929.515000", "205929.975000", "205930.435000", "205930.895000", "205931.355000", "205931.815000", "205932.275000", "205932.735000", "205933.195000", "205933.655000", "205934.115000", "205934.575000", "205935.035000", "205935.495000", "205935.955000", "205936.415000", "205936.875000", "205937.335000", "205937.795000", "205938.255000", "205938.715000", "205939.175000", "205939.635000", "205940.095000", "205940.555000", "205941.015000", "205941.475000", "205941.935000", "205942.395000", "205942.855000", "205943.315000", "205943.775000", "205944.235000", "205944.695000", "205945.155000", "205945.615000", "205946.075000", "205946.535000", "205946.995000", "205947.455000", "205947.915000", "205948.375000", "205948.835000", "205949.295000", "205949.755000", "205950.215000", "205950.675000", "205951.135000", "205951.595000", "205952.055000", "205952.515000", "205952.975000", "205953.435000", "205953.895000", "205954.355000", "205954.815000", "205955.275000", "205955.735000", "205956.195000", "205956.655000", "205957.115000", "205957.575000", "205958.035000", "205958.495000", "205958.955000", "205959.415000", "205959.875000", "210000.335000", "210000.795000", "210001.255000", "210001.715000", "210002.175000", "210002.635000", "210003.095000", "210003.555000", "210004.015000", "210004.475000", "210004.935000", "210005.395000", "210005.855000", "210006.315000", "210006.775000", "210007.235000", "210007.695000", "210008.155000", "210008.615000", "210009.075000", "210009.535000", "210009.995000", "210010.455000", "210010.915000", "210011.375000", "210011.835000", "210012.295000", "210012.755000", "210013.215000", "210013.675000", "210014.135000", "210014.595000", "210015.055000", "210015.515000", "210015.975000", "210016.435000", "210016.895000", "210017.355000", "210017.815000", "210018.275000", "210018.735000", "210019.195000", "210019.655000", "210020.115000", "210020.575000", "210021.035000", "210021.495000", "210021.955000", "210022.415000", "210022.875000", "210023.335000", "210023.795000", "210024.255000", "210024.715000", "210025.175000", "210025.635000", "210026.095000", "210026.555000", "210027.015000", "210027.475000", "210027.935000", "210028.395000", "210028.855000", "210029.315000", "210029.775000", "210030.235000", "210030.695000", "210031.155000", "210031.615000", "210032.075000", "210032.535000", "210032.995000", "210033.455000", "210033.915000", "210034.375000", "210034.835000", "210035.295000", "210035.755000", "210036.215000", "210036.675000", "210037.135000", "210037.595000", "210038.055000", "210038.515000", "210038.975000", "210039.435000", "210039.895000", "210040.355000", "210040.815000", "210041.275000", "210041.735000", "210042.195000", "210042.655000", "210043.115000", "210043.575000", "210044.035000", "210044.495000", "210044.955000", "210045.415000", "210045.875000", "210046.335000", "210046.795000", "210047.255000", "210047.715000", "210048.175000", "210048.635000", "210049.095000", "210049.555000", "210050.015000", "210050.475000", "210050.935000", "210051.395000", "210051.855000", "210052.315000", "210052.775000", "210053.235000", "210053.695000", "210054.155000", "210054.615000", "210055.075000", "210055.535000", "210055.995000", "210056.455000", "210056.915000", "210057.375000", "210057.835000", "210058.295000", "210058.755000", "210059.215000", "210059.675000", "210100.135000", "210100.595000", "210101.055000", "210101.515000", "210101.975000", "210102.435000", "210102.895000", "210103.355000", "210103.815000", "210104.275000", "210104.735000", "210105.195000", "210105.655000", "210106.115000", "210106.575000", "210107.035000", "210107.495000", "210107.955000", "210108.415000", "210108.875000", "210109.335000", "210109.795000", "210110.255000", "210110.715000", "210111.175000", "210111.635000", "210112.095000", "210112.555000", "210113.015000", "210113.475000", "210113.935000", "210114.395000", "210114.855000", "210115.315000", "210115.775000", "210116.235000", "210116.695000", "210117.155000", "210117.615000", "210118.075000", "210118.535000", "210118.995000", "210119.455000", "210119.915000", "210120.375000", "210120.835000", "210121.295000", "210121.755000", "210122.215000", "210122.675000", "210123.135000", "210123.595000", "210124.055000", "210124.515000", "210124.975000", "210125.435000", "210125.895000", "210126.355000", "210126.815000", "210127.275000", "210127.735000", "210128.195000", "210128.655000", "210129.115000", "210129.575000", "210130.035000", "210130.495000", "210130.955000", "210131.415000", "210131.875000", "210132.335000", "210132.795000", "210133.255000", "210133.715000", "210134.175000", "210134.635000", "210135.095000", "210135.555000", "210136.015000", "210136.475000", "210136.935000", "210137.395000", "210137.855000", "210138.315000", "210138.775000", "210139.235000", "210139.695000", "210140.155000", "210140.615000", "210141.075000", "210141.535000", "210141.995000", "210142.455000", "210142.915000", "210143.375000", "210143.835000", "210144.295000", "210144.755000", "210145.215000", "210145.675000", "210146.135000", "210146.595000", "210147.055000", "210147.515000", "210147.975000", "210148.435000", "210148.895000", "210149.355000", "210149.815000", "210150.275000", "210150.735000", "210151.195000", "210151.655000", "210152.115000", "210152.575000", "210153.035000", "210153.495000", "210153.955000", "210154.415000", "210154.875000", "210155.335000", "210155.795000", "210156.255000", "210156.715000", "210157.175000", "210157.635000", "210158.095000", "210158.555000", "210159.015000", "210159.475000", "210159.935000", "210200.395000", "210200.855000", "210201.315000", "210201.775000", "210202.235000", "210202.695000", "210203.155000", "210203.615000", "210204.075000", "210204.535000", "210204.995000", "210205.455000", "210205.915000", "210206.375000", "210206.835000", "210207.295000", "210207.755000", "210208.215000", "210208.675000", "210209.135000", "210209.595000", "210210.055000", "210210.515000", "210210.975000", "210211.435000", "210211.895000", "210212.355000", "210212.815000", "210213.275000", "210213.735000", "210214.195000", "210214.655000", "210215.115000", "210215.575000", "210216.035000", "210216.495000", "210216.955000", "210217.415000", "210217.875000", "210218.335000", "210218.795000", "210219.255000", "210219.715000", "210220.175000", "210220.635000", "210221.095000", "210221.555000", "210222.015000", "210222.475000", "210222.935000", "210223.395000", "210223.855000", "210224.315000", "210224.775000", "210225.235000", "210225.695000", "210226.155000", "210226.615000", "210227.075000", "210227.535000", "210227.995000", "210228.455000", "210228.915000", "210229.375000", "210229.835000", "210230.295000", "210230.755000", "210231.215000", "210231.675000", "210232.135000", "210232.595000", "210233.055000", "210233.515000", "210233.975000", "210234.435000", "210234.895000", "210235.355000", "210235.815000", "210236.275000", "210236.735000", "210237.195000", "210237.655000", "210238.115000", "210238.575000", "210239.035000", "210239.495000", "210239.955000", "210240.415000", "210240.875000", "210241.335000", "210241.795000", "210242.255000", "210242.715000", "210243.175000", "210243.635000", "210244.095000", "210244.555000", "210245.015000", "210245.475000", "210245.935000", "210246.395000", "210246.855000", "210247.315000", "210247.775000", "210248.235000", "210248.695000", "210249.155000", "210249.615000", "210250.075000", "210250.535000", "210250.995000", "210251.455000", "210251.915000", "210252.375000", "210252.835000", "210253.295000", "210253.755000", "210254.215000", "210254.675000", "210255.135000", "210255.595000", "210256.055000", "210256.515000", "210256.975000", "210257.435000", "210257.895000", "210258.355000", "210258.815000", "210259.275000", "210259.735000", "210300.195000", "210300.655000", "210301.115000", "210301.575000", "210302.035000", "210302.495000", "210302.955000", "210303.415000", "210303.875000"],
