{
  "AcquisitionMatrixPE": 82,
  "AcquisitionNumber": 1,
  "AcquisitionTime": "21:12:32.720000",
  "BandwidthPerPixelPhaseEncode": 24.888,
  "BaseResolution": 82,
  "BodyPartExamined": "BRAIN",
  "ConsistencyInfo": "N4_VE11E_LATEST_20181129",
  "ConversionSoftware": "dcm2niix",
  "ConversionSoftwareVersion": "v1.0.20201102",
  "DerivedVendorReportedEchoSpacing": 0.00049,
  "DeviceSerialNumber": "66112",
  "DwellTime": 2e-06,
  "EchoTime": 0.0272,
  "EchoTrainLength": 82,
  "EffectiveEchoSpacing": 0.00049,
  "FlipAngle": 44,
  "ImageComments": "Unaliased MB8/PE3",
  "ImageOrientationPatientDICOM": [0.998704, 0.00562451, 0.0505862, -0.00557786, 0.999984, -0.00106332],
  "ImageType": [
    "ORIGINAL",
    "PRIMARY",
    "M",
    "MB",
    "ND",
    "NORM",
    "MOSAIC"
],
  "ImagingFrequency": 123.252,
  "InPlanePhaseEncodingDirectionDICOM": "COL",
  "InstitutionAddress": "Maynard 3,Hanover,NH,US,03755",
  "InstitutionName": "Dartmouth College - PBS",
  "InstitutionalDepartmentName": "Department",
  "MRAcquisitionType": "2D",
  "MagneticFieldStrength": 3,
  "Manufacturer": "Siemens",
  "ManufacturersModelName": "Prisma",
  "Modality": "MR",
  "MultibandAccelerationFactor": 8,
  "PartialFourier": 1,
  "PatientPosition": "HFS",
  "PercentPhaseFOV": 100,
  "PercentSampling": 100,
  "PhaseEncodingDirection": "j-",
  "PhaseEncodingSteps": 82,
  "PhaseResolution": 1,
  "PixelBandwidth": 3050,
  "ProcedureStepDescription": "Wager_Wager^1076_spacetop",
  "ProtocolName": "func_run-01_task-alignvideo_acq-ap-mb8",
  "PulseSequenceDetails": "%CustomerSeq%\\cmrr_mbep2d_bold",
  "ReceiveCoilActiveElements": "HEA;HEP",
  "ReceiveCoilName": "Head_32",
  "ReconMatrixPE": 82,
  "RepetitionTime": 0.46,
  "SAR": 0.106952,
  "ScanOptions": "FS",
  "ScanningSequence": "EP",
  "SequenceName": "epfid2d1_82",
  "SequenceVariant": "SK\\SS",
  "SeriesDescription": "func_run-01_task-alignvideo_acq-ap-mb8",
  "SeriesNumber": 26,
  "ShimSetting": [4156, -7738, -7287, 557, -140, -98, -8, 96],
  "SliceThickness": 2.7,
  "SliceTiming": [0, 0.2525, 0.0625, 0.315, 0.125, 0.3775, 0.1875, 0, 0.2525, 0.0625, 0.315, 0.125, 0.3775, 0.1875, 0, 0.2525, 0.0625, 0.315, 0.125, 0.3775, 0.1875, 0, 0.2525, 0.0625, 0.315, 0.125, 0.3775, 0.1875, 0, 0.2525, 0.0625, 0.315, 0.125, 0.3775, 0.1875, 0, 0.2525, 0.0625, 0.315, 0.125, 0.3775, 0.1875, 0, 0.2525, 0.0625, 0.315, 0.125, 0.3775, 0.1875, 0, 0.2525, 0.0625, 0.315, 0.125, 0.3775, 0.1875],
  "SoftwareVersions": "syngo MR E11",
  "SpacingBetweenSlices": 2.7,
  "StationName": "AWP66112",
  "TaskName": "alignvideo",
  "TotalReadoutTime": 0.03969,
  "TxRefAmp": 276.243,
  "WipMemBlock": "309d7c5c-a39d-4c9e-9137-8098ac60b818||Sequence: R016 ve11e/master r/434b28f1; Aug  7 2019 18:53:46 by eja",
  "dcmmeta_affine": [
    [-2.6794495582580566, -0.014964992180466652, 0.13659675419330597, 108.63121795654297],
    [-0.015090151689946651, 2.6828837394714355, -0.002105412073433399, -90.7640380859375],
    [0.1357191503047943, 0.0028528189286589622, 2.6965415477752686, -78.70794677734375],
    [0.0, 0.0, 0.0, 1.0]
],
  "dcmmeta_reorient_transform": [
    [0.0, -1.0, 0.0, 81.0],
    [1.0, 0.0, 0.0, 0.0],
    [0.0, 0.0, 1.0, 0.0],
    [0.0, 0.0, 0.0, 1.0]
],
  "dcmmeta_shape": [82, 82, 56, 1073],
  "dcmmeta_slice_dim": 2,
  "dcmmeta_version": 0.6,
  "global": {
    "const": {
      "AccessionNumber": "A003976",
      "AcquisitionMatrix": [82, 0, 0, 82],
      "AngioFlag": "N",
      "BitsAllocated": 16,
      "BitsStored": 16,
      "BodyPartExamined": "BRAIN",
      "Columns": 656,
      "EchoNumbers": 1,
      "EchoTime": 27.2,
      "EchoTrainLength": 82,
      "FlipAngle": 44.0,
      "HighBit": 15,
      "ImageOrientationPatient": [0.99870385923576, 0.00562451092718, 0.05058622761616, -0.0055778604232, 0.99998387827827, -0.0010633233992],
      "ImagePositionPatient": [-872.12609179019, -900.86801125006, -116.60950703068],
      "ImageType": [
        "ORIGINAL",
        "PRIMARY",
        "M",
        "MB",
        "ND",
        "NORM",
        "MOSAIC"
],
      "ImagedNucleus": "1H",
      "ImagingFrequency": 123.252208,
      "InPlanePhaseEncodingDirection": "COL",
      "MRAcquisitionType": "2D",
      "MagneticFieldStrength": 3.0,
      "Manufacturer": "SIEMENS",
      "ManufacturerModelName": "Prisma",
      "Modality": "MR",
      "NumberOfAverages": 1.0,
      "NumberOfPhaseEncodingSteps": 82,
      "PercentPhaseFieldOfView": 100.0,
      "PercentSampling": 100.0,
      "PerformedProcedureStepStartTime": "201744.659000",
      "PhotometricInterpretation": "MONOCHROME2",
      "PixelBandwidth": 3050.0,
      "PixelRepresentation": 0,
      "PixelSpacing": [2.6829268932343, 2.6829268932343],
      "ProtocolName": "func_run-01_task-alignvideo_acq-ap-mb8",
      "RepetitionTime": 460.0,
      "Rows": 656,
      "SAR": 0.10695205522137,
      "SamplesPerPixel": 1,
      "ScanOptions": "FS",
      "ScanningSequence": "EP",
      "SequenceName": "epfid2d1_82",
      "SequenceVariant": [
        "SK",
        "SS"
],
      "SeriesDescription": "func_run-01_task-alignvideo_acq-ap-mb8",
      "SeriesNumber": 26,
      "SeriesTime": "211253.771000",
      "SliceLocation": -73.040552803821,
      "SliceThickness": 2.7000000476837,
      "SmallestImagePixelValue": 0,
      "SoftwareVersions": "syngo MR E11",
      "SpacingBetweenSlices": 2.7000000104506,
      "SpecificCharacterSet": "ISO_IR 100",
      "StudyID": "1",
      "StudyTime": "201744.605000",
      "TransmitCoilName": "Body",
      "VariableFlipAngleFlag": "N",
      "WindowCenterWidthExplanation": "Algo1"
    },
    "slices": {}
  },
  "time": {
    "samples": {
      "AcquisitionNumber": [1, 2, 3, 4, 5, 6, 7, 8, 9, 10, 11, 12, 13, 14, 15, 16, 17, 18, 19, 20, 21, 22, 23, 24, 25, 26, 27, 28, 29, 30, 31, 32, 33, 34, 35, 36, 37, 38, 39, 40, 41, 42, 43, 44, 45, 46, 47, 48, 49, 50, 51, 52, 53, 54, 55, 56, 57, 58, 59, 60, 61, 62, 63, 64, 65, 66, 67, 68, 69, 70, 71, 72, 73, 74, 75, 76, 77, 78, 79, 80, 81, 82, 83, 84, 85, 86, 87, 88, 89, 90, 91, 92, 93, 94, 95, 96, 97, 98, 99, 100, 101, 102, 103, 104, 105, 106, 107, 108, 109, 110, 111, 112, 113, 114, 115, 116, 117, 118, 119, 120, 121, 122, 123, 124, 125, 126, 127, 128, 129, 130, 131, 132, 133, 134, 135, 136, 137, 138, 139, 140, 141, 142, 143, 144, 145, 146, 147, 148, 149, 150, 151, 152, 153, 154, 155, 156, 157, 158, 159, 160, 161, 162, 163, 164, 165, 166, 167, 168, 169, 170, 171, 172, 173, 174, 175, 176, 177, 178, 179, 180, 181, 182, 183, 184, 185, 186, 187, 188, 189, 190, 191, 192, 193, 194, 195, 196, 197, 198, 199, 200, 201, 202, 203, 204, 205, 206, 207, 208, 209, 210, 211, 212, 213, 214, 215, 216, 217, 218, 219, 220, 221, 222, 223, 224, 225, 226, 227, 228, 229, 230, 231, 232, 233, 234, 235, 236, 237, 238, 239, 240, 241, 242, 243, 244, 245, 246, 247, 248, 249, 250, 251, 252, 253, 254, 255, 256, 257, 258, 259, 260, 261, 262, 263, 264, 265, 266, 267, 268, 269, 270, 271, 272, 273, 274, 275, 276, 277, 278, 279, 280, 281, 282, 283, 284, 285, 286, 287, 288, 289, 290, 291, 292, 293, 294, 295, 296, 297, 298, 299, 300, 301, 302, 303, 304, 305, 306, 307, 308, 309, 310, 311, 312, 313, 314, 315, 316, 317, 318, 319, 320, 321, 322, 323, 324, 325, 326, 327, 328, 329, 330, 331, 332, 333, 334, 335, 336, 337, 338, 339, 340, 341, 342, 343, 344, 345, 346, 347, 348, 349, 350, 351, 352, 353, 354, 355, 356, 357, 358, 359, 360, 361, 362, 363, 364, 365, 366, 367, 368, 369, 370, 371, 372, 373, 374, 375, 376, 377, 378, 379, 380, 381, 382, 383, 384, 385, 386, 387, 388, 389, 390, 391, 392, 393, 394, 395, 396, 397, 398, 399, 400, 401, 402, 403, 404, 405, 406, 407, 408, 409, 410, 411, 412, 413, 414, 415, 416, 417, 418, 419, 420, 421, 422, 423, 424, 425, 426, 427, 428, 429, 430, 431, 432, 433, 434, 435, 436, 437, 438, 439, 440, 441, 442, 443, 444, 445, 446, 447, 448, 449, 450, 451, 452, 453, 454, 455, 456, 457, 458, 459, 460, 461, 462, 463, 464, 465, 466, 467, 468, 469, 470, 471, 472, 473, 474, 475, 476, 477, 478, 479, 480, 481, 482, 483, 484, 485, 486, 487, 488, 489, 490, 491, 492, 493, 494, 495, 496, 497, 498, 499, 500, 501, 502, 503, 504, 505, 506, 507, 508, 509, 510, 511, 512, 513, 514, 515, 516, 517, 518, 519, 520, 521, 522, 523, 524, 525, 526, 527, 528, 529, 530, 531, 532, 533, 534, 535, 536, 537, 538, 539, 540, 541, 542, 543, 544, 545, 546, 547, 548, 549, 550, 551, 552, 553, 554, 555, 556, 557, 558, 559, 560, 561, 562, 563, 564, 565, 566, 567, 568, 569, 570, 571, 572, 573, 574, 575, 576, 577, 578, 579, 580, 581, 582, 583, 584, 585, 586, 587, 588, 589, 590, 591, 592, 593, 594, 595, 596, 597, 598, 599, 600, 601, 602, 603, 604, 605, 606, 607, 608, 609, 610, 611, 612, 613, 614, 615, 616, 617, 618, 619, 620, 621, 622, 623, 624, 625, 626, 627, 628, 629, 630, 631, 632, 633, 634, 635, 636, 637, 638, 639, 640, 641, 642, 643, 644, 645, 646, 647, 648, 649, 650, 651, 652, 653, 654, 655, 656, 657, 658, 659, 660, 661, 662, 663, 664, 665, 666, 667, 668, 669, 670, 671, 672, 673, 674, 675, 676, 677, 678, 679, 680, 681, 682, 683, 684, 685, 686, 687, 688, 689, 690, 691, 692, 693, 694, 695, 696, 697, 698, 699, 700, 701, 702, 703, 704, 705, 706, 707, 708, 709, 710, 711, 712, 713, 714, 715, 716, 717, 718, 719, 720, 721, 722, 723, 724, 725, 726, 727, 728, 729, 730, 731, 732, 733, 734, 735, 736, 737, 738, 739, 740, 741, 742, 743, 744, 745, 746, 747, 748, 749, 750, 751, 752, 753, 754, 755, 756, 757, 758, 759, 760, 761, 762, 763, 764, 765, 766, 767, 768, 769, 770, 771, 772, 773, 774, 775, 776, 777, 778, 779, 780, 781, 782, 783, 784, 785, 786, 787, 788, 789, 790, 791, 792, 793, 794, 795, 796, 797, 798, 799, 800, 801, 802, 803, 804, 805, 806, 807, 808, 809, 810, 811, 812, 813, 814, 815, 816, 817, 818, 819, 820, 821, 822, 823, 824, 825, 826, 827, 828, 829, 830, 831, 832, 833, 834, 835, 836, 837, 838, 839, 840, 841, 842, 843, 844, 845, 846, 847, 848, 849, 850, 851, 852, 853, 854, 855, 856, 857, 858, 859, 860, 861, 862, 863, 864, 865, 866, 867, 868, 869, 870, 871, 872, 873, 874, 875, 876, 877, 878, 879, 880, 881, 882, 883, 884, 885, 886, 887, 888, 889, 890, 891, 892, 893, 894, 895, 896, 897, 898, 899, 900, 901, 902, 903, 904, 905, 906, 907, 908, 909, 910, 911, 912, 913, 914, 915, 916, 917, 918, 919, 920, 921, 922, 923, 924, 925, 926, 927, 928, 929, 930, 931, 932, 933, 934, 935, 936, 937, 938, 939, 940, 941, 942, 943, 944, 945, 946, 947, 948, 949, 950, 951, 952, 953, 954, 955, 956, 957, 958, 959, 960, 961, 962, 963, 964, 965, 966, 967, 968, 969, 970, 971, 972, 973, 974, 975, 976, 977, 978, 979, 980, 981, 982, 983, 984, 985, 986, 987, 988, 989, 990, 991, 992, 993, 994, 995, 996, 997, 998, 999, 1000, 1001, 1002, 1003, 1004, 1005, 1006, 1007, 1008, 1009, 1010, 1011, 1012, 1013, 1014, 1015, 1016, 1017, 1018, 1019, 1020, 1021, 1022, 1023, 1024, 1025, 1026, 1027, 1028, 1029, 1030, 1031, 1032, 1033, 1034, 1035, 1036, 1037, 1038, 1039, 1040, 1041, 1042, 1043, 1044, 1045, 1046, 1047, 1048, 1049, 1050, 1051, 1052, 1053, 1054, 1055, 1056, 1057, 1058, 1059, 1060, 1061, 1062, 1063, 1064, 1065, 1066, 1067, 1068, 1069, 1070, 1071, 1072, 1073],
      "AcquisitionTime": ["211232.720000", "211233.180000", "211233.640000", "211234.100000", "211234.560000", "211235.020000", "211235.480000", "211235.940000", "211236.400000", "211236.860000", "211237.320000", "211237.780000", "211238.240000", "211238.700000", "211239.160000", "211239.620000", "211240.080000", "211240.540000", "211241.000000", "211241.460000", "211241.920000", "211242.380000", "211242.840000", "211243.300000", "211243.760000", "211244.220000", "211244.680000", "211245.140000", "211245.600000", "211246.060000", "211246.520000", "211246.980000", "211247.440000", "211247.900000", "211248.360000", "211248.820000", "211249.280000", "211249.740000", "211250.200000", "211250.660000", "211251.120000", "211251.580000", "211252.040000", "211252.500000", "211252.960000", "211253.420000", "211253.880000", "211254.340000", "211254.800000", "211255.260000", "211255.720000", "211256.180000", "211256.640000", "211257.100000", "211257.560000", "211258.020000", "211258.480000", "211258.940000", "211259.400000", "211259.860000", "211300.320000", "211300.780000", "211301.240000", "211301.700000", "211302.160000", "211302.620000", "211303.080000", "211303.540000", "211304.000000", "211304.460000", "211304.920000", "211305.380000", "211305.840000", "211306.300000", "211306.760000", "211307.220000", "211307.680000", "211308.140000", "211308.600000", "211309.060000", "211309.520000", "211309.980000", "211310.440000", "211310.900000", "211311.360000", "211311.820000", "211312.280000", "211312.740000", "211313.200000", "211313.660000", "211314.120000", "211314.580000", "211315.040000", "211315.500000", "211315.960000", "211316.420000", "211316.880000", "211317.340000", "211317.800000", "211318.260000", "211318.720000", "211319.180000", "211319.640000", "211320.100000", "211320.560000", "211321.020000", "211321.480000", "211321.940000", "211322.400000", "211322.860000", "211323.320000", "211323.780000", "211324.240000", "211324.700000", "211325.160000", "211325.620000", "211326.080000", "211326.540000", "211327.000000", "211327.460000", "211327.920000", "211328.380000", "211328.840000", "211329.300000", "211329.760000", "211330.220000", "211330.680000", "211331.140000", "211331.600000", "211332.060000", "211332.520000", "211332.980000", "211333.440000", "211333.900000", "211334.360000", "211334.820000", "211335.280000", "211335.740000", "211336.200000", "211336.660000", "211337.120000", "211337.580000", "211338.040000", "211338.500000", "211338.960000", "211339.420000", "211339.880000", "211340.340000", "211340.800000", "211341.260000", "211341.720000", "211342.180000", "211342.640000", "211343.100000", "211343.560000", "211344.020000", "211344.480000", "211344.940000", "211345.400000", "211345.860000", "211346.320000", "211346.780000", "211347.240000", "211347.700000", "211348.160000", "211348.620000", "211349.080000", "211349.540000", "211350.000000", "211350.460000", "211350.920000", "211351.380000", "211351.840000", "211352.300000", "211352.760000", "211353.220000", "211353.680000", "211354.140000", "211354.600000", "211355.060000", "211355.520000", "211355.980000", "211356.440000", "211356.900000", "211357.360000", "211357.820000", "211358.280000", "211358.740000", "211359.200000", "211359.660000", "211400.120000", "211400.580000", "211401.040000", "211401.500000", "211401.960000", "211402.420000", "211402.880000", "211403.340000", "211403.800000", "211404.260000", "211404.720000", "211405.180000", "211405.640000", "211406.100000", "211406.560000", "211407.020000", "211407.480000", "211407.940000", "211408.400000", "211408.860000", "211409.320000", "211409.780000", "211410.240000", "211410.700000", "211411.160000", "211411.620000", "211412.080000", "211412.540000", "211413.000000", "211413.460000", "211413.920000", "211414.380000", "211414.840000", "211415.300000", "211415.760000", "211416.220000", "211416.680000", "211417.140000", "211417.600000", "211418.060000", "211418.520000", "211418.980000", "211419.440000", "211419.900000", "211420.360000", "211420.820000", "211421.280000", "211421.740000", "211422.200000", "211422.660000", "211423.120000", "211423.580000", "211424.040000", "211424.500000", "211424.960000", "211425.420000", "211425.880000", "211426.340000", "211426.800000", "211427.260000", "211427.720000", "211428.180000", "211428.640000", "211429.100000", "211429.560000", "211430.020000", "211430.480000", "211430.940000", "211431.400000", "211431.860000", "211432.320000", "211432.780000", "211433.240000", "211433.700000", "211434.160000", "211434.620000", "211435.080000", "211435.540000", "211436.000000", "211436.460000", "211436.920000", "211437.380000", "211437.840000", "211438.300000", "211438.760000", "211439.220000", "211439.680000", "211440.140000", "211440.600000", "211441.060000", "211441.520000", "211441.980000", "211442.440000", "211442.900000", "211443.360000", "211443.820000", "211444.280000", "211444.740000", "211445.200000", "211445.660000", "211446.120000", "211446.580000", "211447.040000", "211447.500000", "211447.960000", "211448.420000", "211448.880000", "211449.340000", "211449.800000", "211450.260000", "211450.720000", "211451.180000", "211451.640000", "211452.100000", "211452.560000", "211453.020000", "211453.480000", "211453.940000", "211454.400000", "211454.860000", "211455.320000", "211455.780000", "211456.240000", "211456.700000", "211457.160000", "211457.620000", "211458.080000", "211458.540000", "211459.000000", "211459.460000", "211459.920000", "211500.380000", "211500.840000", "211501.300000", "211501.760000", "211502.220000", "211502.680000", "211503.140000", "211503.600000", "211504.060000", "211504.520000", "211504.980000", "211505.440000", "211505.900000", "211506.360000", "211506.820000", "211507.280000", "211507.740000", "211508.200000", "211508.660000", "211509.120000", "211509.580000", "211510.040000", "211510.500000", "211510.960000", "211511.420000", "211511.880000", "211512.340000", "211512.800000", "211513.260000", "211513.720000", "211514.180000", "211514.640000", "211515.100000", "211515.560000", "211516.020000", "211516.480000", "211516.940000", "211517.400000", "211517.860000", "211518.320000", "211518.780000", "211519.240000", "211519.700000", "211520.160000", "211520.620000", "211521.080000", "211521.540000", "211522.000000", "211522.460000", "211522.920000", "211523.380000", "211523.840000", "211524.300000", "211524.760000", "211525.220000", "211525.680000", "211526.140000", "211526.600000", "211527.060000", "211527.520000", "211527.980000", "211528.440000", "211528.900000", "211529.360000", "211529.820000", "211530.280000", "211530.740000", "211531.200000", "211531.660000", "211532.120000", "211532.580000", "211533.040000", "211533.500000", "211533.960000", "211534.420000", "211534.880000", "211535.340000", "211535.800000", "211536.260000", "211536.720000", "211537.180000", "211537.640000", "211538.100000", "211538.560000", "211539.020000", "211539.480000", "211539.940000", "211540.400000", "211540.860000", "211541.320000", "211541.780000", "211542.240000", "211542.700000", "211543.160000", "211543.620000", "211544.080000", "211544.540000", "211545.000000", "211545.460000", "211545.920000", "211546.380000", "211546.840000", "211547.300000", "211547.760000", "211548.220000", "211548.680000", "211549.140000", "211549.600000", "211550.060000", "211550.520000", "211550.980000", "211551.440000", "211551.900000", "211552.360000", "211552.820000", "211553.280000", "211553.740000", "211554.200000", "211554.660000", "211555.120000", "211555.580000", "211556.040000", "211556.500000", "211556.960000", "211557.420000", "211557.880000", "211558.340000", "211558.800000", "211559.260000", "211559.720000", "211600.180000", "211600.640000", "211601.100000", "211601.560000", "211602.020000", "211602.480000", "211602.940000", "211603.400000", "211603.860000", "211604.320000", "211604.780000", "211605.240000", "211605.700000", "211606.160000", "211606.620000", "211607.080000", "211607.540000", "211608.000000", "211608.460000", "211608.920000", "211609.380000", "211609.840000", "211610.300000", "211610.760000", "211611.220000", "211611.680000", "211612.140000", "211612.600000", "211613.060000", "211613.520000", "211613.980000", "211614.440000", "211614.900000", "211615.360000", "211615.820000", "211616.280000", "211616.740000", "211617.200000", "211617.660000", "211618.120000", "211618.580000", "211619.040000", "211619.500000", "211619.960000", "211620.420000", "211620.880000", "211621.340000", "211621.800000", "211622.260000", "211622.720000", "211623.180000", "211623.640000", "211624.100000", "211624.560000", "211625.020000", "211625.480000", "211625.940000", "211626.400000", "211626.860000", "211627.320000", "211627.780000", "211628.240000", "211628.700000", "211629.160000", "211629.620000", "211630.080000", "211630.540000", "211631.000000", "211631.460000", "211631.920000", "211632.380000", "211632.840000", "211633.300000", "211633.760000", "211634.220000", "211634.680000", "211635.140000", "211635.600000", "211636.060000", "211636.520000", "211636.980000", "211637.440000", "211637.900000", "211638.360000", "211638.820000", "211639.280000", "211639.740000", "211640.200000", "211640.660000", "211641.120000", "211641.580000", "211642.040000", "211642.500000", "211642.960000", "211643.420000", "211643.880000", "211644.340000", "211644.800000", "211645.260000", "211645.720000", "211646.180000", "211646.640000", "211647.100000", "211647.560000", "211648.020000", "211648.480000", "211648.940000", "211649.400000", "211649.860000", "211650.320000", "211650.780000", "211651.240000", "211651.700000", "211652.160000", "211652.620000", "211653.080000", "211653.540000", "211654.000000", "211654.460000", "211654.920000", "211655.380000", "211655.840000", "211656.300000", "211656.760000", "211657.220000", "211657.680000", "211658.140000", "211658.600000", "211659.060000", "211659.520000", "211659.980000", "211700.440000", "211700.900000", "211701.360000", "211701.820000", "211702.280000", "211702.740000", "211703.200000", "211703.660000", "211704.120000", "211704.580000", "211705.040000", "211705.500000", "211705.960000", "211706.420000", "211706.880000", "211707.340000", "211707.800000", "211708.260000", "211708.720000", "211709.180000", "211709.640000", "211710.100000", "211710.560000", "211711.020000", "211711.480000", "211711.940000", "211712.400000", "211712.860000", "211713.320000", "211713.780000", "211714.240000", "211714.700000", "211715.160000", "211715.620000", "211716.080000", "211716.540000", "211717.000000", "211717.460000", "211717.920000", "211718.380000", "211718.840000", "211719.300000", "211719.760000", "211720.220000", "211720.680000", "211721.140000", "211721.600000", "211722.060000", "211722.520000", "211722.980000", "211723.440000", "211723.900000", "211724.360000", "211724.820000", "211725.280000", "211725.740000", "211726.200000", "211726.660000", "211727.120000", "211727.580000", "211728.040000", "211728.500000", "211728.960000", "211729.420000", "211729.880000", "211730.340000", "211730.800000", "211731.260000", "211731.720000", "211732.180000", "211732.640000", "211733.100000", "211733.560000", "211734.020000", "211734.480000", "211734.940000", "211735.400000", "211735.860000", "211736.320000", "211736.780000", "211737.240000", "211737.700000", "211738.160000", "211738.620000", "211739.080000", "211739.540000", "211740.000000", "211740.460000", "211740.920000", "211741.380000", "211741.840000", "211742.300000", "211742.760000", "211743.220000", "211743.680000", "211744.140000", "211744.600000", "211745.060000", "211745.520000", "211745.980000", "211746.440000", "211746.900000", "211747.360000", "211747.820000", "211748.280000", "211748.740000", "211749.200000", "211749.660000", "211750.120000", "211750.580000", "211751.040000", "211751.500000", "211751.960000", "211752.420000", "211752.880000", "211753.340000", "211753.800000", "211754.260000", "211754.720000", "211755.180000", "211755.640000", "211756.100000", "211756.560000", "211757.020000", "211757.480000", "211757.940000", "211758.400000", "211758.860000", "211759.320000", "211759.780000", "211800.240000", "211800.700000", "211801.160000", "211801.620000", "211802.080000", "211802.540000", "211803.000000", "211803.460000", "211803.920000", "211804.380000", "211804.840000", "211805.300000", "211805.760000", "211806.220000", "211806.680000", "211807.140000", "211807.600000", "211808.060000", "211808.520000", "211808.980000", "211809.440000", "211809.900000", "211810.360000", "211810.820000", "211811.280000", "211811.740000", "211812.200000", "211812.660000", "211813.120000", "211813.580000", "211814.040000", "211814.500000", "211814.960000", "211815.420000", "211815.880000", "211816.340000", "211816.800000", "211817.260000", "211817.720000", "211818.180000", "211818.640000", "211819.100000", "211819.560000", "211820.020000", "211820.480000", "211820.940000", "211821.400000", "211821.860000", "211822.320000", "211822.780000", "211823.240000", "211823.700000", "211824.160000", "211824.620000", "211825.080000", "211825.540000", "211826.000000", "211826.460000", "211826.920000", "211827.380000", "211827.840000", "211828.300000", "211828.760000", "211829.220000", "211829.680000", "211830.140000", "211830.600000", "211831.060000", "211831.520000", "211831.980000", "211832.440000", "211832.900000", "211833.360000", "211833.820000", "211834.280000", "211834.740000", "211835.200000", "211835.660000", "211836.120000", "211836.580000", "211837.040000", "211837.500000", "211837.960000", "211838.420000", "211838.880000", "211839.340000", "211839.800000", "211840.260000", "211840.720000", "211841.180000", "211841.640000", "211842.100000", "211842.560000", "211843.020000", "211843.480000", "211843.940000", "211844.400000", "211844.860000", "211845.320000", "211845.780000", "211846.240000", "211846.700000", "211847.160000", "211847.620000", "211848.080000", "211848.540000", "211849.000000", "211849.460000", "211849.920000", "211850.380000", "211850.840000", "211851.300000", "211851.760000", "211852.220000", "211852.680000", "211853.140000", "211853.600000", "211854.060000", "211854.520000", "211854.980000", "211855.440000", "211855.900000", "211856.360000", "211856.820000", "211857.280000", "211857.740000", "211858.200000", "211858.660000", "211859.120000", "211859.580000", "211900.040000", "211900.500000", "211900.960000", "211901.420000", "211901.880000", "211902.340000", "211902.800000", "211903.260000", "211903.720000", "211904.180000", "211904.640000", "211905.100000", "211905.560000", "211906.020000", "211906.480000", "211906.940000", "211907.400000", "211907.860000", "211908.320000", "211908.780000", "211909.240000", "211909.700000", "211910.160000", "211910.620000", "211911.080000", "211911.540000", "211912.000000", "211912.460000", "211912.920000", "211913.380000", "211913.840000", "211914.300000", "211914.760000", "211915.220000", "211915.680000", "211916.140000", "211916.600000", "211917.060000", "211917.520000", "211917.980000", "211918.440000", "211918.900000", "211919.360000", "211919.820000", "211920.280000", "211920.740000", "211921.200000", "211921.660000", "211922.120000", "211922.580000", "211923.040000", "211923.500000", "211923.960000", "211924.420000", "211924.880000", "211925.340000", "211925.800000", "211926.260000", "211926.720000", "211927.180000", "211927.640000", "211928.100000", "211928.560000", "211929.020000", "211929.480000", "211929.940000", "211930.400000", "211930.860000", "211931.320000", "211931.780000", "211932.240000", "211932.700000", "211933.160000", "211933.620000", "211934.080000", "211934.540000", "211935.000000", "211935.460000", "211935.920000", "211936.380000", "211936.840000", "211937.300000", "211937.760000", "211938.220000", "211938.680000", "211939.140000", "211939.600000", "211940.060000", "211940.520000", "211940.980000", "211941.440000", "211941.900000", "211942.360000", "211942.820000", "211943.280000", "211943.740000", "211944.200000", "211944.660000", "211945.120000", "211945.580000", "211946.040000", "211946.500000", "211946.960000", "211947.420000", "211947.880000", "211948.340000", "211948.800000", "211949.260000", "211949.720000", "211950.180000", "211950.640000", "211951.100000", "211951.560000", "211952.020000", "211952.480000", "211952.940000", "211953.400000", "211953.860000", "211954.320000", "211954.780000", "211955.240000", "211955.700000", "211956.160000", "211956.620000", "211957.080000", "211957.540000", "211958.000000", "211958.460000", "211958.920000", "211959.380000", "211959.840000", "212000.300000", "212000.760000", "212001.220000", "212001.680000", "212002.140000", "212002.600000", "212003.060000", "212003.520000", "212003.980000", "212004.440000", "212004.900000", "212005.360000", "212005.820000", "212006.280000", "212006.740000", "212007.200000", "212007.660000", "212008.120000", "212008.580000", "212009.040000", "212009.500000", "212009.960000", "212010.420000", "212010.880000", "212011.340000", "212011.800000", "212012.260000", "212012.720000", "212013.180000", "212013.640000", "212014.100000", "212014.560000", "212015.020000", "212015.480000", "212015.940000", "212016.400000", "212016.860000", "212017.320000", "212017.780000", "212018.240000", "212018.700000", "212019.160000", "212019.620000", "212020.080000", "212020.540000", "212021.000000", "212021.460000", "212021.920000", "212022.380000", "212022.840000", "212023.300000", "212023.760000", "212024.220000", "212024.680000", "212025.140000", "212025.600000", "212026.060000", "212026.520000", "212026.980000", "212027.440000", "212027.900000", "212028.360000", "212028.820000", "212029.280000", "212029.740000", "212030.200000", "212030.660000", "212031.120000", "212031.580000", "212032.040000", "212032.500000", "212032.960000", "212033.420000", "212033.880000", "212034.340000", "212034.800000", "212035.260000", "212035.720000", "212036.180000", "212036.640000", "212037.100000", "212037.560000", "212038.020000", "212038.480000", "212038.940000", "212039.400000", "212039.860000", "212040.320000", "212040.780000", "212041.240000", "212041.700000", "212042.160000", "212042.620000", "212043.080000", "212043.540000", "212044.000000", "212044.460000", "212044.920000", "212045.380000", "212045.840000"],
