{
  "AcquisitionMatrixPE": 82,
  "AcquisitionNumber": 1,
  "AcquisitionTime": "20:45:49.922500",
  "BandwidthPerPixelPhaseEncode": 24.888,
  "BaseResolution": 82,
  "BodyPartExamined": "BRAIN",
  "ConsistencyInfo": "N4_VE11E_LATEST_20181129",
  "ConversionSoftware": "dcm2niix",
  "ConversionSoftwareVersion": "v1.0.20201102",
  "DerivedVendorReportedEchoSpacing": 0.00049,
  "DeviceSerialNumber": "66112",
  "DwellTime": 2e-06,
  "EchoTime": 0.0272,
  "EchoTrainLength": 82,
  "EffectiveEchoSpacing": 0.00049,
  "FlipAngle": 44,
  "ImageComments": "Unaliased MB8/PE3",
  "ImageOrientationPatientDICOM": [0.997455, -0.00235874, 0.0712637, 0.00139272, 0.999907, 0.0136021],
  "ImageType": [
    "ORIGINAL",
    "PRIMARY",
    "M",
    "MB",
    "ND",
    "NORM",
    "MOSAIC"
],
  "ImagingFrequency": 123.252,
  "InPlanePhaseEncodingDirectionDICOM": "COL",
  "InstitutionAddress": "Maynard 3,Hanover,NH,US,03755",
  "InstitutionName": "Dartmouth College - PBS",
  "InstitutionalDepartmentName": "Department",
  "MRAcquisitionType": "2D",
  "MagneticFieldStrength": 3,
  "Manufacturer": "Siemens",
  "ManufacturersModelName": "Prisma",
  "Modality": "MR",
  "MultibandAccelerationFactor": 8,
  "PartialFourier": 1,
  "PatientPosition": "HFS",
  "PercentPhaseFOV": 100,
  "PercentSampling": 100,
  "PhaseEncodingDirection": "j-",
  "PhaseEncodingSteps": 82,
  "PhaseResolution": 1,
  "PixelBandwidth": 3050,
  "ProcedureStepDescription": "Wager_Wager^1076_spacetop",
  "ProtocolName": "func_run-03_task-social_acq-ap-mb8",
  "PulseSequenceDetails": "%CustomerSeq%\\cmrr_mbep2d_bold",
  "ReceiveCoilActiveElements": "HEA;HEP",
  "ReceiveCoilName": "Head_32",
  "ReconMatrixPE": 82,
  "RepetitionTime": 0.46,
  "SAR": 0.106827,
  "ScanOptions": "FS",
  "ScanningSequence": "EP",
  "SequenceName": "epfid2d1_82",
  "SequenceVariant": "SK\\SS",
  "SeriesDescription": "func_run-03_task-social_acq-ap-mb8",
  "SeriesNumber": 14,
  "ShimSetting": [4156, -7739, -7289, 550, -138, -100, -5, 96],
  "SliceThickness": 2.7,
  "SliceTiming": [0, 0.2525, 0.0625, 0.315, 0.125, 0.3775, 0.19, 0, 0.2525, 0.0625, 0.315, 0.125, 0.3775, 0.19, 0, 0.2525, 0.0625, 0.315, 0.125, 0.3775, 0.19, 0, 0.2525, 0.0625, 0.315, 0.125, 0.3775, 0.19, 0, 0.2525, 0.0625, 0.315, 0.125, 0.3775, 0.19, 0, 0.2525, 0.0625, 0.315, 0.125, 0.3775, 0.19, 0, 0.2525, 0.0625, 0.315, 0.125, 0.3775, 0.19, 0, 0.2525, 0.0625, 0.315, 0.125, 0.3775, 0.19],
  "SoftwareVersions": "syngo MR E11",
  "SpacingBetweenSlices": 2.7,
  "StationName": "AWP66112",
  "TaskName": "social",
  "TotalReadoutTime": 0.03969,
  "TxRefAmp": 276.243,
  "WipMemBlock": "aeed6d23-2708-45d6-bdd5-8c9de432c017||Sequence: R016 ve11e/master r/434b28f1; Aug  7 2019 18:53:46 by eja",
  "dcmmeta_affine": [
    [-2.676098108291626, 0.0037365765310823917, 0.19248075783252716, 106.93843078613281],
    [0.006328316405415535, 2.682676076889038, 0.03636420890688896, -92.2829818725586],
    [0.19119542837142944, -0.03649343177676201, 2.692884922027588, -80.01366424560547],
    [0.0, 0.0, 0.0, 1.0]
],
  "dcmmeta_reorient_transform": [
    [0.0, -1.0, 0.0, 81.0],
    [1.0, 0.0, 0.0, 0.0],
    [0.0, 0.0, 1.0, 0.0],
    [0.0, 0.0, 0.0, 1.0]
],
  "dcmmeta_shape": [82, 82, 56, 872],
  "dcmmeta_slice_dim": 2,
  "dcmmeta_version": 0.6,
  "global": {
    "const": {
      "AccessionNumber": "A003976",
      "AcquisitionMatrix": [82, 0, 0, 82],
      "AngioFlag": "N",
      "BitsAllocated": 16,
      "BitsStored": 16,
      "BodyPartExamined": "BRAIN",
      "Columns": 656,
      "EchoNumbers": 1,
      "EchoTime": 27.2,
      "EchoTrainLength": 82,
      "FlipAngle": 44.0,
      "HighBit": 15,
      "ImageOrientationPatient": [0.99745471815567, -0.0023587359979, 0.0712637466984, 0.00139272398159, 0.99990651726998, 0.01360209693129],
      "ImagePositionPatient": [-876.35364299086, -893.12559105472, -148.31633595936],
      "ImageType": [
        "ORIGINAL",
        "PRIMARY",
        "M",
        "MB",
        "ND",
        "NORM",
        "MOSAIC"
],
      "ImagedNucleus": "1H",
      "ImagingFrequency": 123.252202,
      "InPlanePhaseEncodingDirection": "COL",
      "MRAcquisitionType": "2D",
      "MagneticFieldStrength": 3.0,
      "Manufacturer": "SIEMENS",
      "ManufacturerModelName": "Prisma",
      "Modality": "MR",
      "NumberOfAverages": 1.0,
      "NumberOfPhaseEncodingSteps": 82,
      "PercentPhaseFieldOfView": 100.0,
      "PercentSampling": 100.0,
      "PerformedProcedureStepStartTime": "201744.659000",
      "PhotometricInterpretation": "MONOCHROME2",
      "PixelBandwidth": 3050.0,
      "PixelRepresentation": 0,
      "PixelSpacing": [2.6829268932343, 2.6829268932343],
      "ProtocolName": "func_run-03_task-social_acq-ap-mb8",
      "RepetitionTime": 460.0,
      "Rows": 656,
      "SAR": 0.10682746588557,
      "SamplesPerPixel": 1,
      "ScanOptions": "FS",
      "ScanningSequence": "EP",
      "SequenceName": "epfid2d1_82",
      "SequenceVariant": [
        "SK",
        "SS"
],
      "SeriesDescription": "func_run-03_task-social_acq-ap-mb8",
      "SeriesNumber": 14,
      "SeriesTime": "204613.787000",
      "SliceLocation": -73.422147601596,
      "SliceThickness": 2.7000000476837,
      "SmallestImagePixelValue": 0,
      "SoftwareVersions": "syngo MR E11",
      "SpacingBetweenSlices": 2.6999999792553,
      "SpecificCharacterSet": "ISO_IR 100",
      "StudyID": "1",
      "StudyTime": "201744.605000",
      "TransmitCoilName": "Body",
      "VariableFlipAngleFlag": "N",
      "WindowCenterWidthExplanation": "Algo1"
    },
    "slices": {}
  },
  "time": {
    "samples": {
      "AcquisitionNumber": [1, 2, 3, 4, 5, 6, 7, 8, 9, 10, 11, 12, 13, 14, 15, 16, 17, 18, 19, 20, 21, 22, 23, 24, 25, 26, 27, 28, 29, 30, 31, 32, 33, 34, 35, 36, 37, 38, 39, 40, 41, 42, 43, 44, 45, 46, 47, 48, 49, 50, 51, 52, 53, 54, 55, 56, 57, 58, 59, 60, 61, 62, 63, 64, 65, 66, 67, 68, 69, 70, 71, 72, 73, 74, 75, 76, 77, 78, 79, 80, 81, 82, 83, 84, 85, 86, 87, 88, 89, 90, 91, 92, 93, 94, 95, 96, 97, 98, 99, 100, 101, 102, 103, 104, 105, 106, 107, 108, 109, 110, 111, 112, 113, 114, 115, 116, 117, 118, 119, 120, 121, 122, 123, 124, 125, 126, 127, 128, 129, 130, 131, 132, 133, 134, 135, 136, 137, 138, 139, 140, 141, 142, 143, 144, 145, 146, 147, 148, 149, 150, 151, 152, 153, 154, 155, 156, 157, 158, 159, 160, 161, 162, 163, 164, 165, 166, 167, 168, 169, 170, 171, 172, 173, 174, 175, 176, 177, 178, 179, 180, 181, 182, 183, 184, 185, 186, 187, 188, 189, 190, 191, 192, 193, 194, 195, 196, 197, 198, 199, 200, 201, 202, 203, 204, 205, 206, 207, 208, 209, 210, 211, 212, 213, 214, 215, 216, 217, 218, 219, 220, 221, 222, 223, 224, 225, 226, 227, 228, 229, 230, 231, 232, 233, 234, 235, 236, 237, 238, 239, 240, 241, 242, 243, 244, 245, 246, 247, 248, 249, 250, 251, 252, 253, 254, 255, 256, 257, 258, 259, 260, 261, 262, 263, 264, 265, 266, 267, 268, 269, 270, 271, 272, 273, 274, 275, 276, 277, 278, 279, 280, 281, 282, 283, 284, 285, 286, 287, 288, 289, 290, 291, 292, 293, 294, 295, 296, 297, 298, 299, 300, 301, 302, 303, 304, 305, 306, 307, 308, 309, 310, 311, 312, 313, 314, 315, 316, 317, 318, 319, 320, 321, 322, 323, 324, 325, 326, 327, 328, 329, 330, 331, 332, 333, 334, 335, 336, 337, 338, 339, 340, 341, 342, 343, 344, 345, 346, 347, 348, 349, 350, 351, 352, 353, 354, 355, 356, 357, 358, 359, 360, 361, 362, 363, 364, 365, 366, 367, 368, 369, 370, 371, 372, 373, 374, 375, 376, 377, 378, 379, 380, 381, 382, 383, 384, 385, 386, 387, 388, 389, 390, 391, 392, 393, 394, 395, 396, 397, 398, 399, 400, 401, 402, 403, 404, 405, 406, 407, 408, 409, 410, 411, 412, 413, 414, 415, 416, 417, 418, 419, 420, 421, 422, 423, 424, 425, 426, 427, 428, 429, 430, 431, 432, 433, 434, 435, 436, 437, 438, 439, 440, 441, 442, 443, 444, 445, 446, 447, 448, 449, 450, 451, 452, 453, 454, 455, 456, 457, 458, 459, 460, 461, 462, 463, 464, 465, 466, 467, 468, 469, 470, 471, 472, 473, 474, 475, 476, 477, 478, 479, 480, 481, 482, 483, 484, 485, 486, 487, 488, 489, 490, 491, 492, 493, 494, 495, 496, 497, 498, 499, 500, 501, 502, 503, 504, 505, 506, 507, 508, 509, 510, 511, 512, 513, 514, 515, 516, 517, 518, 519, 520, 521, 522, 523, 524, 525, 526, 527, 528, 529, 530, 531, 532, 533, 534, 535, 536, 537, 538, 539, 540, 541, 542, 543, 544, 545, 546, 547, 548, 549, 550, 551, 552, 553, 554, 555, 556, 557, 558, 559, 560, 561, 562, 563, 564, 565, 566, 567, 568, 569, 570, 571, 572, 573, 574, 575, 576, 577, 578, 579, 580, 581, 582, 583, 584, 585, 586, 587, 588, 589, 590, 591, 592, 593, 594, 595, 596, 597, 598, 599, 600, 601, 602, 603, 604, 605, 606, 607, 608, 609, 610, 611, 612, 613, 614, 615, 616, 617, 618, 619, 620, 621, 622, 623, 624, 625, 626, 627, 628, 629, 630, 631, 632, 633, 634, 635, 636, 637, 638, 639, 640, 641, 642, 643, 644, 645, 646, 647, 648, 649, 650, 651, 652, 653, 654, 655, 656, 657, 658, 659, 660, 661, 662, 663, 664, 665, 666, 667, 668, 669, 670, 671, 672, 673, 674, 675, 676, 677, 678, 679, 680, 681, 682, 683, 684, 685, 686, 687, 688, 689, 690, 691, 692, 693, 694, 695, 696, 697, 698, 699, 700, 701, 702, 703, 704, 705, 706, 707, 708, 709, 710, 711, 712, 713, 714, 715, 716, 717, 718, 719, 720, 721, 722, 723, 724, 725, 726, 727, 728, 729, 730, 731, 732, 733, 734, 735, 736, 737, 738, 739, 740, 741, 742, 743, 744, 745, 746, 747, 748, 749, 750, 751, 752, 753, 754, 755, 756, 757, 758, 759, 760, 761, 762, 763, 764, 765, 766, 767, 768, 769, 770, 771, 772, 773, 774, 775, 776, 777, 778, 779, 780, 781, 782, 783, 784, 785, 786, 787, 788, 789, 790, 791, 792, 793, 794, 795, 796, 797, 798, 799, 800, 801, 802, 803, 804, 805, 806, 807, 808, 809, 810, 811, 812, 813, 814, 815, 816, 817, 818, 819, 820, 821, 822, 823, 824, 825, 826, 827, 828, 829, 830, 831, 832, 833, 834, 835, 836, 837, 838, 839, 840, 841, 842, 843, 844, 845, 846, 847, 848, 849, 850, 851, 852, 853, 854, 855, 856, 857, 858, 859, 860, 861, 862, 863, 864, 865, 866, 867, 868, 869, 870, 871, 872],
      "AcquisitionTime": ["204549.922500", "204550.382500", "204550.842500", "204551.302500", "204551.762500", "204552.222500", "204552.682500", "204553.142500", "204553.602500", "204554.062500", "204554.522500", "204554.982500", "204555.442500", "204555.902500", "204556.362500", "204556.822500", "204557.282500", "204557.742500", "204558.202500", "204558.662500", "204559.122500", "204559.582500", "204600.042500", "204600.502500", "204600.962500", "204601.422500", "204601.882500", "204602.342500", "204602.802500", "204603.262500", "204603.722500", "204604.182500", "204604.642500", "204605.102500", "204605.562500", "204606.022500", "204606.482500", "204606.942500", "204607.402500", "204607.862500", "204608.322500", "204608.782500", "204609.242500", "204609.702500", "204610.162500", "204610.622500", "204611.082500", "204611.542500", "204612.002500", "204612.462500", "204612.922500", "204613.382500", "204613.842500", "204614.302500", "204614.762500", "204615.222500", "204615.682500", "204616.142500", "204616.602500", "204617.062500", "204617.522500", "204617.982500", "204618.442500", "204618.902500", "204619.362500", "204619.822500", "204620.282500", "204620.742500", "204621.202500", "204621.662500", "204622.122500", "204622.582500", "204623.042500", "204623.502500", "204623.962500", "204624.422500", "204624.882500", "204625.342500", "204625.802500", "204626.262500", "204626.722500", "204627.182500", "204627.642500", "204628.102500", "204628.562500", "204629.022500", "204629.482500", "204629.942500", "204630.402500", "204630.862500", "204631.322500", "204631.782500", "204632.242500", "204632.702500", "204633.162500", "204633.622500", "204634.082500", "204634.542500", "204635.002500", "204635.462500", "204635.922500", "204636.382500", "204636.842500", "204637.302500", "204637.762500", "204638.222500", "204638.682500", "204639.142500", "204639.602500", "204640.062500", "204640.522500", "204640.982500", "204641.442500", "204641.902500", "204642.362500", "204642.822500", "204643.282500", "204643.742500", "204644.202500", "204644.662500", "204645.122500", "204645.582500", "204646.042500", "204646.502500", "204646.962500", "204647.422500", "204647.882500", "204648.342500", "204648.802500", "204649.262500", "204649.722500", "204650.182500", "204650.642500", "204651.102500", "204651.562500", "204652.022500", "204652.482500", "204652.942500", "204653.402500", "204653.862500", "204654.322500", "204654.782500", "204655.242500", "204655.702500", "204656.162500", "204656.622500", "204657.082500", "204657.542500", "204658.002500", "204658.462500", "204658.922500", "204659.382500", "204659.842500", "204700.302500", "204700.762500", "204701.222500", "204701.682500", "204702.142500", "204702.602500", "204703.062500", "204703.522500", "204703.982500", "204704.442500", "204704.902500", "204705.362500", "204705.822500", "204706.282500", "204706.742500", "204707.202500", "204707.662500", "204708.122500", "204708.582500", "204709.042500", "204709.502500", "204709.962500", "204710.422500", "204710.882500", "204711.342500", "204711.802500", "204712.262500", "204712.722500", "204713.182500", "204713.642500", "204714.102500", "204714.562500", "204715.022500", "204715.482500", "204715.942500", "204716.402500", "204716.862500", "204717.322500", "204717.782500", "204718.242500", "204718.702500", "204719.162500", "204719.622500", "204720.082500", "204720.542500", "204721.002500", "204721.462500", "204721.922500", "204722.382500", "204722.842500", "204723.302500", "204723.762500", "204724.222500", "204724.682500", "204725.142500", "204725.602500", "204726.062500", "204726.522500", "204726.982500", "204727.442500", "204727.902500", "204728.362500", "204728.822500", "204729.282500", "204729.742500", "204730.202500", "204730.662500", "204731.122500", "204731.582500", "204732.042500", "204732.502500", "204732.962500", "204733.422500", "204733.882500", "204734.342500", "204734.802500", "204735.262500", "204735.722500", "204736.182500", "204736.642500", "204737.102500", "204737.562500", "204738.022500", "204738.482500", "204738.942500", "204739.402500", "204739.862500", "204740.322500", "204740.782500", "204741.242500", "204741.702500", "204742.162500", "204742.622500", "204743.082500", "204743.542500", "204744.002500", "204744.462500", "204744.922500", "204745.382500", "204745.842500", "204746.302500", "204746.762500", "204747.222500", "204747.682500", "204748.142500", "204748.602500", "204749.062500", "204749.522500", "204749.982500", "204750.442500", "204750.902500", "204751.362500", "204751.822500", "204752.282500", "204752.742500", "204753.202500", "204753.662500", "204754.122500", "204754.582500", "204755.042500", "204755.502500", "204755.962500", "204756.422500", "204756.882500", "204757.342500", "204757.802500", "204758.262500", "204758.722500", "204759.182500", "204759.642500", "204800.102500", "204800.562500", "204801.022500", "204801.482500", "204801.942500", "204802.402500", "204802.862500", "204803.322500", "204803.782500", "204804.242500", "204804.702500", "204805.162500", "204805.622500", "204806.082500", "204806.542500", "204807.002500", "204807.462500", "204807.922500", "204808.382500", "204808.842500", "204809.302500", "204809.762500", "204810.222500", "204810.682500", "204811.142500", "204811.602500", "204812.062500", "204812.522500", "204812.982500", "204813.442500", "204813.902500", "204814.362500", "204814.822500", "204815.282500", "204815.742500", "204816.202500", "204816.662500", "204817.122500", "204817.582500", "204818.042500", "204818.502500", "204818.962500", "204819.422500", "204819.882500", "204820.342500", "204820.802500", "204821.262500", "204821.722500", "204822.182500", "204822.642500", "204823.102500", "204823.562500", "204824.022500", "204824.482500", "204824.942500", "204825.402500", "204825.862500", "204826.322500", "204826.782500", "204827.242500", "204827.702500", "204828.162500", "204828.622500", "204829.082500", "204829.542500", "204830.002500", "204830.462500", "204830.922500", "204831.382500", "204831.842500", "204832.302500", "204832.762500", "204833.222500", "204833.682500", "204834.142500", "204834.602500", "204835.062500", "204835.522500", "204835.982500", "204836.442500", "204836.902500", "204837.362500", "204837.822500", "204838.282500", "204838.742500", "204839.202500", "204839.662500", "204840.122500", "204840.582500", "204841.042500", "204841.502500", "204841.962500", "204842.422500", "204842.882500", "204843.342500", "204843.802500", "204844.262500", "204844.722500", "204845.182500", "204845.642500", "204846.102500", "204846.562500", "204847.022500", "204847.482500", "204847.942500", "204848.402500", "204848.862500", "204849.322500", "204849.782500", "204850.242500", "204850.702500", "204851.162500", "204851.622500", "204852.082500", "204852.542500", "204853.002500", "204853.462500", "204853.922500", "204854.382500", "204854.842500", "204855.302500", "204855.762500", "204856.222500", "204856.682500", "204857.142500", "204857.602500", "204858.062500", "204858.522500", "204858.982500", "204859.442500", "204859.902500", "204900.362500", "204900.822500", "204901.282500", "204901.742500", "204902.202500", "204902.662500", "204903.122500", "204903.582500", "204904.042500", "204904.502500", "204904.962500", "204905.422500", "204905.882500", "204906.342500", "204906.802500", "204907.262500", "204907.722500", "204908.182500", "204908.642500", "204909.102500", "204909.562500", "204910.022500", "204910.482500", "204910.942500", "204911.402500", "204911.862500", "204912.322500", "204912.782500", "204913.242500", "204913.702500", "204914.162500", "204914.622500", "204915.082500", "204915.542500", "204916.002500", "204916.462500", "204916.922500", "204917.382500", "204917.842500", "204918.302500", "204918.762500", "204919.222500", "204919.682500", "204920.142500", "204920.602500", "204921.062500", "204921.522500", "204921.982500", "204922.442500", "204922.902500", "204923.362500", "204923.822500", "204924.282500", "204924.742500", "204925.202500", "204925.662500", "204926.122500", "204926.582500", "204927.042500", "204927.502500", "204927.962500", "204928.422500", "204928.882500", "204929.342500", "204929.802500", "204930.262500", "204930.722500", "204931.182500", "204931.642500", "204932.102500", "204932.562500", "204933.022500", "204933.482500", "204933.942500", "204934.402500", "204934.862500", "204935.322500", "204935.782500", "204936.242500", "204936.702500", "204937.162500", "204937.622500", "204938.082500", "204938.542500", "204939.002500", "204939.462500", "204939.922500", "204940.382500", "204940.842500", "204941.302500", "204941.762500", "204942.222500", "204942.682500", "204943.142500", "204943.602500", "204944.062500", "204944.522500", "204944.982500", "204945.442500", "204945.902500", "204946.362500", "204946.822500", "204947.282500", "204947.742500", "204948.202500", "204948.662500", "204949.122500", "204949.582500", "204950.042500", "204950.502500", "204950.962500", "204951.422500", "204951.882500", "204952.342500", "204952.802500", "204953.262500", "204953.722500", "204954.182500", "204954.642500", "204955.102500", "204955.562500", "204956.022500", "204956.482500", "204956.942500", "204957.402500", "204957.862500", "204958.322500", "204958.782500", "204959.242500", "204959.702500", "205000.162500", "205000.622500", "205001.082500", "205001.542500", "205002.002500", "205002.462500", "205002.922500", "205003.382500", "205003.842500", "205004.302500", "205004.762500", "205005.222500", "205005.682500", "205006.142500", "205006.602500", "205007.062500", "205007.522500", "205007.982500", "205008.442500", "205008.902500", "205009.362500", "205009.822500", "205010.282500", "205010.742500", "205011.202500", "205011.662500", "205012.122500", "205012.582500", "205013.042500", "205013.502500", "205013.962500", "205014.422500", "205014.882500", "205015.342500", "205015.802500", "205016.262500", "205016.722500", "205017.182500", "205017.642500", "205018.102500", "205018.562500", "205019.022500", "205019.482500", "205019.942500", "205020.402500", "205020.862500", "205021.322500", "205021.782500", "205022.242500", "205022.702500", "205023.162500", "205023.622500", "205024.082500", "205024.542500", "205025.002500", "205025.462500", "205025.922500", "205026.382500", "205026.842500", "205027.302500", "205027.762500", "205028.222500", "205028.682500", "205029.142500", "205029.602500", "205030.062500", "205030.522500", "205030.982500", "205031.442500", "205031.902500", "205032.362500", "205032.822500", "205033.282500", "205033.742500", "205034.202500", "205034.662500", "205035.122500", "205035.582500", "205036.042500", "205036.502500", "205036.962500", "205037.422500", "205037.882500", "205038.342500", "205038.802500", "205039.262500", "205039.722500", "205040.182500", "205040.642500", "205041.102500", "205041.562500", "205042.022500", "205042.482500", "205042.942500", "205043.402500", "205043.862500", "205044.322500", "205044.782500", "205045.242500", "205045.702500", "205046.162500", "205046.622500", "205047.082500", "205047.542500", "205048.002500", "205048.462500", "205048.922500", "205049.382500", "205049.842500", "205050.302500", "205050.762500", "205051.222500", "205051.682500", "205052.142500", "205052.602500", "205053.062500", "205053.522500", "205053.982500", "205054.442500", "205054.902500", "205055.362500", "205055.822500", "205056.282500", "205056.742500", "205057.202500", "205057.662500", "205058.122500", "205058.582500", "205059.042500", "205059.502500", "205059.962500", "205100.422500", "205100.882500", "205101.342500", "205101.802500", "205102.262500", "205102.722500", "205103.182500", "205103.642500", "205104.102500", "205104.562500", "205105.022500", "205105.482500", "205105.942500", "205106.402500", "205106.862500", "205107.322500", "205107.782500", "205108.242500", "205108.702500", "205109.162500", "205109.622500", "205110.082500", "205110.542500", "205111.002500", "205111.462500", "205111.922500", "205112.382500", "205112.842500", "205113.302500", "205113.762500", "205114.222500", "205114.682500", "205115.142500", "205115.602500", "205116.062500", "205116.522500", "205116.982500", "205117.442500", "205117.902500", "205118.362500", "205118.822500", "205119.282500", "205119.742500", "205120.202500", "205120.662500", "205121.122500", "205121.582500", "205122.042500", "205122.502500", "205122.962500", "205123.422500", "205123.882500", "205124.342500", "205124.802500", "205125.262500", "205125.722500", "205126.182500", "205126.642500", "205127.102500", "205127.562500", "205128.022500", "205128.482500", "205128.942500", "205129.402500", "205129.862500", "205130.322500", "205130.782500", "205131.242500", "205131.702500", "205132.162500", "205132.622500", "205133.082500", "205133.542500", "205134.002500", "205134.462500", "205134.922500", "205135.382500", "205135.842500", "205136.302500", "205136.762500", "205137.222500", "205137.682500", "205138.142500", "205138.602500", "205139.062500", "205139.522500", "205139.982500", "205140.442500", "205140.902500", "205141.362500", "205141.822500", "205142.282500", "205142.742500", "205143.202500", "205143.662500", "205144.122500", "205144.582500", "205145.042500", "205145.502500", "205145.962500", "205146.422500", "205146.882500", "205147.342500", "205147.802500", "205148.262500", "205148.722500", "205149.182500", "205149.642500", "205150.102500", "205150.562500", "205151.022500", "205151.482500", "205151.942500", "205152.402500", "205152.862500", "205153.322500", "205153.782500", "205154.242500", "205154.702500", "205155.162500", "205155.622500", "205156.082500", "205156.542500", "205157.002500", "205157.462500", "205157.922500", "205158.382500", "205158.842500", "205159.302500", "205159.762500", "205200.222500", "205200.682500", "205201.142500", "205201.602500", "205202.062500", "205202.522500", "205202.982500", "205203.442500", "205203.902500", "205204.362500", "205204.822500", "205205.282500", "205205.742500", "205206.202500", "205206.662500", "205207.122500", "205207.582500", "205208.042500", "205208.502500", "205208.962500", "205209.422500", "205209.882500", "205210.342500", "205210.802500", "205211.262500", "205211.722500", "205212.182500", "205212.642500", "205213.102500", "205213.562500", "205214.022500", "205214.482500", "205214.942500", "205215.402500", "205215.862500", "205216.322500", "205216.782500", "205217.242500", "205217.702500", "205218.162500", "205218.622500", "205219.082500", "205219.542500", "205220.002500", "205220.462500", "205220.922500", "205221.382500", "205221.842500", "205222.302500", "205222.762500", "205223.222500", "205223.682500", "205224.142500", "205224.602500", "205225.062500", "205225.522500", "205225.982500", "205226.442500", "205226.902500", "205227.362500", "205227.822500", "205228.282500", "205228.742500", "205229.202500", "205229.662500", "205230.122500", "205230.582500"],
