{
  "AcquisitionMatrixPE": 82,
  "AcquisitionNumber": 1,
  "AcquisitionTime": "21:03:28.685000",
  "BandwidthPerPixelPhaseEncode": 24.888,
  "BaseResolution": 82,
  "BodyPartExamined": "BRAIN",
  "ConsistencyInfo": "N4_VE11E_LATEST_20181129",
  "ConversionSoftware": "dcm2niix",
  "ConversionSoftwareVersion": "v1.0.20201102",
  "DerivedVendorReportedEchoSpacing": 0.00049,
  "DeviceSerialNumber": "66112",
  "DwellTime": 2e-06,
  "EchoTime": 0.0272,
  "EchoTrainLength": 82,
  "EffectiveEchoSpacing": 0.00049,
  "FlipAngle": 44,
  "ImageComments": "Unaliased MB8/PE3",
  "ImageOrientationPatientDICOM": [0.997455, -0.00235874, 0.0712637, 0.00139272, 0.999907, 0.0136021],
  "ImageType": [
    "ORIGINAL",
    "PRIMARY",
    "M",
    "MB",
    "ND",
    "NORM",
    "MOSAIC"
],
  "ImagingFrequency": 123.252,
  "InPlanePhaseEncodingDirectionDICOM": "COL",
  "InstitutionAddress": "Maynard 3,Hanover,NH,US,03755",
  "InstitutionName": "Dartmouth College - PBS",
  "InstitutionalDepartmentName": "Department",
  "MRAcquisitionType": "2D",
  "MagneticFieldStrength": 3,
  "Manufacturer": "Siemens",
  "ManufacturersModelName": "Prisma",
  "Modality": "MR",
  "MultibandAccelerationFactor": 8,
  "PartialFourier": 1,
  "PatientPosition": "HFS",
  "PercentPhaseFOV": 100,
  "PercentSampling": 100,
  "PhaseEncodingDirection": "j-",
  "PhaseEncodingSteps": 82,
  "PhaseResolution": 1,
  "PixelBandwidth": 3050,
  "ProcedureStepDescription": "Wager_Wager^1076_spacetop",
  "ProtocolName": "func_run-06_task-social_acq-ap-mb8",
  "PulseSequenceDetails": "%CustomerSeq%\\cmrr_mbep2d_bold",
  "ReceiveCoilActiveElements": "HEA;HEP",
  "ReceiveCoilName": "Head_32",
  "ReconMatrixPE": 82,
  "RepetitionTime": 0.46,
  "SAR": 0.106827,
  "ScanOptions": "FS",
  "ScanningSequence": "EP",
  "SequenceName": "epfid2d1_82",
  "SequenceVariant": "SK\\SS",
  "SeriesDescription": "func_run-06_task-social_acq-ap-mb8",
  "SeriesNumber": 18,
  "ShimSetting": [4156, -7739, -7289, 550, -138, -100, -5, 96],
  "SliceThickness": 2.7,
  "SliceTiming": [0, 0.25, 0.0625, 0.315, 0.125, 0.3775, 0.1875, 0, 0.25, 0.0625, 0.315, 0.125, 0.3775, 0.1875, 0, 0.25, 0.0625, 0.315, 0.125, 0.3775, 0.1875, 0, 0.25, 0.0625, 0.315, 0.125, 0.3775, 0.1875, 0, 0.25, 0.0625, 0.315, 0.125, 0.3775, 0.1875, 0, 0.25, 0.0625, 0.315, 0.125, 0.3775, 0.1875, 0, 0.25, 0.0625, 0.315, 0.125, 0.3775, 0.1875, 0, 0.25, 0.0625, 0.315, 0.125, 0.3775, 0.1875],
  "SoftwareVersions": "syngo MR E11",
  "SpacingBetweenSlices": 2.7,
  "StationName": "AWP66112",
  "TaskName": "social",
  "TotalReadoutTime": 0.03969,
  "TxRefAmp": 276.243,
  "WipMemBlock": "556089ca-33fd-421a-ad6d-e405ecf2e019||Sequence: R016 ve11e/master r/434b28f1; Aug  7 2019 18:53:46 by eja",
  "dcmmeta_affine": [
    [-2.676098108291626, 0.0037365765310823917, 0.19248075783252716, 106.93843078613281],
    [0.006328316405415535, 2.682676076889038, 0.03636420890688896, -92.2829818725586],
    [0.19119542837142944, -0.03649343177676201, 2.692884922027588, -80.01366424560547],
    [0.0, 0.0, 0.0, 1.0]
],
  "dcmmeta_reorient_transform": [
    [0.0, -1.0, 0.0, 81.0],
    [1.0, 0.0, 0.0, 0.0],
    [0.0, 0.0, 1.0, 0.0],
    [0.0, 0.0, 0.0, 1.0]
],
  "dcmmeta_shape": [82, 82, 56, 872],
  "dcmmeta_slice_dim": 2,
  "dcmmeta_version": 0.6,
  "global": {
    "const": {
      "AccessionNumber": "A003976",
      "AcquisitionMatrix": [82, 0, 0, 82],
      "AngioFlag": "N",
      "BitsAllocated": 16,
      "BitsStored": 16,
      "BodyPartExamined": "BRAIN",
      "Columns": 656,
      "EchoNumbers": 1,
      "EchoTime": 27.2,
      "EchoTrainLength": 82,
      "FlipAngle": 44.0,
      "HighBit": 15,
      "ImageOrientationPatient": [0.99745471815567, -0.0023587359979, 0.0712637466984, 0.00139272398159, 0.99990651726998, 0.01360209693129],
      "ImagePositionPatient": [-876.35364299086, -893.12559105472, -148.31633595936],
      "ImageType": [
        "ORIGINAL",
        "PRIMARY",
        "M",
        "MB",
        "ND",
        "NORM",
        "MOSAIC"
],
      "ImagedNucleus": "1H",
      "ImagingFrequency": 123.252206,
      "InPlanePhaseEncodingDirection": "COL",
      "MRAcquisitionType": "2D",
      "MagneticFieldStrength": 3.0,
      "Manufacturer": "SIEMENS",
      "ManufacturerModelName": "Prisma",
      "Modality": "MR",
      "NumberOfAverages": 1.0,
      "NumberOfPhaseEncodingSteps": 82,
      "PercentPhaseFieldOfView": 100.0,
      "PercentSampling": 100.0,
      "PerformedProcedureStepStartTime": "201744.659000",
      "PhotometricInterpretation": "MONOCHROME2",
      "PixelBandwidth": 3050.0,
      "PixelRepresentation": 0,
      "PixelSpacing": [2.6829268932343, 2.6829268932343],
      "ProtocolName": "func_run-06_task-social_acq-ap-mb8",
      "RepetitionTime": 460.0,
      "Rows": 656,
      "SAR": 0.10682746588557,
      "SamplesPerPixel": 1,
      "ScanOptions": "FS",
      "ScanningSequence": "EP",
      "SequenceName": "epfid2d1_82",
      "SequenceVariant": [
        "SK",
        "SS"
],
      "SeriesDescription": "func_run-06_task-social_acq-ap-mb8",
      "SeriesNumber": 18,
      "SeriesTime": "210353.683000",
      "SliceLocation": -73.422147601596,
      "SliceThickness": 2.7000000476837,
      "SmallestImagePixelValue": 0,
      "SoftwareVersions": "syngo MR E11",
      "SpacingBetweenSlices": 2.6999999792553,
      "SpecificCharacterSet": "ISO_IR 100",
      "StudyID": "1",
      "StudyTime": "201744.605000",
      "TransmitCoilName": "Body",
      "VariableFlipAngleFlag": "N",
      "WindowCenterWidthExplanation": "Algo1"
    },
    "slices": {}
  },
  "time": {
    "samples": {
      "AcquisitionNumber": [1, 2, 3, 4, 5, 6, 7, 8, 9, 10, 11, 12, 13, 14, 15, 16, 17, 18, 19, 20, 21, 22, 23, 24, 25, 26, 27, 28, 29, 30, 31, 32, 33, 34, 35, 36, 37, 38, 39, 40, 41, 42, 43, 44, 45, 46, 47, 48, 49, 50, 51, 52, 53, 54, 55, 56, 57, 58, 59, 60, 61, 62, 63, 64, 65, 66, 67, 68, 69, 70, 71, 72, 73, 74, 75, 76, 77, 78, 79, 80, 81, 82, 83, 84, 85, 86, 87, 88, 89, 90, 91, 92, 93, 94, 95, 96, 97, 98, 99, 100, 101, 102, 103, 104, 105, 106, 107, 108, 109, 110, 111, 112, 113, 114, 115, 116, 117, 118, 119, 120, 121, 122, 123, 124, 125, 126, 127, 128, 129, 130, 131, 132, 133, 134, 135, 136, 137, 138, 139, 140, 141, 142, 143, 144, 145, 146, 147, 148, 149, 150, 151, 152, 153, 154, 155, 156, 157, 158, 159, 160, 161, 162, 163, 164, 165, 166, 167, 168, 169, 170, 171, 172, 173, 174, 175, 176, 177, 178, 179, 180, 181, 182, 183, 184, 185, 186, 187, 188, 189, 190, 191, 192, 193, 194, 195, 196, 197, 198, 199, 200, 201, 202, 203, 204, 205, 206, 207, 208, 209, 210, 211, 212, 213, 214, 215, 216, 217, 218, 219, 220, 221, 222, 223, 224, 225, 226, 227, 228, 229, 230, 231, 232, 233, 234, 235, 236, 237, 238, 239, 240, 241, 242, 243, 244, 245, 246, 247, 248, 249, 250, 251, 252, 253, 254, 255, 256, 257, 258, 259, 260, 261, 262, 263, 264, 265, 266, 267, 268, 269, 270, 271, 272, 273, 274, 275, 276, 277, 278, 279, 280, 281, 282, 283, 284, 285, 286, 287, 288, 289, 290, 291, 292, 293, 294, 295, 296, 297, 298, 299, 300, 301, 302, 303, 304, 305, 306, 307, 308, 309, 310, 311, 312, 313, 314, 315, 316, 317, 318, 319, 320, 321, 322, 323, 324, 325, 326, 327, 328, 329, 330, 331, 332, 333, 334, 335, 336, 337, 338, 339, 340, 341, 342, 343, 344, 345, 346, 347, 348, 349, 350, 351, 352, 353, 354, 355, 356, 357, 358, 359, 360, 361, 362, 363, 364, 365, 366, 367, 368, 369, 370, 371, 372, 373, 374, 375, 376, 377, 378, 379, 380, 381, 382, 383, 384, 385, 386, 387, 388, 389, 390, 391, 392, 393, 394, 395, 396, 397, 398, 399, 400, 401, 402, 403, 404, 405, 406, 407, 408, 409, 410, 411, 412, 413, 414, 415, 416, 417, 418, 419, 420, 421, 422, 423, 424, 425, 426, 427, 428, 429, 430, 431, 432, 433, 434, 435, 436, 437, 438, 439, 440, 441, 442, 443, 444, 445, 446, 447, 448, 449, 450, 451, 452, 453, 454, 455, 456, 457, 458, 459, 460, 461, 462, 463, 464, 465, 466, 467, 468, 469, 470, 471, 472, 473, 474, 475, 476, 477, 478, 479, 480, 481, 482, 483, 484, 485, 486, 487, 488, 489, 490, 491, 492, 493, 494, 495, 496, 497, 498, 499, 500, 501, 502, 503, 504, 505, 506, 507, 508, 509, 510, 511, 512, 513, 514, 515, 516, 517, 518, 519, 520, 521, 522, 523, 524, 525, 526, 527, 528, 529, 530, 531, 532, 533, 534, 535, 536, 537, 538, 539, 540, 541, 542, 543, 544, 545, 546, 547, 548, 549, 550, 551, 552, 553, 554, 555, 556, 557, 558, 559, 560, 561, 562, 563, 564, 565, 566, 567, 568, 569, 570, 571, 572, 573, 574, 575, 576, 577, 578, 579, 580, 581, 582, 583, 584, 585, 586, 587, 588, 589, 590, 591, 592, 593, 594, 595, 596, 597, 598, 599, 600, 601, 602, 603, 604, 605, 606, 607, 608, 609, 610, 611, 612, 613, 614, 615, 616, 617, 618, 619, 620, 621, 622, 623, 624, 625, 626, 627, 628, 629, 630, 631, 632, 633, 634, 635, 636, 637, 638, 639, 640, 641, 642, 643, 644, 645, 646, 647, 648, 649, 650, 651, 652, 653, 654, 655, 656, 657, 658, 659, 660, 661, 662, 663, 664, 665, 666, 667, 668, 669, 670, 671, 672, 673, 674, 675, 676, 677, 678, 679, 680, 681, 682, 683, 684, 685, 686, 687, 688, 689, 690, 691, 692, 693, 694, 695, 696, 697, 698, 699, 700, 701, 702, 703, 704, 705, 706, 707, 708, 709, 710, 711, 712, 713, 714, 715, 716, 717, 718, 719, 720, 721, 722, 723, 724, 725, 726, 727, 728, 729, 730, 731, 732, 733, 734, 735, 736, 737, 738, 739, 740, 741, 742, 743, 744, 745, 746, 747, 748, 749, 750, 751, 752, 753, 754, 755, 756, 757, 758, 759, 760, 761, 762, 763, 764, 765, 766, 767, 768, 769, 770, 771, 772, 773, 774, 775, 776, 777, 778, 779, 780, 781, 782, 783, 784, 785, 786, 787, 788, 789, 790, 791, 792, 793, 794, 795, 796, 797, 798, 799, 800, 801, 802, 803, 804, 805, 806, 807, 808, 809, 810, 811, 812, 813, 814, 815, 816, 817, 818, 819, 820, 821, 822, 823, 824, 825, 826, 827, 828, 829, 830, 831, 832, 833, 834, 835, 836, 837, 838, 839, 840, 841, 842, 843, 844, 845, 846, 847, 848, 849, 850, 851, 852, 853, 854, 855, 856, 857, 858, 859, 860, 861, 862, 863, 864, 865, 866, 867, 868, 869, 870, 871, 872],
      "AcquisitionTime": ["210328.685000", "210329.145000", "210329.605000", "210330.065000", "210330.525000", "210330.985000", "210331.445000", "210331.905000", "210332.365000", "210332.825000", "210333.285000", "210333.745000", "210334.205000", "210334.665000", "210335.125000", "210335.585000", "210336.045000", "210336.505000", "210336.965000", "210337.425000", "210337.885000", "210338.345000", "210338.805000", "210339.265000", "210339.725000", "210340.185000", "210340.645000", "210341.105000", "210341.565000", "210342.025000", "210342.485000", "210342.945000", "210343.405000", "210343.865000", "210344.325000", "210344.785000", "210345.245000", "210345.705000", "210346.165000", "210346.625000", "210347.085000", "210347.545000", "210348.005000", "210348.465000", "210348.925000", "210349.385000", "210349.845000", "210350.305000", "210350.765000", "210351.225000", "210351.685000", "210352.145000", "210352.605000", "210353.065000", "210353.525000", "210353.985000", "210354.445000", "210354.905000", "210355.365000", "210355.825000", "210356.285000", "210356.745000", "210357.205000", "210357.665000", "210358.125000", "210358.585000", "210359.045000", "210359.505000", "210359.965000", "210400.425000", "210400.885000", "210401.345000", "210401.805000", "210402.265000", "210402.725000", "210403.185000", "210403.645000", "210404.105000", "210404.565000", "210405.025000", "210405.485000", "210405.945000", "210406.405000", "210406.865000", "210407.325000", "210407.785000", "210408.245000", "210408.705000", "210409.165000", "210409.625000", "210410.085000", "210410.545000", "210411.005000", "210411.465000", "210411.925000", "210412.385000", "210412.845000", "210413.305000", "210413.765000", "210414.225000", "210414.685000", "210415.145000", "210415.605000", "210416.065000", "210416.525000", "210416.985000", "210417.445000", "210417.905000", "210418.365000", "210418.825000", "210419.285000", "210419.745000", "210420.205000", "210420.665000", "210421.125000", "210421.585000", "210422.045000", "210422.505000", "210422.965000", "210423.425000", "210423.885000", "210424.345000", "210424.805000", "210425.265000", "210425.725000", "210426.185000", "210426.645000", "210427.105000", "210427.565000", "210428.025000", "210428.485000", "210428.945000", "210429.405000", "210429.865000", "210430.325000", "210430.785000", "210431.245000", "210431.705000", "210432.165000", "210432.625000", "210433.085000", "210433.545000", "210434.005000", "210434.465000", "210434.925000", "210435.385000", "210435.845000", "210436.305000", "210436.765000", "210437.225000", "210437.685000", "210438.145000", "210438.605000", "210439.065000", "210439.525000", "210439.985000", "210440.445000", "210440.905000", "210441.365000", "210441.825000", "210442.285000", "210442.745000", "210443.205000", "210443.665000", "210444.125000", "210444.585000", "210445.045000", "210445.505000", "210445.965000", "210446.425000", "210446.885000", "210447.345000", "210447.805000", "210448.265000", "210448.725000", "210449.185000", "210449.645000", "210450.105000", "210450.565000", "210451.025000", "210451.485000", "210451.945000", "210452.405000", "210452.865000", "210453.325000", "210453.785000", "210454.245000", "210454.705000", "210455.165000", "210455.625000", "210456.085000", "210456.545000", "210457.005000", "210457.465000", "210457.925000", "210458.385000", "210458.845000", "210459.305000", "210459.765000", "210500.225000", "210500.685000", "210501.145000", "210501.605000", "210502.065000", "210502.525000", "210502.985000", "210503.445000", "210503.905000", "210504.365000", "210504.825000", "210505.285000", "210505.745000", "210506.205000", "210506.665000", "210507.125000", "210507.585000", "210508.045000", "210508.505000", "210508.965000", "210509.425000", "210509.885000", "210510.345000", "210510.805000", "210511.265000", "210511.725000", "210512.185000", "210512.645000", "210513.105000", "210513.565000", "210514.025000", "210514.485000", "210514.945000", "210515.405000", "210515.865000", "210516.325000", "210516.785000", "210517.245000", "210517.705000", "210518.165000", "210518.625000", "210519.085000", "210519.545000", "210520.005000", "210520.465000", "210520.925000", "210521.385000", "210521.845000", "210522.305000", "210522.765000", "210523.225000", "210523.685000", "210524.145000", "210524.605000", "210525.065000", "210525.525000", "210525.985000", "210526.445000", "210526.905000", "210527.365000", "210527.825000", "210528.285000", "210528.745000", "210529.205000", "210529.665000", "210530.125000", "210530.585000", "210531.045000", "210531.505000", "210531.965000", "210532.425000", "210532.885000", "210533.345000", "210533.805000", "210534.265000", "210534.725000", "210535.185000", "210535.645000", "210536.105000", "210536.565000", "210537.025000", "210537.485000", "210537.945000", "210538.405000", "210538.865000", "210539.325000", "210539.785000", "210540.245000", "210540.705000", "210541.165000", "210541.625000", "210542.085000", "210542.545000", "210543.005000", "210543.465000", "210543.925000", "210544.385000", "210544.845000", "210545.305000", "210545.765000", "210546.225000", "210546.685000", "210547.145000", "210547.605000", "210548.065000", "210548.525000", "210548.985000", "210549.445000", "210549.905000", "210550.365000", "210550.825000", "210551.285000", "210551.745000", "210552.205000", "210552.665000", "210553.125000", "210553.585000", "210554.045000", "210554.505000", "210554.965000", "210555.425000", "210555.885000", "210556.345000", "210556.805000", "210557.265000", "210557.725000", "210558.185000", "210558.645000", "210559.105000", "210559.565000", "210600.025000", "210600.485000", "210600.945000", "210601.405000", "210601.865000", "210602.325000", "210602.785000", "210603.245000", "210603.705000", "210604.165000", "210604.625000", "210605.085000", "210605.545000", "210606.005000", "210606.465000", "210606.925000", "210607.385000", "210607.845000", "210608.305000", "210608.765000", "210609.225000", "210609.685000", "210610.145000", "210610.605000", "210611.065000", "210611.525000", "210611.985000", "210612.445000", "210612.905000", "210613.365000", "210613.825000", "210614.285000", "210614.745000", "210615.205000", "210615.665000", "210616.125000", "210616.585000", "210617.045000", "210617.505000", "210617.965000", "210618.425000", "210618.885000", "210619.345000", "210619.805000", "210620.265000", "210620.725000", "210621.185000", "210621.645000", "210622.105000", "210622.565000", "210623.025000", "210623.485000", "210623.945000", "210624.405000", "210624.865000", "210625.325000", "210625.785000", "210626.245000", "210626.705000", "210627.165000", "210627.625000", "210628.085000", "210628.545000", "210629.005000", "210629.465000", "210629.925000", "210630.385000", "210630.845000", "210631.305000", "210631.765000", "210632.225000", "210632.685000", "210633.145000", "210633.605000", "210634.065000", "210634.525000", "210634.985000", "210635.445000", "210635.905000", "210636.365000", "210636.825000", "210637.285000", "210637.745000", "210638.205000", "210638.665000", "210639.125000", "210639.585000", "210640.045000", "210640.505000", "210640.965000", "210641.425000", "210641.885000", "210642.345000", "210642.805000", "210643.265000", "210643.725000", "210644.185000", "210644.645000", "210645.105000", "210645.565000", "210646.025000", "210646.485000", "210646.945000", "210647.405000", "210647.865000", "210648.325000", "210648.785000", "210649.245000", "210649.705000", "210650.165000", "210650.625000", "210651.085000", "210651.545000", "210652.005000", "210652.465000", "210652.925000", "210653.385000", "210653.845000", "210654.305000", "210654.765000", "210655.225000", "210655.685000", "210656.145000", "210656.605000", "210657.065000", "210657.525000", "210657.985000", "210658.445000", "210658.905000", "210659.365000", "210659.825000", "210700.285000", "210700.745000", "210701.205000", "210701.665000", "210702.125000", "210702.585000", "210703.045000", "210703.505000", "210703.965000", "210704.425000", "210704.885000", "210705.345000", "210705.805000", "210706.265000", "210706.725000", "210707.185000", "210707.645000", "210708.105000", "210708.565000", "210709.025000", "210709.485000", "210709.945000", "210710.405000", "210710.865000", "210711.325000", "210711.785000", "210712.245000", "210712.705000", "210713.165000", "210713.625000", "210714.085000", "210714.545000", "210715.005000", "210715.465000", "210715.925000", "210716.385000", "210716.845000", "210717.305000", "210717.765000", "210718.225000", "210718.685000", "210719.145000", "210719.605000", "210720.065000", "210720.525000", "210720.985000", "210721.445000", "210721.905000", "210722.365000", "210722.825000", "210723.285000", "210723.745000", "210724.205000", "210724.665000", "210725.125000", "210725.585000", "210726.045000", "210726.505000", "210726.965000", "210727.425000", "210727.885000", "210728.345000", "210728.805000", "210729.265000", "210729.725000", "210730.185000", "210730.645000", "210731.105000", "210731.565000", "210732.025000", "210732.485000", "210732.945000", "210733.405000", "210733.865000", "210734.325000", "210734.785000", "210735.245000", "210735.705000", "210736.165000", "210736.625000", "210737.085000", "210737.545000", "210738.005000", "210738.465000", "210738.925000", "210739.385000", "210739.845000", "210740.305000", "210740.765000", "210741.225000", "210741.685000", "210742.145000", "210742.605000", "210743.065000", "210743.525000", "210743.985000", "210744.445000", "210744.905000", "210745.365000", "210745.825000", "210746.285000", "210746.745000", "210747.205000", "210747.665000", "210748.125000", "210748.585000", "210749.045000", "210749.505000", "210749.965000", "210750.425000", "210750.885000", "210751.345000", "210751.805000", "210752.265000", "210752.725000", "210753.185000", "210753.645000", "210754.105000", "210754.565000", "210755.025000", "210755.485000", "210755.945000", "210756.405000", "210756.865000", "210757.325000", "210757.785000", "210758.245000", "210758.705000", "210759.165000", "210759.625000", "210800.085000", "210800.545000", "210801.005000", "210801.465000", "210801.925000", "210802.385000", "210802.845000", "210803.305000", "210803.765000", "210804.225000", "210804.685000", "210805.145000", "210805.605000", "210806.065000", "210806.525000", "210806.985000", "210807.445000", "210807.905000", "210808.365000", "210808.825000", "210809.285000", "210809.745000", "210810.205000", "210810.665000", "210811.125000", "210811.585000", "210812.045000", "210812.505000", "210812.965000", "210813.425000", "210813.885000", "210814.345000", "210814.805000", "210815.265000", "210815.725000", "210816.185000", "210816.645000", "210817.105000", "210817.565000", "210818.025000", "210818.485000", "210818.945000", "210819.405000", "210819.865000", "210820.325000", "210820.785000", "210821.245000", "210821.705000", "210822.165000", "210822.625000", "210823.085000", "210823.545000", "210824.005000", "210824.465000", "210824.925000", "210825.385000", "210825.845000", "210826.305000", "210826.765000", "210827.225000", "210827.685000", "210828.145000", "210828.605000", "210829.065000", "210829.525000", "210829.985000", "210830.445000", "210830.905000", "210831.365000", "210831.825000", "210832.285000", "210832.745000", "210833.205000", "210833.665000", "210834.125000", "210834.585000", "210835.045000", "210835.505000", "210835.965000", "210836.425000", "210836.885000", "210837.345000", "210837.805000", "210838.265000", "210838.725000", "210839.185000", "210839.645000", "210840.105000", "210840.565000", "210841.025000", "210841.485000", "210841.945000", "210842.405000", "210842.865000", "210843.325000", "210843.785000", "210844.245000", "210844.705000", "210845.165000", "210845.625000", "210846.085000", "210846.545000", "210847.005000", "210847.465000", "210847.925000", "210848.385000", "210848.845000", "210849.305000", "210849.765000", "210850.225000", "210850.685000", "210851.145000", "210851.605000", "210852.065000", "210852.525000", "210852.985000", "210853.445000", "210853.905000", "210854.365000", "210854.825000", "210855.285000", "210855.745000", "210856.205000", "210856.665000", "210857.125000", "210857.585000", "210858.045000", "210858.505000", "210858.965000", "210859.425000", "210859.885000", "210900.345000", "210900.805000", "210901.265000", "210901.725000", "210902.185000", "210902.645000", "210903.105000", "210903.565000", "210904.025000", "210904.485000", "210904.945000", "210905.405000", "210905.865000", "210906.325000", "210906.785000", "210907.245000", "210907.705000", "210908.165000", "210908.625000", "210909.085000", "210909.545000", "210910.005000", "210910.465000", "210910.925000", "210911.385000", "210911.845000", "210912.305000", "210912.765000", "210913.225000", "210913.685000", "210914.145000", "210914.605000", "210915.065000", "210915.525000", "210915.985000", "210916.445000", "210916.905000", "210917.365000", "210917.825000", "210918.285000", "210918.745000", "210919.205000", "210919.665000", "210920.125000", "210920.585000", "210921.045000", "210921.505000", "210921.965000", "210922.425000", "210922.885000", "210923.345000", "210923.805000", "210924.265000", "210924.725000", "210925.185000", "210925.645000", "210926.105000", "210926.565000", "210927.025000", "210927.485000", "210927.945000", "210928.405000", "210928.865000", "210929.325000", "210929.785000", "210930.245000", "210930.705000", "210931.165000", "210931.625000", "210932.085000", "210932.545000", "210933.005000", "210933.465000", "210933.925000", "210934.385000", "210934.845000", "210935.305000", "210935.765000", "210936.225000", "210936.685000", "210937.145000", "210937.605000", "210938.065000", "210938.525000", "210938.985000", "210939.445000", "210939.905000", "210940.365000", "210940.825000", "210941.285000", "210941.745000", "210942.205000", "210942.665000", "210943.125000", "210943.585000", "210944.045000", "210944.505000", "210944.965000", "210945.425000", "210945.885000", "210946.345000", "210946.805000", "210947.265000", "210947.725000", "210948.185000", "210948.645000", "210949.105000", "210949.565000", "210950.025000", "210950.485000", "210950.945000", "210951.405000", "210951.865000", "210952.325000", "210952.785000", "210953.245000", "210953.705000", "210954.165000", "210954.625000", "210955.085000", "210955.545000", "210956.005000", "210956.465000", "210956.925000", "210957.385000", "210957.845000", "210958.305000", "210958.765000", "210959.225000", "210959.685000", "211000.145000", "211000.605000", "211001.065000", "211001.525000", "211001.985000", "211002.445000", "211002.905000", "211003.365000", "211003.825000", "211004.285000", "211004.745000", "211005.205000", "211005.665000", "211006.125000", "211006.585000", "211007.045000", "211007.505000", "211007.965000", "211008.425000", "211008.885000", "211009.345000"],
