{
  "AcquisitionMatrixPE": 140,
  "AcquisitionNumber": 1,
  "AcquisitionTime": "12:54:43.092500",
  "BandwidthPerPixelPhaseEncode": 10.352,
  "BaseResolution": 140,
  "BodyPartExamined": "BRAIN",
  "ConsistencyInfo": "N4_VE11C_LATEST_20160120",
  "ConversionSoftware": "dcm2niix",
  "ConversionSoftwareVersion": "v1.0.20201102",
  "DerivedVendorReportedEchoSpacing": 0.000689998,
  "DeviceSerialNumber": "66112",
  "DiffusionScheme": "Monopolar",
  "DwellTime": 2.1e-06,
  "EchoTime": 0.0884,
  "EchoTrainLength": 105,
  "EffectiveEchoSpacing": 0.000689998,
  "FlipAngle": 90,
  "ImageComments": "Unaliased MB3/PE3 SENSE1",
  "ImageOrientationPatientDICOM": [0.99929, -0.0015927, 0.0376351, -0.00872071, 0.962181, 0.272272],
  "ImageType": [
    "ORIGINAL",
    "PRIMARY",
    "DIFFUSION",
    "NONE",
    "MB",
    "ND",
    "MOSAIC"
],
  "ImagingFrequency": 123.252,
  "InPlanePhaseEncodingDirectionDICOM": "COL",
  "InstitutionAddress": "Maynard 3,Hanover,NH,US,03755",
  "InstitutionName": "Dartmouth College - PBS",
  "InstitutionalDepartmentName": "Department",
  "MRAcquisitionType": "2D",
  "MagneticFieldStrength": 3,
  "Manufacturer": "Siemens",
  "ManufacturersModelName": "Prisma",
  "Modality": "MR",
  "MultibandAccelerationFactor": 3,
  "PartialFourier": 0.75,
  "PatientPosition": "HFS",
  "PercentPhaseFOV": 100,
  "PercentSampling": 100,
  "PhaseEncodingDirection": "j-",
  "PhaseEncodingSteps": 105,
  "PhaseResolution": 1,
  "PixelBandwidth": 1700,
  "ProcedureStepDescription": "Wager_Wager^1076_spacetop",
  "ProtocolName": "dwi_acq-96dir-6b0-mb",
  "PulseSequenceDetails": "%CustomerSeq%\\cmrr_mbep2d_diff",
  "ReceiveCoilActiveElements": "HEA;HEP",
  "ReceiveCoilName": "Head_32",
  "ReconMatrixPE": 140,
  "RepetitionTime": 4.11,
  "SAR": 0.257302,
  "ScanOptions": "PFP\\FS",
  "ScanningSequence": "EP",
  "SequenceName": "ep_b5#1",
  "SequenceVariant": "SK\\SS",
  "SeriesDescription": "dwi_acq-96dir-6b0-mb",
  "SeriesNumber": 8,
  "ShimSetting": [4147, -7748, -7169, 523, -111, -55, -70, 57],
  "SliceThickness": 1.7,
  "SliceTiming": [0, 2.12, 0.15, 2.2725, 0.3025, 2.4225, 0.4525, 2.575, 0.605, 2.725, 0.7575, 2.8775, 0.9075, 3.03, 1.06, 3.18, 1.21, 3.3325, 1.3625, 3.4825, 1.515, 3.635, 1.665, 3.785, 1.8175, 3.9375, 1.9675, 0, 2.12, 0.15, 2.2725, 0.3025, 2.4225, 0.4525, 2.575, 0.605, 2.725, 0.7575, 2.8775, 0.9075, 3.03, 1.06, 3.18, 1.21, 3.3325, 1.3625, 3.4825, 1.515, 3.635, 1.665, 3.785, 1.8175, 3.9375, 1.9675, 0, 2.12, 0.15, 2.2725, 0.3025, 2.4225, 0.4525, 2.575, 0.605, 2.725, 0.7575, 2.8775, 0.9075, 3.03, 1.06, 3.18, 1.21, 3.3325, 1.3625, 3.4825, 1.515, 3.635, 1.665, 3.785, 1.8175, 3.9375, 1.9675],
  "SoftwareVersions": "syngo MR E11",
  "SpacingBetweenSlices": 1.7,
  "StationName": "AWP66112",
  "TotalReadoutTime": 0.0959097,
  "TxRefAmp": 256.254,
  "WipMemBlock": "62e58d51-34d7-4bef-9b6c-c43b17d06596||Sequence: R016 ve11c/master r/e634e98; Dec 19 2017 11:11:25 by eja",
  "dcmmeta_affine": [
    [-1.7130690813064575, -0.014949791133403778, 0.062297169119119644, 120.7012939453125],
    [0.002730336971580982, 1.649452805519104, 0.4630921185016632, -107.6399154663086],
    [0.06451727449893951, -0.466752290725708, 1.634522795677185, 2.2117836475372314],
    [0.0, 0.0, 0.0, 1.0]
],
  "dcmmeta_reorient_transform": [
    [0.0, -1.0, 0.0, 139.0],
    [1.0, 0.0, 0.0, 0.0],
    [0.0, 0.0, 1.0, 0.0],
    [0.0, 0.0, 0.0, 1.0]
],
  "dcmmeta_shape": [140, 140, 81, 103],
  "dcmmeta_slice_dim": 2,
  "dcmmeta_version": 0.6,
  "global": {
    "const": {
      "AccessionNumber": "A003802",
      "AcquisitionMatrix": [140, 0, 0, 140],
      "AngioFlag": "N",
      "BitsAllocated": 16,
      "BitsStored": 16,
      "BodyPartExamined": "BRAIN",
      "Columns": 1260,
      "EchoNumbers": 1,
      "EchoTime": 88.4,
      "EchoTrainLength": 105,
      "FlipAngle": 90.0,
      "HighBit": 15,
      "ImageOrientationPatient": [0.99929028025063, -0.0015926964976, 0.03763507824479, -0.0087207115692, 0.96218076124767, 0.27227216507491],
      "ImagePositionPatient": [-1069.5700674469, -1043.7985645643, -360.1777409204],
      "ImageType": [
        "ORIGINAL",
        "PRIMARY",
        "DIFFUSION",
        "NONE",
        "MB",
        "ND",
        "MOSAIC"
],
      "ImagedNucleus": "1H",
      "ImagingFrequency": 123.252133,
      "InPlanePhaseEncodingDirection": "COL",
      "MRAcquisitionType": "2D",
      "MagneticFieldStrength": 3.0,
      "Manufacturer": "SIEMENS",
      "ManufacturerModelName": "Prisma",
      "Modality": "MR",
      "NumberOfAverages": 1.0,
      "NumberOfPhaseEncodingSteps": 105,
      "PercentPhaseFieldOfView": 100.0,
      "PercentSampling": 100.0,
      "PerformedProcedureStepStartTime": "123643.179000",
      "PhotometricInterpretation": "MONOCHROME2",
      "PixelBandwidth": 1700.0,
      "PixelRepresentation": 0,
      "PixelSpacing": [1.7142857313156, 1.7142857313156],
      "ProtocolName": "dwi_acq-96dir-6b0-mb",
      "RepetitionTime": 4110.0,
      "Rows": 1260,
      "SAR": 0.25730200235511,
      "SamplesPerPixel": 1,
      "ScanOptions": [
        "PFP",
        "FS"
],
      "ScanningSequence": "EP",
      "SequenceVariant": [
        "SK",
        "SS"
],
      "SeriesDescription": "dwi_acq-96dir-6b0-mb",
      "SeriesNumber": 8,
      "SeriesTime": "125615.053000",
      "SliceLocation": -22.77214060021,
      "SliceThickness": 1.7000000476837,
      "SmallestImagePixelValue": 0,
      "SoftwareVersions": "syngo MR E11",
      "SpacingBetweenSlices": 1.6999999549286,
      "SpecificCharacterSet": "ISO_IR 100",
      "StudyID": "1",
      "StudyTime": "123643.061000",
      "TransmitCoilName": "Body",
      "VariableFlipAngleFlag": "N",
      "WindowCenterWidthExplanation": "Algo1",
      "dBdt": 0.0},
    "slices": {}
  },
  "time": {
    "samples": {
      "AcquisitionNumber": [1, 2, 3, 4, 5, 6, 7, 8, 9, 10, 11, 12, 13, 14, 15, 16, 17, 18, 19, 20, 21, 22, 23, 24, 25, 26, 27, 28, 29, 30, 31, 32, 33, 34, 35, 36, 37, 38, 39, 40, 41, 42, 43, 44, 45, 46, 47, 48, 49, 50, 51, 52, 53, 54, 55, 56, 57, 58, 59, 60, 61, 62, 63, 64, 65, 66, 67, 68, 69, 70, 71, 72, 73, 74, 75, 76, 77, 78, 79, 80, 81, 82, 83, 84, 85, 86, 87, 88, 89, 90, 91, 92, 93, 94, 95, 96, 97, 98, 99, 100, 101, 102, 103],
      "AcquisitionTime": ["125443.092500", "125447.202500", "125451.312500", "125455.422500", "125459.532500", "125503.642500", "125507.752500", "125511.862500", "125515.972500", "125520.082500", "125524.192500", "125528.302500", "125532.412500", "125536.522500", "125540.632500", "125544.742500", "125548.852500", "125552.962500", "125557.072500", "125601.182500", "125605.292500", "125609.402500", "125613.512500", "125617.622500", "125621.732500", "125625.842500", "125629.952500", "125634.062500", "125638.172500", "125642.282500", "125646.392500", "125650.502500", "125654.612500", "125658.722500", "125702.832500", "125706.942500", "125711.052500", "125715.162500", "125719.272500", "125723.382500", "125727.492500", "125731.602500", "125735.712500", "125739.822500", "125743.932500", "125748.042500", "125752.152500", "125756.262500", "125800.372500", "125804.482500", "125808.592500", "125812.702500", "125816.812500", "125820.922500", "125825.032500", "125829.142500", "125833.252500", "125837.362500", "125841.472500", "125845.582500", "125849.692500", "125853.802500", "125857.912500", "125902.022500", "125906.132500", "125910.242500", "125914.352500", "125918.462500", "125922.572500", "125926.682500", "125930.792500", "125934.902500", "125939.012500", "125943.122500", "125947.232500", "125951.342500", "125955.452500", "125959.562500", "130003.672500", "130007.782500", "130011.892500", "130016.002500", "130020.112500", "130024.222500", "130028.332500", "130032.442500", "130036.552500", "130040.662500", "130044.772500", "130048.882500", "130052.992500", "130057.102500", "130101.212500", "130105.322500", "130109.432500", "130113.542500", "130117.652500", "130121.762500", "130125.872500", "130129.982500", "130134.092500", "130138.202500", "130142.312500"],
      "ContentTime": ["125615.057000", "125615.061000", "125615.065000", "125615.068000", "125615.071000", "125615.074000", "125615.087000", "125615.090000", "125615.093000", "125615.097000", "125615.100000", "125615.103000", "125615.106000", "125615.110000", "125615.113000", "125615.116000", "125615.119000", "125615.123000", "125615.131000", "125615.134000", "125615.137000", "125615.141000", "125755.052000", "125755.056000", "125755.059000", "125755.062000", "125755.066000", "125755.069000", "125755.072000", "125755.075000", "125755.079000", "125755.082000", "125755.085000", "125755.088000", "125755.092000", "125755.095000", "125755.098000", "125755.101000", "125755.105000", "125755.108000", "125755.111000", "125755.114000", "125755.118000", "125755.121000", "125755.124000", "125755.127000", "125915.052000", "125915.056000", "125915.059000", "125915.062000", "125915.066000", "125915.069000", "125915.072000", "125915.075000", "125915.085000", "125915.088000", "125915.091000", "125915.094000", "125915.098000", "125915.101000", "125915.104000", "125915.107000", "125915.111000", "125915.114000", "125915.117000", "125915.121000", "130015.052000", "130015.056000", "130015.059000", "130015.062000", "130015.066000", "130015.069000", "130015.072000", "130015.075000", "130015.079000", "130015.082000", "130015.085000", "130015.089000", "130015.092000", "130015.095000", "130135.052000", "130135.056000", "130135.059000", "130135.062000", "130135.066000", "130135.069000", "130135.072000", "130135.076000", "130135.079000", "130135.082000", "130135.085000", "130135.089000", "130135.092000", "130135.095000", "130135.099000", "130135.102000", "130135.105000", "130135.108000", "130135.112000", "130135.115000", "130147.095000", "130147.098000", "130147.102000"],
      "InstanceCreationTime": ["125615.057000", "125615.061000", "125615.065000", "125615.068000", "125615.071000", "125615.074000", "125615.087000", "125615.090000", "125615.093000", "125615.097000", "125615.100000", "125615.103000", "125615.106000", "125615.110000", "125615.113000", "125615.116000", "125615.119000", "125615.123000", "125615.131000", "125615.134000", "125615.137000", "125615.141000", "125755.052000", "125755.056000", "125755.059000", "125755.062000", "125755.066000", "125755.069000", "125755.072000", "125755.075000", "125755.079000", "125755.082000", "125755.085000", "125755.088000", "125755.092000", "125755.095000", "125755.098000", "125755.101000", "125755.105000", "125755.108000", "125755.111000", "125755.114000", "125755.118000", "125755.121000", "125755.124000", "125755.127000", "125915.052000", "125915.056000", "125915.059000", "125915.062000", "125915.066000", "125915.069000", "125915.072000", "125915.075000", "125915.085000", "125915.088000", "125915.091000", "125915.094000", "125915.098000", "125915.101000", "125915.104000", "125915.107000", "125915.111000", "125915.114000", "125915.117000", "125915.121000", "130015.052000", "130015.056000", "130015.059000", "130015.062000", "130015.066000", "130015.069000", "130015.072000", "130015.075000", "130015.079000", "130015.082000", "130015.085000", "130015.089000", "130015.092000", "130015.095000", "130135.052000", "130135.056000", "130135.059000", "130135.062000", "130135.066000", "130135.069000", "130135.072000", "130135.076000", "130135.079000", "130135.082000", "130135.085000", "130135.089000", "130135.092000", "130135.095000", "130135.099000", "130135.102000", "130135.105000", "130135.108000", "130135.112000", "130135.115000", "130147.095000", "130147.098000", "130147.102000"],
      "InstanceNumber": [1, 2, 3, 4, 5, 6, 7, 8, 9, 10, 11, 12, 13, 14, 15, 16, 17, 18, 19, 20, 21, 22, 23, 24, 25, 26, 27, 28, 29, 30, 31, 32, 33, 34, 35, 36, 37, 38, 39, 40, 41, 42, 43, 44, 45, 46, 47, 48, 49, 50, 51, 52, 53, 54, 55, 56, 57, 58, 59, 60, 61, 62, 63, 64, 65, 66, 67, 68, 69, 70, 71, 72, 73, 74, 75, 76, 77, 78, 79, 80, 81, 82, 83, 84, 85, 86, 87, 88, 89, 90, 91, 92, 93, 94, 95, 96, 97, 98, 99, 100, 101, 102, 103],
      "LargestImagePixelValue": [65535, 65535, 42385, 42784, 41166, 43071, 41486, 42869, 65535, 28845, 31735, 30458, 29103, 30999, 28956, 29011, 29134, 29722, 28865, 29340, 28033, 28943, 32159, 28548, 65535, 15917, 17213, 16768, 14849, 17351, 18009, 15622, 18303, 15025, 16495, 17358, 15885, 15750, 15280, 15305, 65535, 9903, 10555, 11023, 11828, 9248, 9750, 9573, 8968, 8933, 10737, 12016, 10645, 11076, 10345, 9920, 10191, 9395, 11123, 12623, 8622, 12064, 9604, 8953, 8944, 9860, 9466, 8532, 10681, 11025, 12262, 9792, 9793, 65535, 11498, 9464, 10074, 8657, 9523, 10890, 8950, 12266, 9312, 13251, 10000, 10174, 10737, 11748, 13140, 11393, 13021, 8824, 11286, 9188, 11393, 10884, 10072, 9116, 10630, 8581, 9223, 9286, 65535],
      "SequenceName": [
 "ep_b5#1",
 "ep_b5#1",
 "ep_b500#2",
 "ep_b500#3",
 "ep_b500#4",
 "ep_b505#5",
 "ep_b495#6",
 "ep_b500#7",
 "ep_b5#8",
 "ep_b1000#9",
 "ep_b1005#10",
 "ep_b1000#11",
 "ep_b1005#12",
 "ep_b995#13",
 "ep_b995#14",
 "ep_b1005#15",
 "ep_b1000#16",
 "ep_b1000#17",
 "ep_b995#18",
 "ep_b1000#19",
 "ep_b995#20",
 "ep_b1000#21",
 "ep_b1005#22",
 "ep_b1005#23",
 "ep_b5#24",
 "ep_b2000#25",
 "ep_b2000#26",
 "ep_b1995#27",
 "ep_b1995#28",
 "ep_b2005#29",
 "ep_b2010#30",
 "ep_b2005#31",
 "ep_b2005#32",
 "ep_b1995#33",
 "ep_b1990#34",
 "ep_b1995#35",
 "ep_b2005#36",
 "ep_b2000#37",
 "ep_b2010#38",
 "ep_b2000#39",
 "ep_b5#40",
 "ep_b3000#41",
 "ep_b3005#42",
 "ep_b3010#43",
 "ep_b3010#44",
 "ep_b2995#45",
 "ep_b2995#46",
 "ep_b2990#47",
 "ep_b3000#48",
 "ep_b3000#49",
 "ep_b2990#50",
 "ep_b2990#51",
 "ep_b2995#52",
 "ep_b2995#53",
 "ep_b3010#54",
 "ep_b3000#55",
 "ep_b2995#56",
 "ep_b3000#57",
 "ep_b2990#58",
 "ep_b2990#59",
 "ep_b3000#60",
 "ep_b2990#61",
 "ep_b2990#62",
 "ep_b2995#63",
 "ep_b3005#64",
 "ep_b3010#65",
 "ep_b3000#66",
 "ep_b3005#67",
 "ep_b3010#68",
 "ep_b3005#69",
 "ep_b3005#70",
 "ep_b3010#71",
 "ep_b2990#72",
 "ep_b5#73",
 "ep_b3010#74",
 "ep_b3000#75",
 "ep_b3005#76",
 "ep_b3005#77",
 "ep_b2995#78",
 "ep_b3000#79",
 "ep_b2995#80",
 "ep_b3010#81",
 "ep_b3010#82",
 "ep_b3005#83",
 "ep_b3000#84",
 "ep_b3005#85",
 "ep_b3005#86",
 "ep_b3010#87",
 "ep_b2990#88",
 "ep_b3010#89",
 "ep_b2995#90",
 "ep_b2995#91",
 "ep_b2995#92",
 "ep_b2995#93",
 "ep_b3005#94",
 "ep_b3005#95",
 "ep_b2995#96",
 "ep_b3000#97",
 "ep_b2990#98",
 "ep_b3000#99",
 "ep_b3000#100",
 "ep_b2995#101",
 "ep_b5#102"
],
      "WindowCenter": [9728.0, 9717.0, 6880.0, 6899.0, 6871.0, 6847.0, 6921.0, 6914.0, 9730.0, 5297.0, 5284.0, 5294.0, 5243.0, 5302.0, 5327.0, 5270.0, 5289.0, 5239.0, 5309.0, 5280.0, 5331.0, 5290.0, 5300.0, 5291.0, 9723.0, 3431.0, 3427.0, 3430.0, 3456.0, 3435.0, 3448.0, 3417.0, 3414.0, 3420.0, 3486.0, 3472.0, 3380.0, 3411.0, 3448.0, 3401.0, 9759.0, 2421.0, 2375.0, 2455.0, 2488.0, 2394.0, 2405.0, 2448.0, 2333.0, 2357.0, 2431.0, 2500.0, 2432.0, 2473.0, 2436.0, 2388.0, 2437.0, 2370.0, 2507.0, 2502.0, 2343.0, 2486.0, 2463.0, 2385.0, 2386.0, 2449.0, 2389.0, 2373.0, 2473.0, 2457.0, 2478.0, 2435.0, 2474.0, 9746.0, 2490.0, 2386.0, 2368.0, 2357.0, 2382.0, 2403.0, 2353.0, 2454.0, 2425.0, 2471.0, 2433.0, 2432.0, 2400.0, 2426.0, 2512.0, 2459.0, 2542.0, 2356.0, 2430.0, 2438.0, 2434.0, 2456.0, 2461.0, 2363.0, 2497.0, 2338.0, 2398.0, 2414.0, 9737.0],
      "WindowWidth": [21396.0, 21372.0, 14573.0, 14608.0, 14550.0, 14529.0, 14661.0, 14631.0, 21404.0, 11395.0, 11397.0, 11393.0, 11313.0, 11425.0, 11472.0, 11363.0, 11385.0, 11307.0, 11422.0, 11356.0, 11468.0, 11381.0, 11412.0, 11385.0, 21379.0, 7790.0, 7776.0, 7785.0, 7843.0, 7805.0, 7826.0, 7769.0, 7755.0, 7782.0, 7900.0, 7869.0, 7697.0, 7741.0, 7832.0, 7732.0, 21481.0, 5854.0, 5716.0, 5902.0, 5937.0, 5803.0, 5816.0, 5894.0, 5661.0, 5738.0, 5818.0, 5949.0, 5870.0, 5952.0, 5883.0, 5775.0, 5889.0, 5732.0, 5988.0, 5964.0, 5716.0, 5935.0, 5929.0, 5801.0, 5808.0, 5905.0, 5778.0, 5780.0, 5951.0, 5920.0, 5941.0, 5889.0, 5937.0, 21455.0, 5944.0, 5769.0, 5715.0, 5742.0, 5738.0, 5775.0, 5723.0, 5858.0, 5876.0, 5911.0, 5872.0, 5871.0, 5758.0, 5804.0, 5981.0, 5882.0, 6054.0, 5698.0, 5822.0, 5899.0, 5845.0, 5910.0, 5935.0, 5731.0, 5980.0, 5691.0, 5820.0, 5857.0, 21421.0]
    },
    "slices": {}
  }
}