{
  "AcquisitionMatrixPE": 82,
  "AcquisitionNumber": 1,
  "AcquisitionTime": "18:30:12.552500",
  "BandwidthPerPixelPhaseEncode": 24.888,
  "BaseResolution": 82,
  "BodyPartExamined": "BRAIN",
  "ConsistencyInfo": "N4_VE11E_LATEST_20181129",
  "ConversionSoftware": "dcm2niix",
  "ConversionSoftwareVersion": "v1.0.20201102",
  "DerivedVendorReportedEchoSpacing": 0.00049,
  "DeviceSerialNumber": "66112",
  "DwellTime": 2e-06,
  "EchoTime": 0.0272,
  "EchoTrainLength": 82,
  "EffectiveEchoSpacing": 0.00049,
  "FlipAngle": 44,
  "ImageComments": "Unaliased MB8/PE3",
  "ImageOrientationPatientDICOM": [0.997589, 0.0162274, -0.0674775, -0.015323, 0.999786, 0.0138986],
  "ImageType": [
    "ORIGINAL",
    "PRIMARY",
    "M",
    "MB",
    "ND",
    "NORM",
    "MOSAIC"
],
  "ImagingFrequency": 123.252,
  "InPlanePhaseEncodingDirectionDICOM": "COL",
  "InstitutionAddress": "Maynard 3,Hanover,NH,US,03755",
  "InstitutionName": "Dartmouth College - PBS",
  "InstitutionalDepartmentName": "Department",
  "MRAcquisitionType": "2D",
  "MagneticFieldStrength": 3,
  "Manufacturer": "Siemens",
  "ManufacturersModelName": "Prisma",
  "Modality": "MR",
  "MultibandAccelerationFactor": 8,
  "PartialFourier": 1,
  "PatientPosition": "HFS",
  "PercentPhaseFOV": 100,
  "PercentSampling": 100,
  "PhaseEncodingDirection": "j-",
  "PhaseEncodingSteps": 82,
  "PhaseResolution": 1,
  "PixelBandwidth": 3050,
  "ProcedureStepDescription": "Wager_Wager^1076_spacetop",
  "ProtocolName": "func_run-01_task-faces_acq-ap-mb8",
  "PulseSequenceDetails": "%CustomerSeq%\\cmrr_mbep2d_bold",
  "ReceiveCoilActiveElements": "HEA;HEP",
  "ReceiveCoilName": "Head_32",
  "ReconMatrixPE": 82,
  "RepetitionTime": 0.46,
  "SAR": 0.105412,
  "ScanOptions": "FS",
  "ScanningSequence": "EP",
  "SequenceName": "epfid2d1_82",
  "SequenceVariant": "SK\\SS",
  "SeriesDescription": "func_run-01_task-faces_acq-ap-mb8",
  "SeriesNumber": 16,
  "ShimSetting": [4121, -7773, -7238, 604, 0, -256, -48, 79],
  "SliceThickness": 2.7,
  "SliceTiming": [0, 0.25, 0.0625, 0.3125, 0.125, 0.375, 0.1875, 0, 0.25, 0.0625, 0.3125, 0.125, 0.375, 0.1875, 0, 0.25, 0.0625, 0.3125, 0.125, 0.375, 0.1875, 0, 0.25, 0.0625, 0.3125, 0.125, 0.375, 0.1875, 0, 0.25, 0.0625, 0.3125, 0.125, 0.375, 0.1875, 0, 0.25, 0.0625, 0.3125, 0.125, 0.375, 0.1875, 0, 0.25, 0.0625, 0.3125, 0.125, 0.375, 0.1875, 0, 0.25, 0.0625, 0.3125, 0.125, 0.375, 0.1875],
  "SoftwareVersions": "syngo MR E11",
  "SpacingBetweenSlices": 2.7,
  "StationName": "AWP66112",
  "TaskName": "faces",
  "TotalReadoutTime": 0.03969,
  "TxRefAmp": 250.498,
  "WipMemBlock": "bb51a78a-df43-40d0-b1a4-a3bacb9c9aa9||Sequence: R016 ve11e/master r/434b28f1; Aug  7 2019 18:53:46 by eja",
  "dcmmeta_affine": [
    [-2.6764578819274902, -0.041110582649707794, -0.1827591359615326, 118.76461029052734],
    [-0.04353693872690201, 2.6823527812957764, 0.034644026309251785, -92.18801879882812],
    [-0.18103711307048798, -0.03728890419006348, 2.693584680557251, -67.0714111328125],
    [0.0, 0.0, 0.0, 1.0]
],
  "dcmmeta_reorient_transform": [
    [0.0, -1.0, 0.0, 81.0],
    [1.0, 0.0, 0.0, 0.0],
    [0.0, 0.0, 1.0, 0.0],
    [0.0, 0.0, 0.0, 1.0]
],
  "dcmmeta_shape": [82, 82, 56, 914],
  "dcmmeta_slice_dim": 2,
  "dcmmeta_version": 0.6,
  "global": {
    "const": {
      "AccessionNumber": "A003959",
      "AcquisitionMatrix": [82, 0, 0, 82],
      "AngioFlag": "N",
      "BitsAllocated": 16,
      "BitsStored": 16,
      "BodyPartExamined": "BRAIN",
      "Columns": 656,
      "EchoNumbers": 1,
      "EchoTime": 27.2,
      "EchoTrainLength": 82,
      "FlipAngle": 44.0,
      "HighBit": 15,
      "ImageOrientationPatient": [0.9975888244301, 0.01622740355097, -0.0674774684333, -0.0153230355328, 0.99978599396568, 0.01389859173142],
      "ImagePositionPatient": [-871.77932896192, -907.41288466357, -28.836076269854],
      "ImageType": [
        "ORIGINAL",
        "PRIMARY",
        "M",
        "MB",
        "ND",
        "NORM",
        "MOSAIC"
],
      "ImagedNucleus": "1H",
      "ImagingFrequency": 123.25219,
      "InPlanePhaseEncodingDirection": "COL",
      "MRAcquisitionType": "2D",
      "MagneticFieldStrength": 3.0,
      "Manufacturer": "SIEMENS",
      "ManufacturerModelName": "Prisma",
      "Modality": "MR",
      "NumberOfAverages": 1.0,
      "NumberOfPhaseEncodingSteps": 82,
      "PercentPhaseFieldOfView": 100.0,
      "PercentSampling": 100.0,
      "PerformedProcedureStepStartTime": "174110.612000",
      "PhotometricInterpretation": "MONOCHROME2",
      "PixelBandwidth": 3050.0,
      "PixelRepresentation": 0,
      "PixelSpacing": [2.6829268932343, 2.6829268932343],
      "ProtocolName": "func_run-01_task-faces_acq-ap-mb8",
      "RepetitionTime": 460.0,
      "Rows": 656,
      "SAR": 0.10541241019812,
      "SamplesPerPixel": 1,
      "ScanOptions": "FS",
      "ScanningSequence": "EP",
      "SequenceName": "epfid2d1_82",
      "SequenceVariant": [
        "SK",
        "SS"
],
      "SeriesDescription": "func_run-01_task-faces_acq-ap-mb8",
      "SeriesNumber": 16,
      "SeriesTime": "183030.916000",
      "SliceLocation": -76.133930214642,
      "SliceThickness": 2.7000000476837,
      "SmallestImagePixelValue": 0,
      "SoftwareVersions": "syngo MR E11",
      "SpacingBetweenSlices": 2.7000000224239,
      "SpecificCharacterSet": "ISO_IR 100",
      "StudyID": "2",
      "StudyTime": "174110.555000",
      "TransmitCoilName": "Body",
      "VariableFlipAngleFlag": "N",
      "WindowCenterWidthExplanation": "Algo1"
    },
    "slices": {}
  },
  "time": {
    "samples": {
      "AcquisitionNumber": [1, 2, 3, 4, 5, 6, 7, 8, 9, 10, 11, 12, 13, 14, 15, 16, 17, 18, 19, 20, 21, 22, 23, 24, 25, 26, 27, 28, 29, 30, 31, 32, 33, 34, 35, 36, 37, 38, 39, 40, 41, 42, 43, 44, 45, 46, 47, 48, 49, 50, 51, 52, 53, 54, 55, 56, 57, 58, 59, 60, 61, 62, 63, 64, 65, 66, 67, 68, 69, 70, 71, 72, 73, 74, 75, 76, 77, 78, 79, 80, 81, 82, 83, 84, 85, 86, 87, 88, 89, 90, 91, 92, 93, 94, 95, 96, 97, 98, 99, 100, 101, 102, 103, 104, 105, 106, 107, 108, 109, 110, 111, 112, 113, 114, 115, 116, 117, 118, 119, 120, 121, 122, 123, 124, 125, 126, 127, 128, 129, 130, 131, 132, 133, 134, 135, 136, 137, 138, 139, 140, 141, 142, 143, 144, 145, 146, 147, 148, 149, 150, 151, 152, 153, 154, 155, 156, 157, 158, 159, 160, 161, 162, 163, 164, 165, 166, 167, 168, 169, 170, 171, 172, 173, 174, 175, 176, 177, 178, 179, 180, 181, 182, 183, 184, 185, 186, 187, 188, 189, 190, 191, 192, 193, 194, 195, 196, 197, 198, 199, 200, 201, 202, 203, 204, 205, 206, 207, 208, 209, 210, 211, 212, 213, 214, 215, 216, 217, 218, 219, 220, 221, 222, 223, 224, 225, 226, 227, 228, 229, 230, 231, 232, 233, 234, 235, 236, 237, 238, 239, 240, 241, 242, 243, 244, 245, 246, 247, 248, 249, 250, 251, 252, 253, 254, 255, 256, 257, 258, 259, 260, 261, 262, 263, 264, 265, 266, 267, 268, 269, 270, 271, 272, 273, 274, 275, 276, 277, 278, 279, 280, 281, 282, 283, 284, 285, 286, 287, 288, 289, 290, 291, 292, 293, 294, 295, 296, 297, 298, 299, 300, 301, 302, 303, 304, 305, 306, 307, 308, 309, 310, 311, 312, 313, 314, 315, 316, 317, 318, 319, 320, 321, 322, 323, 324, 325, 326, 327, 328, 329, 330, 331, 332, 333, 334, 335, 336, 337, 338, 339, 340, 341, 342, 343, 344, 345, 346, 347, 348, 349, 350, 351, 352, 353, 354, 355, 356, 357, 358, 359, 360, 361, 362, 363, 364, 365, 366, 367, 368, 369, 370, 371, 372, 373, 374, 375, 376, 377, 378, 379, 380, 381, 382, 383, 384, 385, 386, 387, 388, 389, 390, 391, 392, 393, 394, 395, 396, 397, 398, 399, 400, 401, 402, 403, 404, 405, 406, 407, 408, 409, 410, 411, 412, 413, 414, 415, 416, 417, 418, 419, 420, 421, 422, 423, 424, 425, 426, 427, 428, 429, 430, 431, 432, 433, 434, 435, 436, 437, 438, 439, 440, 441, 442, 443, 444, 445, 446, 447, 448, 449, 450, 451, 452, 453, 454, 455, 456, 457, 458, 459, 460, 461, 462, 463, 464, 465, 466, 467, 468, 469, 470, 471, 472, 473, 474, 475, 476, 477, 478, 479, 480, 481, 482, 483, 484, 485, 486, 487, 488, 489, 490, 491, 492, 493, 494, 495, 496, 497, 498, 499, 500, 501, 502, 503, 504, 505, 506, 507, 508, 509, 510, 511, 512, 513, 514, 515, 516, 517, 518, 519, 520, 521, 522, 523, 524, 525, 526, 527, 528, 529, 530, 531, 532, 533, 534, 535, 536, 537, 538, 539, 540, 541, 542, 543, 544, 545, 546, 547, 548, 549, 550, 551, 552, 553, 554, 555, 556, 557, 558, 559, 560, 561, 562, 563, 564, 565, 566, 567, 568, 569, 570, 571, 572, 573, 574, 575, 576, 577, 578, 579, 580, 581, 582, 583, 584, 585, 586, 587, 588, 589, 590, 591, 592, 593, 594, 595, 596, 597, 598, 599, 600, 601, 602, 603, 604, 605, 606, 607, 608, 609, 610, 611, 612, 613, 614, 615, 616, 617, 618, 619, 620, 621, 622, 623, 624, 625, 626, 627, 628, 629, 630, 631, 632, 633, 634, 635, 636, 637, 638, 639, 640, 641, 642, 643, 644, 645, 646, 647, 648, 649, 650, 651, 652, 653, 654, 655, 656, 657, 658, 659, 660, 661, 662, 663, 664, 665, 666, 667, 668, 669, 670, 671, 672, 673, 674, 675, 676, 677, 678, 679, 680, 681, 682, 683, 684, 685, 686, 687, 688, 689, 690, 691, 692, 693, 694, 695, 696, 697, 698, 699, 700, 701, 702, 703, 704, 705, 706, 707, 708, 709, 710, 711, 712, 713, 714, 715, 716, 717, 718, 719, 720, 721, 722, 723, 724, 725, 726, 727, 728, 729, 730, 731, 732, 733, 734, 735, 736, 737, 738, 739, 740, 741, 742, 743, 744, 745, 746, 747, 748, 749, 750, 751, 752, 753, 754, 755, 756, 757, 758, 759, 760, 761, 762, 763, 764, 765, 766, 767, 768, 769, 770, 771, 772, 773, 774, 775, 776, 777, 778, 779, 780, 781, 782, 783, 784, 785, 786, 787, 788, 789, 790, 791, 792, 793, 794, 795, 796, 797, 798, 799, 800, 801, 802, 803, 804, 805, 806, 807, 808, 809, 810, 811, 812, 813, 814, 815, 816, 817, 818, 819, 820, 821, 822, 823, 824, 825, 826, 827, 828, 829, 830, 831, 832, 833, 834, 835, 836, 837, 838, 839, 840, 841, 842, 843, 844, 845, 846, 847, 848, 849, 850, 851, 852, 853, 854, 855, 856, 857, 858, 859, 860, 861, 862, 863, 864, 865, 866, 867, 868, 869, 870, 871, 872, 873, 874, 875, 876, 877, 878, 879, 880, 881, 882, 883, 884, 885, 886, 887, 888, 889, 890, 891, 892, 893, 894, 895, 896, 897, 898, 899, 900, 901, 902, 903, 904, 905, 906, 907, 908, 909, 910, 911, 912, 913, 914],
      "AcquisitionTime": ["183012.552500", "183013.012500", "183013.472500", "183013.932500", "183014.392500", "183014.852500", "183015.312500", "183015.772500", "183016.232500", "183016.692500", "183017.152500", "183017.612500", "183018.072500", "183018.532500", "183018.992500", "183019.452500", "183019.912500", "183020.372500", "183020.832500", "183021.292500", "183021.752500", "183022.212500", "183022.672500", "183023.132500", "183023.592500", "183024.052500", "183024.512500", "183024.972500", "183025.432500", "183025.892500", "183026.352500", "183026.812500", "183027.272500", "183027.732500", "183028.192500", "183028.652500", "183029.112500", "183029.572500", "183030.032500", "183030.492500", "183030.952500", "183031.412500", "183031.872500", "183032.332500", "183032.792500", "183033.252500", "183033.712500", "183034.172500", "183034.632500", "183035.092500", "183035.552500", "183036.012500", "183036.472500", "183036.932500", "183037.392500", "183037.852500", "183038.312500", "183038.772500", "183039.232500", "183039.692500", "183040.152500", "183040.612500", "183041.072500", "183041.532500", "183041.992500", "183042.452500", "183042.912500", "183043.372500", "183043.832500", "183044.292500", "183044.752500", "183045.212500", "183045.672500", "183046.132500", "183046.592500", "183047.052500", "183047.512500", "183047.972500", "183048.432500", "183048.892500", "183049.352500", "183049.812500", "183050.272500", "183050.732500", "183051.192500", "183051.652500", "183052.112500", "183052.572500", "183053.032500", "183053.492500", "183053.952500", "183054.412500", "183054.872500", "183055.332500", "183055.792500", "183056.252500", "183056.712500", "183057.172500", "183057.632500", "183058.092500", "183058.552500", "183059.012500", "183059.472500", "183059.932500", "183100.392500", "183100.852500", "183101.312500", "183101.772500", "183102.232500", "183102.692500", "183103.152500", "183103.612500", "183104.072500", "183104.532500", "183104.992500", "183105.452500", "183105.912500", "183106.372500", "183106.832500", "183107.292500", "183107.752500", "183108.212500", "183108.672500", "183109.132500", "183109.592500", "183110.052500", "183110.512500", "183110.972500", "183111.432500", "183111.892500", "183112.352500", "183112.812500", "183113.272500", "183113.732500", "183114.192500", "183114.652500", "183115.112500", "183115.572500", "183116.032500", "183116.492500", "183116.952500", "183117.412500", "183117.872500", "183118.332500", "183118.792500", "183119.252500", "183119.712500", "183120.172500", "183120.632500", "183121.092500", "183121.552500", "183122.012500", "183122.472500", "183122.932500", "183123.392500", "183123.852500", "183124.312500", "183124.772500", "183125.232500", "183125.692500", "183126.152500", "183126.612500", "183127.072500", "183127.532500", "183127.992500", "183128.452500", "183128.912500", "183129.372500", "183129.832500", "183130.292500", "183130.752500", "183131.212500", "183131.672500", "183132.132500", "183132.592500", "183133.052500", "183133.512500", "183133.972500", "183134.432500", "183134.892500", "183135.352500", "183135.812500", "183136.272500", "183136.732500", "183137.192500", "183137.652500", "183138.112500", "183138.572500", "183139.032500", "183139.492500", "183139.952500", "183140.412500", "183140.872500", "183141.332500", "183141.792500", "183142.252500", "183142.712500", "183143.172500", "183143.632500", "183144.092500", "183144.552500", "183145.012500", "183145.472500", "183145.932500", "183146.392500", "183146.852500", "183147.312500", "183147.772500", "183148.232500", "183148.692500", "183149.152500", "183149.612500", "183150.072500", "183150.532500", "183150.992500", "183151.452500", "183151.912500", "183152.372500", "183152.832500", "183153.292500", "183153.752500", "183154.212500", "183154.672500", "183155.132500", "183155.592500", "183156.052500", "183156.512500", "183156.972500", "183157.432500", "183157.892500", "183158.352500", "183158.812500", "183159.272500", "183159.732500", "183200.192500", "183200.652500", "183201.112500", "183201.572500", "183202.032500", "183202.492500", "183202.952500", "183203.412500", "183203.872500", "183204.332500", "183204.792500", "183205.252500", "183205.712500", "183206.172500", "183206.632500", "183207.092500", "183207.552500", "183208.012500", "183208.472500", "183208.932500", "183209.392500", "183209.852500", "183210.312500", "183210.772500", "183211.232500", "183211.692500", "183212.152500", "183212.612500", "183213.072500", "183213.532500", "183213.992500", "183214.452500", "183214.912500", "183215.372500", "183215.832500", "183216.292500", "183216.752500", "183217.212500", "183217.672500", "183218.132500", "183218.592500", "183219.052500", "183219.512500", "183219.972500", "183220.432500", "183220.892500", "183221.352500", "183221.812500", "183222.272500", "183222.732500", "183223.192500", "183223.652500", "183224.112500", "183224.572500", "183225.032500", "183225.492500", "183225.952500", "183226.412500", "183226.872500", "183227.332500", "183227.792500", "183228.252500", "183228.712500", "183229.172500", "183229.632500", "183230.092500", "183230.552500", "183231.012500", "183231.472500", "183231.932500", "183232.392500", "183232.852500", "183233.312500", "183233.772500", "183234.232500", "183234.692500", "183235.152500", "183235.612500", "183236.072500", "183236.532500", "183236.992500", "183237.452500", "183237.912500", "183238.372500", "183238.832500", "183239.292500", "183239.752500", "183240.212500", "183240.672500", "183241.132500", "183241.592500", "183242.052500", "183242.512500", "183242.972500", "183243.432500", "183243.892500", "183244.352500", "183244.812500", "183245.272500", "183245.732500", "183246.192500", "183246.652500", "183247.112500", "183247.572500", "183248.032500", "183248.492500", "183248.952500", "183249.412500", "183249.872500", "183250.332500", "183250.792500", "183251.252500", "183251.712500", "183252.172500", "183252.632500", "183253.092500", "183253.552500", "183254.012500", "183254.472500", "183254.932500", "183255.392500", "183255.852500", "183256.312500", "183256.772500", "183257.232500", "183257.692500", "183258.152500", "183258.612500", "183259.072500", "183259.532500", "183259.992500", "183300.452500", "183300.912500", "183301.372500", "183301.832500", "183302.292500", "183302.752500", "183303.212500", "183303.672500", "183304.132500", "183304.592500", "183305.052500", "183305.512500", "183305.972500", "183306.432500", "183306.892500", "183307.352500", "183307.812500", "183308.272500", "183308.732500", "183309.192500", "183309.652500", "183310.112500", "183310.572500", "183311.032500", "183311.492500", "183311.952500", "183312.412500", "183312.872500", "183313.332500", "183313.792500", "183314.252500", "183314.712500", "183315.172500", "183315.632500", "183316.092500", "183316.552500", "183317.012500", "183317.472500", "183317.932500", "183318.392500", "183318.852500", "183319.312500", "183319.772500", "183320.232500", "183320.692500", "183321.152500", "183321.612500", "183322.072500", "183322.532500", "183322.992500", "183323.452500", "183323.912500", "183324.372500", "183324.832500", "183325.292500", "183325.752500", "183326.212500", "183326.672500", "183327.132500", "183327.592500", "183328.052500", "183328.512500", "183328.972500", "183329.432500", "183329.892500", "183330.352500", "183330.812500", "183331.272500", "183331.732500", "183332.192500", "183332.652500", "183333.112500", "183333.572500", "183334.032500", "183334.492500", "183334.952500", "183335.412500", "183335.872500", "183336.332500", "183336.792500", "183337.252500", "183337.712500", "183338.172500", "183338.632500", "183339.092500", "183339.552500", "183340.012500", "183340.472500", "183340.932500", "183341.392500", "183341.852500", "183342.312500", "183342.772500", "183343.232500", "183343.692500", "183344.152500", "183344.612500", "183345.072500", "183345.532500", "183345.992500", "183346.452500", "183346.912500", "183347.372500", "183347.832500", "183348.292500", "183348.752500", "183349.212500", "183349.672500", "183350.132500", "183350.592500", "183351.052500", "183351.512500", "183351.972500", "183352.432500", "183352.892500", "183353.352500", "183353.812500", "183354.272500", "183354.732500", "183355.192500", "183355.652500", "183356.112500", "183356.572500", "183357.032500", "183357.492500", "183357.952500", "183358.412500", "183358.872500", "183359.332500", "183359.792500", "183400.252500", "183400.712500", "183401.172500", "183401.632500", "183402.092500", "183402.552500", "183403.012500", "183403.472500", "183403.932500", "183404.392500", "183404.852500", "183405.312500", "183405.772500", "183406.232500", "183406.692500", "183407.152500", "183407.612500", "183408.072500", "183408.532500", "183408.992500", "183409.452500", "183409.912500", "183410.372500", "183410.832500", "183411.292500", "183411.752500", "183412.212500", "183412.672500", "183413.132500", "183413.592500", "183414.052500", "183414.512500", "183414.972500", "183415.432500", "183415.892500", "183416.352500", "183416.812500", "183417.272500", "183417.732500", "183418.192500", "183418.652500", "183419.112500", "183419.572500", "183420.032500", "183420.492500", "183420.952500", "183421.412500", "183421.872500", "183422.332500", "183422.792500", "183423.252500", "183423.712500", "183424.172500", "183424.632500", "183425.092500", "183425.552500", "183426.012500", "183426.472500", "183426.932500", "183427.392500", "183427.852500", "183428.312500", "183428.772500", "183429.232500", "183429.692500", "183430.152500", "183430.612500", "183431.072500", "183431.532500", "183431.992500", "183432.452500", "183432.912500", "183433.372500", "183433.832500", "183434.292500", "183434.752500", "183435.212500", "183435.672500", "183436.132500", "183436.592500", "183437.052500", "183437.512500", "183437.972500", "183438.432500", "183438.892500", "183439.352500", "183439.812500", "183440.272500", "183440.732500", "183441.192500", "183441.652500", "183442.112500", "183442.572500", "183443.032500", "183443.492500", "183443.952500", "183444.412500", "183444.872500", "183445.332500", "183445.792500", "183446.252500", "183446.712500", "183447.172500", "183447.632500", "183448.092500", "183448.552500", "183449.012500", "183449.472500", "183449.932500", "183450.392500", "183450.852500", "183451.312500", "183451.772500", "183452.232500", "183452.692500", "183453.152500", "183453.612500", "183454.072500", "183454.532500", "183454.992500", "183455.452500", "183455.912500", "183456.372500", "183456.832500", "183457.292500", "183457.752500", "183458.212500", "183458.672500", "183459.132500", "183459.592500", "183500.052500", "183500.512500", "183500.972500", "183501.432500", "183501.892500", "183502.352500", "183502.812500", "183503.272500", "183503.732500", "183504.192500", "183504.652500", "183505.112500", "183505.572500", "183506.032500", "183506.492500", "183506.952500", "183507.412500", "183507.872500", "183508.332500", "183508.792500", "183509.252500", "183509.712500", "183510.172500", "183510.632500", "183511.092500", "183511.552500", "183512.012500", "183512.472500", "183512.932500", "183513.392500", "183513.852500", "183514.312500", "183514.772500", "183515.232500", "183515.692500", "183516.152500", "183516.612500", "183517.072500", "183517.532500", "183517.992500", "183518.452500", "183518.912500", "183519.372500", "183519.832500", "183520.292500", "183520.752500", "183521.212500", "183521.672500", "183522.132500", "183522.592500", "183523.052500", "183523.512500", "183523.972500", "183524.432500", "183524.892500", "183525.352500", "183525.812500", "183526.272500", "183526.732500", "183527.192500", "183527.652500", "183528.112500", "183528.572500", "183529.032500", "183529.492500", "183529.952500", "183530.412500", "183530.872500", "183531.332500", "183531.792500", "183532.252500", "183532.712500", "183533.172500", "183533.632500", "183534.092500", "183534.552500", "183535.012500", "183535.472500", "183535.932500", "183536.392500", "183536.852500", "183537.312500", "183537.772500", "183538.232500", "183538.692500", "183539.152500", "183539.612500", "183540.072500", "183540.532500", "183540.992500", "183541.452500", "183541.912500", "183542.372500", "183542.832500", "183543.292500", "183543.752500", "183544.212500", "183544.672500", "183545.132500", "183545.592500", "183546.052500", "183546.512500", "183546.972500", "183547.432500", "183547.892500", "183548.352500", "183548.812500", "183549.272500", "183549.732500", "183550.192500", "183550.652500", "183551.112500", "183551.572500", "183552.032500", "183552.492500", "183552.952500", "183553.412500", "183553.872500", "183554.332500", "183554.792500", "183555.252500", "183555.712500", "183556.172500", "183556.632500", "183557.092500", "183557.552500", "183558.012500", "183558.472500", "183558.932500", "183559.392500", "183559.852500", "183600.312500", "183600.772500", "183601.232500", "183601.692500", "183602.152500", "183602.612500", "183603.072500", "183603.532500", "183603.992500", "183604.452500", "183604.912500", "183605.372500", "183605.832500", "183606.292500", "183606.752500", "183607.212500", "183607.672500", "183608.132500", "183608.592500", "183609.052500", "183609.512500", "183609.972500", "183610.432500", "183610.892500", "183611.352500", "183611.812500", "183612.272500", "183612.732500", "183613.192500", "183613.652500", "183614.112500", "183614.572500", "183615.032500", "183615.492500", "183615.952500", "183616.412500", "183616.872500", "183617.332500", "183617.792500", "183618.252500", "183618.712500", "183619.172500", "183619.632500", "183620.092500", "183620.552500", "183621.012500", "183621.472500", "183621.932500", "183622.392500", "183622.852500", "183623.312500", "183623.772500", "183624.232500", "183624.692500", "183625.152500", "183625.612500", "183626.072500", "183626.532500", "183626.992500", "183627.452500", "183627.912500", "183628.372500", "183628.832500", "183629.292500", "183629.752500", "183630.212500", "183630.672500", "183631.132500", "183631.592500", "183632.052500", "183632.512500", "183632.972500", "183633.432500", "183633.892500", "183634.352500", "183634.812500", "183635.272500", "183635.732500", "183636.192500", "183636.652500", "183637.112500", "183637.572500", "183638.032500", "183638.492500", "183638.952500", "183639.412500", "183639.872500", "183640.332500", "183640.792500", "183641.252500", "183641.712500", "183642.172500", "183642.632500", "183643.092500", "183643.552500", "183644.012500", "183644.472500", "183644.932500", "183645.392500", "183645.852500", "183646.312500", "183646.772500", "183647.232500", "183647.692500", "183648.152500", "183648.612500", "183649.072500", "183649.532500", "183649.992500", "183650.452500", "183650.912500", "183651.372500", "183651.832500", "183652.292500", "183652.752500", "183653.212500", "183653.672500", "183654.132500", "183654.592500", "183655.052500", "183655.512500", "183655.972500", "183656.432500", "183656.892500", "183657.352500", "183657.812500", "183658.272500", "183658.732500", "183659.192500", "183659.652500", "183700.112500", "183700.572500", "183701.032500", "183701.492500", "183701.952500", "183702.412500", "183702.872500", "183703.332500", "183703.792500", "183704.252500", "183704.712500", "183705.172500", "183705.632500", "183706.092500", "183706.552500", "183707.012500", "183707.472500", "183707.932500", "183708.392500", "183708.852500", "183709.312500", "183709.772500", "183710.232500", "183710.692500", "183711.152500", "183711.612500", "183712.072500", "183712.532500"],
