{
  "AcquisitionMatrixPE": 82,
  "AcquisitionNumber": 1,
  "AcquisitionTime": "18:37:37.962500",
  "BandwidthPerPixelPhaseEncode": 24.888,
  "BaseResolution": 82,
  "BodyPartExamined": "BRAIN",
  "ConsistencyInfo": "N4_VE11E_LATEST_20181129",
  "ConversionSoftware": "dcm2niix",
  "ConversionSoftwareVersion": "v1.0.20201102",
  "DerivedVendorReportedEchoSpacing": 0.00049,
  "DeviceSerialNumber": "66112",
  "DwellTime": 2e-06,
  "EchoTime": 0.0272,
  "EchoTrainLength": 82,
  "EffectiveEchoSpacing": 0.00049,
  "FlipAngle": 44,
  "ImageComments": "Unaliased MB8/PE3",
  "ImageOrientationPatientDICOM": [0.997589, 0.0162274, -0.0674775, -0.015323, 0.999786, 0.0138986],
  "ImageType": [
    "ORIGINAL",
    "PRIMARY",
    "M",
    "MB",
    "ND",
    "NORM",
    "MOSAIC"
],
  "ImagingFrequency": 123.252,
  "InPlanePhaseEncodingDirectionDICOM": "COL",
  "InstitutionAddress": "Maynard 3,Hanover,NH,US,03755",
  "InstitutionName": "Dartmouth College - PBS",
  "InstitutionalDepartmentName": "Department",
  "MRAcquisitionType": "2D",
  "MagneticFieldStrength": 3,
  "Manufacturer": "Siemens",
  "ManufacturersModelName": "Prisma",
  "Modality": "MR",
  "MultibandAccelerationFactor": 8,
  "PartialFourier": 1,
  "PatientPosition": "HFS",
  "PercentPhaseFOV": 100,
  "PercentSampling": 100,
  "PhaseEncodingDirection": "j-",
  "PhaseEncodingSteps": 82,
  "PhaseResolution": 1,
  "PixelBandwidth": 3050,
  "ProcedureStepDescription": "Wager_Wager^1076_spacetop",
  "ProtocolName": "func_run-02_task-faces_acq-ap-mb8",
  "PulseSequenceDetails": "%CustomerSeq%\\cmrr_mbep2d_bold",
  "ReceiveCoilActiveElements": "HEA;HEP",
  "ReceiveCoilName": "Head_32",
  "ReconMatrixPE": 82,
  "RepetitionTime": 0.46,
  "SAR": 0.105412,
  "ScanOptions": "FS",
  "ScanningSequence": "EP",
  "SequenceName": "epfid2d1_82",
  "SequenceVariant": "SK\\SS",
  "SeriesDescription": "func_run-02_task-faces_acq-ap-mb8",
  "SeriesNumber": 18,
  "ShimSetting": [4121, -7773, -7238, 604, 0, -256, -48, 79],
  "SliceThickness": 2.7,
  "SliceTiming": [0, 0.2525, 0.0625, 0.315, 0.1275, 0.3775, 0.19, 0, 0.2525, 0.0625, 0.315, 0.1275, 0.3775, 0.19, 0, 0.2525, 0.0625, 0.315, 0.1275, 0.3775, 0.19, 0, 0.2525, 0.0625, 0.315, 0.1275, 0.3775, 0.19, 0, 0.2525, 0.0625, 0.315, 0.1275, 0.3775, 0.19, 0, 0.2525, 0.0625, 0.315, 0.1275, 0.3775, 0.19, 0, 0.2525, 0.0625, 0.315, 0.1275, 0.3775, 0.19, 0, 0.2525, 0.0625, 0.315, 0.1275, 0.3775, 0.19],
  "SoftwareVersions": "syngo MR E11",
  "SpacingBetweenSlices": 2.7,
  "StationName": "AWP66112",
  "TaskName": "faces",
  "TotalReadoutTime": 0.03969,
  "TxRefAmp": 250.498,
  "WipMemBlock": "da4982d1-4708-44d0-a3d8-0eaa609f34d9||Sequence: R016 ve11e/master r/434b28f1; Aug  7 2019 18:53:46 by eja",
  "dcmmeta_affine": [
    [-2.6764578819274902, -0.041110582649707794, -0.1827591359615326, 118.76461029052734],
    [-0.04353693872690201, 2.6823527812957764, 0.034644026309251785, -92.18801879882812],
    [-0.18103711307048798, -0.03728890419006348, 2.693584680557251, -67.0714111328125],
    [0.0, 0.0, 0.0, 1.0]
],
  "dcmmeta_reorient_transform": [
    [0.0, -1.0, 0.0, 81.0],
    [1.0, 0.0, 0.0, 0.0],
    [0.0, 0.0, 1.0, 0.0],
    [0.0, 0.0, 0.0, 1.0]
],
  "dcmmeta_shape": [82, 82, 56, 914],
  "dcmmeta_slice_dim": 2,
  "dcmmeta_version": 0.6,
  "global": {
    "const": {
      "AccessionNumber": "A003959",
      "AcquisitionMatrix": [82, 0, 0, 82],
      "AngioFlag": "N",
      "BitsAllocated": 16,
      "BitsStored": 16,
      "BodyPartExamined": "BRAIN",
      "Columns": 656,
      "EchoNumbers": 1,
      "EchoTime": 27.2,
      "EchoTrainLength": 82,
      "FlipAngle": 44.0,
      "HighBit": 15,
      "ImageOrientationPatient": [0.9975888244301, 0.01622740355097, -0.0674774684333, -0.0153230355328, 0.99978599396568, 0.01389859173142],
      "ImagePositionPatient": [-871.77932896192, -907.41288466357, -28.836076269854],
      "ImageType": [
        "ORIGINAL",
        "PRIMARY",
        "M",
        "MB",
        "ND",
        "NORM",
        "MOSAIC"
],
      "ImagedNucleus": "1H",
      "ImagingFrequency": 123.252192,
      "InPlanePhaseEncodingDirection": "COL",
      "MRAcquisitionType": "2D",
      "MagneticFieldStrength": 3.0,
      "Manufacturer": "SIEMENS",
      "ManufacturerModelName": "Prisma",
      "Modality": "MR",
      "NumberOfAverages": 1.0,
      "NumberOfPhaseEncodingSteps": 82,
      "PercentPhaseFieldOfView": 100.0,
      "PercentSampling": 100.0,
      "PerformedProcedureStepStartTime": "174110.612000",
      "PhotometricInterpretation": "MONOCHROME2",
      "PixelBandwidth": 3050.0,
      "PixelRepresentation": 0,
      "PixelSpacing": [2.6829268932343, 2.6829268932343],
      "ProtocolName": "func_run-02_task-faces_acq-ap-mb8",
      "RepetitionTime": 460.0,
      "Rows": 656,
      "SAR": 0.10541241019812,
      "SamplesPerPixel": 1,
      "ScanOptions": "FS",
      "ScanningSequence": "EP",
      "SequenceName": "epfid2d1_82",
      "SequenceVariant": [
        "SK",
        "SS"
],
      "SeriesDescription": "func_run-02_task-faces_acq-ap-mb8",
      "SeriesNumber": 18,
      "SeriesTime": "183750.775000",
      "SliceLocation": -76.133930214642,
      "SliceThickness": 2.7000000476837,
      "SmallestImagePixelValue": 0,
      "SoftwareVersions": "syngo MR E11",
      "SpacingBetweenSlices": 2.7000000224239,
      "SpecificCharacterSet": "ISO_IR 100",
      "StudyID": "2",
      "StudyTime": "174110.555000",
      "TransmitCoilName": "Body",
      "VariableFlipAngleFlag": "N",
      "WindowCenterWidthExplanation": "Algo1"
    },
    "slices": {}
  },
  "time": {
    "samples": {
      "AcquisitionNumber": [1, 2, 3, 4, 5, 6, 7, 8, 9, 10, 11, 12, 13, 14, 15, 16, 17, 18, 19, 20, 21, 22, 23, 24, 25, 26, 27, 28, 29, 30, 31, 32, 33, 34, 35, 36, 37, 38, 39, 40, 41, 42, 43, 44, 45, 46, 47, 48, 49, 50, 51, 52, 53, 54, 55, 56, 57, 58, 59, 60, 61, 62, 63, 64, 65, 66, 67, 68, 69, 70, 71, 72, 73, 74, 75, 76, 77, 78, 79, 80, 81, 82, 83, 84, 85, 86, 87, 88, 89, 90, 91, 92, 93, 94, 95, 96, 97, 98, 99, 100, 101, 102, 103, 104, 105, 106, 107, 108, 109, 110, 111, 112, 113, 114, 115, 116, 117, 118, 119, 120, 121, 122, 123, 124, 125, 126, 127, 128, 129, 130, 131, 132, 133, 134, 135, 136, 137, 138, 139, 140, 141, 142, 143, 144, 145, 146, 147, 148, 149, 150, 151, 152, 153, 154, 155, 156, 157, 158, 159, 160, 161, 162, 163, 164, 165, 166, 167, 168, 169, 170, 171, 172, 173, 174, 175, 176, 177, 178, 179, 180, 181, 182, 183, 184, 185, 186, 187, 188, 189, 190, 191, 192, 193, 194, 195, 196, 197, 198, 199, 200, 201, 202, 203, 204, 205, 206, 207, 208, 209, 210, 211, 212, 213, 214, 215, 216, 217, 218, 219, 220, 221, 222, 223, 224, 225, 226, 227, 228, 229, 230, 231, 232, 233, 234, 235, 236, 237, 238, 239, 240, 241, 242, 243, 244, 245, 246, 247, 248, 249, 250, 251, 252, 253, 254, 255, 256, 257, 258, 259, 260, 261, 262, 263, 264, 265, 266, 267, 268, 269, 270, 271, 272, 273, 274, 275, 276, 277, 278, 279, 280, 281, 282, 283, 284, 285, 286, 287, 288, 289, 290, 291, 292, 293, 294, 295, 296, 297, 298, 299, 300, 301, 302, 303, 304, 305, 306, 307, 308, 309, 310, 311, 312, 313, 314, 315, 316, 317, 318, 319, 320, 321, 322, 323, 324, 325, 326, 327, 328, 329, 330, 331, 332, 333, 334, 335, 336, 337, 338, 339, 340, 341, 342, 343, 344, 345, 346, 347, 348, 349, 350, 351, 352, 353, 354, 355, 356, 357, 358, 359, 360, 361, 362, 363, 364, 365, 366, 367, 368, 369, 370, 371, 372, 373, 374, 375, 376, 377, 378, 379, 380, 381, 382, 383, 384, 385, 386, 387, 388, 389, 390, 391, 392, 393, 394, 395, 396, 397, 398, 399, 400, 401, 402, 403, 404, 405, 406, 407, 408, 409, 410, 411, 412, 413, 414, 415, 416, 417, 418, 419, 420, 421, 422, 423, 424, 425, 426, 427, 428, 429, 430, 431, 432, 433, 434, 435, 436, 437, 438, 439, 440, 441, 442, 443, 444, 445, 446, 447, 448, 449, 450, 451, 452, 453, 454, 455, 456, 457, 458, 459, 460, 461, 462, 463, 464, 465, 466, 467, 468, 469, 470, 471, 472, 473, 474, 475, 476, 477, 478, 479, 480, 481, 482, 483, 484, 485, 486, 487, 488, 489, 490, 491, 492, 493, 494, 495, 496, 497, 498, 499, 500, 501, 502, 503, 504, 505, 506, 507, 508, 509, 510, 511, 512, 513, 514, 515, 516, 517, 518, 519, 520, 521, 522, 523, 524, 525, 526, 527, 528, 529, 530, 531, 532, 533, 534, 535, 536, 537, 538, 539, 540, 541, 542, 543, 544, 545, 546, 547, 548, 549, 550, 551, 552, 553, 554, 555, 556, 557, 558, 559, 560, 561, 562, 563, 564, 565, 566, 567, 568, 569, 570, 571, 572, 573, 574, 575, 576, 577, 578, 579, 580, 581, 582, 583, 584, 585, 586, 587, 588, 589, 590, 591, 592, 593, 594, 595, 596, 597, 598, 599, 600, 601, 602, 603, 604, 605, 606, 607, 608, 609, 610, 611, 612, 613, 614, 615, 616, 617, 618, 619, 620, 621, 622, 623, 624, 625, 626, 627, 628, 629, 630, 631, 632, 633, 634, 635, 636, 637, 638, 639, 640, 641, 642, 643, 644, 645, 646, 647, 648, 649, 650, 651, 652, 653, 654, 655, 656, 657, 658, 659, 660, 661, 662, 663, 664, 665, 666, 667, 668, 669, 670, 671, 672, 673, 674, 675, 676, 677, 678, 679, 680, 681, 682, 683, 684, 685, 686, 687, 688, 689, 690, 691, 692, 693, 694, 695, 696, 697, 698, 699, 700, 701, 702, 703, 704, 705, 706, 707, 708, 709, 710, 711, 712, 713, 714, 715, 716, 717, 718, 719, 720, 721, 722, 723, 724, 725, 726, 727, 728, 729, 730, 731, 732, 733, 734, 735, 736, 737, 738, 739, 740, 741, 742, 743, 744, 745, 746, 747, 748, 749, 750, 751, 752, 753, 754, 755, 756, 757, 758, 759, 760, 761, 762, 763, 764, 765, 766, 767, 768, 769, 770, 771, 772, 773, 774, 775, 776, 777, 778, 779, 780, 781, 782, 783, 784, 785, 786, 787, 788, 789, 790, 791, 792, 793, 794, 795, 796, 797, 798, 799, 800, 801, 802, 803, 804, 805, 806, 807, 808, 809, 810, 811, 812, 813, 814, 815, 816, 817, 818, 819, 820, 821, 822, 823, 824, 825, 826, 827, 828, 829, 830, 831, 832, 833, 834, 835, 836, 837, 838, 839, 840, 841, 842, 843, 844, 845, 846, 847, 848, 849, 850, 851, 852, 853, 854, 855, 856, 857, 858, 859, 860, 861, 862, 863, 864, 865, 866, 867, 868, 869, 870, 871, 872, 873, 874, 875, 876, 877, 878, 879, 880, 881, 882, 883, 884, 885, 886, 887, 888, 889, 890, 891, 892, 893, 894, 895, 896, 897, 898, 899, 900, 901, 902, 903, 904, 905, 906, 907, 908, 909, 910, 911, 912, 913, 914],
      "AcquisitionTime": ["183737.962500", "183738.422500", "183738.882500", "183739.342500", "183739.802500", "183740.262500", "183740.722500", "183741.182500", "183741.642500", "183742.102500", "183742.562500", "183743.022500", "183743.482500", "183743.942500", "183744.402500", "183744.862500", "183745.322500", "183745.782500", "183746.242500", "183746.702500", "183747.162500", "183747.622500", "183748.082500", "183748.542500", "183749.002500", "183749.462500", "183749.922500", "183750.382500", "183750.842500", "183751.302500", "183751.762500", "183752.222500", "183752.682500", "183753.142500", "183753.602500", "183754.062500", "183754.522500", "183754.982500", "183755.442500", "183755.902500", "183756.362500", "183756.822500", "183757.282500", "183757.742500", "183758.202500", "183758.662500", "183759.122500", "183759.582500", "183800.042500", "183800.502500", "183800.962500", "183801.422500", "183801.882500", "183802.342500", "183802.802500", "183803.262500", "183803.722500", "183804.182500", "183804.642500", "183805.102500", "183805.562500", "183806.022500", "183806.482500", "183806.942500", "183807.402500", "183807.862500", "183808.322500", "183808.782500", "183809.242500", "183809.702500", "183810.162500", "183810.622500", "183811.082500", "183811.542500", "183812.002500", "183812.462500", "183812.922500", "183813.382500", "183813.842500", "183814.302500", "183814.762500", "183815.222500", "183815.682500", "183816.142500", "183816.602500", "183817.062500", "183817.522500", "183817.982500", "183818.442500", "183818.902500", "183819.362500", "183819.822500", "183820.282500", "183820.742500", "183821.202500", "183821.662500", "183822.122500", "183822.582500", "183823.042500", "183823.502500", "183823.962500", "183824.422500", "183824.882500", "183825.342500", "183825.802500", "183826.262500", "183826.722500", "183827.182500", "183827.642500", "183828.102500", "183828.562500", "183829.022500", "183829.482500", "183829.942500", "183830.402500", "183830.862500", "183831.322500", "183831.782500", "183832.242500", "183832.702500", "183833.162500", "183833.622500", "183834.082500", "183834.542500", "183835.002500", "183835.462500", "183835.922500", "183836.382500", "183836.842500", "183837.302500", "183837.762500", "183838.222500", "183838.682500", "183839.142500", "183839.602500", "183840.062500", "183840.522500", "183840.982500", "183841.442500", "183841.902500", "183842.362500", "183842.822500", "183843.282500", "183843.742500", "183844.202500", "183844.662500", "183845.122500", "183845.582500", "183846.042500", "183846.502500", "183846.962500", "183847.422500", "183847.882500", "183848.342500", "183848.802500", "183849.262500", "183849.722500", "183850.182500", "183850.642500", "183851.102500", "183851.562500", "183852.022500", "183852.482500", "183852.942500", "183853.402500", "183853.862500", "183854.322500", "183854.782500", "183855.242500", "183855.702500", "183856.162500", "183856.622500", "183857.082500", "183857.542500", "183858.002500", "183858.462500", "183858.922500", "183859.382500", "183859.842500", "183900.302500", "183900.762500", "183901.222500", "183901.682500", "183902.142500", "183902.602500", "183903.062500", "183903.522500", "183903.982500", "183904.442500", "183904.902500", "183905.362500", "183905.822500", "183906.282500", "183906.742500", "183907.202500", "183907.662500", "183908.122500", "183908.582500", "183909.042500", "183909.502500", "183909.962500", "183910.422500", "183910.882500", "183911.342500", "183911.802500", "183912.262500", "183912.722500", "183913.182500", "183913.642500", "183914.102500", "183914.562500", "183915.022500", "183915.482500", "183915.942500", "183916.402500", "183916.862500", "183917.322500", "183917.782500", "183918.242500", "183918.702500", "183919.162500", "183919.622500", "183920.082500", "183920.542500", "183921.002500", "183921.462500", "183921.922500", "183922.382500", "183922.842500", "183923.302500", "183923.762500", "183924.222500", "183924.682500", "183925.142500", "183925.602500", "183926.062500", "183926.522500", "183926.982500", "183927.442500", "183927.902500", "183928.362500", "183928.822500", "183929.282500", "183929.742500", "183930.202500", "183930.662500", "183931.122500", "183931.582500", "183932.042500", "183932.502500", "183932.962500", "183933.422500", "183933.882500", "183934.342500", "183934.802500", "183935.262500", "183935.722500", "183936.182500", "183936.642500", "183937.102500", "183937.562500", "183938.022500", "183938.482500", "183938.942500", "183939.402500", "183939.862500", "183940.322500", "183940.782500", "183941.242500", "183941.702500", "183942.162500", "183942.622500", "183943.082500", "183943.542500", "183944.002500", "183944.462500", "183944.922500", "183945.382500", "183945.842500", "183946.302500", "183946.762500", "183947.222500", "183947.682500", "183948.142500", "183948.602500", "183949.062500", "183949.522500", "183949.982500", "183950.442500", "183950.902500", "183951.362500", "183951.822500", "183952.282500", "183952.742500", "183953.202500", "183953.662500", "183954.122500", "183954.582500", "183955.042500", "183955.502500", "183955.962500", "183956.422500", "183956.882500", "183957.342500", "183957.802500", "183958.262500", "183958.722500", "183959.182500", "183959.642500", "184000.102500", "184000.562500", "184001.022500", "184001.482500", "184001.942500", "184002.402500", "184002.862500", "184003.322500", "184003.782500", "184004.242500", "184004.702500", "184005.162500", "184005.622500", "184006.082500", "184006.542500", "184007.002500", "184007.462500", "184007.922500", "184008.382500", "184008.842500", "184009.302500", "184009.762500", "184010.222500", "184010.682500", "184011.142500", "184011.602500", "184012.062500", "184012.522500", "184012.982500", "184013.442500", "184013.902500", "184014.362500", "184014.822500", "184015.282500", "184015.742500", "184016.202500", "184016.662500", "184017.122500", "184017.582500", "184018.042500", "184018.502500", "184018.962500", "184019.422500", "184019.882500", "184020.342500", "184020.802500", "184021.262500", "184021.722500", "184022.182500", "184022.642500", "184023.102500", "184023.562500", "184024.022500", "184024.482500", "184024.942500", "184025.402500", "184025.862500", "184026.322500", "184026.782500", "184027.242500", "184027.702500", "184028.162500", "184028.622500", "184029.082500", "184029.542500", "184030.002500", "184030.462500", "184030.922500", "184031.382500", "184031.842500", "184032.302500", "184032.762500", "184033.222500", "184033.682500", "184034.142500", "184034.602500", "184035.062500", "184035.522500", "184035.982500", "184036.442500", "184036.902500", "184037.362500", "184037.822500", "184038.282500", "184038.742500", "184039.202500", "184039.662500", "184040.122500", "184040.582500", "184041.042500", "184041.502500", "184041.962500", "184042.422500", "184042.882500", "184043.342500", "184043.802500", "184044.262500", "184044.722500", "184045.182500", "184045.642500", "184046.102500", "184046.562500", "184047.022500", "184047.482500", "184047.942500", "184048.402500", "184048.862500", "184049.322500", "184049.782500", "184050.242500", "184050.702500", "184051.162500", "184051.622500", "184052.082500", "184052.542500", "184053.002500", "184053.462500", "184053.922500", "184054.382500", "184054.842500", "184055.302500", "184055.762500", "184056.222500", "184056.682500", "184057.142500", "184057.602500", "184058.062500", "184058.522500", "184058.982500", "184059.442500", "184059.902500", "184100.362500", "184100.822500", "184101.282500", "184101.742500", "184102.202500", "184102.662500", "184103.122500", "184103.582500", "184104.042500", "184104.502500", "184104.962500", "184105.422500", "184105.882500", "184106.342500", "184106.802500", "184107.262500", "184107.722500", "184108.182500", "184108.642500", "184109.102500", "184109.562500", "184110.022500", "184110.482500", "184110.942500", "184111.402500", "184111.862500", "184112.322500", "184112.782500", "184113.242500", "184113.702500", "184114.162500", "184114.622500", "184115.082500", "184115.542500", "184116.002500", "184116.462500", "184116.922500", "184117.382500", "184117.842500", "184118.302500", "184118.762500", "184119.222500", "184119.682500", "184120.142500", "184120.602500", "184121.062500", "184121.522500", "184121.982500", "184122.442500", "184122.902500", "184123.362500", "184123.822500", "184124.282500", "184124.742500", "184125.202500", "184125.662500", "184126.122500", "184126.582500", "184127.042500", "184127.502500", "184127.962500", "184128.422500", "184128.882500", "184129.342500", "184129.802500", "184130.262500", "184130.722500", "184131.182500", "184131.642500", "184132.102500", "184132.562500", "184133.022500", "184133.482500", "184133.942500", "184134.402500", "184134.862500", "184135.322500", "184135.782500", "184136.242500", "184136.702500", "184137.162500", "184137.622500", "184138.082500", "184138.542500", "184139.002500", "184139.462500", "184139.922500", "184140.382500", "184140.842500", "184141.302500", "184141.762500", "184142.222500", "184142.682500", "184143.142500", "184143.602500", "184144.062500", "184144.522500", "184144.982500", "184145.442500", "184145.902500", "184146.362500", "184146.822500", "184147.282500", "184147.742500", "184148.202500", "184148.662500", "184149.122500", "184149.582500", "184150.042500", "184150.502500", "184150.962500", "184151.422500", "184151.882500", "184152.342500", "184152.802500", "184153.262500", "184153.722500", "184154.182500", "184154.642500", "184155.102500", "184155.562500", "184156.022500", "184156.482500", "184156.942500", "184157.402500", "184157.862500", "184158.322500", "184158.782500", "184159.242500", "184159.702500", "184200.162500", "184200.622500", "184201.082500", "184201.542500", "184202.002500", "184202.462500", "184202.922500", "184203.382500", "184203.842500", "184204.302500", "184204.762500", "184205.222500", "184205.682500", "184206.142500", "184206.602500", "184207.062500", "184207.522500", "184207.982500", "184208.442500", "184208.902500", "184209.362500", "184209.822500", "184210.282500", "184210.742500", "184211.202500", "184211.662500", "184212.122500", "184212.582500", "184213.042500", "184213.502500", "184213.962500", "184214.422500", "184214.882500", "184215.342500", "184215.802500", "184216.262500", "184216.722500", "184217.182500", "184217.642500", "184218.102500", "184218.562500", "184219.022500", "184219.482500", "184219.942500", "184220.402500", "184220.862500", "184221.322500", "184221.782500", "184222.242500", "184222.702500", "184223.162500", "184223.622500", "184224.082500", "184224.542500", "184225.002500", "184225.462500", "184225.922500", "184226.382500", "184226.842500", "184227.302500", "184227.762500", "184228.222500", "184228.682500", "184229.142500", "184229.602500", "184230.062500", "184230.522500", "184230.982500", "184231.442500", "184231.902500", "184232.362500", "184232.822500", "184233.282500", "184233.742500", "184234.202500", "184234.662500", "184235.122500", "184235.582500", "184236.042500", "184236.502500", "184236.962500", "184237.422500", "184237.882500", "184238.342500", "184238.802500", "184239.262500", "184239.722500", "184240.182500", "184240.642500", "184241.102500", "184241.562500", "184242.022500", "184242.482500", "184242.942500", "184243.402500", "184243.862500", "184244.322500", "184244.782500", "184245.242500", "184245.702500", "184246.162500", "184246.622500", "184247.082500", "184247.542500", "184248.002500", "184248.462500", "184248.922500", "184249.382500", "184249.842500", "184250.302500", "184250.762500", "184251.222500", "184251.682500", "184252.142500", "184252.602500", "184253.062500", "184253.522500", "184253.982500", "184254.442500", "184254.902500", "184255.362500", "184255.822500", "184256.282500", "184256.742500", "184257.202500", "184257.662500", "184258.122500", "184258.582500", "184259.042500", "184259.502500", "184259.962500", "184300.422500", "184300.882500", "184301.342500", "184301.802500", "184302.262500", "184302.722500", "184303.182500", "184303.642500", "184304.102500", "184304.562500", "184305.022500", "184305.482500", "184305.942500", "184306.402500", "184306.862500", "184307.322500", "184307.782500", "184308.242500", "184308.702500", "184309.162500", "184309.622500", "184310.082500", "184310.542500", "184311.002500", "184311.462500", "184311.922500", "184312.382500", "184312.842500", "184313.302500", "184313.762500", "184314.222500", "184314.682500", "184315.142500", "184315.602500", "184316.062500", "184316.522500", "184316.982500", "184317.442500", "184317.902500", "184318.362500", "184318.822500", "184319.282500", "184319.742500", "184320.202500", "184320.662500", "184321.122500", "184321.582500", "184322.042500", "184322.502500", "184322.962500", "184323.422500", "184323.882500", "184324.342500", "184324.802500", "184325.262500", "184325.722500", "184326.182500", "184326.642500", "184327.102500", "184327.562500", "184328.022500", "184328.482500", "184328.942500", "184329.402500", "184329.862500", "184330.322500", "184330.782500", "184331.242500", "184331.702500", "184332.162500", "184332.622500", "184333.082500", "184333.542500", "184334.002500", "184334.462500", "184334.922500", "184335.382500", "184335.842500", "184336.302500", "184336.762500", "184337.222500", "184337.682500", "184338.142500", "184338.602500", "184339.062500", "184339.522500", "184339.982500", "184340.442500", "184340.902500", "184341.362500", "184341.822500", "184342.282500", "184342.742500", "184343.202500", "184343.662500", "184344.122500", "184344.582500", "184345.042500", "184345.502500", "184345.962500", "184346.422500", "184346.882500", "184347.342500", "184347.802500", "184348.262500", "184348.722500", "184349.182500", "184349.642500", "184350.102500", "184350.562500", "184351.022500", "184351.482500", "184351.942500", "184352.402500", "184352.862500", "184353.322500", "184353.782500", "184354.242500", "184354.702500", "184355.162500", "184355.622500", "184356.082500", "184356.542500", "184357.002500", "184357.462500", "184357.922500", "184358.382500", "184358.842500", "184359.302500", "184359.762500", "184400.222500", "184400.682500", "184401.142500", "184401.602500", "184402.062500", "184402.522500", "184402.982500", "184403.442500", "184403.902500", "184404.362500", "184404.822500", "184405.282500", "184405.742500", "184406.202500", "184406.662500", "184407.122500", "184407.582500", "184408.042500", "184408.502500", "184408.962500", "184409.422500", "184409.882500", "184410.342500", "184410.802500", "184411.262500", "184411.722500", "184412.182500", "184412.642500", "184413.102500", "184413.562500", "184414.022500", "184414.482500", "184414.942500", "184415.402500", "184415.862500", "184416.322500", "184416.782500", "184417.242500", "184417.702500", "184418.162500", "184418.622500", "184419.082500", "184419.542500", "184420.002500", "184420.462500", "184420.922500", "184421.382500", "184421.842500", "184422.302500", "184422.762500", "184423.222500", "184423.682500", "184424.142500", "184424.602500", "184425.062500", "184425.522500", "184425.982500", "184426.442500", "184426.902500", "184427.362500", "184427.822500", "184428.282500", "184428.742500", "184429.202500", "184429.662500", "184430.122500", "184430.582500", "184431.042500", "184431.502500", "184431.962500", "184432.422500", "184432.882500", "184433.342500", "184433.802500", "184434.262500", "184434.722500", "184435.182500", "184435.642500", "184436.102500", "184436.562500", "184437.022500", "184437.482500", "184437.942500"],
