{
  "AcquisitionMatrixPE": 82,
  "AcquisitionNumber": 1,
  "AcquisitionTime": "21:56:29.757500",
  "BandwidthPerPixelPhaseEncode": 24.888,
  "BaseResolution": 82,
  "BodyPartExamined": "BRAIN",
  "ConsistencyInfo": "N4_VE11E_LATEST_20181129",
  "ConversionSoftware": "dcm2niix",
  "ConversionSoftwareVersion": "v1.0.20201102",
  "DerivedVendorReportedEchoSpacing": 0.00049,
  "DeviceSerialNumber": "66112",
  "DwellTime": 2e-06,
  "EchoTime": 0.0272,
  "EchoTrainLength": 82,
  "EffectiveEchoSpacing": 0.00049,
  "FlipAngle": 44,
  "ImageComments": "Unaliased MB8/PE3",
  "ImageOrientationPatientDICOM": [0.999444, 0.0039073, 0.0331216, 0.000697779, 0.990446, -0.137897],
  "ImageType": [
    "ORIGINAL",
    "PRIMARY",
    "M",
    "MB",
    "ND",
    "NORM",
    "MOSAIC"
],
  "ImagingFrequency": 123.259,
  "InPlanePhaseEncodingDirectionDICOM": "COL",
  "InstitutionAddress": "Maynard 3,Hanover,NH,US,03755",
  "InstitutionName": "Dartmouth College - PBS",
  "InstitutionalDepartmentName": "Department",
  "MRAcquisitionType": "2D",
  "MagneticFieldStrength": 3,
  "Manufacturer": "Siemens",
  "ManufacturersModelName": "Prisma",
  "Modality": "MR",
  "MultibandAccelerationFactor": 8,
  "PartialFourier": 1,
  "PatientPosition": "HFS",
  "PercentPhaseFOV": 100,
  "PercentSampling": 100,
  "PhaseEncodingDirection": "j-",
  "PhaseEncodingSteps": 82,
  "PhaseResolution": 1,
  "PixelBandwidth": 3050,
  "ProcedureStepDescription": "Wager_Wager^1076_spacetop",
  "ProtocolName": "func_run-01_task-alignvideo_acq-ap-mb8",
  "PulseSequenceDetails": "%CustomerSeq%\\cmrr_mbep2d_bold",
  "ReceiveCoilActiveElements": "HEA;HEP",
  "ReceiveCoilName": "Head_32",
  "ReconMatrixPE": 82,
  "RepetitionTime": 0.46,
  "SAR": 0.081563,
  "ScanOptions": "FS",
  "ScanningSequence": "EP",
  "SequenceName": "epfid2d1_82",
  "SequenceVariant": "SK\\SS",
  "SeriesDescription": "func_run-01_task-alignvideo_acq-ap-mb8",
  "SeriesNumber": 28,
  "ShimSetting": [4229, -7749, -7235, 222, -156, -267, -85, 48],
  "SliceThickness": 2.7,
  "SliceTiming": [0, 0.25, 0.0625, 0.3125, 0.125, 0.375, 0.1875, 0, 0.25, 0.0625, 0.3125, 0.125, 0.375, 0.1875, 0, 0.25, 0.0625, 0.3125, 0.125, 0.375, 0.1875, 0, 0.25, 0.0625, 0.3125, 0.125, 0.375, 0.1875, 0, 0.25, 0.0625, 0.3125, 0.125, 0.375, 0.1875, 0, 0.25, 0.0625, 0.3125, 0.125, 0.375, 0.1875, 0, 0.25, 0.0625, 0.3125, 0.125, 0.375, 0.1875, 0, 0.25, 0.0625, 0.3125, 0.125, 0.375, 0.1875],
  "SoftwareVersions": "syngo MR E11",
  "SpacingBetweenSlices": 2.7,
  "StationName": "AWP66112",
  "TaskName": "alignvideo",
  "TotalReadoutTime": 0.03969,
  "TxRefAmp": 232.744,
  "WipMemBlock": "7c0c127e-9f68-4ccc-a049-363643103bb7||Sequence: R016 ve11e/master r/434b28f1; Aug  7 2019 18:53:46 by eja",
  "dcmmeta_affine": [
    [-2.681434392929077, 0.0018720892257988453, 0.0900288075208664, 104.01349639892578],
    [-0.010482989251613617, 2.6572952270507812, -0.3721759021282196, -91.49223327636719],
    [0.08886291086673737, 0.3699662983417511, 2.672710418701172, -97.611328125],
    [0.0, 0.0, 0.0, 1.0]
],
  "dcmmeta_reorient_transform": [
    [0.0, -1.0, 0.0, 81.0],
    [1.0, 0.0, 0.0, 0.0],
    [0.0, 0.0, 1.0, 0.0],
    [0.0, 0.0, 0.0, 1.0]
],
  "dcmmeta_shape": [82, 82, 56, 839],
  "dcmmeta_slice_dim": 2,
  "dcmmeta_version": 0.6,
  "global": {
    "const": {
      "AccessionNumber": "A004369",
      "AcquisitionMatrix": [82, 0, 0, 82],
      "AngioFlag": "N",
      "BitsAllocated": 16,
      "BitsStored": 16,
      "BodyPartExamined": "BRAIN",
      "Columns": 656,
      "EchoNumbers": 1,
      "EchoTime": 27.2,
      "EchoTrainLength": 82,
      "FlipAngle": 44.0,
      "HighBit": 15,
      "ImageOrientationPatient": [0.99944369058266, 0.00390729585738, 0.03312163029786, 0.00069777871378, 0.99044639544202, -0.137896522294],
      "ImagePositionPatient": [-874.27408299925, -889.40104593162, 13.032610890213],
      "ImageType": [
        "ORIGINAL",
        "PRIMARY",
        "M",
        "MB",
        "ND",
        "NORM",
        "MOSAIC"
],
      "ImagedNucleus": "1H",
      "ImagingFrequency": 123.259135,
      "InPlanePhaseEncodingDirection": "COL",
      "MRAcquisitionType": "2D",
      "MagneticFieldStrength": 3.0,
      "Manufacturer": "SIEMENS",
      "ManufacturerModelName": "Prisma",
      "Modality": "MR",
      "NumberOfAverages": 1.0,
      "NumberOfPhaseEncodingSteps": 82,
      "PercentPhaseFieldOfView": 100.0,
      "PercentSampling": 100.0,
      "PerformedProcedureStepStartTime": "203148.095000",
      "PhotometricInterpretation": "MONOCHROME2",
      "PixelBandwidth": 3050.0,
      "PixelRepresentation": 0,
      "PixelSpacing": [2.6829268932343, 2.6829268932343],
      "ProtocolName": "func_run-01_task-alignvideo_acq-ap-mb8",
      "RepetitionTime": 460.0,
      "Rows": 656,
      "SAR": 0.08156305138043,
      "SamplesPerPixel": 1,
      "ScanOptions": "FS",
      "ScanningSequence": "EP",
      "SequenceName": "epfid2d1_82",
      "SequenceVariant": [
        "SK",
        "SS"
],
      "SeriesDescription": "func_run-01_task-alignvideo_acq-ap-mb8",
      "SeriesNumber": 28,
      "SeriesTime": "215653.147000",
      "SliceLocation": -80.544955181406,
      "SliceThickness": 2.7000000476837,
      "SmallestImagePixelValue": 0,
      "SoftwareVersions": "syngo MR E11",
      "SpacingBetweenSlices": 2.7000001271176,
      "SpecificCharacterSet": "ISO_IR 100",
      "StudyID": "2",
      "StudyTime": "203148.055000",
      "TransmitCoilName": "Body",
      "VariableFlipAngleFlag": "N",
      "WindowCenterWidthExplanation": "Algo1"
    },
    "slices": {}
  },
  "time": {
    "samples": {
      "AcquisitionNumber": [1, 2, 3, 4, 5, 6, 7, 8, 9, 10, 11, 12, 13, 14, 15, 16, 17, 18, 19, 20, 21, 22, 23, 24, 25, 26, 27, 28, 29, 30, 31, 32, 33, 34, 35, 36, 37, 38, 39, 40, 41, 42, 43, 44, 45, 46, 47, 48, 49, 50, 51, 52, 53, 54, 55, 56, 57, 58, 59, 60, 61, 62, 63, 64, 65, 66, 67, 68, 69, 70, 71, 72, 73, 74, 75, 76, 77, 78, 79, 80, 81, 82, 83, 84, 85, 86, 87, 88, 89, 90, 91, 92, 93, 94, 95, 96, 97, 98, 99, 100, 101, 102, 103, 104, 105, 106, 107, 108, 109, 110, 111, 112, 113, 114, 115, 116, 117, 118, 119, 120, 121, 122, 123, 124, 125, 126, 127, 128, 129, 130, 131, 132, 133, 134, 135, 136, 137, 138, 139, 140, 141, 142, 143, 144, 145, 146, 147, 148, 149, 150, 151, 152, 153, 154, 155, 156, 157, 158, 159, 160, 161, 162, 163, 164, 165, 166, 167, 168, 169, 170, 171, 172, 173, 174, 175, 176, 177, 178, 179, 180, 181, 182, 183, 184, 185, 186, 187, 188, 189, 190, 191, 192, 193, 194, 195, 196, 197, 198, 199, 200, 201, 202, 203, 204, 205, 206, 207, 208, 209, 210, 211, 212, 213, 214, 215, 216, 217, 218, 219, 220, 221, 222, 223, 224, 225, 226, 227, 228, 229, 230, 231, 232, 233, 234, 235, 236, 237, 238, 239, 240, 241, 242, 243, 244, 245, 246, 247, 248, 249, 250, 251, 252, 253, 254, 255, 256, 257, 258, 259, 260, 261, 262, 263, 264, 265, 266, 267, 268, 269, 270, 271, 272, 273, 274, 275, 276, 277, 278, 279, 280, 281, 282, 283, 284, 285, 286, 287, 288, 289, 290, 291, 292, 293, 294, 295, 296, 297, 298, 299, 300, 301, 302, 303, 304, 305, 306, 307, 308, 309, 310, 311, 312, 313, 314, 315, 316, 317, 318, 319, 320, 321, 322, 323, 324, 325, 326, 327, 328, 329, 330, 331, 332, 333, 334, 335, 336, 337, 338, 339, 340, 341, 342, 343, 344, 345, 346, 347, 348, 349, 350, 351, 352, 353, 354, 355, 356, 357, 358, 359, 360, 361, 362, 363, 364, 365, 366, 367, 368, 369, 370, 371, 372, 373, 374, 375, 376, 377, 378, 379, 380, 381, 382, 383, 384, 385, 386, 387, 388, 389, 390, 391, 392, 393, 394, 395, 396, 397, 398, 399, 400, 401, 402, 403, 404, 405, 406, 407, 408, 409, 410, 411, 412, 413, 414, 415, 416, 417, 418, 419, 420, 421, 422, 423, 424, 425, 426, 427, 428, 429, 430, 431, 432, 433, 434, 435, 436, 437, 438, 439, 440, 441, 442, 443, 444, 445, 446, 447, 448, 449, 450, 451, 452, 453, 454, 455, 456, 457, 458, 459, 460, 461, 462, 463, 464, 465, 466, 467, 468, 469, 470, 471, 472, 473, 474, 475, 476, 477, 478, 479, 480, 481, 482, 483, 484, 485, 486, 487, 488, 489, 490, 491, 492, 493, 494, 495, 496, 497, 498, 499, 500, 501, 502, 503, 504, 505, 506, 507, 508, 509, 510, 511, 512, 513, 514, 515, 516, 517, 518, 519, 520, 521, 522, 523, 524, 525, 526, 527, 528, 529, 530, 531, 532, 533, 534, 535, 536, 537, 538, 539, 540, 541, 542, 543, 544, 545, 546, 547, 548, 549, 550, 551, 552, 553, 554, 555, 556, 557, 558, 559, 560, 561, 562, 563, 564, 565, 566, 567, 568, 569, 570, 571, 572, 573, 574, 575, 576, 577, 578, 579, 580, 581, 582, 583, 584, 585, 586, 587, 588, 589, 590, 591, 592, 593, 594, 595, 596, 597, 598, 599, 600, 601, 602, 603, 604, 605, 606, 607, 608, 609, 610, 611, 612, 613, 614, 615, 616, 617, 618, 619, 620, 621, 622, 623, 624, 625, 626, 627, 628, 629, 630, 631, 632, 633, 634, 635, 636, 637, 638, 639, 640, 641, 642, 643, 644, 645, 646, 647, 648, 649, 650, 651, 652, 653, 654, 655, 656, 657, 658, 659, 660, 661, 662, 663, 664, 665, 666, 667, 668, 669, 670, 671, 672, 673, 674, 675, 676, 677, 678, 679, 680, 681, 682, 683, 684, 685, 686, 687, 688, 689, 690, 691, 692, 693, 694, 695, 696, 697, 698, 699, 700, 701, 702, 703, 704, 705, 706, 707, 708, 709, 710, 711, 712, 713, 714, 715, 716, 717, 718, 719, 720, 721, 722, 723, 724, 725, 726, 727, 728, 729, 730, 731, 732, 733, 734, 735, 736, 737, 738, 739, 740, 741, 742, 743, 744, 745, 746, 747, 748, 749, 750, 751, 752, 753, 754, 755, 756, 757, 758, 759, 760, 761, 762, 763, 764, 765, 766, 767, 768, 769, 770, 771, 772, 773, 774, 775, 776, 777, 778, 779, 780, 781, 782, 783, 784, 785, 786, 787, 788, 789, 790, 791, 792, 793, 794, 795, 796, 797, 798, 799, 800, 801, 802, 803, 804, 805, 806, 807, 808, 809, 810, 811, 812, 813, 814, 815, 816, 817, 818, 819, 820, 821, 822, 823, 824, 825, 826, 827, 828, 829, 830, 831, 832, 833, 834, 835, 836, 837, 838, 839],
      "AcquisitionTime": ["215629.757500", "215630.217500", "215630.677500", "215631.137500", "215631.597500", "215632.057500", "215632.517500", "215632.977500", "215633.437500", "215633.897500", "215634.357500", "215634.817500", "215635.277500", "215635.737500", "215636.197500", "215636.657500", "215637.117500", "215637.577500", "215638.037500", "215638.497500", "215638.957500", "215639.417500", "215639.877500", "215640.337500", "215640.797500", "215641.257500", "215641.717500", "215642.177500", "215642.637500", "215643.097500", "215643.557500", "215644.017500", "215644.477500", "215644.937500", "215645.397500", "215645.857500", "215646.317500", "215646.777500", "215647.237500", "215647.697500", "215648.157500", "215648.617500", "215649.077500", "215649.537500", "215649.997500", "215650.457500", "215650.917500", "215651.377500", "215651.837500", "215652.297500", "215652.757500", "215653.217500", "215653.677500", "215654.137500", "215654.597500", "215655.057500", "215655.517500", "215655.977500", "215656.437500", "215656.897500", "215657.357500", "215657.817500", "215658.277500", "215658.737500", "215659.197500", "215659.657500", "215700.117500", "215700.577500", "215701.037500", "215701.497500", "215701.957500", "215702.417500", "215702.877500", "215703.337500", "215703.797500", "215704.257500", "215704.717500", "215705.177500", "215705.637500", "215706.097500", "215706.557500", "215707.017500", "215707.477500", "215707.937500", "215708.397500", "215708.857500", "215709.317500", "215709.777500", "215710.237500", "215710.697500", "215711.157500", "215711.617500", "215712.077500", "215712.537500", "215712.997500", "215713.457500", "215713.917500", "215714.377500", "215714.837500", "215715.297500", "215715.757500", "215716.217500", "215716.677500", "215717.137500", "215717.597500", "215718.057500", "215718.517500", "215718.977500", "215719.437500", "215719.897500", "215720.357500", "215720.817500", "215721.277500", "215721.737500", "215722.197500", "215722.657500", "215723.117500", "215723.577500", "215724.037500", "215724.497500", "215724.957500", "215725.417500", "215725.877500", "215726.337500", "215726.797500", "215727.257500", "215727.717500", "215728.177500", "215728.637500", "215729.097500", "215729.557500", "215730.017500", "215730.477500", "215730.937500", "215731.397500", "215731.857500", "215732.317500", "215732.777500", "215733.237500", "215733.697500", "215734.157500", "215734.617500", "215735.077500", "215735.537500", "215735.997500", "215736.457500", "215736.917500", "215737.377500", "215737.837500", "215738.297500", "215738.757500", "215739.217500", "215739.677500", "215740.137500", "215740.597500", "215741.057500", "215741.517500", "215741.977500", "215742.437500", "215742.897500", "215743.357500", "215743.817500", "215744.277500", "215744.737500", "215745.197500", "215745.657500", "215746.117500", "215746.577500", "215747.037500", "215747.497500", "215747.957500", "215748.417500", "215748.877500", "215749.337500", "215749.797500", "215750.257500", "215750.717500", "215751.177500", "215751.637500", "215752.097500", "215752.557500", "215753.017500", "215753.477500", "215753.937500", "215754.397500", "215754.857500", "215755.317500", "215755.777500", "215756.237500", "215756.697500", "215757.157500", "215757.617500", "215758.077500", "215758.537500", "215758.997500", "215759.457500", "215759.917500", "215800.377500", "215800.837500", "215801.297500", "215801.757500", "215802.217500", "215802.677500", "215803.137500", "215803.597500", "215804.057500", "215804.517500", "215804.977500", "215805.437500", "215805.897500", "215806.357500", "215806.817500", "215807.277500", "215807.737500", "215808.197500", "215808.657500", "215809.117500", "215809.577500", "215810.037500", "215810.497500", "215810.957500", "215811.417500", "215811.877500", "215812.337500", "215812.797500", "215813.257500", "215813.717500", "215814.177500", "215814.637500", "215815.097500", "215815.557500", "215816.017500", "215816.477500", "215816.937500", "215817.397500", "215817.857500", "215818.317500", "215818.777500", "215819.237500", "215819.697500", "215820.157500", "215820.617500", "215821.077500", "215821.537500", "215821.997500", "215822.457500", "215822.917500", "215823.377500", "215823.837500", "215824.297500", "215824.757500", "215825.217500", "215825.677500", "215826.137500", "215826.597500", "215827.057500", "215827.517500", "215827.977500", "215828.437500", "215828.897500", "215829.357500", "215829.817500", "215830.277500", "215830.737500", "215831.197500", "215831.657500", "215832.117500", "215832.577500", "215833.037500", "215833.497500", "215833.957500", "215834.417500", "215834.877500", "215835.337500", "215835.797500", "215836.257500", "215836.717500", "215837.177500", "215837.637500", "215838.097500", "215838.557500", "215839.017500", "215839.477500", "215839.937500", "215840.397500", "215840.857500", "215841.317500", "215841.777500", "215842.237500", "215842.697500", "215843.157500", "215843.617500", "215844.077500", "215844.537500", "215844.997500", "215845.457500", "215845.917500", "215846.377500", "215846.837500", "215847.297500", "215847.757500", "215848.217500", "215848.677500", "215849.137500", "215849.597500", "215850.057500", "215850.517500", "215850.977500", "215851.437500", "215851.897500", "215852.357500", "215852.817500", "215853.277500", "215853.737500", "215854.197500", "215854.657500", "215855.117500", "215855.577500", "215856.037500", "215856.497500", "215856.957500", "215857.417500", "215857.877500", "215858.337500", "215858.797500", "215859.257500", "215859.717500", "215900.177500", "215900.637500", "215901.097500", "215901.557500", "215902.017500", "215902.477500", "215902.937500", "215903.397500", "215903.857500", "215904.317500", "215904.777500", "215905.237500", "215905.697500", "215906.157500", "215906.617500", "215907.077500", "215907.537500", "215907.997500", "215908.457500", "215908.917500", "215909.377500", "215909.837500", "215910.297500", "215910.757500", "215911.217500", "215911.677500", "215912.137500", "215912.597500", "215913.057500", "215913.517500", "215913.977500", "215914.437500", "215914.897500", "215915.357500", "215915.817500", "215916.277500", "215916.737500", "215917.197500", "215917.657500", "215918.117500", "215918.577500", "215919.037500", "215919.497500", "215919.957500", "215920.417500", "215920.877500", "215921.337500", "215921.797500", "215922.257500", "215922.717500", "215923.177500", "215923.637500", "215924.097500", "215924.557500", "215925.017500", "215925.477500", "215925.937500", "215926.397500", "215926.857500", "215927.317500", "215927.777500", "215928.237500", "215928.697500", "215929.157500", "215929.617500", "215930.077500", "215930.537500", "215930.997500", "215931.457500", "215931.917500", "215932.377500", "215932.837500", "215933.297500", "215933.757500", "215934.217500", "215934.677500", "215935.137500", "215935.597500", "215936.057500", "215936.517500", "215936.977500", "215937.437500", "215937.897500", "215938.357500", "215938.817500", "215939.277500", "215939.737500", "215940.197500", "215940.657500", "215941.117500", "215941.577500", "215942.037500", "215942.497500", "215942.957500", "215943.417500", "215943.877500", "215944.337500", "215944.797500", "215945.257500", "215945.717500", "215946.177500", "215946.637500", "215947.097500", "215947.557500", "215948.017500", "215948.477500", "215948.937500", "215949.397500", "215949.857500", "215950.317500", "215950.777500", "215951.237500", "215951.697500", "215952.157500", "215952.617500", "215953.077500", "215953.537500", "215953.997500", "215954.457500", "215954.917500", "215955.377500", "215955.837500", "215956.297500", "215956.757500", "215957.217500", "215957.677500", "215958.137500", "215958.597500", "215959.057500", "215959.517500", "215959.977500", "220000.437500", "220000.897500", "220001.357500", "220001.817500", "220002.277500", "220002.737500", "220003.197500", "220003.657500", "220004.117500", "220004.577500", "220005.037500", "220005.497500", "220005.957500", "220006.417500", "220006.877500", "220007.337500", "220007.797500", "220008.257500", "220008.717500", "220009.177500", "220009.637500", "220010.097500", "220010.557500", "220011.017500", "220011.477500", "220011.937500", "220012.397500", "220012.857500", "220013.317500", "220013.777500", "220014.237500", "220014.697500", "220015.157500", "220015.617500", "220016.077500", "220016.537500", "220016.997500", "220017.457500", "220017.917500", "220018.377500", "220018.837500", "220019.297500", "220019.757500", "220020.217500", "220020.677500", "220021.137500", "220021.597500", "220022.057500", "220022.517500", "220022.977500", "220023.437500", "220023.897500", "220024.357500", "220024.817500", "220025.277500", "220025.737500", "220026.197500", "220026.657500", "220027.117500", "220027.577500", "220028.037500", "220028.497500", "220028.957500", "220029.417500", "220029.877500", "220030.337500", "220030.797500", "220031.257500", "220031.717500", "220032.177500", "220032.637500", "220033.097500", "220033.557500", "220034.017500", "220034.477500", "220034.937500", "220035.397500", "220035.857500", "220036.317500", "220036.777500", "220037.237500", "220037.697500", "220038.157500", "220038.617500", "220039.077500", "220039.537500", "220039.997500", "220040.457500", "220040.917500", "220041.377500", "220041.837500", "220042.297500", "220042.757500", "220043.217500", "220043.677500", "220044.137500", "220044.597500", "220045.057500", "220045.517500", "220045.977500", "220046.437500", "220046.897500", "220047.357500", "220047.817500", "220048.277500", "220048.737500", "220049.197500", "220049.657500", "220050.117500", "220050.577500", "220051.037500", "220051.497500", "220051.957500", "220052.417500", "220052.877500", "220053.337500", "220053.797500", "220054.257500", "220054.717500", "220055.177500", "220055.637500", "220056.097500", "220056.557500", "220057.017500", "220057.477500", "220057.937500", "220058.397500", "220058.857500", "220059.317500", "220059.777500", "220100.237500", "220100.697500", "220101.157500", "220101.617500", "220102.077500", "220102.537500", "220102.997500", "220103.457500", "220103.917500", "220104.377500", "220104.837500", "220105.297500", "220105.757500", "220106.217500", "220106.677500", "220107.137500", "220107.597500", "220108.057500", "220108.517500", "220108.977500", "220109.437500", "220109.897500", "220110.357500", "220110.817500", "220111.277500", "220111.737500", "220112.197500", "220112.657500", "220113.117500", "220113.577500", "220114.037500", "220114.497500", "220114.957500", "220115.417500", "220115.877500", "220116.337500", "220116.797500", "220117.257500", "220117.717500", "220118.177500", "220118.637500", "220119.097500", "220119.557500", "220120.017500", "220120.477500", "220120.937500", "220121.397500", "220121.857500", "220122.317500", "220122.777500", "220123.237500", "220123.697500", "220124.157500", "220124.617500", "220125.077500", "220125.537500", "220125.997500", "220126.457500", "220126.917500", "220127.377500", "220127.837500", "220128.297500", "220128.757500", "220129.217500", "220129.677500", "220130.137500", "220130.597500", "220131.057500", "220131.517500", "220131.977500", "220132.437500", "220132.897500", "220133.357500", "220133.817500", "220134.277500", "220134.737500", "220135.197500", "220135.657500", "220136.117500", "220136.577500", "220137.037500", "220137.497500", "220137.957500", "220138.417500", "220138.877500", "220139.337500", "220139.797500", "220140.257500", "220140.717500", "220141.177500", "220141.637500", "220142.097500", "220142.557500", "220143.017500", "220143.477500", "220143.937500", "220144.397500", "220144.857500", "220145.317500", "220145.777500", "220146.237500", "220146.697500", "220147.157500", "220147.617500", "220148.077500", "220148.537500", "220148.997500", "220149.457500", "220149.917500", "220150.377500", "220150.837500", "220151.297500", "220151.757500", "220152.217500", "220152.677500", "220153.137500", "220153.597500", "220154.057500", "220154.517500", "220154.977500", "220155.437500", "220155.897500", "220156.357500", "220156.817500", "220157.277500", "220157.737500", "220158.197500", "220158.657500", "220159.117500", "220159.577500", "220200.037500", "220200.497500", "220200.957500", "220201.417500", "220201.877500", "220202.337500", "220202.797500", "220203.257500", "220203.717500", "220204.177500", "220204.637500", "220205.097500", "220205.557500", "220206.017500", "220206.477500", "220206.937500", "220207.397500", "220207.857500", "220208.317500", "220208.777500", "220209.237500", "220209.697500", "220210.157500", "220210.617500", "220211.077500", "220211.537500", "220211.997500", "220212.457500", "220212.917500", "220213.377500", "220213.837500", "220214.297500", "220214.757500", "220215.217500", "220215.677500", "220216.137500", "220216.597500", "220217.057500", "220217.517500", "220217.977500", "220218.437500", "220218.897500", "220219.357500", "220219.817500", "220220.277500", "220220.737500", "220221.197500", "220221.657500", "220222.117500", "220222.577500", "220223.037500", "220223.497500", "220223.957500", "220224.417500", "220224.877500", "220225.337500", "220225.797500", "220226.257500", "220226.717500", "220227.177500", "220227.637500", "220228.097500", "220228.557500", "220229.017500", "220229.477500", "220229.937500", "220230.397500", "220230.857500", "220231.317500", "220231.777500", "220232.237500", "220232.697500", "220233.157500", "220233.617500", "220234.077500", "220234.537500", "220234.997500", "220235.457500", "220235.917500", "220236.377500", "220236.837500", "220237.297500", "220237.757500", "220238.217500", "220238.677500", "220239.137500", "220239.597500", "220240.057500", "220240.517500", "220240.977500", "220241.437500", "220241.897500", "220242.357500", "220242.817500", "220243.277500", "220243.737500", "220244.197500", "220244.657500", "220245.117500", "220245.577500", "220246.037500", "220246.497500", "220246.957500", "220247.417500", "220247.877500", "220248.337500", "220248.797500", "220249.257500", "220249.717500", "220250.177500", "220250.637500", "220251.097500", "220251.557500", "220252.017500", "220252.477500", "220252.937500", "220253.397500", "220253.857500", "220254.317500", "220254.777500", "220255.237500"],
