{
  "AcquisitionMatrixPE": 82,
  "AcquisitionNumber": 1,
  "AcquisitionTime": "20:59:15.865000",
  "BandwidthPerPixelPhaseEncode": 24.888,
  "BaseResolution": 82,
  "BodyPartExamined": "BRAIN",
  "ConsistencyInfo": "N4_VE11E_LATEST_20181129",
  "ConversionSoftware": "dcm2niix",
  "ConversionSoftwareVersion": "v1.0.20201102",
  "DerivedVendorReportedEchoSpacing": 0.00049,
  "DeviceSerialNumber": "66112",
  "DwellTime": 2e-06,
  "EchoTime": 0.0272,
  "EchoTrainLength": 82,
  "EffectiveEchoSpacing": 0.00049,
  "FlipAngle": 44,
  "ImageComments": "Unaliased MB8/PE3",
  "ImageOrientationPatientDICOM": [0.999172, -0.00408363, 0.0404816, 0.00994044, 0.9893, -0.145554],
  "ImageType": [
    "ORIGINAL",
    "PRIMARY",
    "M",
    "MB",
    "ND",
    "NORM",
    "MOSAIC"
],
  "ImagingFrequency": 123.259,
  "InPlanePhaseEncodingDirectionDICOM": "COL",
  "InstitutionAddress": "Maynard 3,Hanover,NH,US,03755",
  "InstitutionName": "Dartmouth College - PBS",
  "InstitutionalDepartmentName": "Department",
  "MRAcquisitionType": "2D",
  "MagneticFieldStrength": 3,
  "Manufacturer": "Siemens",
  "ManufacturersModelName": "Prisma",
  "Modality": "MR",
  "MultibandAccelerationFactor": 8,
  "PartialFourier": 1,
  "PatientPosition": "HFS",
  "PercentPhaseFOV": 100,
  "PercentSampling": 100,
  "PhaseEncodingDirection": "j-",
  "PhaseEncodingSteps": 82,
  "PhaseResolution": 1,
  "PixelBandwidth": 3050,
  "ProcedureStepDescription": "Wager_Wager^1076_spacetop",
  "ProtocolName": "func_run-02_task-narratives_acq-ap-mb8",
  "PulseSequenceDetails": "%CustomerSeq%\\cmrr_mbep2d_bold",
  "ReceiveCoilActiveElements": "HEA;HEP",
  "ReceiveCoilName": "Head_32",
  "ReconMatrixPE": 82,
  "RepetitionTime": 0.46,
  "SAR": 0.0816875,
  "ScanOptions": "FS",
  "ScanningSequence": "EP",
  "SequenceName": "epfid2d1_82",
  "SequenceVariant": "SK\\SS",
  "SeriesDescription": "func_run-02_task-narratives_acq-ap-mb8",
  "SeriesNumber": 10,
  "ShimSetting": [4229, -7749, -7234, 226, -153, -253, -87, 49],
  "SliceThickness": 2.7,
  "SliceTiming": [0, 0.2525, 0.0625, 0.315, 0.1275, 0.3775, 0.19, 0, 0.2525, 0.0625, 0.315, 0.1275, 0.3775, 0.19, 0, 0.2525, 0.0625, 0.315, 0.1275, 0.3775, 0.19, 0, 0.2525, 0.0625, 0.315, 0.1275, 0.3775, 0.19, 0, 0.2525, 0.0625, 0.315, 0.1275, 0.3775, 0.19, 0, 0.2525, 0.0625, 0.315, 0.1275, 0.3775, 0.19, 0, 0.2525, 0.0625, 0.315, 0.1275, 0.3775, 0.19, 0, 0.2525, 0.0625, 0.315, 0.1275, 0.3775, 0.19],
  "SoftwareVersions": "syngo MR E11",
  "SpacingBetweenSlices": 2.7,
  "StationName": "AWP66112",
  "TaskName": "narratives",
  "TotalReadoutTime": 0.03969,
  "TxRefAmp": 232.744,
  "WipMemBlock": "b1db30ed-0ea8-4b75-80a6-b7f8f79ba6bf||Sequence: R016 ve11e/master r/434b28f1; Aug  7 2019 18:53:46 by eja",
  "dcmmeta_affine": [
    [-2.6807053089141846, 0.026669465005397797, 0.1065259724855423, 102.82587432861328],
    [0.010956082493066788, 2.6542205810546875, -0.39375755190849304, -90.80953216552734],
    [0.1086091622710228, 0.3905114233493805, 2.669008493423462, -97.28569030761719],
    [0.0, 0.0, 0.0, 1.0]
],
  "dcmmeta_reorient_transform": [
    [0.0, -1.0, 0.0, 81.0],
    [1.0, 0.0, 0.0, 0.0],
    [0.0, 0.0, 1.0, 0.0],
    [0.0, 0.0, 0.0, 1.0]
],
  "dcmmeta_shape": [82, 82, 56, 1098],
  "dcmmeta_slice_dim": 2,
  "dcmmeta_version": 0.6,
  "global": {
    "const": {
      "AccessionNumber": "A004369",
      "AcquisitionMatrix": [82, 0, 0, 82],
      "AngioFlag": "N",
      "BitsAllocated": 16,
      "BitsStored": 16,
      "BodyPartExamined": "BRAIN",
      "Columns": 656,
      "EchoNumbers": 1,
      "EchoTime": 27.2,
      "EchoTrainLength": 82,
      "FlipAngle": 44.0,
      "HighBit": 15,
      "ImageOrientationPatient": [0.99917193938553, -0.0040836307349, 0.04048159463972, 0.00994043686977, 0.98930033185056, -0.1455542548853],
      "ImagePositionPatient": [-882.00264783805, -882.79919982259, 15.251685835344],
      "ImageType": [
        "ORIGINAL",
        "PRIMARY",
        "M",
        "MB",
        "ND",
        "NORM",
        "MOSAIC"
],
      "ImagedNucleus": "1H",
      "ImagingFrequency": 123.259121,
      "InPlanePhaseEncodingDirection": "COL",
      "MRAcquisitionType": "2D",
      "MagneticFieldStrength": 3.0,
      "Manufacturer": "SIEMENS",
      "ManufacturerModelName": "Prisma",
      "Modality": "MR",
      "NumberOfAverages": 1.0,
      "NumberOfPhaseEncodingSteps": 82,
      "PercentPhaseFieldOfView": 100.0,
      "PercentSampling": 100.0,
      "PerformedProcedureStepStartTime": "203148.095000",
      "PhotometricInterpretation": "MONOCHROME2",
      "PixelBandwidth": 3050.0,
      "PixelRepresentation": 0,
      "PixelSpacing": [2.6829268932343, 2.6829268932343],
      "ProtocolName": "func_run-02_task-narratives_acq-ap-mb8",
      "RepetitionTime": 460.0,
      "Rows": 656,
      "SAR": 0.08168752110144,
      "SamplesPerPixel": 1,
      "ScanOptions": "FS",
      "ScanningSequence": "EP",
      "SequenceName": "epfid2d1_82",
      "SequenceVariant": [
        "SK",
        "SS"
],
      "SeriesDescription": "func_run-02_task-narratives_acq-ap-mb8",
      "SeriesNumber": 10,
      "SeriesTime": "205933.176000",
      "SliceLocation": -78.868807786109,
      "SliceThickness": 2.7000000476837,
      "SmallestImagePixelValue": 0,
      "SoftwareVersions": "syngo MR E11",
      "SpacingBetweenSlices": 2.6999999098482,
      "SpecificCharacterSet": "ISO_IR 100",
      "StudyID": "2",
      "StudyTime": "203148.055000",
      "TransmitCoilName": "Body",
      "VariableFlipAngleFlag": "N",
      "WindowCenterWidthExplanation": "Algo1"
    },
    "slices": {}
  },
  "time": {
    "samples": {
      "AcquisitionNumber": [1, 2, 3, 4, 5, 6, 7, 8, 9, 10, 11, 12, 13, 14, 15, 16, 17, 18, 19, 20, 21, 22, 23, 24, 25, 26, 27, 28, 29, 30, 31, 32, 33, 34, 35, 36, 37, 38, 39, 40, 41, 42, 43, 44, 45, 46, 47, 48, 49, 50, 51, 52, 53, 54, 55, 56, 57, 58, 59, 60, 61, 62, 63, 64, 65, 66, 67, 68, 69, 70, 71, 72, 73, 74, 75, 76, 77, 78, 79, 80, 81, 82, 83, 84, 85, 86, 87, 88, 89, 90, 91, 92, 93, 94, 95, 96, 97, 98, 99, 100, 101, 102, 103, 104, 105, 106, 107, 108, 109, 110, 111, 112, 113, 114, 115, 116, 117, 118, 119, 120, 121, 122, 123, 124, 125, 126, 127, 128, 129, 130, 131, 132, 133, 134, 135, 136, 137, 138, 139, 140, 141, 142, 143, 144, 145, 146, 147, 148, 149, 150, 151, 152, 153, 154, 155, 156, 157, 158, 159, 160, 161, 162, 163, 164, 165, 166, 167, 168, 169, 170, 171, 172, 173, 174, 175, 176, 177, 178, 179, 180, 181, 182, 183, 184, 185, 186, 187, 188, 189, 190, 191, 192, 193, 194, 195, 196, 197, 198, 199, 200, 201, 202, 203, 204, 205, 206, 207, 208, 209, 210, 211, 212, 213, 214, 215, 216, 217, 218, 219, 220, 221, 222, 223, 224, 225, 226, 227, 228, 229, 230, 231, 232, 233, 234, 235, 236, 237, 238, 239, 240, 241, 242, 243, 244, 245, 246, 247, 248, 249, 250, 251, 252, 253, 254, 255, 256, 257, 258, 259, 260, 261, 262, 263, 264, 265, 266, 267, 268, 269, 270, 271, 272, 273, 274, 275, 276, 277, 278, 279, 280, 281, 282, 283, 284, 285, 286, 287, 288, 289, 290, 291, 292, 293, 294, 295, 296, 297, 298, 299, 300, 301, 302, 303, 304, 305, 306, 307, 308, 309, 310, 311, 312, 313, 314, 315, 316, 317, 318, 319, 320, 321, 322, 323, 324, 325, 326, 327, 328, 329, 330, 331, 332, 333, 334, 335, 336, 337, 338, 339, 340, 341, 342, 343, 344, 345, 346, 347, 348, 349, 350, 351, 352, 353, 354, 355, 356, 357, 358, 359, 360, 361, 362, 363, 364, 365, 366, 367, 368, 369, 370, 371, 372, 373, 374, 375, 376, 377, 378, 379, 380, 381, 382, 383, 384, 385, 386, 387, 388, 389, 390, 391, 392, 393, 394, 395, 396, 397, 398, 399, 400, 401, 402, 403, 404, 405, 406, 407, 408, 409, 410, 411, 412, 413, 414, 415, 416, 417, 418, 419, 420, 421, 422, 423, 424, 425, 426, 427, 428, 429, 430, 431, 432, 433, 434, 435, 436, 437, 438, 439, 440, 441, 442, 443, 444, 445, 446, 447, 448, 449, 450, 451, 452, 453, 454, 455, 456, 457, 458, 459, 460, 461, 462, 463, 464, 465, 466, 467, 468, 469, 470, 471, 472, 473, 474, 475, 476, 477, 478, 479, 480, 481, 482, 483, 484, 485, 486, 487, 488, 489, 490, 491, 492, 493, 494, 495, 496, 497, 498, 499, 500, 501, 502, 503, 504, 505, 506, 507, 508, 509, 510, 511, 512, 513, 514, 515, 516, 517, 518, 519, 520, 521, 522, 523, 524, 525, 526, 527, 528, 529, 530, 531, 532, 533, 534, 535, 536, 537, 538, 539, 540, 541, 542, 543, 544, 545, 546, 547, 548, 549, 550, 551, 552, 553, 554, 555, 556, 557, 558, 559, 560, 561, 562, 563, 564, 565, 566, 567, 568, 569, 570, 571, 572, 573, 574, 575, 576, 577, 578, 579, 580, 581, 582, 583, 584, 585, 586, 587, 588, 589, 590, 591, 592, 593, 594, 595, 596, 597, 598, 599, 600, 601, 602, 603, 604, 605, 606, 607, 608, 609, 610, 611, 612, 613, 614, 615, 616, 617, 618, 619, 620, 621, 622, 623, 624, 625, 626, 627, 628, 629, 630, 631, 632, 633, 634, 635, 636, 637, 638, 639, 640, 641, 642, 643, 644, 645, 646, 647, 648, 649, 650, 651, 652, 653, 654, 655, 656, 657, 658, 659, 660, 661, 662, 663, 664, 665, 666, 667, 668, 669, 670, 671, 672, 673, 674, 675, 676, 677, 678, 679, 680, 681, 682, 683, 684, 685, 686, 687, 688, 689, 690, 691, 692, 693, 694, 695, 696, 697, 698, 699, 700, 701, 702, 703, 704, 705, 706, 707, 708, 709, 710, 711, 712, 713, 714, 715, 716, 717, 718, 719, 720, 721, 722, 723, 724, 725, 726, 727, 728, 729, 730, 731, 732, 733, 734, 735, 736, 737, 738, 739, 740, 741, 742, 743, 744, 745, 746, 747, 748, 749, 750, 751, 752, 753, 754, 755, 756, 757, 758, 759, 760, 761, 762, 763, 764, 765, 766, 767, 768, 769, 770, 771, 772, 773, 774, 775, 776, 777, 778, 779, 780, 781, 782, 783, 784, 785, 786, 787, 788, 789, 790, 791, 792, 793, 794, 795, 796, 797, 798, 799, 800, 801, 802, 803, 804, 805, 806, 807, 808, 809, 810, 811, 812, 813, 814, 815, 816, 817, 818, 819, 820, 821, 822, 823, 824, 825, 826, 827, 828, 829, 830, 831, 832, 833, 834, 835, 836, 837, 838, 839, 840, 841, 842, 843, 844, 845, 846, 847, 848, 849, 850, 851, 852, 853, 854, 855, 856, 857, 858, 859, 860, 861, 862, 863, 864, 865, 866, 867, 868, 869, 870, 871, 872, 873, 874, 875, 876, 877, 878, 879, 880, 881, 882, 883, 884, 885, 886, 887, 888, 889, 890, 891, 892, 893, 894, 895, 896, 897, 898, 899, 900, 901, 902, 903, 904, 905, 906, 907, 908, 909, 910, 911, 912, 913, 914, 915, 916, 917, 918, 919, 920, 921, 922, 923, 924, 925, 926, 927, 928, 929, 930, 931, 932, 933, 934, 935, 936, 937, 938, 939, 940, 941, 942, 943, 944, 945, 946, 947, 948, 949, 950, 951, 952, 953, 954, 955, 956, 957, 958, 959, 960, 961, 962, 963, 964, 965, 966, 967, 968, 969, 970, 971, 972, 973, 974, 975, 976, 977, 978, 979, 980, 981, 982, 983, 984, 985, 986, 987, 988, 989, 990, 991, 992, 993, 994, 995, 996, 997, 998, 999, 1000, 1001, 1002, 1003, 1004, 1005, 1006, 1007, 1008, 1009, 1010, 1011, 1012, 1013, 1014, 1015, 1016, 1017, 1018, 1019, 1020, 1021, 1022, 1023, 1024, 1025, 1026, 1027, 1028, 1029, 1030, 1031, 1032, 1033, 1034, 1035, 1036, 1037, 1038, 1039, 1040, 1041, 1042, 1043, 1044, 1045, 1046, 1047, 1048, 1049, 1050, 1051, 1052, 1053, 1054, 1055, 1056, 1057, 1058, 1059, 1060, 1061, 1062, 1063, 1064, 1065, 1066, 1067, 1068, 1069, 1070, 1071, 1072, 1073, 1074, 1075, 1076, 1077, 1078, 1079, 1080, 1081, 1082, 1083, 1084, 1085, 1086, 1087, 1088, 1089, 1090, 1091, 1092, 1093, 1094, 1095, 1096, 1097, 1098],
      "AcquisitionTime": ["205915.865000", "205916.325000", "205916.785000", "205917.245000", "205917.705000", "205918.165000", "205918.625000", "205919.085000", "205919.545000", "205920.005000", "205920.465000", "205920.925000", "205921.385000", "205921.845000", "205922.305000", "205922.765000", "205923.225000", "205923.685000", "205924.145000", "205924.605000", "205925.065000", "205925.525000", "205925.985000", "205926.445000", "205926.905000", "205927.365000", "205927.825000", "205928.285000", "205928.745000", "205929.205000", "205929.665000", "205930.125000", "205930.585000", "205931.045000", "205931.505000", "205931.965000", "205932.425000", "205932.885000", "205933.345000", "205933.805000", "205934.265000", "205934.725000", "205935.185000", "205935.645000", "205936.105000", "205936.565000", "205937.025000", "205937.485000", "205937.945000", "205938.405000", "205938.865000", "205939.325000", "205939.785000", "205940.245000", "205940.705000", "205941.165000", "205941.625000", "205942.085000", "205942.545000", "205943.005000", "205943.465000", "205943.925000", "205944.385000", "205944.845000", "205945.305000", "205945.765000", "205946.225000", "205946.685000", "205947.145000", "205947.605000", "205948.065000", "205948.525000", "205948.985000", "205949.445000", "205949.905000", "205950.365000", "205950.825000", "205951.285000", "205951.745000", "205952.205000", "205952.665000", "205953.125000", "205953.585000", "205954.045000", "205954.505000", "205954.965000", "205955.425000", "205955.885000", "205956.345000", "205956.805000", "205957.265000", "205957.725000", "205958.185000", "205958.645000", "205959.105000", "205959.565000", "210000.025000", "210000.485000", "210000.945000", "210001.405000", "210001.865000", "210002.325000", "210002.785000", "210003.245000", "210003.705000", "210004.165000", "210004.625000", "210005.085000", "210005.545000", "210006.005000", "210006.465000", "210006.925000", "210007.385000", "210007.845000", "210008.305000", "210008.765000", "210009.225000", "210009.685000", "210010.145000", "210010.605000", "210011.065000", "210011.525000", "210011.985000", "210012.445000", "210012.905000", "210013.365000", "210013.825000", "210014.285000", "210014.745000", "210015.205000", "210015.665000", "210016.125000", "210016.585000", "210017.045000", "210017.505000", "210017.965000", "210018.425000", "210018.885000", "210019.345000", "210019.805000", "210020.265000", "210020.725000", "210021.185000", "210021.645000", "210022.105000", "210022.565000", "210023.025000", "210023.485000", "210023.945000", "210024.405000", "210024.865000", "210025.325000", "210025.785000", "210026.245000", "210026.705000", "210027.165000", "210027.625000", "210028.085000", "210028.545000", "210029.005000", "210029.465000", "210029.925000", "210030.385000", "210030.845000", "210031.305000", "210031.765000", "210032.225000", "210032.685000", "210033.145000", "210033.605000", "210034.065000", "210034.525000", "210034.985000", "210035.445000", "210035.905000", "210036.365000", "210036.825000", "210037.285000", "210037.745000", "210038.205000", "210038.665000", "210039.125000", "210039.585000", "210040.045000", "210040.505000", "210040.965000", "210041.425000", "210041.885000", "210042.345000", "210042.805000", "210043.265000", "210043.725000", "210044.185000", "210044.645000", "210045.105000", "210045.565000", "210046.025000", "210046.485000", "210046.945000", "210047.405000", "210047.865000", "210048.325000", "210048.785000", "210049.245000", "210049.705000", "210050.165000", "210050.625000", "210051.085000", "210051.545000", "210052.005000", "210052.465000", "210052.925000", "210053.385000", "210053.845000", "210054.305000", "210054.765000", "210055.225000", "210055.685000", "210056.145000", "210056.605000", "210057.065000", "210057.525000", "210057.985000", "210058.445000", "210058.905000", "210059.365000", "210059.825000", "210100.285000", "210100.745000", "210101.205000", "210101.665000", "210102.125000", "210102.585000", "210103.045000", "210103.505000", "210103.965000", "210104.425000", "210104.885000", "210105.345000", "210105.805000", "210106.265000", "210106.725000", "210107.185000", "210107.645000", "210108.105000", "210108.565000", "210109.025000", "210109.485000", "210109.945000", "210110.405000", "210110.865000", "210111.325000", "210111.785000", "210112.245000", "210112.705000", "210113.165000", "210113.625000", "210114.085000", "210114.545000", "210115.005000", "210115.465000", "210115.925000", "210116.385000", "210116.845000", "210117.305000", "210117.765000", "210118.225000", "210118.685000", "210119.145000", "210119.605000", "210120.065000", "210120.525000", "210120.985000", "210121.445000", "210121.905000", "210122.365000", "210122.825000", "210123.285000", "210123.745000", "210124.205000", "210124.665000", "210125.125000", "210125.585000", "210126.045000", "210126.505000", "210126.965000", "210127.425000", "210127.885000", "210128.345000", "210128.805000", "210129.265000", "210129.725000", "210130.185000", "210130.645000", "210131.105000", "210131.565000", "210132.025000", "210132.485000", "210132.945000", "210133.405000", "210133.865000", "210134.325000", "210134.785000", "210135.245000", "210135.705000", "210136.165000", "210136.625000", "210137.085000", "210137.545000", "210138.005000", "210138.465000", "210138.925000", "210139.385000", "210139.845000", "210140.305000", "210140.765000", "210141.225000", "210141.685000", "210142.145000", "210142.605000", "210143.065000", "210143.525000", "210143.985000", "210144.445000", "210144.905000", "210145.365000", "210145.825000", "210146.285000", "210146.745000", "210147.205000", "210147.665000", "210148.125000", "210148.585000", "210149.045000", "210149.505000", "210149.965000", "210150.425000", "210150.885000", "210151.345000", "210151.805000", "210152.265000", "210152.725000", "210153.185000", "210153.645000", "210154.105000", "210154.565000", "210155.025000", "210155.485000", "210155.945000", "210156.405000", "210156.865000", "210157.325000", "210157.785000", "210158.245000", "210158.705000", "210159.165000", "210159.625000", "210200.085000", "210200.545000", "210201.005000", "210201.465000", "210201.925000", "210202.385000", "210202.845000", "210203.305000", "210203.765000", "210204.225000", "210204.685000", "210205.145000", "210205.605000", "210206.065000", "210206.525000", "210206.985000", "210207.445000", "210207.905000", "210208.365000", "210208.825000", "210209.285000", "210209.745000", "210210.205000", "210210.665000", "210211.125000", "210211.585000", "210212.045000", "210212.505000", "210212.965000", "210213.425000", "210213.885000", "210214.345000", "210214.805000", "210215.265000", "210215.725000", "210216.185000", "210216.645000", "210217.105000", "210217.565000", "210218.025000", "210218.485000", "210218.945000", "210219.405000", "210219.865000", "210220.325000", "210220.785000", "210221.245000", "210221.705000", "210222.165000", "210222.625000", "210223.085000", "210223.545000", "210224.005000", "210224.465000", "210224.925000", "210225.385000", "210225.845000", "210226.305000", "210226.765000", "210227.225000", "210227.685000", "210228.145000", "210228.605000", "210229.065000", "210229.525000", "210229.985000", "210230.445000", "210230.905000", "210231.365000", "210231.825000", "210232.285000", "210232.745000", "210233.205000", "210233.665000", "210234.125000", "210234.585000", "210235.045000", "210235.505000", "210235.965000", "210236.425000", "210236.885000", "210237.345000", "210237.805000", "210238.265000", "210238.725000", "210239.185000", "210239.645000", "210240.105000", "210240.565000", "210241.025000", "210241.485000", "210241.945000", "210242.405000", "210242.865000", "210243.325000", "210243.785000", "210244.245000", "210244.705000", "210245.165000", "210245.625000", "210246.085000", "210246.545000", "210247.005000", "210247.465000", "210247.925000", "210248.385000", "210248.845000", "210249.305000", "210249.765000", "210250.225000", "210250.685000", "210251.145000", "210251.605000", "210252.065000", "210252.525000", "210252.985000", "210253.445000", "210253.905000", "210254.365000", "210254.825000", "210255.285000", "210255.745000", "210256.205000", "210256.665000", "210257.125000", "210257.585000", "210258.045000", "210258.505000", "210258.965000", "210259.425000", "210259.885000", "210300.345000", "210300.805000", "210301.265000", "210301.725000", "210302.185000", "210302.645000", "210303.105000", "210303.565000", "210304.025000", "210304.485000", "210304.945000", "210305.405000", "210305.865000", "210306.325000", "210306.785000", "210307.245000", "210307.705000", "210308.165000", "210308.625000", "210309.085000", "210309.545000", "210310.005000", "210310.465000", "210310.925000", "210311.385000", "210311.845000", "210312.305000", "210312.765000", "210313.225000", "210313.685000", "210314.145000", "210314.605000", "210315.065000", "210315.525000", "210315.985000", "210316.445000", "210316.905000", "210317.365000", "210317.825000", "210318.285000", "210318.745000", "210319.205000", "210319.665000", "210320.125000", "210320.585000", "210321.045000", "210321.505000", "210321.965000", "210322.425000", "210322.885000", "210323.345000", "210323.805000", "210324.265000", "210324.725000", "210325.185000", "210325.645000", "210326.105000", "210326.565000", "210327.025000", "210327.485000", "210327.945000", "210328.405000", "210328.865000", "210329.325000", "210329.785000", "210330.245000", "210330.705000", "210331.165000", "210331.625000", "210332.085000", "210332.545000", "210333.005000", "210333.465000", "210333.925000", "210334.385000", "210334.845000", "210335.305000", "210335.765000", "210336.225000", "210336.685000", "210337.145000", "210337.605000", "210338.065000", "210338.525000", "210338.985000", "210339.445000", "210339.905000", "210340.365000", "210340.825000", "210341.285000", "210341.745000", "210342.205000", "210342.665000", "210343.125000", "210343.585000", "210344.045000", "210344.505000", "210344.965000", "210345.425000", "210345.885000", "210346.345000", "210346.805000", "210347.265000", "210347.725000", "210348.185000", "210348.645000", "210349.105000", "210349.565000", "210350.025000", "210350.485000", "210350.945000", "210351.405000", "210351.865000", "210352.325000", "210352.785000", "210353.245000", "210353.705000", "210354.165000", "210354.625000", "210355.085000", "210355.545000", "210356.005000", "210356.465000", "210356.925000", "210357.385000", "210357.845000", "210358.305000", "210358.765000", "210359.225000", "210359.685000", "210400.145000", "210400.605000", "210401.065000", "210401.525000", "210401.985000", "210402.445000", "210402.905000", "210403.365000", "210403.825000", "210404.285000", "210404.745000", "210405.205000", "210405.665000", "210406.125000", "210406.585000", "210407.045000", "210407.505000", "210407.965000", "210408.425000", "210408.885000", "210409.345000", "210409.805000", "210410.265000", "210410.725000", "210411.185000", "210411.645000", "210412.105000", "210412.565000", "210413.025000", "210413.485000", "210413.945000", "210414.405000", "210414.865000", "210415.325000", "210415.785000", "210416.245000", "210416.705000", "210417.165000", "210417.625000", "210418.085000", "210418.545000", "210419.005000", "210419.465000", "210419.925000", "210420.385000", "210420.845000", "210421.305000", "210421.765000", "210422.225000", "210422.685000", "210423.145000", "210423.605000", "210424.065000", "210424.525000", "210424.985000", "210425.445000", "210425.905000", "210426.365000", "210426.825000", "210427.285000", "210427.745000", "210428.205000", "210428.665000", "210429.125000", "210429.585000", "210430.045000", "210430.505000", "210430.965000", "210431.425000", "210431.885000", "210432.345000", "210432.805000", "210433.265000", "210433.725000", "210434.185000", "210434.645000", "210435.105000", "210435.565000", "210436.025000", "210436.485000", "210436.945000", "210437.405000", "210437.865000", "210438.325000", "210438.785000", "210439.245000", "210439.705000", "210440.165000", "210440.625000", "210441.085000", "210441.545000", "210442.005000", "210442.465000", "210442.925000", "210443.385000", "210443.845000", "210444.305000", "210444.765000", "210445.225000", "210445.685000", "210446.145000", "210446.605000", "210447.065000", "210447.525000", "210447.985000", "210448.445000", "210448.905000", "210449.365000", "210449.825000", "210450.285000", "210450.745000", "210451.205000", "210451.665000", "210452.125000", "210452.585000", "210453.045000", "210453.505000", "210453.965000", "210454.425000", "210454.885000", "210455.345000", "210455.805000", "210456.265000", "210456.725000", "210457.185000", "210457.645000", "210458.105000", "210458.565000", "210459.025000", "210459.485000", "210459.945000", "210500.405000", "210500.865000", "210501.325000", "210501.785000", "210502.245000", "210502.705000", "210503.165000", "210503.625000", "210504.085000", "210504.545000", "210505.005000", "210505.465000", "210505.925000", "210506.385000", "210506.845000", "210507.305000", "210507.765000", "210508.225000", "210508.685000", "210509.145000", "210509.605000", "210510.065000", "210510.525000", "210510.985000", "210511.445000", "210511.905000", "210512.365000", "210512.825000", "210513.285000", "210513.745000", "210514.205000", "210514.665000", "210515.125000", "210515.585000", "210516.045000", "210516.505000", "210516.965000", "210517.425000", "210517.885000", "210518.345000", "210518.805000", "210519.265000", "210519.725000", "210520.185000", "210520.645000", "210521.105000", "210521.565000", "210522.025000", "210522.485000", "210522.945000", "210523.405000", "210523.865000", "210524.325000", "210524.785000", "210525.245000", "210525.705000", "210526.165000", "210526.625000", "210527.085000", "210527.545000", "210528.005000", "210528.465000", "210528.925000", "210529.385000", "210529.845000", "210530.305000", "210530.765000", "210531.225000", "210531.685000", "210532.145000", "210532.605000", "210533.065000", "210533.525000", "210533.985000", "210534.445000", "210534.905000", "210535.365000", "210535.825000", "210536.285000", "210536.745000", "210537.205000", "210537.665000", "210538.125000", "210538.585000", "210539.045000", "210539.505000", "210539.965000", "210540.425000", "210540.885000", "210541.345000", "210541.805000", "210542.265000", "210542.725000", "210543.185000", "210543.645000", "210544.105000", "210544.565000", "210545.025000", "210545.485000", "210545.945000", "210546.405000", "210546.865000", "210547.325000", "210547.785000", "210548.245000", "210548.705000", "210549.165000", "210549.625000", "210550.085000", "210550.545000", "210551.005000", "210551.465000", "210551.925000", "210552.385000", "210552.845000", "210553.305000", "210553.765000", "210554.225000", "210554.685000", "210555.145000", "210555.605000", "210556.065000", "210556.525000", "210556.985000", "210557.445000", "210557.905000", "210558.365000", "210558.825000", "210559.285000", "210559.745000", "210600.205000", "210600.665000", "210601.125000", "210601.585000", "210602.045000", "210602.505000", "210602.965000", "210603.425000", "210603.885000", "210604.345000", "210604.805000", "210605.265000", "210605.725000", "210606.185000", "210606.645000", "210607.105000", "210607.565000", "210608.025000", "210608.485000", "210608.945000", "210609.405000", "210609.865000", "210610.325000", "210610.785000", "210611.245000", "210611.705000", "210612.165000", "210612.625000", "210613.085000", "210613.545000", "210614.005000", "210614.465000", "210614.925000", "210615.385000", "210615.845000", "210616.305000", "210616.765000", "210617.225000", "210617.685000", "210618.145000", "210618.605000", "210619.065000", "210619.525000", "210619.985000", "210620.445000", "210620.905000", "210621.365000", "210621.825000", "210622.285000", "210622.745000", "210623.205000", "210623.665000", "210624.125000", "210624.585000", "210625.045000", "210625.505000", "210625.965000", "210626.425000", "210626.885000", "210627.345000", "210627.805000", "210628.265000", "210628.725000", "210629.185000", "210629.645000", "210630.105000", "210630.565000", "210631.025000", "210631.485000", "210631.945000", "210632.405000", "210632.865000", "210633.325000", "210633.785000", "210634.245000", "210634.705000", "210635.165000", "210635.625000", "210636.085000", "210636.545000", "210637.005000", "210637.465000", "210637.925000", "210638.385000", "210638.845000", "210639.305000", "210639.765000", "210640.225000", "210640.685000", "210641.145000", "210641.605000", "210642.065000", "210642.525000", "210642.985000", "210643.445000", "210643.905000", "210644.365000", "210644.825000", "210645.285000", "210645.745000", "210646.205000", "210646.665000", "210647.125000", "210647.585000", "210648.045000", "210648.505000", "210648.965000", "210649.425000", "210649.885000", "210650.345000", "210650.805000", "210651.265000", "210651.725000", "210652.185000", "210652.645000", "210653.105000", "210653.565000", "210654.025000", "210654.485000", "210654.945000", "210655.405000", "210655.865000", "210656.325000", "210656.785000", "210657.245000", "210657.705000", "210658.165000", "210658.625000", "210659.085000", "210659.545000", "210700.005000", "210700.465000", "210700.925000", "210701.385000", "210701.845000", "210702.305000", "210702.765000", "210703.225000", "210703.685000", "210704.145000", "210704.605000", "210705.065000", "210705.525000", "210705.985000", "210706.445000", "210706.905000", "210707.365000", "210707.825000", "210708.285000", "210708.745000", "210709.205000", "210709.665000", "210710.125000", "210710.585000", "210711.045000", "210711.505000", "210711.965000", "210712.425000", "210712.885000", "210713.345000", "210713.805000", "210714.265000", "210714.725000", "210715.185000", "210715.645000", "210716.105000", "210716.565000", "210717.025000", "210717.485000", "210717.945000", "210718.405000", "210718.865000", "210719.325000", "210719.785000", "210720.245000", "210720.705000", "210721.165000", "210721.625000", "210722.085000", "210722.545000", "210723.005000", "210723.465000", "210723.925000", "210724.385000", "210724.845000", "210725.305000", "210725.765000", "210726.225000", "210726.685000", "210727.145000", "210727.605000", "210728.065000", "210728.525000", "210728.985000", "210729.445000", "210729.905000", "210730.365000", "210730.825000", "210731.285000", "210731.745000", "210732.205000", "210732.665000", "210733.125000", "210733.585000", "210734.045000", "210734.505000", "210734.965000", "210735.425000", "210735.885000", "210736.345000", "210736.805000", "210737.265000", "210737.725000", "210738.185000", "210738.645000", "210739.105000", "210739.565000", "210740.025000", "210740.485000"],
