{
  "AcquisitionMatrixPE": 82,
  "AcquisitionNumber": 1,
  "AcquisitionTime": "21:46:2.725000",
  "BandwidthPerPixelPhaseEncode": 24.888,
  "BaseResolution": 82,
  "BodyPartExamined": "BRAIN",
  "ConsistencyInfo": "N4_VE11E_LATEST_20181129",
  "ConversionSoftware": "dcm2niix",
  "ConversionSoftwareVersion": "v1.0.20201102",
  "DerivedVendorReportedEchoSpacing": 0.00049,
  "DeviceSerialNumber": "66112",
  "DwellTime": 2e-06,
  "EchoTime": 0.0272,
  "EchoTrainLength": 82,
  "EffectiveEchoSpacing": 0.00049,
  "FlipAngle": 44,
  "ImageComments": "Unaliased MB8/PE3",
  "ImageOrientationPatientDICOM": [0.999172, -0.00408363, 0.0404816, 0.00994044, 0.9893, -0.145554],
  "ImageType": [
    "ORIGINAL",
    "PRIMARY",
    "M",
    "MB",
    "ND",
    "NORM",
    "MOSAIC"
],
  "ImagingFrequency": 123.259,
  "InPlanePhaseEncodingDirectionDICOM": "COL",
  "InstitutionAddress": "Maynard 3,Hanover,NH,US,03755",
  "InstitutionName": "Dartmouth College - PBS",
  "InstitutionalDepartmentName": "Department",
  "MRAcquisitionType": "2D",
  "MagneticFieldStrength": 3,
  "Manufacturer": "Siemens",
  "ManufacturersModelName": "Prisma",
  "Modality": "MR",
  "MultibandAccelerationFactor": 8,
  "PartialFourier": 1,
  "PatientPosition": "HFS",
  "PercentPhaseFOV": 100,
  "PercentSampling": 100,
  "PhaseEncodingDirection": "j-",
  "PhaseEncodingSteps": 82,
  "PhaseResolution": 1,
  "PixelBandwidth": 3050,
  "ProcedureStepDescription": "Wager_Wager^1076_spacetop",
  "ProtocolName": "func_run-03_task-faces_acq-ap-mb8",
  "PulseSequenceDetails": "%CustomerSeq%\\cmrr_mbep2d_bold",
  "ReceiveCoilActiveElements": "HEA;HEP",
  "ReceiveCoilName": "Head_32",
  "ReconMatrixPE": 82,
  "RepetitionTime": 0.46,
  "SAR": 0.0816062,
  "ScanOptions": "FS",
  "ScanningSequence": "EP",
  "SequenceName": "epfid2d1_82",
  "SequenceVariant": "SK\\SS",
  "SeriesDescription": "func_run-03_task-faces_acq-ap-mb8",
  "SeriesNumber": 20,
  "ShimSetting": [4229, -7749, -7234, 226, -153, -253, -87, 49],
  "SliceThickness": 2.7,
  "SliceTiming": [0, 0.2525, 0.065, 0.315, 0.1275, 0.3775, 0.19, 0, 0.2525, 0.065, 0.315, 0.1275, 0.3775, 0.19, 0, 0.2525, 0.065, 0.315, 0.1275, 0.3775, 0.19, 0, 0.2525, 0.065, 0.315, 0.1275, 0.3775, 0.19, 0, 0.2525, 0.065, 0.315, 0.1275, 0.3775, 0.19, 0, 0.2525, 0.065, 0.315, 0.1275, 0.3775, 0.19, 0, 0.2525, 0.065, 0.315, 0.1275, 0.3775, 0.19, 0, 0.2525, 0.065, 0.315, 0.1275, 0.3775, 0.19],
  "SoftwareVersions": "syngo MR E11",
  "SpacingBetweenSlices": 2.7,
  "StationName": "AWP66112",
  "TaskName": "faces",
  "TotalReadoutTime": 0.03969,
  "TxRefAmp": 232.744,
  "WipMemBlock": "c66e3d77-d612-4aed-b428-8d58fcc423b8||Sequence: R016 ve11e/master r/434b28f1; Aug  7 2019 18:53:46 by eja",
  "dcmmeta_affine": [
    [-2.6807053089141846, 0.026669465005397797, 0.1065259724855423, 102.82587432861328],
    [0.010956082493066788, 2.6542205810546875, -0.39375755190849304, -90.80953216552734],
    [0.1086091622710228, 0.3905114233493805, 2.669008493423462, -97.28569030761719],
    [0.0, 0.0, 0.0, 1.0]
],
  "dcmmeta_reorient_transform": [
    [0.0, -1.0, 0.0, 81.0],
    [1.0, 0.0, 0.0, 0.0],
    [0.0, 0.0, 1.0, 0.0],
    [0.0, 0.0, 0.0, 1.0]
],
  "dcmmeta_shape": [82, 82, 56, 914],
  "dcmmeta_slice_dim": 2,
  "dcmmeta_version": 0.6,
  "global": {
    "const": {
      "AccessionNumber": "A004369",
      "AcquisitionMatrix": [82, 0, 0, 82],
      "AngioFlag": "N",
      "BitsAllocated": 16,
      "BitsStored": 16,
      "BodyPartExamined": "BRAIN",
      "Columns": 656,
      "EchoNumbers": 1,
      "EchoTime": 27.2,
      "EchoTrainLength": 82,
      "FlipAngle": 44.0,
      "HighBit": 15,
      "ImageOrientationPatient": [0.99917193938553, -0.0040836307349, 0.04048159463972, 0.00994043686977, 0.98930033185056, -0.1455542548853],
      "ImagePositionPatient": [-882.00264783805, -882.79919982259, 15.251685835344],
      "ImageType": [
        "ORIGINAL",
        "PRIMARY",
        "M",
        "MB",
        "ND",
        "NORM",
        "MOSAIC"
],
      "ImagedNucleus": "1H",
      "ImagingFrequency": 123.259138,
      "InPlanePhaseEncodingDirection": "COL",
      "MRAcquisitionType": "2D",
      "MagneticFieldStrength": 3.0,
      "Manufacturer": "SIEMENS",
      "ManufacturerModelName": "Prisma",
      "Modality": "MR",
      "NumberOfAverages": 1.0,
      "NumberOfPhaseEncodingSteps": 82,
      "PercentPhaseFieldOfView": 100.0,
      "PercentSampling": 100.0,
      "PerformedProcedureStepStartTime": "203148.095000",
      "PhotometricInterpretation": "MONOCHROME2",
      "PixelBandwidth": 3050.0,
      "PixelRepresentation": 0,
      "PixelSpacing": [2.6829268932343, 2.6829268932343],
      "ProtocolName": "func_run-03_task-faces_acq-ap-mb8",
      "RepetitionTime": 460.0,
      "Rows": 656,
      "SAR": 0.08160623154699,
      "SamplesPerPixel": 1,
      "ScanOptions": "FS",
      "ScanningSequence": "EP",
      "SequenceName": "epfid2d1_82",
      "SequenceVariant": [
        "SK",
        "SS"
],
      "SeriesDescription": "func_run-03_task-faces_acq-ap-mb8",
      "SeriesNumber": 20,
      "SeriesTime": "214613.085000",
      "SliceLocation": -78.868807786109,
      "SliceThickness": 2.7000000476837,
      "SmallestImagePixelValue": 0,
      "SoftwareVersions": "syngo MR E11",
      "SpacingBetweenSlices": 2.6999999098482,
      "SpecificCharacterSet": "ISO_IR 100",
      "StudyID": "2",
      "StudyTime": "203148.055000",
      "TransmitCoilName": "Body",
      "VariableFlipAngleFlag": "N",
      "WindowCenterWidthExplanation": "Algo1"
    },
    "slices": {}
  },
  "time": {
    "samples": {
      "AcquisitionNumber": [1, 2, 3, 4, 5, 6, 7, 8, 9, 10, 11, 12, 13, 14, 15, 16, 17, 18, 19, 20, 21, 22, 23, 24, 25, 26, 27, 28, 29, 30, 31, 32, 33, 34, 35, 36, 37, 38, 39, 40, 41, 42, 43, 44, 45, 46, 47, 48, 49, 50, 51, 52, 53, 54, 55, 56, 57, 58, 59, 60, 61, 62, 63, 64, 65, 66, 67, 68, 69, 70, 71, 72, 73, 74, 75, 76, 77, 78, 79, 80, 81, 82, 83, 84, 85, 86, 87, 88, 89, 90, 91, 92, 93, 94, 95, 96, 97, 98, 99, 100, 101, 102, 103, 104, 105, 106, 107, 108, 109, 110, 111, 112, 113, 114, 115, 116, 117, 118, 119, 120, 121, 122, 123, 124, 125, 126, 127, 128, 129, 130, 131, 132, 133, 134, 135, 136, 137, 138, 139, 140, 141, 142, 143, 144, 145, 146, 147, 148, 149, 150, 151, 152, 153, 154, 155, 156, 157, 158, 159, 160, 161, 162, 163, 164, 165, 166, 167, 168, 169, 170, 171, 172, 173, 174, 175, 176, 177, 178, 179, 180, 181, 182, 183, 184, 185, 186, 187, 188, 189, 190, 191, 192, 193, 194, 195, 196, 197, 198, 199, 200, 201, 202, 203, 204, 205, 206, 207, 208, 209, 210, 211, 212, 213, 214, 215, 216, 217, 218, 219, 220, 221, 222, 223, 224, 225, 226, 227, 228, 229, 230, 231, 232, 233, 234, 235, 236, 237, 238, 239, 240, 241, 242, 243, 244, 245, 246, 247, 248, 249, 250, 251, 252, 253, 254, 255, 256, 257, 258, 259, 260, 261, 262, 263, 264, 265, 266, 267, 268, 269, 270, 271, 272, 273, 274, 275, 276, 277, 278, 279, 280, 281, 282, 283, 284, 285, 286, 287, 288, 289, 290, 291, 292, 293, 294, 295, 296, 297, 298, 299, 300, 301, 302, 303, 304, 305, 306, 307, 308, 309, 310, 311, 312, 313, 314, 315, 316, 317, 318, 319, 320, 321, 322, 323, 324, 325, 326, 327, 328, 329, 330, 331, 332, 333, 334, 335, 336, 337, 338, 339, 340, 341, 342, 343, 344, 345, 346, 347, 348, 349, 350, 351, 352, 353, 354, 355, 356, 357, 358, 359, 360, 361, 362, 363, 364, 365, 366, 367, 368, 369, 370, 371, 372, 373, 374, 375, 376, 377, 378, 379, 380, 381, 382, 383, 384, 385, 386, 387, 388, 389, 390, 391, 392, 393, 394, 395, 396, 397, 398, 399, 400, 401, 402, 403, 404, 405, 406, 407, 408, 409, 410, 411, 412, 413, 414, 415, 416, 417, 418, 419, 420, 421, 422, 423, 424, 425, 426, 427, 428, 429, 430, 431, 432, 433, 434, 435, 436, 437, 438, 439, 440, 441, 442, 443, 444, 445, 446, 447, 448, 449, 450, 451, 452, 453, 454, 455, 456, 457, 458, 459, 460, 461, 462, 463, 464, 465, 466, 467, 468, 469, 470, 471, 472, 473, 474, 475, 476, 477, 478, 479, 480, 481, 482, 483, 484, 485, 486, 487, 488, 489, 490, 491, 492, 493, 494, 495, 496, 497, 498, 499, 500, 501, 502, 503, 504, 505, 506, 507, 508, 509, 510, 511, 512, 513, 514, 515, 516, 517, 518, 519, 520, 521, 522, 523, 524, 525, 526, 527, 528, 529, 530, 531, 532, 533, 534, 535, 536, 537, 538, 539, 540, 541, 542, 543, 544, 545, 546, 547, 548, 549, 550, 551, 552, 553, 554, 555, 556, 557, 558, 559, 560, 561, 562, 563, 564, 565, 566, 567, 568, 569, 570, 571, 572, 573, 574, 575, 576, 577, 578, 579, 580, 581, 582, 583, 584, 585, 586, 587, 588, 589, 590, 591, 592, 593, 594, 595, 596, 597, 598, 599, 600, 601, 602, 603, 604, 605, 606, 607, 608, 609, 610, 611, 612, 613, 614, 615, 616, 617, 618, 619, 620, 621, 622, 623, 624, 625, 626, 627, 628, 629, 630, 631, 632, 633, 634, 635, 636, 637, 638, 639, 640, 641, 642, 643, 644, 645, 646, 647, 648, 649, 650, 651, 652, 653, 654, 655, 656, 657, 658, 659, 660, 661, 662, 663, 664, 665, 666, 667, 668, 669, 670, 671, 672, 673, 674, 675, 676, 677, 678, 679, 680, 681, 682, 683, 684, 685, 686, 687, 688, 689, 690, 691, 692, 693, 694, 695, 696, 697, 698, 699, 700, 701, 702, 703, 704, 705, 706, 707, 708, 709, 710, 711, 712, 713, 714, 715, 716, 717, 718, 719, 720, 721, 722, 723, 724, 725, 726, 727, 728, 729, 730, 731, 732, 733, 734, 735, 736, 737, 738, 739, 740, 741, 742, 743, 744, 745, 746, 747, 748, 749, 750, 751, 752, 753, 754, 755, 756, 757, 758, 759, 760, 761, 762, 763, 764, 765, 766, 767, 768, 769, 770, 771, 772, 773, 774, 775, 776, 777, 778, 779, 780, 781, 782, 783, 784, 785, 786, 787, 788, 789, 790, 791, 792, 793, 794, 795, 796, 797, 798, 799, 800, 801, 802, 803, 804, 805, 806, 807, 808, 809, 810, 811, 812, 813, 814, 815, 816, 817, 818, 819, 820, 821, 822, 823, 824, 825, 826, 827, 828, 829, 830, 831, 832, 833, 834, 835, 836, 837, 838, 839, 840, 841, 842, 843, 844, 845, 846, 847, 848, 849, 850, 851, 852, 853, 854, 855, 856, 857, 858, 859, 860, 861, 862, 863, 864, 865, 866, 867, 868, 869, 870, 871, 872, 873, 874, 875, 876, 877, 878, 879, 880, 881, 882, 883, 884, 885, 886, 887, 888, 889, 890, 891, 892, 893, 894, 895, 896, 897, 898, 899, 900, 901, 902, 903, 904, 905, 906, 907, 908, 909, 910, 911, 912, 913, 914],
      "AcquisitionTime": ["214602.725000", "214603.185000", "214603.645000", "214604.105000", "214604.565000", "214605.025000", "214605.485000", "214605.945000", "214606.405000", "214606.865000", "214607.325000", "214607.785000", "214608.245000", "214608.705000", "214609.165000", "214609.625000", "214610.085000", "214610.545000", "214611.005000", "214611.465000", "214611.925000", "214612.385000", "214612.845000", "214613.305000", "214613.765000", "214614.225000", "214614.685000", "214615.145000", "214615.605000", "214616.065000", "214616.525000", "214616.985000", "214617.445000", "214617.905000", "214618.365000", "214618.825000", "214619.285000", "214619.745000", "214620.205000", "214620.665000", "214621.125000", "214621.585000", "214622.045000", "214622.505000", "214622.965000", "214623.425000", "214623.885000", "214624.345000", "214624.805000", "214625.265000", "214625.725000", "214626.185000", "214626.645000", "214627.105000", "214627.565000", "214628.025000", "214628.485000", "214628.945000", "214629.405000", "214629.865000", "214630.325000", "214630.785000", "214631.245000", "214631.705000", "214632.165000", "214632.625000", "214633.085000", "214633.545000", "214634.005000", "214634.465000", "214634.925000", "214635.385000", "214635.845000", "214636.305000", "214636.765000", "214637.225000", "214637.685000", "214638.145000", "214638.605000", "214639.065000", "214639.525000", "214639.985000", "214640.445000", "214640.905000", "214641.365000", "214641.825000", "214642.285000", "214642.745000", "214643.205000", "214643.665000", "214644.125000", "214644.585000", "214645.045000", "214645.505000", "214645.965000", "214646.425000", "214646.885000", "214647.345000", "214647.805000", "214648.265000", "214648.725000", "214649.185000", "214649.645000", "214650.105000", "214650.565000", "214651.025000", "214651.485000", "214651.945000", "214652.405000", "214652.865000", "214653.325000", "214653.785000", "214654.245000", "214654.705000", "214655.165000", "214655.625000", "214656.085000", "214656.545000", "214657.005000", "214657.465000", "214657.925000", "214658.385000", "214658.845000", "214659.305000", "214659.765000", "214700.225000", "214700.685000", "214701.145000", "214701.605000", "214702.065000", "214702.525000", "214702.985000", "214703.445000", "214703.905000", "214704.365000", "214704.825000", "214705.285000", "214705.745000", "214706.205000", "214706.665000", "214707.125000", "214707.585000", "214708.045000", "214708.505000", "214708.965000", "214709.425000", "214709.885000", "214710.345000", "214710.805000", "214711.265000", "214711.725000", "214712.185000", "214712.645000", "214713.105000", "214713.565000", "214714.025000", "214714.485000", "214714.945000", "214715.405000", "214715.865000", "214716.325000", "214716.785000", "214717.245000", "214717.705000", "214718.165000", "214718.625000", "214719.085000", "214719.545000", "214720.005000", "214720.465000", "214720.925000", "214721.385000", "214721.845000", "214722.305000", "214722.765000", "214723.225000", "214723.685000", "214724.145000", "214724.605000", "214725.065000", "214725.525000", "214725.985000", "214726.445000", "214726.905000", "214727.365000", "214727.825000", "214728.285000", "214728.745000", "214729.205000", "214729.665000", "214730.125000", "214730.585000", "214731.045000", "214731.505000", "214731.965000", "214732.425000", "214732.885000", "214733.345000", "214733.805000", "214734.265000", "214734.725000", "214735.185000", "214735.645000", "214736.105000", "214736.565000", "214737.025000", "214737.485000", "214737.945000", "214738.405000", "214738.865000", "214739.325000", "214739.785000", "214740.245000", "214740.705000", "214741.165000", "214741.625000", "214742.085000", "214742.545000", "214743.005000", "214743.465000", "214743.925000", "214744.385000", "214744.845000", "214745.305000", "214745.765000", "214746.225000", "214746.685000", "214747.145000", "214747.605000", "214748.065000", "214748.525000", "214748.985000", "214749.445000", "214749.905000", "214750.365000", "214750.825000", "214751.285000", "214751.745000", "214752.205000", "214752.665000", "214753.125000", "214753.585000", "214754.045000", "214754.505000", "214754.965000", "214755.425000", "214755.885000", "214756.345000", "214756.805000", "214757.265000", "214757.725000", "214758.185000", "214758.645000", "214759.105000", "214759.565000", "214800.025000", "214800.485000", "214800.945000", "214801.405000", "214801.865000", "214802.325000", "214802.785000", "214803.245000", "214803.705000", "214804.165000", "214804.625000", "214805.085000", "214805.545000", "214806.005000", "214806.465000", "214806.925000", "214807.385000", "214807.845000", "214808.305000", "214808.765000", "214809.225000", "214809.685000", "214810.145000", "214810.605000", "214811.065000", "214811.525000", "214811.985000", "214812.445000", "214812.905000", "214813.365000", "214813.825000", "214814.285000", "214814.745000", "214815.205000", "214815.665000", "214816.125000", "214816.585000", "214817.045000", "214817.505000", "214817.965000", "214818.425000", "214818.885000", "214819.345000", "214819.805000", "214820.265000", "214820.725000", "214821.185000", "214821.645000", "214822.105000", "214822.565000", "214823.025000", "214823.485000", "214823.945000", "214824.405000", "214824.865000", "214825.325000", "214825.785000", "214826.245000", "214826.705000", "214827.165000", "214827.625000", "214828.085000", "214828.545000", "214829.005000", "214829.465000", "214829.925000", "214830.385000", "214830.845000", "214831.305000", "214831.765000", "214832.225000", "214832.685000", "214833.145000", "214833.605000", "214834.065000", "214834.525000", "214834.985000", "214835.445000", "214835.905000", "214836.365000", "214836.825000", "214837.285000", "214837.745000", "214838.205000", "214838.665000", "214839.125000", "214839.585000", "214840.045000", "214840.505000", "214840.965000", "214841.425000", "214841.885000", "214842.345000", "214842.805000", "214843.265000", "214843.725000", "214844.185000", "214844.645000", "214845.105000", "214845.565000", "214846.025000", "214846.485000", "214846.945000", "214847.405000", "214847.865000", "214848.325000", "214848.785000", "214849.245000", "214849.705000", "214850.165000", "214850.625000", "214851.085000", "214851.545000", "214852.005000", "214852.465000", "214852.925000", "214853.385000", "214853.845000", "214854.305000", "214854.765000", "214855.225000", "214855.685000", "214856.145000", "214856.605000", "214857.065000", "214857.525000", "214857.985000", "214858.445000", "214858.905000", "214859.365000", "214859.825000", "214900.285000", "214900.745000", "214901.205000", "214901.665000", "214902.125000", "214902.585000", "214903.045000", "214903.505000", "214903.965000", "214904.425000", "214904.885000", "214905.345000", "214905.805000", "214906.265000", "214906.725000", "214907.185000", "214907.645000", "214908.105000", "214908.565000", "214909.025000", "214909.485000", "214909.945000", "214910.405000", "214910.865000", "214911.325000", "214911.785000", "214912.245000", "214912.705000", "214913.165000", "214913.625000", "214914.085000", "214914.545000", "214915.005000", "214915.465000", "214915.925000", "214916.385000", "214916.845000", "214917.305000", "214917.765000", "214918.225000", "214918.685000", "214919.145000", "214919.605000", "214920.065000", "214920.525000", "214920.985000", "214921.445000", "214921.905000", "214922.365000", "214922.825000", "214923.285000", "214923.745000", "214924.205000", "214924.665000", "214925.125000", "214925.585000", "214926.045000", "214926.505000", "214926.965000", "214927.425000", "214927.885000", "214928.345000", "214928.805000", "214929.265000", "214929.725000", "214930.185000", "214930.645000", "214931.105000", "214931.565000", "214932.025000", "214932.485000", "214932.945000", "214933.405000", "214933.865000", "214934.325000", "214934.785000", "214935.245000", "214935.705000", "214936.165000", "214936.625000", "214937.085000", "214937.545000", "214938.005000", "214938.465000", "214938.925000", "214939.385000", "214939.845000", "214940.305000", "214940.765000", "214941.225000", "214941.685000", "214942.145000", "214942.605000", "214943.065000", "214943.525000", "214943.985000", "214944.445000", "214944.905000", "214945.365000", "214945.825000", "214946.285000", "214946.745000", "214947.205000", "214947.665000", "214948.125000", "214948.585000", "214949.045000", "214949.505000", "214949.965000", "214950.425000", "214950.885000", "214951.345000", "214951.805000", "214952.265000", "214952.725000", "214953.185000", "214953.645000", "214954.105000", "214954.565000", "214955.025000", "214955.485000", "214955.945000", "214956.405000", "214956.865000", "214957.325000", "214957.785000", "214958.245000", "214958.705000", "214959.165000", "214959.625000", "215000.085000", "215000.545000", "215001.005000", "215001.465000", "215001.925000", "215002.385000", "215002.845000", "215003.305000", "215003.765000", "215004.225000", "215004.685000", "215005.145000", "215005.605000", "215006.065000", "215006.525000", "215006.985000", "215007.445000", "215007.905000", "215008.365000", "215008.825000", "215009.285000", "215009.745000", "215010.205000", "215010.665000", "215011.125000", "215011.585000", "215012.045000", "215012.505000", "215012.965000", "215013.425000", "215013.885000", "215014.345000", "215014.805000", "215015.265000", "215015.725000", "215016.185000", "215016.645000", "215017.105000", "215017.565000", "215018.025000", "215018.485000", "215018.945000", "215019.405000", "215019.865000", "215020.325000", "215020.785000", "215021.245000", "215021.705000", "215022.165000", "215022.625000", "215023.085000", "215023.545000", "215024.005000", "215024.465000", "215024.925000", "215025.385000", "215025.845000", "215026.305000", "215026.765000", "215027.225000", "215027.685000", "215028.145000", "215028.605000", "215029.065000", "215029.525000", "215029.985000", "215030.445000", "215030.905000", "215031.365000", "215031.825000", "215032.285000", "215032.745000", "215033.205000", "215033.665000", "215034.125000", "215034.585000", "215035.045000", "215035.505000", "215035.965000", "215036.425000", "215036.885000", "215037.345000", "215037.805000", "215038.265000", "215038.725000", "215039.185000", "215039.645000", "215040.105000", "215040.565000", "215041.025000", "215041.485000", "215041.945000", "215042.405000", "215042.865000", "215043.325000", "215043.785000", "215044.245000", "215044.705000", "215045.165000", "215045.625000", "215046.085000", "215046.545000", "215047.005000", "215047.465000", "215047.925000", "215048.385000", "215048.845000", "215049.305000", "215049.765000", "215050.225000", "215050.685000", "215051.145000", "215051.605000", "215052.065000", "215052.525000", "215052.985000", "215053.445000", "215053.905000", "215054.365000", "215054.825000", "215055.285000", "215055.745000", "215056.205000", "215056.665000", "215057.125000", "215057.585000", "215058.045000", "215058.505000", "215058.965000", "215059.425000", "215059.885000", "215100.345000", "215100.805000", "215101.265000", "215101.725000", "215102.185000", "215102.645000", "215103.105000", "215103.565000", "215104.025000", "215104.485000", "215104.945000", "215105.405000", "215105.865000", "215106.325000", "215106.785000", "215107.245000", "215107.705000", "215108.165000", "215108.625000", "215109.085000", "215109.545000", "215110.005000", "215110.465000", "215110.925000", "215111.385000", "215111.845000", "215112.305000", "215112.765000", "215113.225000", "215113.685000", "215114.145000", "215114.605000", "215115.065000", "215115.525000", "215115.985000", "215116.445000", "215116.905000", "215117.365000", "215117.825000", "215118.285000", "215118.745000", "215119.205000", "215119.665000", "215120.125000", "215120.585000", "215121.045000", "215121.505000", "215121.965000", "215122.425000", "215122.885000", "215123.345000", "215123.805000", "215124.265000", "215124.725000", "215125.185000", "215125.645000", "215126.105000", "215126.565000", "215127.025000", "215127.485000", "215127.945000", "215128.405000", "215128.865000", "215129.325000", "215129.785000", "215130.245000", "215130.705000", "215131.165000", "215131.625000", "215132.085000", "215132.545000", "215133.005000", "215133.465000", "215133.925000", "215134.385000", "215134.845000", "215135.305000", "215135.765000", "215136.225000", "215136.685000", "215137.145000", "215137.605000", "215138.065000", "215138.525000", "215138.985000", "215139.445000", "215139.905000", "215140.365000", "215140.825000", "215141.285000", "215141.745000", "215142.205000", "215142.665000", "215143.125000", "215143.585000", "215144.045000", "215144.505000", "215144.965000", "215145.425000", "215145.885000", "215146.345000", "215146.805000", "215147.265000", "215147.725000", "215148.185000", "215148.645000", "215149.105000", "215149.565000", "215150.025000", "215150.485000", "215150.945000", "215151.405000", "215151.865000", "215152.325000", "215152.785000", "215153.245000", "215153.705000", "215154.165000", "215154.625000", "215155.085000", "215155.545000", "215156.005000", "215156.465000", "215156.925000", "215157.385000", "215157.845000", "215158.305000", "215158.765000", "215159.225000", "215159.685000", "215200.145000", "215200.605000", "215201.065000", "215201.525000", "215201.985000", "215202.445000", "215202.905000", "215203.365000", "215203.825000", "215204.285000", "215204.745000", "215205.205000", "215205.665000", "215206.125000", "215206.585000", "215207.045000", "215207.505000", "215207.965000", "215208.425000", "215208.885000", "215209.345000", "215209.805000", "215210.265000", "215210.725000", "215211.185000", "215211.645000", "215212.105000", "215212.565000", "215213.025000", "215213.485000", "215213.945000", "215214.405000", "215214.865000", "215215.325000", "215215.785000", "215216.245000", "215216.705000", "215217.165000", "215217.625000", "215218.085000", "215218.545000", "215219.005000", "215219.465000", "215219.925000", "215220.385000", "215220.845000", "215221.305000", "215221.765000", "215222.225000", "215222.685000", "215223.145000", "215223.605000", "215224.065000", "215224.525000", "215224.985000", "215225.445000", "215225.905000", "215226.365000", "215226.825000", "215227.285000", "215227.745000", "215228.205000", "215228.665000", "215229.125000", "215229.585000", "215230.045000", "215230.505000", "215230.965000", "215231.425000", "215231.885000", "215232.345000", "215232.805000", "215233.265000", "215233.725000", "215234.185000", "215234.645000", "215235.105000", "215235.565000", "215236.025000", "215236.485000", "215236.945000", "215237.405000", "215237.865000", "215238.325000", "215238.785000", "215239.245000", "215239.705000", "215240.165000", "215240.625000", "215241.085000", "215241.545000", "215242.005000", "215242.465000", "215242.925000", "215243.385000", "215243.845000", "215244.305000", "215244.765000", "215245.225000", "215245.685000", "215246.145000", "215246.605000", "215247.065000", "215247.525000", "215247.985000", "215248.445000", "215248.905000", "215249.365000", "215249.825000", "215250.285000", "215250.745000", "215251.205000", "215251.665000", "215252.125000", "215252.585000", "215253.045000", "215253.505000", "215253.965000", "215254.425000", "215254.885000", "215255.345000", "215255.805000", "215256.265000", "215256.725000", "215257.185000", "215257.645000", "215258.105000", "215258.565000", "215259.025000", "215259.485000", "215259.945000", "215300.405000", "215300.865000", "215301.325000", "215301.785000", "215302.245000", "215302.705000"],
