{
  "AcquisitionMatrixPE": 82,
  "AcquisitionNumber": 1,
  "AcquisitionTime": "21:36:16.367500",
  "BandwidthPerPixelPhaseEncode": 24.888,
  "BaseResolution": 82,
  "BodyPartExamined": "BRAIN",
  "ConsistencyInfo": "N4_VE11E_LATEST_20181129",
  "ConversionSoftware": "dcm2niix",
  "ConversionSoftwareVersion": "v1.0.20201102",
  "DerivedVendorReportedEchoSpacing": 0.00049,
  "DeviceSerialNumber": "66112",
  "DwellTime": 2e-06,
  "EchoTime": 0.0272,
  "EchoTrainLength": 82,
  "EffectiveEchoSpacing": 0.00049,
  "FlipAngle": 44,
  "ImageComments": "Unaliased MB8/PE3",
  "ImageOrientationPatientDICOM": [0.999172, -0.00408363, 0.0404816, 0.00994044, 0.9893, -0.145554],
  "ImageType": [
    "ORIGINAL",
    "PRIMARY",
    "M",
    "MB",
    "ND",
    "NORM",
    "MOSAIC"
],
  "ImagingFrequency": 123.259,
  "InPlanePhaseEncodingDirectionDICOM": "COL",
  "InstitutionAddress": "Maynard 3,Hanover,NH,US,03755",
  "InstitutionName": "Dartmouth College - PBS",
  "InstitutionalDepartmentName": "Department",
  "MRAcquisitionType": "2D",
  "MagneticFieldStrength": 3,
  "Manufacturer": "Siemens",
  "ManufacturersModelName": "Prisma",
  "Modality": "MR",
  "MultibandAccelerationFactor": 8,
  "PartialFourier": 1,
  "PatientPosition": "HFS",
  "PercentPhaseFOV": 100,
  "PercentSampling": 100,
  "PhaseEncodingDirection": "j-",
  "PhaseEncodingSteps": 82,
  "PhaseResolution": 1,
  "PixelBandwidth": 3050,
  "ProcedureStepDescription": "Wager_Wager^1076_spacetop",
  "ProtocolName": "func_run-02_task-faces_acq-ap-mb8",
  "PulseSequenceDetails": "%CustomerSeq%\\cmrr_mbep2d_bold",
  "ReceiveCoilActiveElements": "HEA;HEP",
  "ReceiveCoilName": "Head_32",
  "ReconMatrixPE": 82,
  "RepetitionTime": 0.46,
  "SAR": 0.0816062,
  "ScanOptions": "FS",
  "ScanningSequence": "EP",
  "SequenceName": "epfid2d1_82",
  "SequenceVariant": "SK\\SS",
  "SeriesDescription": "func_run-02_task-faces_acq-ap-mb8",
  "SeriesNumber": 18,
  "ShimSetting": [4229, -7749, -7234, 226, -153, -253, -87, 49],
  "SliceThickness": 2.7,
  "SliceTiming": [0, 0.2525, 0.0625, 0.315, 0.125, 0.3775, 0.19, 0, 0.2525, 0.0625, 0.315, 0.125, 0.3775, 0.19, 0, 0.2525, 0.0625, 0.315, 0.125, 0.3775, 0.19, 0, 0.2525, 0.0625, 0.315, 0.125, 0.3775, 0.19, 0, 0.2525, 0.0625, 0.315, 0.125, 0.3775, 0.19, 0, 0.2525, 0.0625, 0.315, 0.125, 0.3775, 0.19, 0, 0.2525, 0.0625, 0.315, 0.125, 0.3775, 0.19, 0, 0.2525, 0.0625, 0.315, 0.125, 0.3775, 0.19],
  "SoftwareVersions": "syngo MR E11",
  "SpacingBetweenSlices": 2.7,
  "StationName": "AWP66112",
  "TaskName": "faces",
  "TotalReadoutTime": 0.03969,
  "TxRefAmp": 232.744,
  "WipMemBlock": "efdf2b51-c40b-4b7c-a459-cf82226518ee||Sequence: R016 ve11e/master r/434b28f1; Aug  7 2019 18:53:46 by eja",
  "dcmmeta_affine": [
    [-2.6807053089141846, 0.026669465005397797, 0.1065259724855423, 102.82587432861328],
    [0.010956082493066788, 2.6542205810546875, -0.39375755190849304, -90.80953216552734],
    [0.1086091622710228, 0.3905114233493805, 2.669008493423462, -97.28569030761719],
    [0.0, 0.0, 0.0, 1.0]
],
  "dcmmeta_reorient_transform": [
    [0.0, -1.0, 0.0, 81.0],
    [1.0, 0.0, 0.0, 0.0],
    [0.0, 0.0, 1.0, 0.0],
    [0.0, 0.0, 0.0, 1.0]
],
  "dcmmeta_shape": [82, 82, 56, 914],
  "dcmmeta_slice_dim": 2,
  "dcmmeta_version": 0.6,
  "global": {
    "const": {
      "AccessionNumber": "A004369",
      "AcquisitionMatrix": [82, 0, 0, 82],
      "AngioFlag": "N",
      "BitsAllocated": 16,
      "BitsStored": 16,
      "BodyPartExamined": "BRAIN",
      "Columns": 656,
      "EchoNumbers": 1,
      "EchoTime": 27.2,
      "EchoTrainLength": 82,
      "FlipAngle": 44.0,
      "HighBit": 15,
      "ImageOrientationPatient": [0.99917193938553, -0.0040836307349, 0.04048159463972, 0.00994043686977, 0.98930033185056, -0.1455542548853],
      "ImagePositionPatient": [-882.00264783805, -882.79919982259, 15.251685835344],
      "ImageType": [
        "ORIGINAL",
        "PRIMARY",
        "M",
        "MB",
        "ND",
        "NORM",
        "MOSAIC"
],
      "ImagedNucleus": "1H",
      "ImagingFrequency": 123.259135,
      "InPlanePhaseEncodingDirection": "COL",
      "MRAcquisitionType": "2D",
      "MagneticFieldStrength": 3.0,
      "Manufacturer": "SIEMENS",
      "ManufacturerModelName": "Prisma",
      "Modality": "MR",
      "NumberOfAverages": 1.0,
      "NumberOfPhaseEncodingSteps": 82,
      "PercentPhaseFieldOfView": 100.0,
      "PercentSampling": 100.0,
      "PerformedProcedureStepStartTime": "203148.095000",
      "PhotometricInterpretation": "MONOCHROME2",
      "PixelBandwidth": 3050.0,
      "PixelRepresentation": 0,
      "PixelSpacing": [2.6829268932343, 2.6829268932343],
      "ProtocolName": "func_run-02_task-faces_acq-ap-mb8",
      "RepetitionTime": 460.0,
      "Rows": 656,
      "SAR": 0.08160623154699,
      "SamplesPerPixel": 1,
      "ScanOptions": "FS",
      "ScanningSequence": "EP",
      "SequenceName": "epfid2d1_82",
      "SequenceVariant": [
        "SK",
        "SS"
],
      "SeriesDescription": "func_run-02_task-faces_acq-ap-mb8",
      "SeriesNumber": 18,
      "SeriesTime": "213632.975000",
      "SliceLocation": -78.868807786109,
      "SliceThickness": 2.7000000476837,
      "SmallestImagePixelValue": 0,
      "SoftwareVersions": "syngo MR E11",
      "SpacingBetweenSlices": 2.6999999098482,
      "SpecificCharacterSet": "ISO_IR 100",
      "StudyID": "2",
      "StudyTime": "203148.055000",
      "TransmitCoilName": "Body",
      "VariableFlipAngleFlag": "N",
      "WindowCenterWidthExplanation": "Algo1"
    },
    "slices": {}
  },
  "time": {
    "samples": {
      "AcquisitionNumber": [1, 2, 3, 4, 5, 6, 7, 8, 9, 10, 11, 12, 13, 14, 15, 16, 17, 18, 19, 20, 21, 22, 23, 24, 25, 26, 27, 28, 29, 30, 31, 32, 33, 34, 35, 36, 37, 38, 39, 40, 41, 42, 43, 44, 45, 46, 47, 48, 49, 50, 51, 52, 53, 54, 55, 56, 57, 58, 59, 60, 61, 62, 63, 64, 65, 66, 67, 68, 69, 70, 71, 72, 73, 74, 75, 76, 77, 78, 79, 80, 81, 82, 83, 84, 85, 86, 87, 88, 89, 90, 91, 92, 93, 94, 95, 96, 97, 98, 99, 100, 101, 102, 103, 104, 105, 106, 107, 108, 109, 110, 111, 112, 113, 114, 115, 116, 117, 118, 119, 120, 121, 122, 123, 124, 125, 126, 127, 128, 129, 130, 131, 132, 133, 134, 135, 136, 137, 138, 139, 140, 141, 142, 143, 144, 145, 146, 147, 148, 149, 150, 151, 152, 153, 154, 155, 156, 157, 158, 159, 160, 161, 162, 163, 164, 165, 166, 167, 168, 169, 170, 171, 172, 173, 174, 175, 176, 177, 178, 179, 180, 181, 182, 183, 184, 185, 186, 187, 188, 189, 190, 191, 192, 193, 194, 195, 196, 197, 198, 199, 200, 201, 202, 203, 204, 205, 206, 207, 208, 209, 210, 211, 212, 213, 214, 215, 216, 217, 218, 219, 220, 221, 222, 223, 224, 225, 226, 227, 228, 229, 230, 231, 232, 233, 234, 235, 236, 237, 238, 239, 240, 241, 242, 243, 244, 245, 246, 247, 248, 249, 250, 251, 252, 253, 254, 255, 256, 257, 258, 259, 260, 261, 262, 263, 264, 265, 266, 267, 268, 269, 270, 271, 272, 273, 274, 275, 276, 277, 278, 279, 280, 281, 282, 283, 284, 285, 286, 287, 288, 289, 290, 291, 292, 293, 294, 295, 296, 297, 298, 299, 300, 301, 302, 303, 304, 305, 306, 307, 308, 309, 310, 311, 312, 313, 314, 315, 316, 317, 318, 319, 320, 321, 322, 323, 324, 325, 326, 327, 328, 329, 330, 331, 332, 333, 334, 335, 336, 337, 338, 339, 340, 341, 342, 343, 344, 345, 346, 347, 348, 349, 350, 351, 352, 353, 354, 355, 356, 357, 358, 359, 360, 361, 362, 363, 364, 365, 366, 367, 368, 369, 370, 371, 372, 373, 374, 375, 376, 377, 378, 379, 380, 381, 382, 383, 384, 385, 386, 387, 388, 389, 390, 391, 392, 393, 394, 395, 396, 397, 398, 399, 400, 401, 402, 403, 404, 405, 406, 407, 408, 409, 410, 411, 412, 413, 414, 415, 416, 417, 418, 419, 420, 421, 422, 423, 424, 425, 426, 427, 428, 429, 430, 431, 432, 433, 434, 435, 436, 437, 438, 439, 440, 441, 442, 443, 444, 445, 446, 447, 448, 449, 450, 451, 452, 453, 454, 455, 456, 457, 458, 459, 460, 461, 462, 463, 464, 465, 466, 467, 468, 469, 470, 471, 472, 473, 474, 475, 476, 477, 478, 479, 480, 481, 482, 483, 484, 485, 486, 487, 488, 489, 490, 491, 492, 493, 494, 495, 496, 497, 498, 499, 500, 501, 502, 503, 504, 505, 506, 507, 508, 509, 510, 511, 512, 513, 514, 515, 516, 517, 518, 519, 520, 521, 522, 523, 524, 525, 526, 527, 528, 529, 530, 531, 532, 533, 534, 535, 536, 537, 538, 539, 540, 541, 542, 543, 544, 545, 546, 547, 548, 549, 550, 551, 552, 553, 554, 555, 556, 557, 558, 559, 560, 561, 562, 563, 564, 565, 566, 567, 568, 569, 570, 571, 572, 573, 574, 575, 576, 577, 578, 579, 580, 581, 582, 583, 584, 585, 586, 587, 588, 589, 590, 591, 592, 593, 594, 595, 596, 597, 598, 599, 600, 601, 602, 603, 604, 605, 606, 607, 608, 609, 610, 611, 612, 613, 614, 615, 616, 617, 618, 619, 620, 621, 622, 623, 624, 625, 626, 627, 628, 629, 630, 631, 632, 633, 634, 635, 636, 637, 638, 639, 640, 641, 642, 643, 644, 645, 646, 647, 648, 649, 650, 651, 652, 653, 654, 655, 656, 657, 658, 659, 660, 661, 662, 663, 664, 665, 666, 667, 668, 669, 670, 671, 672, 673, 674, 675, 676, 677, 678, 679, 680, 681, 682, 683, 684, 685, 686, 687, 688, 689, 690, 691, 692, 693, 694, 695, 696, 697, 698, 699, 700, 701, 702, 703, 704, 705, 706, 707, 708, 709, 710, 711, 712, 713, 714, 715, 716, 717, 718, 719, 720, 721, 722, 723, 724, 725, 726, 727, 728, 729, 730, 731, 732, 733, 734, 735, 736, 737, 738, 739, 740, 741, 742, 743, 744, 745, 746, 747, 748, 749, 750, 751, 752, 753, 754, 755, 756, 757, 758, 759, 760, 761, 762, 763, 764, 765, 766, 767, 768, 769, 770, 771, 772, 773, 774, 775, 776, 777, 778, 779, 780, 781, 782, 783, 784, 785, 786, 787, 788, 789, 790, 791, 792, 793, 794, 795, 796, 797, 798, 799, 800, 801, 802, 803, 804, 805, 806, 807, 808, 809, 810, 811, 812, 813, 814, 815, 816, 817, 818, 819, 820, 821, 822, 823, 824, 825, 826, 827, 828, 829, 830, 831, 832, 833, 834, 835, 836, 837, 838, 839, 840, 841, 842, 843, 844, 845, 846, 847, 848, 849, 850, 851, 852, 853, 854, 855, 856, 857, 858, 859, 860, 861, 862, 863, 864, 865, 866, 867, 868, 869, 870, 871, 872, 873, 874, 875, 876, 877, 878, 879, 880, 881, 882, 883, 884, 885, 886, 887, 888, 889, 890, 891, 892, 893, 894, 895, 896, 897, 898, 899, 900, 901, 902, 903, 904, 905, 906, 907, 908, 909, 910, 911, 912, 913, 914],
      "AcquisitionTime": ["213616.367500", "213616.827500", "213617.287500", "213617.747500", "213618.207500", "213618.667500", "213619.127500", "213619.587500", "213620.047500", "213620.507500", "213620.967500", "213621.427500", "213621.887500", "213622.347500", "213622.807500", "213623.267500", "213623.727500", "213624.187500", "213624.647500", "213625.107500", "213625.567500", "213626.027500", "213626.487500", "213626.947500", "213627.407500", "213627.867500", "213628.327500", "213628.787500", "213629.247500", "213629.707500", "213630.167500", "213630.627500", "213631.087500", "213631.547500", "213632.007500", "213632.467500", "213632.927500", "213633.387500", "213633.847500", "213634.307500", "213634.767500", "213635.227500", "213635.687500", "213636.147500", "213636.607500", "213637.067500", "213637.527500", "213637.987500", "213638.447500", "213638.907500", "213639.367500", "213639.827500", "213640.287500", "213640.747500", "213641.207500", "213641.667500", "213642.127500", "213642.587500", "213643.047500", "213643.507500", "213643.967500", "213644.427500", "213644.887500", "213645.347500", "213645.807500", "213646.267500", "213646.727500", "213647.187500", "213647.647500", "213648.107500", "213648.567500", "213649.027500", "213649.487500", "213649.947500", "213650.407500", "213650.867500", "213651.327500", "213651.787500", "213652.247500", "213652.707500", "213653.167500", "213653.627500", "213654.087500", "213654.547500", "213655.007500", "213655.467500", "213655.927500", "213656.387500", "213656.847500", "213657.307500", "213657.767500", "213658.227500", "213658.687500", "213659.147500", "213659.607500", "213700.067500", "213700.527500", "213700.987500", "213701.447500", "213701.907500", "213702.367500", "213702.827500", "213703.287500", "213703.747500", "213704.207500", "213704.667500", "213705.127500", "213705.587500", "213706.047500", "213706.507500", "213706.967500", "213707.427500", "213707.887500", "213708.347500", "213708.807500", "213709.267500", "213709.727500", "213710.187500", "213710.647500", "213711.107500", "213711.567500", "213712.027500", "213712.487500", "213712.947500", "213713.407500", "213713.867500", "213714.327500", "213714.787500", "213715.247500", "213715.707500", "213716.167500", "213716.627500", "213717.087500", "213717.547500", "213718.007500", "213718.467500", "213718.927500", "213719.387500", "213719.847500", "213720.307500", "213720.767500", "213721.227500", "213721.687500", "213722.147500", "213722.607500", "213723.067500", "213723.527500", "213723.987500", "213724.447500", "213724.907500", "213725.367500", "213725.827500", "213726.287500", "213726.747500", "213727.207500", "213727.667500", "213728.127500", "213728.587500", "213729.047500", "213729.507500", "213729.967500", "213730.427500", "213730.887500", "213731.347500", "213731.807500", "213732.267500", "213732.727500", "213733.187500", "213733.647500", "213734.107500", "213734.567500", "213735.027500", "213735.487500", "213735.947500", "213736.407500", "213736.867500", "213737.327500", "213737.787500", "213738.247500", "213738.707500", "213739.167500", "213739.627500", "213740.087500", "213740.547500", "213741.007500", "213741.467500", "213741.927500", "213742.387500", "213742.847500", "213743.307500", "213743.767500", "213744.227500", "213744.687500", "213745.147500", "213745.607500", "213746.067500", "213746.527500", "213746.987500", "213747.447500", "213747.907500", "213748.367500", "213748.827500", "213749.287500", "213749.747500", "213750.207500", "213750.667500", "213751.127500", "213751.587500", "213752.047500", "213752.507500", "213752.967500", "213753.427500", "213753.887500", "213754.347500", "213754.807500", "213755.267500", "213755.727500", "213756.187500", "213756.647500", "213757.107500", "213757.567500", "213758.027500", "213758.487500", "213758.947500", "213759.407500", "213759.867500", "213800.327500", "213800.787500", "213801.247500", "213801.707500", "213802.167500", "213802.627500", "213803.087500", "213803.547500", "213804.007500", "213804.467500", "213804.927500", "213805.387500", "213805.847500", "213806.307500", "213806.767500", "213807.227500", "213807.687500", "213808.147500", "213808.607500", "213809.067500", "213809.527500", "213809.987500", "213810.447500", "213810.907500", "213811.367500", "213811.827500", "213812.287500", "213812.747500", "213813.207500", "213813.667500", "213814.127500", "213814.587500", "213815.047500", "213815.507500", "213815.967500", "213816.427500", "213816.887500", "213817.347500", "213817.807500", "213818.267500", "213818.727500", "213819.187500", "213819.647500", "213820.107500", "213820.567500", "213821.027500", "213821.487500", "213821.947500", "213822.407500", "213822.867500", "213823.327500", "213823.787500", "213824.247500", "213824.707500", "213825.167500", "213825.627500", "213826.087500", "213826.547500", "213827.007500", "213827.467500", "213827.927500", "213828.387500", "213828.847500", "213829.307500", "213829.767500", "213830.227500", "213830.687500", "213831.147500", "213831.607500", "213832.067500", "213832.527500", "213832.987500", "213833.447500", "213833.907500", "213834.367500", "213834.827500", "213835.287500", "213835.747500", "213836.207500", "213836.667500", "213837.127500", "213837.587500", "213838.047500", "213838.507500", "213838.967500", "213839.427500", "213839.887500", "213840.347500", "213840.807500", "213841.267500", "213841.727500", "213842.187500", "213842.647500", "213843.107500", "213843.567500", "213844.027500", "213844.487500", "213844.947500", "213845.407500", "213845.867500", "213846.327500", "213846.787500", "213847.247500", "213847.707500", "213848.167500", "213848.627500", "213849.087500", "213849.547500", "213850.007500", "213850.467500", "213850.927500", "213851.387500", "213851.847500", "213852.307500", "213852.767500", "213853.227500", "213853.687500", "213854.147500", "213854.607500", "213855.067500", "213855.527500", "213855.987500", "213856.447500", "213856.907500", "213857.367500", "213857.827500", "213858.287500", "213858.747500", "213859.207500", "213859.667500", "213900.127500", "213900.587500", "213901.047500", "213901.507500", "213901.967500", "213902.427500", "213902.887500", "213903.347500", "213903.807500", "213904.267500", "213904.727500", "213905.187500", "213905.647500", "213906.107500", "213906.567500", "213907.027500", "213907.487500", "213907.947500", "213908.407500", "213908.867500", "213909.327500", "213909.787500", "213910.247500", "213910.707500", "213911.167500", "213911.627500", "213912.087500", "213912.547500", "213913.007500", "213913.467500", "213913.927500", "213914.387500", "213914.847500", "213915.307500", "213915.767500", "213916.227500", "213916.687500", "213917.147500", "213917.607500", "213918.067500", "213918.527500", "213918.987500", "213919.447500", "213919.907500", "213920.367500", "213920.827500", "213921.287500", "213921.747500", "213922.207500", "213922.667500", "213923.127500", "213923.587500", "213924.047500", "213924.507500", "213924.967500", "213925.427500", "213925.887500", "213926.347500", "213926.807500", "213927.267500", "213927.727500", "213928.187500", "213928.647500", "213929.107500", "213929.567500", "213930.027500", "213930.487500", "213930.947500", "213931.407500", "213931.867500", "213932.327500", "213932.787500", "213933.247500", "213933.707500", "213934.167500", "213934.627500", "213935.087500", "213935.547500", "213936.007500", "213936.467500", "213936.927500", "213937.387500", "213937.847500", "213938.307500", "213938.767500", "213939.227500", "213939.687500", "213940.147500", "213940.607500", "213941.067500", "213941.527500", "213941.987500", "213942.447500", "213942.907500", "213943.367500", "213943.827500", "213944.287500", "213944.747500", "213945.207500", "213945.667500", "213946.127500", "213946.587500", "213947.047500", "213947.507500", "213947.967500", "213948.427500", "213948.887500", "213949.347500", "213949.807500", "213950.267500", "213950.727500", "213951.187500", "213951.647500", "213952.107500", "213952.567500", "213953.027500", "213953.487500", "213953.947500", "213954.407500", "213954.867500", "213955.327500", "213955.787500", "213956.247500", "213956.707500", "213957.167500", "213957.627500", "213958.087500", "213958.547500", "213959.007500", "213959.467500", "213959.927500", "214000.387500", "214000.847500", "214001.307500", "214001.767500", "214002.227500", "214002.687500", "214003.147500", "214003.607500", "214004.067500", "214004.527500", "214004.987500", "214005.447500", "214005.907500", "214006.367500", "214006.827500", "214007.287500", "214007.747500", "214008.207500", "214008.667500", "214009.127500", "214009.587500", "214010.047500", "214010.507500", "214010.967500", "214011.427500", "214011.887500", "214012.347500", "214012.807500", "214013.267500", "214013.727500", "214014.187500", "214014.647500", "214015.107500", "214015.567500", "214016.027500", "214016.487500", "214016.947500", "214017.407500", "214017.867500", "214018.327500", "214018.787500", "214019.247500", "214019.707500", "214020.167500", "214020.627500", "214021.087500", "214021.547500", "214022.007500", "214022.467500", "214022.927500", "214023.387500", "214023.847500", "214024.307500", "214024.767500", "214025.227500", "214025.687500", "214026.147500", "214026.607500", "214027.067500", "214027.527500", "214027.987500", "214028.447500", "214028.907500", "214029.367500", "214029.827500", "214030.287500", "214030.747500", "214031.207500", "214031.667500", "214032.127500", "214032.587500", "214033.047500", "214033.507500", "214033.967500", "214034.427500", "214034.887500", "214035.347500", "214035.807500", "214036.267500", "214036.727500", "214037.187500", "214037.647500", "214038.107500", "214038.567500", "214039.027500", "214039.487500", "214039.947500", "214040.407500", "214040.867500", "214041.327500", "214041.787500", "214042.247500", "214042.707500", "214043.167500", "214043.627500", "214044.087500", "214044.547500", "214045.007500", "214045.467500", "214045.927500", "214046.387500", "214046.847500", "214047.307500", "214047.767500", "214048.227500", "214048.687500", "214049.147500", "214049.607500", "214050.067500", "214050.527500", "214050.987500", "214051.447500", "214051.907500", "214052.367500", "214052.827500", "214053.287500", "214053.747500", "214054.207500", "214054.667500", "214055.127500", "214055.587500", "214056.047500", "214056.507500", "214056.967500", "214057.427500", "214057.887500", "214058.347500", "214058.807500", "214059.267500", "214059.727500", "214100.187500", "214100.647500", "214101.107500", "214101.567500", "214102.027500", "214102.487500", "214102.947500", "214103.407500", "214103.867500", "214104.327500", "214104.787500", "214105.247500", "214105.707500", "214106.167500", "214106.627500", "214107.087500", "214107.547500", "214108.007500", "214108.467500", "214108.927500", "214109.387500", "214109.847500", "214110.307500", "214110.767500", "214111.227500", "214111.687500", "214112.147500", "214112.607500", "214113.067500", "214113.527500", "214113.987500", "214114.447500", "214114.907500", "214115.367500", "214115.827500", "214116.287500", "214116.747500", "214117.207500", "214117.667500", "214118.127500", "214118.587500", "214119.047500", "214119.507500", "214119.967500", "214120.427500", "214120.887500", "214121.347500", "214121.807500", "214122.267500", "214122.727500", "214123.187500", "214123.647500", "214124.107500", "214124.567500", "214125.027500", "214125.487500", "214125.947500", "214126.407500", "214126.867500", "214127.327500", "214127.787500", "214128.247500", "214128.707500", "214129.167500", "214129.627500", "214130.087500", "214130.547500", "214131.007500", "214131.467500", "214131.927500", "214132.387500", "214132.847500", "214133.307500", "214133.767500", "214134.227500", "214134.687500", "214135.147500", "214135.607500", "214136.067500", "214136.527500", "214136.987500", "214137.447500", "214137.907500", "214138.367500", "214138.827500", "214139.287500", "214139.747500", "214140.207500", "214140.667500", "214141.127500", "214141.587500", "214142.047500", "214142.507500", "214142.967500", "214143.427500", "214143.887500", "214144.347500", "214144.807500", "214145.267500", "214145.727500", "214146.187500", "214146.647500", "214147.107500", "214147.567500", "214148.027500", "214148.487500", "214148.947500", "214149.407500", "214149.867500", "214150.327500", "214150.787500", "214151.247500", "214151.707500", "214152.167500", "214152.627500", "214153.087500", "214153.547500", "214154.007500", "214154.467500", "214154.927500", "214155.387500", "214155.847500", "214156.307500", "214156.767500", "214157.227500", "214157.687500", "214158.147500", "214158.607500", "214159.067500", "214159.527500", "214159.987500", "214200.447500", "214200.907500", "214201.367500", "214201.827500", "214202.287500", "214202.747500", "214203.207500", "214203.667500", "214204.127500", "214204.587500", "214205.047500", "214205.507500", "214205.967500", "214206.427500", "214206.887500", "214207.347500", "214207.807500", "214208.267500", "214208.727500", "214209.187500", "214209.647500", "214210.107500", "214210.567500", "214211.027500", "214211.487500", "214211.947500", "214212.407500", "214212.867500", "214213.327500", "214213.787500", "214214.247500", "214214.707500", "214215.167500", "214215.627500", "214216.087500", "214216.547500", "214217.007500", "214217.467500", "214217.927500", "214218.387500", "214218.847500", "214219.307500", "214219.767500", "214220.227500", "214220.687500", "214221.147500", "214221.607500", "214222.067500", "214222.527500", "214222.987500", "214223.447500", "214223.907500", "214224.367500", "214224.827500", "214225.287500", "214225.747500", "214226.207500", "214226.667500", "214227.127500", "214227.587500", "214228.047500", "214228.507500", "214228.967500", "214229.427500", "214229.887500", "214230.347500", "214230.807500", "214231.267500", "214231.727500", "214232.187500", "214232.647500", "214233.107500", "214233.567500", "214234.027500", "214234.487500", "214234.947500", "214235.407500", "214235.867500", "214236.327500", "214236.787500", "214237.247500", "214237.707500", "214238.167500", "214238.627500", "214239.087500", "214239.547500", "214240.007500", "214240.467500", "214240.927500", "214241.387500", "214241.847500", "214242.307500", "214242.767500", "214243.227500", "214243.687500", "214244.147500", "214244.607500", "214245.067500", "214245.527500", "214245.987500", "214246.447500", "214246.907500", "214247.367500", "214247.827500", "214248.287500", "214248.747500", "214249.207500", "214249.667500", "214250.127500", "214250.587500", "214251.047500", "214251.507500", "214251.967500", "214252.427500", "214252.887500", "214253.347500", "214253.807500", "214254.267500", "214254.727500", "214255.187500", "214255.647500", "214256.107500", "214256.567500", "214257.027500", "214257.487500", "214257.947500", "214258.407500", "214258.867500", "214259.327500", "214259.787500", "214300.247500", "214300.707500", "214301.167500", "214301.627500", "214302.087500", "214302.547500", "214303.007500", "214303.467500", "214303.927500", "214304.387500", "214304.847500", "214305.307500", "214305.767500", "214306.227500", "214306.687500", "214307.147500", "214307.607500", "214308.067500", "214308.527500", "214308.987500", "214309.447500", "214309.907500", "214310.367500", "214310.827500", "214311.287500", "214311.747500", "214312.207500", "214312.667500", "214313.127500", "214313.587500", "214314.047500", "214314.507500", "214314.967500", "214315.427500", "214315.887500", "214316.347500"],
