{
  "AcquisitionMatrixPE": 82,
  "AcquisitionNumber": 1,
  "AcquisitionTime": "20:34:44.912500",
  "BandwidthPerPixelPhaseEncode": 24.888,
  "BaseResolution": 82,
  "BodyPartExamined": "BRAIN",
  "ConsistencyInfo": "N4_VE11E_LATEST_20181129",
  "ConversionSoftware": "dcm2niix",
  "ConversionSoftwareVersion": "v1.0.20201102",
  "DerivedVendorReportedEchoSpacing": 0.00049,
  "DeviceSerialNumber": "66112",
  "DwellTime": 2e-06,
  "EchoTime": 0.0272,
  "EchoTrainLength": 82,
  "EffectiveEchoSpacing": 0.00049,
  "FlipAngle": 44,
  "ImageComments": "Unaliased MB8/PE3",
  "ImageOrientationPatientDICOM": [0.999763, 0.000754599, -0.0217516, 0.00244287, 0.989193, 0.146598],
  "ImageType": [
    "ORIGINAL",
    "PRIMARY",
    "M",
    "MB",
    "ND",
    "NORM",
    "MOSAIC"
],
  "ImagingFrequency": 123.259,
  "InPlanePhaseEncodingDirectionDICOM": "COL",
  "InstitutionAddress": "Maynard 3,Hanover,NH,US,03755",
  "InstitutionName": "Dartmouth College - PBS",
  "InstitutionalDepartmentName": "Department",
  "MRAcquisitionType": "2D",
  "MagneticFieldStrength": 3,
  "Manufacturer": "Siemens",
  "ManufacturersModelName": "Prisma",
  "Modality": "MR",
  "MultibandAccelerationFactor": 8,
  "PartialFourier": 1,
  "PatientPosition": "HFS",
  "PercentPhaseFOV": 100,
  "PercentSampling": 100,
  "PhaseEncodingDirection": "j-",
  "PhaseEncodingSteps": 82,
  "PhaseResolution": 1,
  "PixelBandwidth": 3050,
  "ProcedureStepDescription": "Wager_Wager^1076_spacetop",
  "ProtocolName": "func_run-04_task-alignvideo_acq-ap-mb8",
  "PulseSequenceDetails": "%CustomerSeq%\\cmrr_mbep2d_bold",
  "ReceiveCoilActiveElements": "HEA;HEP",
  "ReceiveCoilName": "Head_32",
  "ReconMatrixPE": 82,
  "RepetitionTime": 0.46,
  "SAR": 0.0747887,
  "ScanOptions": "FS",
  "ScanningSequence": "EP",
  "SequenceName": "epfid2d1_82",
  "SequenceVariant": "SK\\SS",
  "SeriesDescription": "func_run-04_task-alignvideo_acq-ap-mb8",
  "SeriesNumber": 34,
  "ShimSetting": [4215, -7775, -7219, 217, -77, -34, -76, 142],
  "SliceThickness": 2.7,
  "SliceTiming": [0, 0.25, 0.0625, 0.315, 0.125, 0.3775, 0.1875, 0, 0.25, 0.0625, 0.315, 0.125, 0.3775, 0.1875, 0, 0.25, 0.0625, 0.315, 0.125, 0.3775, 0.1875, 0, 0.25, 0.0625, 0.315, 0.125, 0.3775, 0.1875, 0, 0.25, 0.0625, 0.315, 0.125, 0.3775, 0.1875, 0, 0.25, 0.0625, 0.315, 0.125, 0.3775, 0.1875, 0, 0.25, 0.0625, 0.315, 0.125, 0.3775, 0.1875, 0, 0.25, 0.0625, 0.315, 0.125, 0.3775, 0.1875],
  "SoftwareVersions": "syngo MR E11",
  "SpacingBetweenSlices": 2.7,
  "StationName": "AWP66112",
  "TaskName": "alignvideo",
  "TotalReadoutTime": 0.03969,
  "TxRefAmp": 227.506,
  "WipMemBlock": "504dbc26-09bd-403e-98a2-ad1396fd784c||Sequence: R016 ve11e/master r/434b28f1; Aug  7 2019 18:53:46 by eja",
  "dcmmeta_affine": [
    [-2.682291269302368, 0.006554048974066973, -0.05839334800839424, 114.35076141357422],
    [-0.00202453276142478, 2.653933048248291, 0.39586371183395386, -98.73192596435547],
    [-0.058357980102300644, -0.39331114292144775, 2.6701838970184326, -50.09911346435547],
    [0.0, 0.0, 0.0, 1.0]
],
  "dcmmeta_reorient_transform": [
    [0.0, -1.0, 0.0, 81.0],
    [1.0, 0.0, 0.0, 0.0],
    [0.0, 0.0, 1.0, 0.0],
    [0.0, 0.0, 0.0, 1.0]
],
  "dcmmeta_shape": [82, 82, 56, 914],
  "dcmmeta_slice_dim": 2,
  "dcmmeta_version": 0.6,
  "global": {
    "const": {
      "AccessionNumber": "A004928",
      "AcquisitionMatrix": [82, 0, 0, 82],
      "AngioFlag": "N",
      "BitsAllocated": 16,
      "BitsStored": 16,
      "BodyPartExamined": "BRAIN",
      "Columns": 656,
      "EchoNumbers": 1,
      "EchoTime": 27.2,
      "EchoTrainLength": 82,
      "FlipAngle": 44.0,
      "HighBit": 15,
      "ImageOrientationPatient": [0.9997631209686, 0.0007545985478, -0.021751609875, 0.00244287275154, 0.9891931671808, 0.14659778434731],
      "ImagePositionPatient": [-886.58027064428, -878.49644037999, -178.08887168968],
      "ImageType": [
        "ORIGINAL",
        "PRIMARY",
        "M",
        "MB",
        "ND",
        "NORM",
        "MOSAIC"
],
      "ImagedNucleus": "1H",
      "ImagingFrequency": 123.259068,
      "InPlanePhaseEncodingDirection": "COL",
      "MRAcquisitionType": "2D",
      "MagneticFieldStrength": 3.0,
      "Manufacturer": "SIEMENS",
      "ManufacturerModelName": "Prisma",
      "Modality": "MR",
      "NumberOfAverages": 1.0,
      "NumberOfPhaseEncodingSteps": 82,
      "PercentPhaseFieldOfView": 100.0,
      "PercentSampling": 100.0,
      "PerformedProcedureStepStartTime": "184843.779000",
      "PhotometricInterpretation": "MONOCHROME2",
      "PixelBandwidth": 3050.0,
      "PixelRepresentation": 0,
      "PixelSpacing": [2.6829268932343, 2.6829268932343],
      "ProtocolName": "func_run-04_task-alignvideo_acq-ap-mb8",
      "RepetitionTime": 460.0,
      "Rows": 656,
      "SAR": 0.07478865939465,
      "SamplesPerPixel": 1,
      "ScanOptions": "FS",
      "ScanningSequence": "EP",
      "SequenceName": "epfid2d1_82",
      "SequenceVariant": [
        "SK",
        "SS"
],
      "SeriesDescription": "func_run-04_task-alignvideo_acq-ap-mb8",
      "SeriesNumber": 34,
      "SeriesTime": "203514.962000",
      "SliceLocation": -66.494650845212,
      "SliceThickness": 2.7000000476837,
      "SmallestImagePixelValue": 0,
      "SoftwareVersions": "syngo MR E11",
      "SpacingBetweenSlices": 2.6999999930379,
      "SpecificCharacterSet": "ISO_IR 100",
      "StudyID": "2",
      "StudyTime": "184843.733000",
      "TransmitCoilName": "Body",
      "VariableFlipAngleFlag": "N",
      "WindowCenterWidthExplanation": "Algo1"
    },
    "slices": {}
  },
  "time": {
    "samples": {
      "AcquisitionNumber": [1, 2, 3, 4, 5, 6, 7, 8, 9, 10, 11, 12, 13, 14, 15, 16, 17, 18, 19, 20, 21, 22, 23, 24, 25, 26, 27, 28, 29, 30, 31, 32, 33, 34, 35, 36, 37, 38, 39, 40, 41, 42, 43, 44, 45, 46, 47, 48, 49, 50, 51, 52, 53, 54, 55, 56, 57, 58, 59, 60, 61, 62, 63, 64, 65, 66, 67, 68, 69, 70, 71, 72, 73, 74, 75, 76, 77, 78, 79, 80, 81, 82, 83, 84, 85, 86, 87, 88, 89, 90, 91, 92, 93, 94, 95, 96, 97, 98, 99, 100, 101, 102, 103, 104, 105, 106, 107, 108, 109, 110, 111, 112, 113, 114, 115, 116, 117, 118, 119, 120, 121, 122, 123, 124, 125, 126, 127, 128, 129, 130, 131, 132, 133, 134, 135, 136, 137, 138, 139, 140, 141, 142, 143, 144, 145, 146, 147, 148, 149, 150, 151, 152, 153, 154, 155, 156, 157, 158, 159, 160, 161, 162, 163, 164, 165, 166, 167, 168, 169, 170, 171, 172, 173, 174, 175, 176, 177, 178, 179, 180, 181, 182, 183, 184, 185, 186, 187, 188, 189, 190, 191, 192, 193, 194, 195, 196, 197, 198, 199, 200, 201, 202, 203, 204, 205, 206, 207, 208, 209, 210, 211, 212, 213, 214, 215, 216, 217, 218, 219, 220, 221, 222, 223, 224, 225, 226, 227, 228, 229, 230, 231, 232, 233, 234, 235, 236, 237, 238, 239, 240, 241, 242, 243, 244, 245, 246, 247, 248, 249, 250, 251, 252, 253, 254, 255, 256, 257, 258, 259, 260, 261, 262, 263, 264, 265, 266, 267, 268, 269, 270, 271, 272, 273, 274, 275, 276, 277, 278, 279, 280, 281, 282, 283, 284, 285, 286, 287, 288, 289, 290, 291, 292, 293, 294, 295, 296, 297, 298, 299, 300, 301, 302, 303, 304, 305, 306, 307, 308, 309, 310, 311, 312, 313, 314, 315, 316, 317, 318, 319, 320, 321, 322, 323, 324, 325, 326, 327, 328, 329, 330, 331, 332, 333, 334, 335, 336, 337, 338, 339, 340, 341, 342, 343, 344, 345, 346, 347, 348, 349, 350, 351, 352, 353, 354, 355, 356, 357, 358, 359, 360, 361, 362, 363, 364, 365, 366, 367, 368, 369, 370, 371, 372, 373, 374, 375, 376, 377, 378, 379, 380, 381, 382, 383, 384, 385, 386, 387, 388, 389, 390, 391, 392, 393, 394, 395, 396, 397, 398, 399, 400, 401, 402, 403, 404, 405, 406, 407, 408, 409, 410, 411, 412, 413, 414, 415, 416, 417, 418, 419, 420, 421, 422, 423, 424, 425, 426, 427, 428, 429, 430, 431, 432, 433, 434, 435, 436, 437, 438, 439, 440, 441, 442, 443, 444, 445, 446, 447, 448, 449, 450, 451, 452, 453, 454, 455, 456, 457, 458, 459, 460, 461, 462, 463, 464, 465, 466, 467, 468, 469, 470, 471, 472, 473, 474, 475, 476, 477, 478, 479, 480, 481, 482, 483, 484, 485, 486, 487, 488, 489, 490, 491, 492, 493, 494, 495, 496, 497, 498, 499, 500, 501, 502, 503, 504, 505, 506, 507, 508, 509, 510, 511, 512, 513, 514, 515, 516, 517, 518, 519, 520, 521, 522, 523, 524, 525, 526, 527, 528, 529, 530, 531, 532, 533, 534, 535, 536, 537, 538, 539, 540, 541, 542, 543, 544, 545, 546, 547, 548, 549, 550, 551, 552, 553, 554, 555, 556, 557, 558, 559, 560, 561, 562, 563, 564, 565, 566, 567, 568, 569, 570, 571, 572, 573, 574, 575, 576, 577, 578, 579, 580, 581, 582, 583, 584, 585, 586, 587, 588, 589, 590, 591, 592, 593, 594, 595, 596, 597, 598, 599, 600, 601, 602, 603, 604, 605, 606, 607, 608, 609, 610, 611, 612, 613, 614, 615, 616, 617, 618, 619, 620, 621, 622, 623, 624, 625, 626, 627, 628, 629, 630, 631, 632, 633, 634, 635, 636, 637, 638, 639, 640, 641, 642, 643, 644, 645, 646, 647, 648, 649, 650, 651, 652, 653, 654, 655, 656, 657, 658, 659, 660, 661, 662, 663, 664, 665, 666, 667, 668, 669, 670, 671, 672, 673, 674, 675, 676, 677, 678, 679, 680, 681, 682, 683, 684, 685, 686, 687, 688, 689, 690, 691, 692, 693, 694, 695, 696, 697, 698, 699, 700, 701, 702, 703, 704, 705, 706, 707, 708, 709, 710, 711, 712, 713, 714, 715, 716, 717, 718, 719, 720, 721, 722, 723, 724, 725, 726, 727, 728, 729, 730, 731, 732, 733, 734, 735, 736, 737, 738, 739, 740, 741, 742, 743, 744, 745, 746, 747, 748, 749, 750, 751, 752, 753, 754, 755, 756, 757, 758, 759, 760, 761, 762, 763, 764, 765, 766, 767, 768, 769, 770, 771, 772, 773, 774, 775, 776, 777, 778, 779, 780, 781, 782, 783, 784, 785, 786, 787, 788, 789, 790, 791, 792, 793, 794, 795, 796, 797, 798, 799, 800, 801, 802, 803, 804, 805, 806, 807, 808, 809, 810, 811, 812, 813, 814, 815, 816, 817, 818, 819, 820, 821, 822, 823, 824, 825, 826, 827, 828, 829, 830, 831, 832, 833, 834, 835, 836, 837, 838, 839, 840, 841, 842, 843, 844, 845, 846, 847, 848, 849, 850, 851, 852, 853, 854, 855, 856, 857, 858, 859, 860, 861, 862, 863, 864, 865, 866, 867, 868, 869, 870, 871, 872, 873, 874, 875, 876, 877, 878, 879, 880, 881, 882, 883, 884, 885, 886, 887, 888, 889, 890, 891, 892, 893, 894, 895, 896, 897, 898, 899, 900, 901, 902, 903, 904, 905, 906, 907, 908, 909, 910, 911, 912, 913, 914],
      "AcquisitionTime": ["203444.912500", "203445.372500", "203445.832500", "203446.292500", "203446.752500", "203447.212500", "203447.672500", "203448.132500", "203448.592500", "203449.052500", "203449.512500", "203449.972500", "203450.432500", "203450.892500", "203451.352500", "203451.812500", "203452.272500", "203452.732500", "203453.192500", "203453.652500", "203454.112500", "203454.572500", "203455.032500", "203455.492500", "203455.952500", "203456.412500", "203456.872500", "203457.332500", "203457.792500", "203458.252500", "203458.712500", "203459.172500", "203459.632500", "203500.092500", "203500.552500", "203501.012500", "203501.472500", "203501.932500", "203502.392500", "203502.852500", "203503.312500", "203503.772500", "203504.232500", "203504.692500", "203505.152500", "203505.612500", "203506.072500", "203506.532500", "203506.992500", "203507.452500", "203507.912500", "203508.372500", "203508.832500", "203509.292500", "203509.752500", "203510.212500", "203510.672500", "203511.132500", "203511.592500", "203512.052500", "203512.512500", "203512.972500", "203513.432500", "203513.892500", "203514.352500", "203514.812500", "203515.272500", "203515.732500", "203516.192500", "203516.652500", "203517.112500", "203517.572500", "203518.032500", "203518.492500", "203518.952500", "203519.412500", "203519.872500", "203520.332500", "203520.792500", "203521.252500", "203521.712500", "203522.172500", "203522.632500", "203523.092500", "203523.552500", "203524.012500", "203524.472500", "203524.932500", "203525.392500", "203525.852500", "203526.312500", "203526.772500", "203527.232500", "203527.692500", "203528.152500", "203528.612500", "203529.072500", "203529.532500", "203529.992500", "203530.452500", "203530.912500", "203531.372500", "203531.832500", "203532.292500", "203532.752500", "203533.212500", "203533.672500", "203534.132500", "203534.592500", "203535.052500", "203535.512500", "203535.972500", "203536.432500", "203536.892500", "203537.352500", "203537.812500", "203538.272500", "203538.732500", "203539.192500", "203539.652500", "203540.112500", "203540.572500", "203541.032500", "203541.492500", "203541.952500", "203542.412500", "203542.872500", "203543.332500", "203543.792500", "203544.252500", "203544.712500", "203545.172500", "203545.632500", "203546.092500", "203546.552500", "203547.012500", "203547.472500", "203547.932500", "203548.392500", "203548.852500", "203549.312500", "203549.772500", "203550.232500", "203550.692500", "203551.152500", "203551.612500", "203552.072500", "203552.532500", "203552.992500", "203553.452500", "203553.912500", "203554.372500", "203554.832500", "203555.292500", "203555.752500", "203556.212500", "203556.672500", "203557.132500", "203557.592500", "203558.052500", "203558.512500", "203558.972500", "203559.432500", "203559.892500", "203600.352500", "203600.812500", "203601.272500", "203601.732500", "203602.192500", "203602.652500", "203603.112500", "203603.572500", "203604.032500", "203604.492500", "203604.952500", "203605.412500", "203605.872500", "203606.332500", "203606.792500", "203607.252500", "203607.712500", "203608.172500", "203608.632500", "203609.092500", "203609.552500", "203610.012500", "203610.472500", "203610.932500", "203611.392500", "203611.852500", "203612.312500", "203612.772500", "203613.232500", "203613.692500", "203614.152500", "203614.612500", "203615.072500", "203615.532500", "203615.992500", "203616.452500", "203616.912500", "203617.372500", "203617.832500", "203618.292500", "203618.752500", "203619.212500", "203619.672500", "203620.132500", "203620.592500", "203621.052500", "203621.512500", "203621.972500", "203622.432500", "203622.892500", "203623.352500", "203623.812500", "203624.272500", "203624.732500", "203625.192500", "203625.652500", "203626.112500", "203626.572500", "203627.032500", "203627.492500", "203627.952500", "203628.412500", "203628.872500", "203629.332500", "203629.792500", "203630.252500", "203630.712500", "203631.172500", "203631.632500", "203632.092500", "203632.552500", "203633.012500", "203633.472500", "203633.932500", "203634.392500", "203634.852500", "203635.312500", "203635.772500", "203636.232500", "203636.692500", "203637.152500", "203637.612500", "203638.072500", "203638.532500", "203638.992500", "203639.452500", "203639.912500", "203640.372500", "203640.832500", "203641.292500", "203641.752500", "203642.212500", "203642.672500", "203643.132500", "203643.592500", "203644.052500", "203644.512500", "203644.972500", "203645.432500", "203645.892500", "203646.352500", "203646.812500", "203647.272500", "203647.732500", "203648.192500", "203648.652500", "203649.112500", "203649.572500", "203650.032500", "203650.492500", "203650.952500", "203651.412500", "203651.872500", "203652.332500", "203652.792500", "203653.252500", "203653.712500", "203654.172500", "203654.632500", "203655.092500", "203655.552500", "203656.012500", "203656.472500", "203656.932500", "203657.392500", "203657.852500", "203658.312500", "203658.772500", "203659.232500", "203659.692500", "203700.152500", "203700.612500", "203701.072500", "203701.532500", "203701.992500", "203702.452500", "203702.912500", "203703.372500", "203703.832500", "203704.292500", "203704.752500", "203705.212500", "203705.672500", "203706.132500", "203706.592500", "203707.052500", "203707.512500", "203707.972500", "203708.432500", "203708.892500", "203709.352500", "203709.812500", "203710.272500", "203710.732500", "203711.192500", "203711.652500", "203712.112500", "203712.572500", "203713.032500", "203713.492500", "203713.952500", "203714.412500", "203714.872500", "203715.332500", "203715.792500", "203716.252500", "203716.712500", "203717.172500", "203717.632500", "203718.092500", "203718.552500", "203719.012500", "203719.472500", "203719.932500", "203720.392500", "203720.852500", "203721.312500", "203721.772500", "203722.232500", "203722.692500", "203723.152500", "203723.612500", "203724.072500", "203724.532500", "203724.992500", "203725.452500", "203725.912500", "203726.372500", "203726.832500", "203727.292500", "203727.752500", "203728.212500", "203728.672500", "203729.132500", "203729.592500", "203730.052500", "203730.512500", "203730.972500", "203731.432500", "203731.892500", "203732.352500", "203732.812500", "203733.272500", "203733.732500", "203734.192500", "203734.652500", "203735.112500", "203735.572500", "203736.032500", "203736.492500", "203736.952500", "203737.412500", "203737.872500", "203738.332500", "203738.792500", "203739.252500", "203739.712500", "203740.172500", "203740.632500", "203741.092500", "203741.552500", "203742.012500", "203742.472500", "203742.932500", "203743.392500", "203743.852500", "203744.312500", "203744.772500", "203745.232500", "203745.692500", "203746.152500", "203746.612500", "203747.072500", "203747.532500", "203747.992500", "203748.452500", "203748.912500", "203749.372500", "203749.832500", "203750.292500", "203750.752500", "203751.212500", "203751.672500", "203752.132500", "203752.592500", "203753.052500", "203753.512500", "203753.972500", "203754.432500", "203754.892500", "203755.352500", "203755.812500", "203756.272500", "203756.732500", "203757.192500", "203757.652500", "203758.112500", "203758.572500", "203759.032500", "203759.492500", "203759.952500", "203800.412500", "203800.872500", "203801.332500", "203801.792500", "203802.252500", "203802.712500", "203803.172500", "203803.632500", "203804.092500", "203804.552500", "203805.012500", "203805.472500", "203805.932500", "203806.392500", "203806.852500", "203807.312500", "203807.772500", "203808.232500", "203808.692500", "203809.152500", "203809.612500", "203810.072500", "203810.532500", "203810.992500", "203811.452500", "203811.912500", "203812.372500", "203812.832500", "203813.292500", "203813.752500", "203814.212500", "203814.672500", "203815.132500", "203815.592500", "203816.052500", "203816.512500", "203816.972500", "203817.432500", "203817.892500", "203818.352500", "203818.812500", "203819.272500", "203819.732500", "203820.192500", "203820.652500", "203821.112500", "203821.572500", "203822.032500", "203822.492500", "203822.952500", "203823.412500", "203823.872500", "203824.332500", "203824.792500", "203825.252500", "203825.712500", "203826.172500", "203826.632500", "203827.092500", "203827.552500", "203828.012500", "203828.472500", "203828.932500", "203829.392500", "203829.852500", "203830.312500", "203830.772500", "203831.232500", "203831.692500", "203832.152500", "203832.612500", "203833.072500", "203833.532500", "203833.992500", "203834.452500", "203834.912500", "203835.372500", "203835.832500", "203836.292500", "203836.752500", "203837.212500", "203837.672500", "203838.132500", "203838.592500", "203839.052500", "203839.512500", "203839.972500", "203840.432500", "203840.892500", "203841.352500", "203841.812500", "203842.272500", "203842.732500", "203843.192500", "203843.652500", "203844.112500", "203844.572500", "203845.032500", "203845.492500", "203845.952500", "203846.412500", "203846.872500", "203847.332500", "203847.792500", "203848.252500", "203848.712500", "203849.172500", "203849.632500", "203850.092500", "203850.552500", "203851.012500", "203851.472500", "203851.932500", "203852.392500", "203852.852500", "203853.312500", "203853.772500", "203854.232500", "203854.692500", "203855.152500", "203855.612500", "203856.072500", "203856.532500", "203856.992500", "203857.452500", "203857.912500", "203858.372500", "203858.832500", "203859.292500", "203859.752500", "203900.212500", "203900.672500", "203901.132500", "203901.592500", "203902.052500", "203902.512500", "203902.972500", "203903.432500", "203903.892500", "203904.352500", "203904.812500", "203905.272500", "203905.732500", "203906.192500", "203906.652500", "203907.112500", "203907.572500", "203908.032500", "203908.492500", "203908.952500", "203909.412500", "203909.872500", "203910.332500", "203910.792500", "203911.252500", "203911.712500", "203912.172500", "203912.632500", "203913.092500", "203913.552500", "203914.012500", "203914.472500", "203914.932500", "203915.392500", "203915.852500", "203916.312500", "203916.772500", "203917.232500", "203917.692500", "203918.152500", "203918.612500", "203919.072500", "203919.532500", "203919.992500", "203920.452500", "203920.912500", "203921.372500", "203921.832500", "203922.292500", "203922.752500", "203923.212500", "203923.672500", "203924.132500", "203924.592500", "203925.052500", "203925.512500", "203925.972500", "203926.432500", "203926.892500", "203927.352500", "203927.812500", "203928.272500", "203928.732500", "203929.192500", "203929.652500", "203930.112500", "203930.572500", "203931.032500", "203931.492500", "203931.952500", "203932.412500", "203932.872500", "203933.332500", "203933.792500", "203934.252500", "203934.712500", "203935.172500", "203935.632500", "203936.092500", "203936.552500", "203937.012500", "203937.472500", "203937.932500", "203938.392500", "203938.852500", "203939.312500", "203939.772500", "203940.232500", "203940.692500", "203941.152500", "203941.612500", "203942.072500", "203942.532500", "203942.992500", "203943.452500", "203943.912500", "203944.372500", "203944.832500", "203945.292500", "203945.752500", "203946.212500", "203946.672500", "203947.132500", "203947.592500", "203948.052500", "203948.512500", "203948.972500", "203949.432500", "203949.892500", "203950.352500", "203950.812500", "203951.272500", "203951.732500", "203952.192500", "203952.652500", "203953.112500", "203953.572500", "203954.032500", "203954.492500", "203954.952500", "203955.412500", "203955.872500", "203956.332500", "203956.792500", "203957.252500", "203957.712500", "203958.172500", "203958.632500", "203959.092500", "203959.552500", "204000.012500", "204000.472500", "204000.932500", "204001.392500", "204001.852500", "204002.312500", "204002.772500", "204003.232500", "204003.692500", "204004.152500", "204004.612500", "204005.072500", "204005.532500", "204005.992500", "204006.452500", "204006.912500", "204007.372500", "204007.832500", "204008.292500", "204008.752500", "204009.212500", "204009.672500", "204010.132500", "204010.592500", "204011.052500", "204011.512500", "204011.972500", "204012.432500", "204012.892500", "204013.352500", "204013.812500", "204014.272500", "204014.732500", "204015.192500", "204015.652500", "204016.112500", "204016.572500", "204017.032500", "204017.492500", "204017.952500", "204018.412500", "204018.872500", "204019.332500", "204019.792500", "204020.252500", "204020.712500", "204021.172500", "204021.632500", "204022.092500", "204022.552500", "204023.012500", "204023.472500", "204023.932500", "204024.392500", "204024.852500", "204025.312500", "204025.772500", "204026.232500", "204026.692500", "204027.152500", "204027.612500", "204028.072500", "204028.532500", "204028.992500", "204029.452500", "204029.912500", "204030.372500", "204030.832500", "204031.292500", "204031.752500", "204032.212500", "204032.672500", "204033.132500", "204033.592500", "204034.052500", "204034.512500", "204034.972500", "204035.432500", "204035.892500", "204036.352500", "204036.812500", "204037.272500", "204037.732500", "204038.192500", "204038.652500", "204039.112500", "204039.572500", "204040.032500", "204040.492500", "204040.952500", "204041.412500", "204041.872500", "204042.332500", "204042.792500", "204043.252500", "204043.712500", "204044.172500", "204044.632500", "204045.092500", "204045.552500", "204046.012500", "204046.472500", "204046.932500", "204047.392500", "204047.852500", "204048.312500", "204048.772500", "204049.232500", "204049.692500", "204050.152500", "204050.612500", "204051.072500", "204051.532500", "204051.992500", "204052.452500", "204052.912500", "204053.372500", "204053.832500", "204054.292500", "204054.752500", "204055.212500", "204055.672500", "204056.132500", "204056.592500", "204057.052500", "204057.512500", "204057.972500", "204058.432500", "204058.892500", "204059.352500", "204059.812500", "204100.272500", "204100.732500", "204101.192500", "204101.652500", "204102.112500", "204102.572500", "204103.032500", "204103.492500", "204103.952500", "204104.412500", "204104.872500", "204105.332500", "204105.792500", "204106.252500", "204106.712500", "204107.172500", "204107.632500", "204108.092500", "204108.552500", "204109.012500", "204109.472500", "204109.932500", "204110.392500", "204110.852500", "204111.312500", "204111.772500", "204112.232500", "204112.692500", "204113.152500", "204113.612500", "204114.072500", "204114.532500", "204114.992500", "204115.452500", "204115.912500", "204116.372500", "204116.832500", "204117.292500", "204117.752500", "204118.212500", "204118.672500", "204119.132500", "204119.592500", "204120.052500", "204120.512500", "204120.972500", "204121.432500", "204121.892500", "204122.352500", "204122.812500", "204123.272500", "204123.732500", "204124.192500", "204124.652500", "204125.112500", "204125.572500", "204126.032500", "204126.492500", "204126.952500", "204127.412500", "204127.872500", "204128.332500", "204128.792500", "204129.252500", "204129.712500", "204130.172500", "204130.632500", "204131.092500", "204131.552500", "204132.012500", "204132.472500", "204132.932500", "204133.392500", "204133.852500", "204134.312500", "204134.772500", "204135.232500", "204135.692500", "204136.152500", "204136.612500", "204137.072500", "204137.532500", "204137.992500", "204138.452500", "204138.912500", "204139.372500", "204139.832500", "204140.292500", "204140.752500", "204141.212500", "204141.672500", "204142.132500", "204142.592500", "204143.052500", "204143.512500", "204143.972500", "204144.432500", "204144.892500"],
