{
  "AcquisitionMatrixPE": 82,
  "AcquisitionNumber": 1,
  "AcquisitionTime": "19:08:11.135000",
  "BandwidthPerPixelPhaseEncode": 24.888,
  "BaseResolution": 82,
  "BodyPartExamined": "BRAIN",
  "ConsistencyInfo": "N4_VE11E_LATEST_20181129",
  "ConversionSoftware": "dcm2niix",
  "ConversionSoftwareVersion": "v1.0.20201102",
  "DerivedVendorReportedEchoSpacing": 0.00049,
  "DeviceSerialNumber": "66112",
  "DwellTime": 2e-06,
  "EchoTime": 0.0272,
  "EchoTrainLength": 82,
  "EffectiveEchoSpacing": 0.00049,
  "FlipAngle": 44,
  "ImageComments": "Unaliased MB8/PE3",
  "ImageOrientationPatientDICOM": [0.999858, 0.0110846, -0.0126984, -0.0101218, 0.997242, 0.0735244],
  "ImageType": [
    "ORIGINAL",
    "PRIMARY",
    "M",
    "MB",
    "ND",
    "NORM",
    "MOSAIC"
],
  "ImagingFrequency": 123.259,
  "InPlanePhaseEncodingDirectionDICOM": "COL",
  "InstitutionAddress": "Maynard 3,Hanover,NH,US,03755",
  "InstitutionName": "Dartmouth College - PBS",
  "InstitutionalDepartmentName": "Department",
  "MRAcquisitionType": "2D",
  "MagneticFieldStrength": 3,
  "Manufacturer": "Siemens",
  "ManufacturersModelName": "Prisma",
  "Modality": "MR",
  "MultibandAccelerationFactor": 8,
  "PartialFourier": 1,
  "PatientPosition": "HFS",
  "PercentPhaseFOV": 100,
  "PercentSampling": 100,
  "PhaseEncodingDirection": "j-",
  "PhaseEncodingSteps": 82,
  "PhaseResolution": 1,
  "PixelBandwidth": 3050,
  "ProcedureStepDescription": "Wager_Wager^1076_spacetop",
  "ProtocolName": "func_run-02_task-narratives_acq-ap-mb8",
  "PulseSequenceDetails": "%CustomerSeq%\\cmrr_mbep2d_bold",
  "ReceiveCoilActiveElements": "HEA;HEP",
  "ReceiveCoilName": "Head_32",
  "ReconMatrixPE": 82,
  "RepetitionTime": 0.46,
  "SAR": 0.0748632,
  "ScanOptions": "FS",
  "ScanningSequence": "EP",
  "SequenceName": "epfid2d1_82",
  "SequenceVariant": "SK\\SS",
  "SeriesDescription": "func_run-02_task-narratives_acq-ap-mb8",
  "SeriesNumber": 10,
  "ShimSetting": [4215, -7779, -7216, 223, -78, -51, -82, 144],
  "SliceThickness": 2.7,
  "SliceTiming": [0, 0.2525, 0.0625, 0.315, 0.125, 0.3775, 0.19, 0, 0.2525, 0.0625, 0.315, 0.125, 0.3775, 0.19, 0, 0.2525, 0.0625, 0.315, 0.125, 0.3775, 0.19, 0, 0.2525, 0.0625, 0.315, 0.125, 0.3775, 0.19, 0, 0.2525, 0.0625, 0.315, 0.125, 0.3775, 0.19, 0, 0.2525, 0.0625, 0.315, 0.125, 0.3775, 0.19, 0, 0.2525, 0.0625, 0.315, 0.125, 0.3775, 0.19, 0, 0.2525, 0.0625, 0.315, 0.125, 0.3775, 0.19],
  "SoftwareVersions": "syngo MR E11",
  "SpacingBetweenSlices": 2.7,
  "StationName": "AWP66112",
  "TaskName": "narratives",
  "TotalReadoutTime": 0.03969,
  "TxRefAmp": 227.506,
  "WipMemBlock": "d135ce7d-2a0c-4d08-acc2-611529794625||Sequence: R016 ve11e/master r/434b28f1; Aug  7 2019 18:53:46 by eja",
  "dcmmeta_affine": [
    [-2.6825456619262695, -0.027156023308634758, -0.03639146313071251, 115.0146713256836],
    [-0.02973906882107258, 2.675527572631836, 0.19814063608646393, -93.51024627685547],
    [-0.0340687595307827, -0.19726057350635529, 2.692473888397217, -61.141666412353516],
    [0.0, 0.0, 0.0, 1.0]
],
  "dcmmeta_reorient_transform": [
    [0.0, -1.0, 0.0, 81.0],
    [1.0, 0.0, 0.0, 0.0],
    [0.0, 0.0, 1.0, 0.0],
    [0.0, 0.0, 0.0, 1.0]
],
  "dcmmeta_shape": [82, 82, 56, 1098],
  "dcmmeta_slice_dim": 2,
  "dcmmeta_version": 0.6,
  "global": {
    "const": {
      "AccessionNumber": "A004928",
      "AcquisitionMatrix": [82, 0, 0, 82],
      "AngioFlag": "N",
      "BitsAllocated": 16,
      "BitsStored": 16,
      "BodyPartExamined": "BRAIN",
      "Columns": 656,
      "EchoNumbers": 1,
      "EchoTime": 27.2,
      "EchoTrainLength": 82,
      "FlipAngle": 44.0,
      "HighBit": 15,
      "ImageOrientationPatient": [0.99985793203836, 0.01108456181328, -0.0126983553807, -0.0101217902626, 0.9972420531918, 0.0735243953235],
      "ImagePositionPatient": [-874.9118803702, -899.6189929963, -123.95582572764],
      "ImageType": [
        "ORIGINAL",
        "PRIMARY",
        "M",
        "MB",
        "ND",
        "NORM",
        "MOSAIC"
],
      "ImagedNucleus": "1H",
      "ImagingFrequency": 123.25904,
      "InPlanePhaseEncodingDirection": "COL",
      "MRAcquisitionType": "2D",
      "MagneticFieldStrength": 3.0,
      "Manufacturer": "SIEMENS",
      "ManufacturerModelName": "Prisma",
      "Modality": "MR",
      "NumberOfAverages": 1.0,
      "NumberOfPhaseEncodingSteps": 82,
      "PercentPhaseFieldOfView": 100.0,
      "PercentSampling": 100.0,
      "PerformedProcedureStepStartTime": "184843.779000",
      "PhotometricInterpretation": "MONOCHROME2",
      "PixelBandwidth": 3050.0,
      "PixelRepresentation": 0,
      "PixelSpacing": [2.6829268932343, 2.6829268932343],
      "ProtocolName": "func_run-02_task-narratives_acq-ap-mb8",
      "RepetitionTime": 460.0,
      "Rows": 656,
      "SAR": 0.07486315708287,
      "SamplesPerPixel": 1,
      "ScanOptions": "FS",
      "ScanningSequence": "EP",
      "SequenceName": "epfid2d1_82",
      "SequenceVariant": [
        "SK",
        "SS"
],
      "SeriesDescription": "func_run-02_task-narratives_acq-ap-mb8",
      "SeriesNumber": 10,
      "SeriesTime": "190834.945000",
      "SliceLocation": -69.383732463113,
      "SliceThickness": 2.7000000476837,
      "SmallestImagePixelValue": 0,
      "SoftwareVersions": "syngo MR E11",
      "SpacingBetweenSlices": 2.7000000026897,
      "SpecificCharacterSet": "ISO_IR 100",
      "StudyID": "2",
      "StudyTime": "184843.733000",
      "TransmitCoilName": "Body",
      "VariableFlipAngleFlag": "N",
      "WindowCenterWidthExplanation": "Algo1"
    },
    "slices": {}
  },
  "time": {
    "samples": {
      "AcquisitionNumber": [1, 2, 3, 4, 5, 6, 7, 8, 9, 10, 11, 12, 13, 14, 15, 16, 17, 18, 19, 20, 21, 22, 23, 24, 25, 26, 27, 28, 29, 30, 31, 32, 33, 34, 35, 36, 37, 38, 39, 40, 41, 42, 43, 44, 45, 46, 47, 48, 49, 50, 51, 52, 53, 54, 55, 56, 57, 58, 59, 60, 61, 62, 63, 64, 65, 66, 67, 68, 69, 70, 71, 72, 73, 74, 75, 76, 77, 78, 79, 80, 81, 82, 83, 84, 85, 86, 87, 88, 89, 90, 91, 92, 93, 94, 95, 96, 97, 98, 99, 100, 101, 102, 103, 104, 105, 106, 107, 108, 109, 110, 111, 112, 113, 114, 115, 116, 117, 118, 119, 120, 121, 122, 123, 124, 125, 126, 127, 128, 129, 130, 131, 132, 133, 134, 135, 136, 137, 138, 139, 140, 141, 142, 143, 144, 145, 146, 147, 148, 149, 150, 151, 152, 153, 154, 155, 156, 157, 158, 159, 160, 161, 162, 163, 164, 165, 166, 167, 168, 169, 170, 171, 172, 173, 174, 175, 176, 177, 178, 179, 180, 181, 182, 183, 184, 185, 186, 187, 188, 189, 190, 191, 192, 193, 194, 195, 196, 197, 198, 199, 200, 201, 202, 203, 204, 205, 206, 207, 208, 209, 210, 211, 212, 213, 214, 215, 216, 217, 218, 219, 220, 221, 222, 223, 224, 225, 226, 227, 228, 229, 230, 231, 232, 233, 234, 235, 236, 237, 238, 239, 240, 241, 242, 243, 244, 245, 246, 247, 248, 249, 250, 251, 252, 253, 254, 255, 256, 257, 258, 259, 260, 261, 262, 263, 264, 265, 266, 267, 268, 269, 270, 271, 272, 273, 274, 275, 276, 277, 278, 279, 280, 281, 282, 283, 284, 285, 286, 287, 288, 289, 290, 291, 292, 293, 294, 295, 296, 297, 298, 299, 300, 301, 302, 303, 304, 305, 306, 307, 308, 309, 310, 311, 312, 313, 314, 315, 316, 317, 318, 319, 320, 321, 322, 323, 324, 325, 326, 327, 328, 329, 330, 331, 332, 333, 334, 335, 336, 337, 338, 339, 340, 341, 342, 343, 344, 345, 346, 347, 348, 349, 350, 351, 352, 353, 354, 355, 356, 357, 358, 359, 360, 361, 362, 363, 364, 365, 366, 367, 368, 369, 370, 371, 372, 373, 374, 375, 376, 377, 378, 379, 380, 381, 382, 383, 384, 385, 386, 387, 388, 389, 390, 391, 392, 393, 394, 395, 396, 397, 398, 399, 400, 401, 402, 403, 404, 405, 406, 407, 408, 409, 410, 411, 412, 413, 414, 415, 416, 417, 418, 419, 420, 421, 422, 423, 424, 425, 426, 427, 428, 429, 430, 431, 432, 433, 434, 435, 436, 437, 438, 439, 440, 441, 442, 443, 444, 445, 446, 447, 448, 449, 450, 451, 452, 453, 454, 455, 456, 457, 458, 459, 460, 461, 462, 463, 464, 465, 466, 467, 468, 469, 470, 471, 472, 473, 474, 475, 476, 477, 478, 479, 480, 481, 482, 483, 484, 485, 486, 487, 488, 489, 490, 491, 492, 493, 494, 495, 496, 497, 498, 499, 500, 501, 502, 503, 504, 505, 506, 507, 508, 509, 510, 511, 512, 513, 514, 515, 516, 517, 518, 519, 520, 521, 522, 523, 524, 525, 526, 527, 528, 529, 530, 531, 532, 533, 534, 535, 536, 537, 538, 539, 540, 541, 542, 543, 544, 545, 546, 547, 548, 549, 550, 551, 552, 553, 554, 555, 556, 557, 558, 559, 560, 561, 562, 563, 564, 565, 566, 567, 568, 569, 570, 571, 572, 573, 574, 575, 576, 577, 578, 579, 580, 581, 582, 583, 584, 585, 586, 587, 588, 589, 590, 591, 592, 593, 594, 595, 596, 597, 598, 599, 600, 601, 602, 603, 604, 605, 606, 607, 608, 609, 610, 611, 612, 613, 614, 615, 616, 617, 618, 619, 620, 621, 622, 623, 624, 625, 626, 627, 628, 629, 630, 631, 632, 633, 634, 635, 636, 637, 638, 639, 640, 641, 642, 643, 644, 645, 646, 647, 648, 649, 650, 651, 652, 653, 654, 655, 656, 657, 658, 659, 660, 661, 662, 663, 664, 665, 666, 667, 668, 669, 670, 671, 672, 673, 674, 675, 676, 677, 678, 679, 680, 681, 682, 683, 684, 685, 686, 687, 688, 689, 690, 691, 692, 693, 694, 695, 696, 697, 698, 699, 700, 701, 702, 703, 704, 705, 706, 707, 708, 709, 710, 711, 712, 713, 714, 715, 716, 717, 718, 719, 720, 721, 722, 723, 724, 725, 726, 727, 728, 729, 730, 731, 732, 733, 734, 735, 736, 737, 738, 739, 740, 741, 742, 743, 744, 745, 746, 747, 748, 749, 750, 751, 752, 753, 754, 755, 756, 757, 758, 759, 760, 761, 762, 763, 764, 765, 766, 767, 768, 769, 770, 771, 772, 773, 774, 775, 776, 777, 778, 779, 780, 781, 782, 783, 784, 785, 786, 787, 788, 789, 790, 791, 792, 793, 794, 795, 796, 797, 798, 799, 800, 801, 802, 803, 804, 805, 806, 807, 808, 809, 810, 811, 812, 813, 814, 815, 816, 817, 818, 819, 820, 821, 822, 823, 824, 825, 826, 827, 828, 829, 830, 831, 832, 833, 834, 835, 836, 837, 838, 839, 840, 841, 842, 843, 844, 845, 846, 847, 848, 849, 850, 851, 852, 853, 854, 855, 856, 857, 858, 859, 860, 861, 862, 863, 864, 865, 866, 867, 868, 869, 870, 871, 872, 873, 874, 875, 876, 877, 878, 879, 880, 881, 882, 883, 884, 885, 886, 887, 888, 889, 890, 891, 892, 893, 894, 895, 896, 897, 898, 899, 900, 901, 902, 903, 904, 905, 906, 907, 908, 909, 910, 911, 912, 913, 914, 915, 916, 917, 918, 919, 920, 921, 922, 923, 924, 925, 926, 927, 928, 929, 930, 931, 932, 933, 934, 935, 936, 937, 938, 939, 940, 941, 942, 943, 944, 945, 946, 947, 948, 949, 950, 951, 952, 953, 954, 955, 956, 957, 958, 959, 960, 961, 962, 963, 964, 965, 966, 967, 968, 969, 970, 971, 972, 973, 974, 975, 976, 977, 978, 979, 980, 981, 982, 983, 984, 985, 986, 987, 988, 989, 990, 991, 992, 993, 994, 995, 996, 997, 998, 999, 1000, 1001, 1002, 1003, 1004, 1005, 1006, 1007, 1008, 1009, 1010, 1011, 1012, 1013, 1014, 1015, 1016, 1017, 1018, 1019, 1020, 1021, 1022, 1023, 1024, 1025, 1026, 1027, 1028, 1029, 1030, 1031, 1032, 1033, 1034, 1035, 1036, 1037, 1038, 1039, 1040, 1041, 1042, 1043, 1044, 1045, 1046, 1047, 1048, 1049, 1050, 1051, 1052, 1053, 1054, 1055, 1056, 1057, 1058, 1059, 1060, 1061, 1062, 1063, 1064, 1065, 1066, 1067, 1068, 1069, 1070, 1071, 1072, 1073, 1074, 1075, 1076, 1077, 1078, 1079, 1080, 1081, 1082, 1083, 1084, 1085, 1086, 1087, 1088, 1089, 1090, 1091, 1092, 1093, 1094, 1095, 1096, 1097, 1098],
      "AcquisitionTime": ["190811.135000", "190811.595000", "190812.055000", "190812.515000", "190812.975000", "190813.435000", "190813.895000", "190814.355000", "190814.815000", "190815.275000", "190815.735000", "190816.195000", "190816.655000", "190817.115000", "190817.575000", "190818.035000", "190818.495000", "190818.955000", "190819.415000", "190819.875000", "190820.335000", "190820.795000", "190821.255000", "190821.715000", "190822.175000", "190822.635000", "190823.095000", "190823.555000", "190824.015000", "190824.475000", "190824.935000", "190825.395000", "190825.855000", "190826.315000", "190826.775000", "190827.235000", "190827.695000", "190828.155000", "190828.615000", "190829.075000", "190829.535000", "190829.995000", "190830.455000", "190830.915000", "190831.375000", "190831.835000", "190832.295000", "190832.755000", "190833.215000", "190833.675000", "190834.135000", "190834.595000", "190835.055000", "190835.515000", "190835.975000", "190836.435000", "190836.895000", "190837.355000", "190837.815000", "190838.275000", "190838.735000", "190839.195000", "190839.655000", "190840.115000", "190840.575000", "190841.035000", "190841.495000", "190841.955000", "190842.415000", "190842.875000", "190843.335000", "190843.795000", "190844.255000", "190844.715000", "190845.175000", "190845.635000", "190846.095000", "190846.555000", "190847.015000", "190847.475000", "190847.935000", "190848.395000", "190848.855000", "190849.315000", "190849.775000", "190850.235000", "190850.695000", "190851.155000", "190851.615000", "190852.075000", "190852.535000", "190852.995000", "190853.455000", "190853.915000", "190854.375000", "190854.835000", "190855.295000", "190855.755000", "190856.215000", "190856.675000", "190857.135000", "190857.595000", "190858.055000", "190858.515000", "190858.975000", "190859.435000", "190859.895000", "190900.355000", "190900.815000", "190901.275000", "190901.735000", "190902.195000", "190902.655000", "190903.115000", "190903.575000", "190904.035000", "190904.495000", "190904.955000", "190905.415000", "190905.875000", "190906.335000", "190906.795000", "190907.255000", "190907.715000", "190908.175000", "190908.635000", "190909.095000", "190909.555000", "190910.015000", "190910.475000", "190910.935000", "190911.395000", "190911.855000", "190912.315000", "190912.775000", "190913.235000", "190913.695000", "190914.155000", "190914.615000", "190915.075000", "190915.535000", "190915.995000", "190916.455000", "190916.915000", "190917.375000", "190917.835000", "190918.295000", "190918.755000", "190919.215000", "190919.675000", "190920.135000", "190920.595000", "190921.055000", "190921.515000", "190921.975000", "190922.435000", "190922.895000", "190923.355000", "190923.815000", "190924.275000", "190924.735000", "190925.195000", "190925.655000", "190926.115000", "190926.575000", "190927.035000", "190927.495000", "190927.955000", "190928.415000", "190928.875000", "190929.335000", "190929.795000", "190930.255000", "190930.715000", "190931.175000", "190931.635000", "190932.095000", "190932.555000", "190933.015000", "190933.475000", "190933.935000", "190934.395000", "190934.855000", "190935.315000", "190935.775000", "190936.235000", "190936.695000", "190937.155000", "190937.615000", "190938.075000", "190938.535000", "190938.995000", "190939.455000", "190939.915000", "190940.375000", "190940.835000", "190941.295000", "190941.755000", "190942.215000", "190942.675000", "190943.135000", "190943.595000", "190944.055000", "190944.515000", "190944.975000", "190945.435000", "190945.895000", "190946.355000", "190946.815000", "190947.275000", "190947.735000", "190948.195000", "190948.655000", "190949.115000", "190949.575000", "190950.035000", "190950.495000", "190950.955000", "190951.415000", "190951.875000", "190952.335000", "190952.795000", "190953.255000", "190953.715000", "190954.175000", "190954.635000", "190955.095000", "190955.555000", "190956.015000", "190956.475000", "190956.935000", "190957.395000", "190957.855000", "190958.315000", "190958.775000", "190959.235000", "190959.695000", "191000.155000", "191000.615000", "191001.075000", "191001.535000", "191001.995000", "191002.455000", "191002.915000", "191003.375000", "191003.835000", "191004.295000", "191004.755000", "191005.215000", "191005.675000", "191006.135000", "191006.595000", "191007.055000", "191007.515000", "191007.975000", "191008.435000", "191008.895000", "191009.355000", "191009.815000", "191010.275000", "191010.735000", "191011.195000", "191011.655000", "191012.115000", "191012.575000", "191013.035000", "191013.495000", "191013.955000", "191014.415000", "191014.875000", "191015.335000", "191015.795000", "191016.255000", "191016.715000", "191017.175000", "191017.635000", "191018.095000", "191018.555000", "191019.015000", "191019.475000", "191019.935000", "191020.395000", "191020.855000", "191021.315000", "191021.775000", "191022.235000", "191022.695000", "191023.155000", "191023.615000", "191024.075000", "191024.535000", "191024.995000", "191025.455000", "191025.915000", "191026.375000", "191026.835000", "191027.295000", "191027.755000", "191028.215000", "191028.675000", "191029.135000", "191029.595000", "191030.055000", "191030.515000", "191030.975000", "191031.435000", "191031.895000", "191032.355000", "191032.815000", "191033.275000", "191033.735000", "191034.195000", "191034.655000", "191035.115000", "191035.575000", "191036.035000", "191036.495000", "191036.955000", "191037.415000", "191037.875000", "191038.335000", "191038.795000", "191039.255000", "191039.715000", "191040.175000", "191040.635000", "191041.095000", "191041.555000", "191042.015000", "191042.475000", "191042.935000", "191043.395000", "191043.855000", "191044.315000", "191044.775000", "191045.235000", "191045.695000", "191046.155000", "191046.615000", "191047.075000", "191047.535000", "191047.995000", "191048.455000", "191048.915000", "191049.375000", "191049.835000", "191050.295000", "191050.755000", "191051.215000", "191051.675000", "191052.135000", "191052.595000", "191053.055000", "191053.515000", "191053.975000", "191054.435000", "191054.895000", "191055.355000", "191055.815000", "191056.275000", "191056.735000", "191057.195000", "191057.655000", "191058.115000", "191058.575000", "191059.035000", "191059.495000", "191059.955000", "191100.415000", "191100.875000", "191101.335000", "191101.795000", "191102.255000", "191102.715000", "191103.175000", "191103.635000", "191104.095000", "191104.555000", "191105.015000", "191105.475000", "191105.935000", "191106.395000", "191106.855000", "191107.315000", "191107.775000", "191108.235000", "191108.695000", "191109.155000", "191109.615000", "191110.075000", "191110.535000", "191110.995000", "191111.455000", "191111.915000", "191112.375000", "191112.835000", "191113.295000", "191113.755000", "191114.215000", "191114.675000", "191115.135000", "191115.595000", "191116.055000", "191116.515000", "191116.975000", "191117.435000", "191117.895000", "191118.355000", "191118.815000", "191119.275000", "191119.735000", "191120.195000", "191120.655000", "191121.115000", "191121.575000", "191122.035000", "191122.495000", "191122.955000", "191123.415000", "191123.875000", "191124.335000", "191124.795000", "191125.255000", "191125.715000", "191126.175000", "191126.635000", "191127.095000", "191127.555000", "191128.015000", "191128.475000", "191128.935000", "191129.395000", "191129.855000", "191130.315000", "191130.775000", "191131.235000", "191131.695000", "191132.155000", "191132.615000", "191133.075000", "191133.535000", "191133.995000", "191134.455000", "191134.915000", "191135.375000", "191135.835000", "191136.295000", "191136.755000", "191137.215000", "191137.675000", "191138.135000", "191138.595000", "191139.055000", "191139.515000", "191139.975000", "191140.435000", "191140.895000", "191141.355000", "191141.815000", "191142.275000", "191142.735000", "191143.195000", "191143.655000", "191144.115000", "191144.575000", "191145.035000", "191145.495000", "191145.955000", "191146.415000", "191146.875000", "191147.335000", "191147.795000", "191148.255000", "191148.715000", "191149.175000", "191149.635000", "191150.095000", "191150.555000", "191151.015000", "191151.475000", "191151.935000", "191152.395000", "191152.855000", "191153.315000", "191153.775000", "191154.235000", "191154.695000", "191155.155000", "191155.615000", "191156.075000", "191156.535000", "191156.995000", "191157.455000", "191157.915000", "191158.375000", "191158.835000", "191159.295000", "191159.755000", "191200.215000", "191200.675000", "191201.135000", "191201.595000", "191202.055000", "191202.515000", "191202.975000", "191203.435000", "191203.895000", "191204.355000", "191204.815000", "191205.275000", "191205.735000", "191206.195000", "191206.655000", "191207.115000", "191207.575000", "191208.035000", "191208.495000", "191208.955000", "191209.415000", "191209.875000", "191210.335000", "191210.795000", "191211.255000", "191211.715000", "191212.175000", "191212.635000", "191213.095000", "191213.555000", "191214.015000", "191214.475000", "191214.935000", "191215.395000", "191215.855000", "191216.315000", "191216.775000", "191217.235000", "191217.695000", "191218.155000", "191218.615000", "191219.075000", "191219.535000", "191219.995000", "191220.455000", "191220.915000", "191221.375000", "191221.835000", "191222.295000", "191222.755000", "191223.215000", "191223.675000", "191224.135000", "191224.595000", "191225.055000", "191225.515000", "191225.975000", "191226.435000", "191226.895000", "191227.355000", "191227.815000", "191228.275000", "191228.735000", "191229.195000", "191229.655000", "191230.115000", "191230.575000", "191231.035000", "191231.495000", "191231.955000", "191232.415000", "191232.875000", "191233.335000", "191233.795000", "191234.255000", "191234.715000", "191235.175000", "191235.635000", "191236.095000", "191236.555000", "191237.015000", "191237.475000", "191237.935000", "191238.395000", "191238.855000", "191239.315000", "191239.775000", "191240.235000", "191240.695000", "191241.155000", "191241.615000", "191242.075000", "191242.535000", "191242.995000", "191243.455000", "191243.915000", "191244.375000", "191244.835000", "191245.295000", "191245.755000", "191246.215000", "191246.675000", "191247.135000", "191247.595000", "191248.055000", "191248.515000", "191248.975000", "191249.435000", "191249.895000", "191250.355000", "191250.815000", "191251.275000", "191251.735000", "191252.195000", "191252.655000", "191253.115000", "191253.575000", "191254.035000", "191254.495000", "191254.955000", "191255.415000", "191255.875000", "191256.335000", "191256.795000", "191257.255000", "191257.715000", "191258.175000", "191258.635000", "191259.095000", "191259.555000", "191300.015000", "191300.475000", "191300.935000", "191301.395000", "191301.855000", "191302.315000", "191302.775000", "191303.235000", "191303.695000", "191304.155000", "191304.615000", "191305.075000", "191305.535000", "191305.995000", "191306.455000", "191306.915000", "191307.375000", "191307.835000", "191308.295000", "191308.755000", "191309.215000", "191309.675000", "191310.135000", "191310.595000", "191311.055000", "191311.515000", "191311.975000", "191312.435000", "191312.895000", "191313.355000", "191313.815000", "191314.275000", "191314.735000", "191315.195000", "191315.655000", "191316.115000", "191316.575000", "191317.035000", "191317.495000", "191317.955000", "191318.415000", "191318.875000", "191319.335000", "191319.795000", "191320.255000", "191320.715000", "191321.175000", "191321.635000", "191322.095000", "191322.555000", "191323.015000", "191323.475000", "191323.935000", "191324.395000", "191324.855000", "191325.315000", "191325.775000", "191326.235000", "191326.695000", "191327.155000", "191327.615000", "191328.075000", "191328.535000", "191328.995000", "191329.455000", "191329.915000", "191330.375000", "191330.835000", "191331.295000", "191331.755000", "191332.215000", "191332.675000", "191333.135000", "191333.595000", "191334.055000", "191334.515000", "191334.975000", "191335.435000", "191335.895000", "191336.355000", "191336.815000", "191337.275000", "191337.735000", "191338.195000", "191338.655000", "191339.115000", "191339.575000", "191340.035000", "191340.495000", "191340.955000", "191341.415000", "191341.875000", "191342.335000", "191342.795000", "191343.255000", "191343.715000", "191344.175000", "191344.635000", "191345.095000", "191345.555000", "191346.015000", "191346.475000", "191346.935000", "191347.395000", "191347.855000", "191348.315000", "191348.775000", "191349.235000", "191349.695000", "191350.155000", "191350.615000", "191351.075000", "191351.535000", "191351.995000", "191352.455000", "191352.915000", "191353.375000", "191353.835000", "191354.295000", "191354.755000", "191355.215000", "191355.675000", "191356.135000", "191356.595000", "191357.055000", "191357.515000", "191357.975000", "191358.435000", "191358.895000", "191359.355000", "191359.815000", "191400.275000", "191400.735000", "191401.195000", "191401.655000", "191402.115000", "191402.575000", "191403.035000", "191403.495000", "191403.955000", "191404.415000", "191404.875000", "191405.335000", "191405.795000", "191406.255000", "191406.715000", "191407.175000", "191407.635000", "191408.095000", "191408.555000", "191409.015000", "191409.475000", "191409.935000", "191410.395000", "191410.855000", "191411.315000", "191411.775000", "191412.235000", "191412.695000", "191413.155000", "191413.615000", "191414.075000", "191414.535000", "191414.995000", "191415.455000", "191415.915000", "191416.375000", "191416.835000", "191417.295000", "191417.755000", "191418.215000", "191418.675000", "191419.135000", "191419.595000", "191420.055000", "191420.515000", "191420.975000", "191421.435000", "191421.895000", "191422.355000", "191422.815000", "191423.275000", "191423.735000", "191424.195000", "191424.655000", "191425.115000", "191425.575000", "191426.035000", "191426.495000", "191426.955000", "191427.415000", "191427.875000", "191428.335000", "191428.795000", "191429.255000", "191429.715000", "191430.175000", "191430.635000", "191431.095000", "191431.555000", "191432.015000", "191432.475000", "191432.935000", "191433.395000", "191433.855000", "191434.315000", "191434.775000", "191435.235000", "191435.695000", "191436.155000", "191436.615000", "191437.075000", "191437.535000", "191437.995000", "191438.455000", "191438.915000", "191439.375000", "191439.835000", "191440.295000", "191440.755000", "191441.215000", "191441.675000", "191442.135000", "191442.595000", "191443.055000", "191443.515000", "191443.975000", "191444.435000", "191444.895000", "191445.355000", "191445.815000", "191446.275000", "191446.735000", "191447.195000", "191447.655000", "191448.115000", "191448.575000", "191449.035000", "191449.495000", "191449.955000", "191450.415000", "191450.875000", "191451.335000", "191451.795000", "191452.255000", "191452.715000", "191453.175000", "191453.635000", "191454.095000", "191454.555000", "191455.015000", "191455.475000", "191455.935000", "191456.395000", "191456.855000", "191457.315000", "191457.775000", "191458.235000", "191458.695000", "191459.155000", "191459.615000", "191500.075000", "191500.535000", "191500.995000", "191501.455000", "191501.915000", "191502.375000", "191502.835000", "191503.295000", "191503.755000", "191504.215000", "191504.675000", "191505.135000", "191505.595000", "191506.055000", "191506.515000", "191506.975000", "191507.435000", "191507.895000", "191508.355000", "191508.815000", "191509.275000", "191509.735000", "191510.195000", "191510.655000", "191511.115000", "191511.575000", "191512.035000", "191512.495000", "191512.955000", "191513.415000", "191513.875000", "191514.335000", "191514.795000", "191515.255000", "191515.715000", "191516.175000", "191516.635000", "191517.095000", "191517.555000", "191518.015000", "191518.475000", "191518.935000", "191519.395000", "191519.855000", "191520.315000", "191520.775000", "191521.235000", "191521.695000", "191522.155000", "191522.615000", "191523.075000", "191523.535000", "191523.995000", "191524.455000", "191524.915000", "191525.375000", "191525.835000", "191526.295000", "191526.755000", "191527.215000", "191527.675000", "191528.135000", "191528.595000", "191529.055000", "191529.515000", "191529.975000", "191530.435000", "191530.895000", "191531.355000", "191531.815000", "191532.275000", "191532.735000", "191533.195000", "191533.655000", "191534.115000", "191534.575000", "191535.035000", "191535.495000", "191535.955000", "191536.415000", "191536.875000", "191537.335000", "191537.795000", "191538.255000", "191538.715000", "191539.175000", "191539.635000", "191540.095000", "191540.555000", "191541.015000", "191541.475000", "191541.935000", "191542.395000", "191542.855000", "191543.315000", "191543.775000", "191544.235000", "191544.695000", "191545.155000", "191545.615000", "191546.075000", "191546.535000", "191546.995000", "191547.455000", "191547.915000", "191548.375000", "191548.835000", "191549.295000", "191549.755000", "191550.215000", "191550.675000", "191551.135000", "191551.595000", "191552.055000", "191552.515000", "191552.975000", "191553.435000", "191553.895000", "191554.355000", "191554.815000", "191555.275000", "191555.735000", "191556.195000", "191556.655000", "191557.115000", "191557.575000", "191558.035000", "191558.495000", "191558.955000", "191559.415000", "191559.875000", "191600.335000", "191600.795000", "191601.255000", "191601.715000", "191602.175000", "191602.635000", "191603.095000", "191603.555000", "191604.015000", "191604.475000", "191604.935000", "191605.395000", "191605.855000", "191606.315000", "191606.775000", "191607.235000", "191607.695000", "191608.155000", "191608.615000", "191609.075000", "191609.535000", "191609.995000", "191610.455000", "191610.915000", "191611.375000", "191611.835000", "191612.295000", "191612.755000", "191613.215000", "191613.675000", "191614.135000", "191614.595000", "191615.055000", "191615.515000", "191615.975000", "191616.435000", "191616.895000", "191617.355000", "191617.815000", "191618.275000", "191618.735000", "191619.195000", "191619.655000", "191620.115000", "191620.575000", "191621.035000", "191621.495000", "191621.955000", "191622.415000", "191622.875000", "191623.335000", "191623.795000", "191624.255000", "191624.715000", "191625.175000", "191625.635000", "191626.095000", "191626.555000", "191627.015000", "191627.475000", "191627.935000", "191628.395000", "191628.855000", "191629.315000", "191629.775000", "191630.235000", "191630.695000", "191631.155000", "191631.615000", "191632.075000", "191632.535000", "191632.995000", "191633.455000", "191633.915000", "191634.375000", "191634.835000", "191635.295000", "191635.755000"],
