{
  "AcquisitionMatrixPE": 82,
  "AcquisitionNumber": 1,
  "AcquisitionTime": "19:37:49.830000",
  "BandwidthPerPixelPhaseEncode": 24.888,
  "BaseResolution": 82,
  "BodyPartExamined": "BRAIN",
  "ConsistencyInfo": "N4_VE11E_LATEST_20181129",
  "ConversionSoftware": "dcm2niix",
  "ConversionSoftwareVersion": "v1.0.20201102",
  "DerivedVendorReportedEchoSpacing": 0.00049,
  "DeviceSerialNumber": "66112",
  "DwellTime": 2e-06,
  "EchoTime": 0.0272,
  "EchoTrainLength": 82,
  "EffectiveEchoSpacing": 0.00049,
  "FlipAngle": 44,
  "ImageComments": "Unaliased MB8/PE3",
  "ImageOrientationPatientDICOM": [0.999858, 0.0110846, -0.0126984, -0.0101218, 0.997242, 0.0735244],
  "ImageType": [
    "ORIGINAL",
    "PRIMARY",
    "M",
    "MB",
    "ND",
    "NORM",
    "MOSAIC"
],
  "ImagingFrequency": 123.259,
  "InPlanePhaseEncodingDirectionDICOM": "COL",
  "InstitutionAddress": "Maynard 3,Hanover,NH,US,03755",
  "InstitutionName": "Dartmouth College - PBS",
  "InstitutionalDepartmentName": "Department",
  "MRAcquisitionType": "2D",
  "MagneticFieldStrength": 3,
  "Manufacturer": "Siemens",
  "ManufacturersModelName": "Prisma",
  "Modality": "MR",
  "MultibandAccelerationFactor": 8,
  "PartialFourier": 1,
  "PatientPosition": "HFS",
  "PercentPhaseFOV": 100,
  "PercentSampling": 100,
  "PhaseEncodingDirection": "j-",
  "PhaseEncodingSteps": 82,
  "PhaseResolution": 1,
  "PixelBandwidth": 3050,
  "ProcedureStepDescription": "Wager_Wager^1076_spacetop",
  "ProtocolName": "func_run-01_task-faces_acq-ap-mb8",
  "PulseSequenceDetails": "%CustomerSeq%\\cmrr_mbep2d_bold",
  "ReceiveCoilActiveElements": "HEA;HEP",
  "ReceiveCoilName": "Head_32",
  "ReconMatrixPE": 82,
  "RepetitionTime": 0.46,
  "SAR": 0.0747887,
  "ScanOptions": "FS",
  "ScanningSequence": "EP",
  "SequenceName": "epfid2d1_82",
  "SequenceVariant": "SK\\SS",
  "SeriesDescription": "func_run-01_task-faces_acq-ap-mb8",
  "SeriesNumber": 16,
  "ShimSetting": [4215, -7779, -7216, 223, -78, -51, -82, 144],
  "SliceThickness": 2.7,
  "SliceTiming": [0, 0.25, 0.0625, 0.3125, 0.125, 0.375, 0.1875, 0, 0.25, 0.0625, 0.3125, 0.125, 0.375, 0.1875, 0, 0.25, 0.0625, 0.3125, 0.125, 0.375, 0.1875, 0, 0.25, 0.0625, 0.3125, 0.125, 0.375, 0.1875, 0, 0.25, 0.0625, 0.3125, 0.125, 0.375, 0.1875, 0, 0.25, 0.0625, 0.3125, 0.125, 0.375, 0.1875, 0, 0.25, 0.0625, 0.3125, 0.125, 0.375, 0.1875, 0, 0.25, 0.0625, 0.3125, 0.125, 0.375, 0.1875],
  "SoftwareVersions": "syngo MR E11",
  "SpacingBetweenSlices": 2.7,
  "StationName": "AWP66112",
  "TaskName": "faces",
  "TotalReadoutTime": 0.03969,
  "TxRefAmp": 227.506,
  "WipMemBlock": "db67628d-aecf-4310-9373-73c909708d26||Sequence: R016 ve11e/master r/434b28f1; Aug  7 2019 18:53:46 by eja",
  "dcmmeta_affine": [
    [-2.6825456619262695, -0.027156023308634758, -0.03639146313071251, 115.0146713256836],
    [-0.02973906882107258, 2.675527572631836, 0.19814063608646393, -93.51024627685547],
    [-0.0340687595307827, -0.19726057350635529, 2.692473888397217, -61.141666412353516],
    [0.0, 0.0, 0.0, 1.0]
],
  "dcmmeta_reorient_transform": [
    [0.0, -1.0, 0.0, 81.0],
    [1.0, 0.0, 0.0, 0.0],
    [0.0, 0.0, 1.0, 0.0],
    [0.0, 0.0, 0.0, 1.0]
],
  "dcmmeta_shape": [82, 82, 56, 914],
  "dcmmeta_slice_dim": 2,
  "dcmmeta_version": 0.6,
  "global": {
    "const": {
      "AccessionNumber": "A004928",
      "AcquisitionMatrix": [82, 0, 0, 82],
      "AngioFlag": "N",
      "BitsAllocated": 16,
      "BitsStored": 16,
      "BodyPartExamined": "BRAIN",
      "Columns": 656,
      "EchoNumbers": 1,
      "EchoTime": 27.2,
      "EchoTrainLength": 82,
      "FlipAngle": 44.0,
      "HighBit": 15,
      "ImageOrientationPatient": [0.99985793203836, 0.01108456181328, -0.0126983553807, -0.0101217902626, 0.9972420531918, 0.0735243953235],
      "ImagePositionPatient": [-874.9118803702, -899.6189929963, -123.95582572764],
      "ImageType": [
        "ORIGINAL",
        "PRIMARY",
        "M",
        "MB",
        "ND",
        "NORM",
        "MOSAIC"
],
      "ImagedNucleus": "1H",
      "ImagingFrequency": 123.259055,
      "InPlanePhaseEncodingDirection": "COL",
      "MRAcquisitionType": "2D",
      "MagneticFieldStrength": 3.0,
      "Manufacturer": "SIEMENS",
      "ManufacturerModelName": "Prisma",
      "Modality": "MR",
      "NumberOfAverages": 1.0,
      "NumberOfPhaseEncodingSteps": 82,
      "PercentPhaseFieldOfView": 100.0,
      "PercentSampling": 100.0,
      "PerformedProcedureStepStartTime": "184843.779000",
      "PhotometricInterpretation": "MONOCHROME2",
      "PixelBandwidth": 3050.0,
      "PixelRepresentation": 0,
      "PixelSpacing": [2.6829268932343, 2.6829268932343],
      "ProtocolName": "func_run-01_task-faces_acq-ap-mb8",
      "RepetitionTime": 460.0,
      "Rows": 656,
      "SAR": 0.07478865939465,
      "SamplesPerPixel": 1,
      "ScanOptions": "FS",
      "ScanningSequence": "EP",
      "SequenceName": "epfid2d1_82",
      "SequenceVariant": [
        "SK",
        "SS"
],
      "SeriesDescription": "func_run-01_task-faces_acq-ap-mb8",
      "SeriesNumber": 16,
      "SeriesTime": "193814.958000",
      "SliceLocation": -69.383732463113,
      "SliceThickness": 2.7000000476837,
      "SmallestImagePixelValue": 0,
      "SoftwareVersions": "syngo MR E11",
      "SpacingBetweenSlices": 2.7000000026897,
      "SpecificCharacterSet": "ISO_IR 100",
      "StudyID": "2",
      "StudyTime": "184843.733000",
      "TransmitCoilName": "Body",
      "VariableFlipAngleFlag": "N",
      "WindowCenterWidthExplanation": "Algo1"
    },
    "slices": {}
  },
  "time": {
    "samples": {
      "AcquisitionNumber": [1, 2, 3, 4, 5, 6, 7, 8, 9, 10, 11, 12, 13, 14, 15, 16, 17, 18, 19, 20, 21, 22, 23, 24, 25, 26, 27, 28, 29, 30, 31, 32, 33, 34, 35, 36, 37, 38, 39, 40, 41, 42, 43, 44, 45, 46, 47, 48, 49, 50, 51, 52, 53, 54, 55, 56, 57, 58, 59, 60, 61, 62, 63, 64, 65, 66, 67, 68, 69, 70, 71, 72, 73, 74, 75, 76, 77, 78, 79, 80, 81, 82, 83, 84, 85, 86, 87, 88, 89, 90, 91, 92, 93, 94, 95, 96, 97, 98, 99, 100, 101, 102, 103, 104, 105, 106, 107, 108, 109, 110, 111, 112, 113, 114, 115, 116, 117, 118, 119, 120, 121, 122, 123, 124, 125, 126, 127, 128, 129, 130, 131, 132, 133, 134, 135, 136, 137, 138, 139, 140, 141, 142, 143, 144, 145, 146, 147, 148, 149, 150, 151, 152, 153, 154, 155, 156, 157, 158, 159, 160, 161, 162, 163, 164, 165, 166, 167, 168, 169, 170, 171, 172, 173, 174, 175, 176, 177, 178, 179, 180, 181, 182, 183, 184, 185, 186, 187, 188, 189, 190, 191, 192, 193, 194, 195, 196, 197, 198, 199, 200, 201, 202, 203, 204, 205, 206, 207, 208, 209, 210, 211, 212, 213, 214, 215, 216, 217, 218, 219, 220, 221, 222, 223, 224, 225, 226, 227, 228, 229, 230, 231, 232, 233, 234, 235, 236, 237, 238, 239, 240, 241, 242, 243, 244, 245, 246, 247, 248, 249, 250, 251, 252, 253, 254, 255, 256, 257, 258, 259, 260, 261, 262, 263, 264, 265, 266, 267, 268, 269, 270, 271, 272, 273, 274, 275, 276, 277, 278, 279, 280, 281, 282, 283, 284, 285, 286, 287, 288, 289, 290, 291, 292, 293, 294, 295, 296, 297, 298, 299, 300, 301, 302, 303, 304, 305, 306, 307, 308, 309, 310, 311, 312, 313, 314, 315, 316, 317, 318, 319, 320, 321, 322, 323, 324, 325, 326, 327, 328, 329, 330, 331, 332, 333, 334, 335, 336, 337, 338, 339, 340, 341, 342, 343, 344, 345, 346, 347, 348, 349, 350, 351, 352, 353, 354, 355, 356, 357, 358, 359, 360, 361, 362, 363, 364, 365, 366, 367, 368, 369, 370, 371, 372, 373, 374, 375, 376, 377, 378, 379, 380, 381, 382, 383, 384, 385, 386, 387, 388, 389, 390, 391, 392, 393, 394, 395, 396, 397, 398, 399, 400, 401, 402, 403, 404, 405, 406, 407, 408, 409, 410, 411, 412, 413, 414, 415, 416, 417, 418, 419, 420, 421, 422, 423, 424, 425, 426, 427, 428, 429, 430, 431, 432, 433, 434, 435, 436, 437, 438, 439, 440, 441, 442, 443, 444, 445, 446, 447, 448, 449, 450, 451, 452, 453, 454, 455, 456, 457, 458, 459, 460, 461, 462, 463, 464, 465, 466, 467, 468, 469, 470, 471, 472, 473, 474, 475, 476, 477, 478, 479, 480, 481, 482, 483, 484, 485, 486, 487, 488, 489, 490, 491, 492, 493, 494, 495, 496, 497, 498, 499, 500, 501, 502, 503, 504, 505, 506, 507, 508, 509, 510, 511, 512, 513, 514, 515, 516, 517, 518, 519, 520, 521, 522, 523, 524, 525, 526, 527, 528, 529, 530, 531, 532, 533, 534, 535, 536, 537, 538, 539, 540, 541, 542, 543, 544, 545, 546, 547, 548, 549, 550, 551, 552, 553, 554, 555, 556, 557, 558, 559, 560, 561, 562, 563, 564, 565, 566, 567, 568, 569, 570, 571, 572, 573, 574, 575, 576, 577, 578, 579, 580, 581, 582, 583, 584, 585, 586, 587, 588, 589, 590, 591, 592, 593, 594, 595, 596, 597, 598, 599, 600, 601, 602, 603, 604, 605, 606, 607, 608, 609, 610, 611, 612, 613, 614, 615, 616, 617, 618, 619, 620, 621, 622, 623, 624, 625, 626, 627, 628, 629, 630, 631, 632, 633, 634, 635, 636, 637, 638, 639, 640, 641, 642, 643, 644, 645, 646, 647, 648, 649, 650, 651, 652, 653, 654, 655, 656, 657, 658, 659, 660, 661, 662, 663, 664, 665, 666, 667, 668, 669, 670, 671, 672, 673, 674, 675, 676, 677, 678, 679, 680, 681, 682, 683, 684, 685, 686, 687, 688, 689, 690, 691, 692, 693, 694, 695, 696, 697, 698, 699, 700, 701, 702, 703, 704, 705, 706, 707, 708, 709, 710, 711, 712, 713, 714, 715, 716, 717, 718, 719, 720, 721, 722, 723, 724, 725, 726, 727, 728, 729, 730, 731, 732, 733, 734, 735, 736, 737, 738, 739, 740, 741, 742, 743, 744, 745, 746, 747, 748, 749, 750, 751, 752, 753, 754, 755, 756, 757, 758, 759, 760, 761, 762, 763, 764, 765, 766, 767, 768, 769, 770, 771, 772, 773, 774, 775, 776, 777, 778, 779, 780, 781, 782, 783, 784, 785, 786, 787, 788, 789, 790, 791, 792, 793, 794, 795, 796, 797, 798, 799, 800, 801, 802, 803, 804, 805, 806, 807, 808, 809, 810, 811, 812, 813, 814, 815, 816, 817, 818, 819, 820, 821, 822, 823, 824, 825, 826, 827, 828, 829, 830, 831, 832, 833, 834, 835, 836, 837, 838, 839, 840, 841, 842, 843, 844, 845, 846, 847, 848, 849, 850, 851, 852, 853, 854, 855, 856, 857, 858, 859, 860, 861, 862, 863, 864, 865, 866, 867, 868, 869, 870, 871, 872, 873, 874, 875, 876, 877, 878, 879, 880, 881, 882, 883, 884, 885, 886, 887, 888, 889, 890, 891, 892, 893, 894, 895, 896, 897, 898, 899, 900, 901, 902, 903, 904, 905, 906, 907, 908, 909, 910, 911, 912, 913, 914],
      "AcquisitionTime": ["193749.830000", "193750.290000", "193750.750000", "193751.210000", "193751.670000", "193752.130000", "193752.590000", "193753.050000", "193753.510000", "193753.970000", "193754.430000", "193754.890000", "193755.350000", "193755.810000", "193756.270000", "193756.730000", "193757.190000", "193757.650000", "193758.110000", "193758.570000", "193759.030000", "193759.490000", "193759.950000", "193800.410000", "193800.870000", "193801.330000", "193801.790000", "193802.250000", "193802.710000", "193803.170000", "193803.630000", "193804.090000", "193804.550000", "193805.010000", "193805.470000", "193805.930000", "193806.390000", "193806.850000", "193807.310000", "193807.770000", "193808.230000", "193808.690000", "193809.150000", "193809.610000", "193810.070000", "193810.530000", "193810.990000", "193811.450000", "193811.910000", "193812.370000", "193812.830000", "193813.290000", "193813.750000", "193814.210000", "193814.670000", "193815.130000", "193815.590000", "193816.050000", "193816.510000", "193816.970000", "193817.430000", "193817.890000", "193818.350000", "193818.810000", "193819.270000", "193819.730000", "193820.190000", "193820.650000", "193821.110000", "193821.570000", "193822.030000", "193822.490000", "193822.950000", "193823.410000", "193823.870000", "193824.330000", "193824.790000", "193825.250000", "193825.710000", "193826.170000", "193826.630000", "193827.090000", "193827.550000", "193828.010000", "193828.470000", "193828.930000", "193829.390000", "193829.850000", "193830.310000", "193830.770000", "193831.230000", "193831.690000", "193832.150000", "193832.610000", "193833.070000", "193833.530000", "193833.990000", "193834.450000", "193834.910000", "193835.370000", "193835.830000", "193836.290000", "193836.750000", "193837.210000", "193837.670000", "193838.130000", "193838.590000", "193839.050000", "193839.510000", "193839.970000", "193840.430000", "193840.890000", "193841.350000", "193841.810000", "193842.270000", "193842.730000", "193843.190000", "193843.650000", "193844.110000", "193844.570000", "193845.030000", "193845.490000", "193845.950000", "193846.410000", "193846.870000", "193847.330000", "193847.790000", "193848.250000", "193848.710000", "193849.170000", "193849.630000", "193850.090000", "193850.550000", "193851.010000", "193851.470000", "193851.930000", "193852.390000", "193852.850000", "193853.310000", "193853.770000", "193854.230000", "193854.690000", "193855.150000", "193855.610000", "193856.070000", "193856.530000", "193856.990000", "193857.450000", "193857.910000", "193858.370000", "193858.830000", "193859.290000", "193859.750000", "193900.210000", "193900.670000", "193901.130000", "193901.590000", "193902.050000", "193902.510000", "193902.970000", "193903.430000", "193903.890000", "193904.350000", "193904.810000", "193905.270000", "193905.730000", "193906.190000", "193906.650000", "193907.110000", "193907.570000", "193908.030000", "193908.490000", "193908.950000", "193909.410000", "193909.870000", "193910.330000", "193910.790000", "193911.250000", "193911.710000", "193912.170000", "193912.630000", "193913.090000", "193913.550000", "193914.010000", "193914.470000", "193914.930000", "193915.390000", "193915.850000", "193916.310000", "193916.770000", "193917.230000", "193917.690000", "193918.150000", "193918.610000", "193919.070000", "193919.530000", "193919.990000", "193920.450000", "193920.910000", "193921.370000", "193921.830000", "193922.290000", "193922.750000", "193923.210000", "193923.670000", "193924.130000", "193924.590000", "193925.050000", "193925.510000", "193925.970000", "193926.430000", "193926.890000", "193927.350000", "193927.810000", "193928.270000", "193928.730000", "193929.190000", "193929.650000", "193930.110000", "193930.570000", "193931.030000", "193931.490000", "193931.950000", "193932.410000", "193932.870000", "193933.330000", "193933.790000", "193934.250000", "193934.710000", "193935.170000", "193935.630000", "193936.090000", "193936.550000", "193937.010000", "193937.470000", "193937.930000", "193938.390000", "193938.850000", "193939.310000", "193939.770000", "193940.230000", "193940.690000", "193941.150000", "193941.610000", "193942.070000", "193942.530000", "193942.990000", "193943.450000", "193943.910000", "193944.370000", "193944.830000", "193945.290000", "193945.750000", "193946.210000", "193946.670000", "193947.130000", "193947.590000", "193948.050000", "193948.510000", "193948.970000", "193949.430000", "193949.890000", "193950.350000", "193950.810000", "193951.270000", "193951.730000", "193952.190000", "193952.650000", "193953.110000", "193953.570000", "193954.030000", "193954.490000", "193954.950000", "193955.410000", "193955.870000", "193956.330000", "193956.790000", "193957.250000", "193957.710000", "193958.170000", "193958.630000", "193959.090000", "193959.550000", "194000.010000", "194000.470000", "194000.930000", "194001.390000", "194001.850000", "194002.310000", "194002.770000", "194003.230000", "194003.690000", "194004.150000", "194004.610000", "194005.070000", "194005.530000", "194005.990000", "194006.450000", "194006.910000", "194007.370000", "194007.830000", "194008.290000", "194008.750000", "194009.210000", "194009.670000", "194010.130000", "194010.590000", "194011.050000", "194011.510000", "194011.970000", "194012.430000", "194012.890000", "194013.350000", "194013.810000", "194014.270000", "194014.730000", "194015.190000", "194015.650000", "194016.110000", "194016.570000", "194017.030000", "194017.490000", "194017.950000", "194018.410000", "194018.870000", "194019.330000", "194019.790000", "194020.250000", "194020.710000", "194021.170000", "194021.630000", "194022.090000", "194022.550000", "194023.010000", "194023.470000", "194023.930000", "194024.390000", "194024.850000", "194025.310000", "194025.770000", "194026.230000", "194026.690000", "194027.150000", "194027.610000", "194028.070000", "194028.530000", "194028.990000", "194029.450000", "194029.910000", "194030.370000", "194030.830000", "194031.290000", "194031.750000", "194032.210000", "194032.670000", "194033.130000", "194033.590000", "194034.050000", "194034.510000", "194034.970000", "194035.430000", "194035.890000", "194036.350000", "194036.810000", "194037.270000", "194037.730000", "194038.190000", "194038.650000", "194039.110000", "194039.570000", "194040.030000", "194040.490000", "194040.950000", "194041.410000", "194041.870000", "194042.330000", "194042.790000", "194043.250000", "194043.710000", "194044.170000", "194044.630000", "194045.090000", "194045.550000", "194046.010000", "194046.470000", "194046.930000", "194047.390000", "194047.850000", "194048.310000", "194048.770000", "194049.230000", "194049.690000", "194050.150000", "194050.610000", "194051.070000", "194051.530000", "194051.990000", "194052.450000", "194052.910000", "194053.370000", "194053.830000", "194054.290000", "194054.750000", "194055.210000", "194055.670000", "194056.130000", "194056.590000", "194057.050000", "194057.510000", "194057.970000", "194058.430000", "194058.890000", "194059.350000", "194059.810000", "194100.270000", "194100.730000", "194101.190000", "194101.650000", "194102.110000", "194102.570000", "194103.030000", "194103.490000", "194103.950000", "194104.410000", "194104.870000", "194105.330000", "194105.790000", "194106.250000", "194106.710000", "194107.170000", "194107.630000", "194108.090000", "194108.550000", "194109.010000", "194109.470000", "194109.930000", "194110.390000", "194110.850000", "194111.310000", "194111.770000", "194112.230000", "194112.690000", "194113.150000", "194113.610000", "194114.070000", "194114.530000", "194114.990000", "194115.450000", "194115.910000", "194116.370000", "194116.830000", "194117.290000", "194117.750000", "194118.210000", "194118.670000", "194119.130000", "194119.590000", "194120.050000", "194120.510000", "194120.970000", "194121.430000", "194121.890000", "194122.350000", "194122.810000", "194123.270000", "194123.730000", "194124.190000", "194124.650000", "194125.110000", "194125.570000", "194126.030000", "194126.490000", "194126.950000", "194127.410000", "194127.870000", "194128.330000", "194128.790000", "194129.250000", "194129.710000", "194130.170000", "194130.630000", "194131.090000", "194131.550000", "194132.010000", "194132.470000", "194132.930000", "194133.390000", "194133.850000", "194134.310000", "194134.770000", "194135.230000", "194135.690000", "194136.150000", "194136.610000", "194137.070000", "194137.530000", "194137.990000", "194138.450000", "194138.910000", "194139.370000", "194139.830000", "194140.290000", "194140.750000", "194141.210000", "194141.670000", "194142.130000", "194142.590000", "194143.050000", "194143.510000", "194143.970000", "194144.430000", "194144.890000", "194145.350000", "194145.810000", "194146.270000", "194146.730000", "194147.190000", "194147.650000", "194148.110000", "194148.570000", "194149.030000", "194149.490000", "194149.950000", "194150.410000", "194150.870000", "194151.330000", "194151.790000", "194152.250000", "194152.710000", "194153.170000", "194153.630000", "194154.090000", "194154.550000", "194155.010000", "194155.470000", "194155.930000", "194156.390000", "194156.850000", "194157.310000", "194157.770000", "194158.230000", "194158.690000", "194159.150000", "194159.610000", "194200.070000", "194200.530000", "194200.990000", "194201.450000", "194201.910000", "194202.370000", "194202.830000", "194203.290000", "194203.750000", "194204.210000", "194204.670000", "194205.130000", "194205.590000", "194206.050000", "194206.510000", "194206.970000", "194207.430000", "194207.890000", "194208.350000", "194208.810000", "194209.270000", "194209.730000", "194210.190000", "194210.650000", "194211.110000", "194211.570000", "194212.030000", "194212.490000", "194212.950000", "194213.410000", "194213.870000", "194214.330000", "194214.790000", "194215.250000", "194215.710000", "194216.170000", "194216.630000", "194217.090000", "194217.550000", "194218.010000", "194218.470000", "194218.930000", "194219.390000", "194219.850000", "194220.310000", "194220.770000", "194221.230000", "194221.690000", "194222.150000", "194222.610000", "194223.070000", "194223.530000", "194223.990000", "194224.450000", "194224.910000", "194225.370000", "194225.830000", "194226.290000", "194226.750000", "194227.210000", "194227.670000", "194228.130000", "194228.590000", "194229.050000", "194229.510000", "194229.970000", "194230.430000", "194230.890000", "194231.350000", "194231.810000", "194232.270000", "194232.730000", "194233.190000", "194233.650000", "194234.110000", "194234.570000", "194235.030000", "194235.490000", "194235.950000", "194236.410000", "194236.870000", "194237.330000", "194237.790000", "194238.250000", "194238.710000", "194239.170000", "194239.630000", "194240.090000", "194240.550000", "194241.010000", "194241.470000", "194241.930000", "194242.390000", "194242.850000", "194243.310000", "194243.770000", "194244.230000", "194244.690000", "194245.150000", "194245.610000", "194246.070000", "194246.530000", "194246.990000", "194247.450000", "194247.910000", "194248.370000", "194248.830000", "194249.290000", "194249.750000", "194250.210000", "194250.670000", "194251.130000", "194251.590000", "194252.050000", "194252.510000", "194252.970000", "194253.430000", "194253.890000", "194254.350000", "194254.810000", "194255.270000", "194255.730000", "194256.190000", "194256.650000", "194257.110000", "194257.570000", "194258.030000", "194258.490000", "194258.950000", "194259.410000", "194259.870000", "194300.330000", "194300.790000", "194301.250000", "194301.710000", "194302.170000", "194302.630000", "194303.090000", "194303.550000", "194304.010000", "194304.470000", "194304.930000", "194305.390000", "194305.850000", "194306.310000", "194306.770000", "194307.230000", "194307.690000", "194308.150000", "194308.610000", "194309.070000", "194309.530000", "194309.990000", "194310.450000", "194310.910000", "194311.370000", "194311.830000", "194312.290000", "194312.750000", "194313.210000", "194313.670000", "194314.130000", "194314.590000", "194315.050000", "194315.510000", "194315.970000", "194316.430000", "194316.890000", "194317.350000", "194317.810000", "194318.270000", "194318.730000", "194319.190000", "194319.650000", "194320.110000", "194320.570000", "194321.030000", "194321.490000", "194321.950000", "194322.410000", "194322.870000", "194323.330000", "194323.790000", "194324.250000", "194324.710000", "194325.170000", "194325.630000", "194326.090000", "194326.550000", "194327.010000", "194327.470000", "194327.930000", "194328.390000", "194328.850000", "194329.310000", "194329.770000", "194330.230000", "194330.690000", "194331.150000", "194331.610000", "194332.070000", "194332.530000", "194332.990000", "194333.450000", "194333.910000", "194334.370000", "194334.830000", "194335.290000", "194335.750000", "194336.210000", "194336.670000", "194337.130000", "194337.590000", "194338.050000", "194338.510000", "194338.970000", "194339.430000", "194339.890000", "194340.350000", "194340.810000", "194341.270000", "194341.730000", "194342.190000", "194342.650000", "194343.110000", "194343.570000", "194344.030000", "194344.490000", "194344.950000", "194345.410000", "194345.870000", "194346.330000", "194346.790000", "194347.250000", "194347.710000", "194348.170000", "194348.630000", "194349.090000", "194349.550000", "194350.010000", "194350.470000", "194350.930000", "194351.390000", "194351.850000", "194352.310000", "194352.770000", "194353.230000", "194353.690000", "194354.150000", "194354.610000", "194355.070000", "194355.530000", "194355.990000", "194356.450000", "194356.910000", "194357.370000", "194357.830000", "194358.290000", "194358.750000", "194359.210000", "194359.670000", "194400.130000", "194400.590000", "194401.050000", "194401.510000", "194401.970000", "194402.430000", "194402.890000", "194403.350000", "194403.810000", "194404.270000", "194404.730000", "194405.190000", "194405.650000", "194406.110000", "194406.570000", "194407.030000", "194407.490000", "194407.950000", "194408.410000", "194408.870000", "194409.330000", "194409.790000", "194410.250000", "194410.710000", "194411.170000", "194411.630000", "194412.090000", "194412.550000", "194413.010000", "194413.470000", "194413.930000", "194414.390000", "194414.850000", "194415.310000", "194415.770000", "194416.230000", "194416.690000", "194417.150000", "194417.610000", "194418.070000", "194418.530000", "194418.990000", "194419.450000", "194419.910000", "194420.370000", "194420.830000", "194421.290000", "194421.750000", "194422.210000", "194422.670000", "194423.130000", "194423.590000", "194424.050000", "194424.510000", "194424.970000", "194425.430000", "194425.890000", "194426.350000", "194426.810000", "194427.270000", "194427.730000", "194428.190000", "194428.650000", "194429.110000", "194429.570000", "194430.030000", "194430.490000", "194430.950000", "194431.410000", "194431.870000", "194432.330000", "194432.790000", "194433.250000", "194433.710000", "194434.170000", "194434.630000", "194435.090000", "194435.550000", "194436.010000", "194436.470000", "194436.930000", "194437.390000", "194437.850000", "194438.310000", "194438.770000", "194439.230000", "194439.690000", "194440.150000", "194440.610000", "194441.070000", "194441.530000", "194441.990000", "194442.450000", "194442.910000", "194443.370000", "194443.830000", "194444.290000", "194444.750000", "194445.210000", "194445.670000", "194446.130000", "194446.590000", "194447.050000", "194447.510000", "194447.970000", "194448.430000", "194448.890000", "194449.350000", "194449.810000"],
