{
  "AcquisitionMatrixPE": 82,
  "AcquisitionNumber": 1,
  "AcquisitionTime": "19:00:22.465000",
  "BandwidthPerPixelPhaseEncode": 24.888,
  "BaseResolution": 82,
  "BodyPartExamined": "BRAIN",
  "ConsistencyInfo": "N4_VE11E_LATEST_20181129",
  "ConversionSoftware": "dcm2niix",
  "ConversionSoftwareVersion": "v1.0.20201102",
  "DerivedVendorReportedEchoSpacing": 0.00049,
  "DeviceSerialNumber": "66112",
  "DwellTime": 2e-06,
  "EchoTime": 0.0272,
  "EchoTrainLength": 82,
  "EffectiveEchoSpacing": 0.00049,
  "FlipAngle": 44,
  "ImageComments": "Unaliased MB8/PE3",
  "ImageOrientationPatientDICOM": [0.999858, 0.0110846, -0.0126984, -0.0101218, 0.997242, 0.0735244],
  "ImageType": [
    "ORIGINAL",
    "PRIMARY",
    "M",
    "MB",
    "ND",
    "NORM",
    "MOSAIC"
],
  "ImagingFrequency": 123.259,
  "InPlanePhaseEncodingDirectionDICOM": "COL",
  "InstitutionAddress": "Maynard 3,Hanover,NH,US,03755",
  "InstitutionName": "Dartmouth College - PBS",
  "InstitutionalDepartmentName": "Department",
  "MRAcquisitionType": "2D",
  "MagneticFieldStrength": 3,
  "Manufacturer": "Siemens",
  "ManufacturersModelName": "Prisma",
  "Modality": "MR",
  "MultibandAccelerationFactor": 8,
  "PartialFourier": 1,
  "PatientPosition": "HFS",
  "PercentPhaseFOV": 100,
  "PercentSampling": 100,
  "PhaseEncodingDirection": "j-",
  "PhaseEncodingSteps": 82,
  "PhaseResolution": 1,
  "PixelBandwidth": 3050,
  "ProcedureStepDescription": "Wager_Wager^1076_spacetop",
  "ProtocolName": "func_run-01_task-narratives_acq-ap-mb8",
  "PulseSequenceDetails": "%CustomerSeq%\\cmrr_mbep2d_bold",
  "ReceiveCoilActiveElements": "HEA;HEP",
  "ReceiveCoilName": "Head_32",
  "ReconMatrixPE": 82,
  "RepetitionTime": 0.46,
  "SAR": 0.074813,
  "ScanOptions": "FS",
  "ScanningSequence": "EP",
  "SequenceName": "epfid2d1_82",
  "SequenceVariant": "SK\\SS",
  "SeriesDescription": "func_run-01_task-narratives_acq-ap-mb8",
  "SeriesNumber": 8,
  "ShimSetting": [4215, -7779, -7216, 223, -78, -51, -82, 144],
  "SliceThickness": 2.7,
  "SliceTiming": [0, 0.2525, 0.0625, 0.315, 0.1275, 0.3775, 0.19, 0, 0.2525, 0.0625, 0.315, 0.1275, 0.3775, 0.19, 0, 0.2525, 0.0625, 0.315, 0.1275, 0.3775, 0.19, 0, 0.2525, 0.0625, 0.315, 0.1275, 0.3775, 0.19, 0, 0.2525, 0.0625, 0.315, 0.1275, 0.3775, 0.19, 0, 0.2525, 0.0625, 0.315, 0.1275, 0.3775, 0.19, 0, 0.2525, 0.0625, 0.315, 0.1275, 0.3775, 0.19, 0, 0.2525, 0.0625, 0.315, 0.1275, 0.3775, 0.19],
  "SoftwareVersions": "syngo MR E11",
  "SpacingBetweenSlices": 2.7,
  "StationName": "AWP66112",
  "TaskName": "narratives",
  "TotalReadoutTime": 0.03969,
  "TxRefAmp": 227.506,
  "WipMemBlock": "fecb45e3-2438-4d3d-a01a-8215e421557e||Sequence: R016 ve11e/master r/434b28f1; Aug  7 2019 18:53:46 by eja",
  "dcmmeta_affine": [
    [-2.6825456619262695, -0.027156023308634758, -0.03639146313071251, 115.0146713256836],
    [-0.02973906882107258, 2.675527572631836, 0.19814063608646393, -93.51024627685547],
    [-0.0340687595307827, -0.19726057350635529, 2.692473888397217, -61.141666412353516],
    [0.0, 0.0, 0.0, 1.0]
],
  "dcmmeta_reorient_transform": [
    [0.0, -1.0, 0.0, 81.0],
    [1.0, 0.0, 0.0, 0.0],
    [0.0, 0.0, 1.0, 0.0],
    [0.0, 0.0, 0.0, 1.0]
],
  "dcmmeta_shape": [82, 82, 56, 967],
  "dcmmeta_slice_dim": 2,
  "dcmmeta_version": 0.6,
  "global": {
    "const": {
      "AccessionNumber": "A004928",
      "AcquisitionMatrix": [82, 0, 0, 82],
      "AngioFlag": "N",
      "BitsAllocated": 16,
      "BitsStored": 16,
      "BodyPartExamined": "BRAIN",
      "Columns": 656,
      "EchoNumbers": 1,
      "EchoTime": 27.2,
      "EchoTrainLength": 82,
      "FlipAngle": 44.0,
      "HighBit": 15,
      "ImageOrientationPatient": [0.99985793203836, 0.01108456181328, -0.0126983553807, -0.0101217902626, 0.9972420531918, 0.0735243953235],
      "ImagePositionPatient": [-874.9118803702, -899.6189929963, -123.95582572764],
      "ImageType": [
        "ORIGINAL",
        "PRIMARY",
        "M",
        "MB",
        "ND",
        "NORM",
        "MOSAIC"
],
      "ImagedNucleus": "1H",
      "ImagingFrequency": 123.259032,
      "InPlanePhaseEncodingDirection": "COL",
      "MRAcquisitionType": "2D",
      "MagneticFieldStrength": 3.0,
      "Manufacturer": "SIEMENS",
      "ManufacturerModelName": "Prisma",
      "Modality": "MR",
      "NumberOfAverages": 1.0,
      "NumberOfPhaseEncodingSteps": 82,
      "PercentPhaseFieldOfView": 100.0,
      "PercentSampling": 100.0,
      "PerformedProcedureStepStartTime": "184843.779000",
      "PhotometricInterpretation": "MONOCHROME2",
      "PixelBandwidth": 3050.0,
      "PixelRepresentation": 0,
      "PixelSpacing": [2.6829268932343, 2.6829268932343],
      "ProtocolName": "func_run-01_task-narratives_acq-ap-mb8",
      "RepetitionTime": 460.0,
      "Rows": 656,
      "SAR": 0.07481297789139,
      "SamplesPerPixel": 1,
      "ScanOptions": "FS",
      "ScanningSequence": "EP",
      "SequenceName": "epfid2d1_82",
      "SequenceVariant": [
        "SK",
        "SS"
],
      "SeriesDescription": "func_run-01_task-narratives_acq-ap-mb8",
      "SeriesNumber": 8,
      "SeriesTime": "190034.866000",
      "SliceLocation": -69.383732463113,
      "SliceThickness": 2.7000000476837,
      "SmallestImagePixelValue": 0,
      "SoftwareVersions": "syngo MR E11",
      "SpacingBetweenSlices": 2.7000000026897,
      "SpecificCharacterSet": "ISO_IR 100",
      "StudyID": "2",
      "StudyTime": "184843.733000",
      "TransmitCoilName": "Body",
      "VariableFlipAngleFlag": "N",
      "WindowCenterWidthExplanation": "Algo1"
    },
    "slices": {}
  },
  "time": {
    "samples": {
      "AcquisitionNumber": [1, 2, 3, 4, 5, 6, 7, 8, 9, 10, 11, 12, 13, 14, 15, 16, 17, 18, 19, 20, 21, 22, 23, 24, 25, 26, 27, 28, 29, 30, 31, 32, 33, 34, 35, 36, 37, 38, 39, 40, 41, 42, 43, 44, 45, 46, 47, 48, 49, 50, 51, 52, 53, 54, 55, 56, 57, 58, 59, 60, 61, 62, 63, 64, 65, 66, 67, 68, 69, 70, 71, 72, 73, 74, 75, 76, 77, 78, 79, 80, 81, 82, 83, 84, 85, 86, 87, 88, 89, 90, 91, 92, 93, 94, 95, 96, 97, 98, 99, 100, 101, 102, 103, 104, 105, 106, 107, 108, 109, 110, 111, 112, 113, 114, 115, 116, 117, 118, 119, 120, 121, 122, 123, 124, 125, 126, 127, 128, 129, 130, 131, 132, 133, 134, 135, 136, 137, 138, 139, 140, 141, 142, 143, 144, 145, 146, 147, 148, 149, 150, 151, 152, 153, 154, 155, 156, 157, 158, 159, 160, 161, 162, 163, 164, 165, 166, 167, 168, 169, 170, 171, 172, 173, 174, 175, 176, 177, 178, 179, 180, 181, 182, 183, 184, 185, 186, 187, 188, 189, 190, 191, 192, 193, 194, 195, 196, 197, 198, 199, 200, 201, 202, 203, 204, 205, 206, 207, 208, 209, 210, 211, 212, 213, 214, 215, 216, 217, 218, 219, 220, 221, 222, 223, 224, 225, 226, 227, 228, 229, 230, 231, 232, 233, 234, 235, 236, 237, 238, 239, 240, 241, 242, 243, 244, 245, 246, 247, 248, 249, 250, 251, 252, 253, 254, 255, 256, 257, 258, 259, 260, 261, 262, 263, 264, 265, 266, 267, 268, 269, 270, 271, 272, 273, 274, 275, 276, 277, 278, 279, 280, 281, 282, 283, 284, 285, 286, 287, 288, 289, 290, 291, 292, 293, 294, 295, 296, 297, 298, 299, 300, 301, 302, 303, 304, 305, 306, 307, 308, 309, 310, 311, 312, 313, 314, 315, 316, 317, 318, 319, 320, 321, 322, 323, 324, 325, 326, 327, 328, 329, 330, 331, 332, 333, 334, 335, 336, 337, 338, 339, 340, 341, 342, 343, 344, 345, 346, 347, 348, 349, 350, 351, 352, 353, 354, 355, 356, 357, 358, 359, 360, 361, 362, 363, 364, 365, 366, 367, 368, 369, 370, 371, 372, 373, 374, 375, 376, 377, 378, 379, 380, 381, 382, 383, 384, 385, 386, 387, 388, 389, 390, 391, 392, 393, 394, 395, 396, 397, 398, 399, 400, 401, 402, 403, 404, 405, 406, 407, 408, 409, 410, 411, 412, 413, 414, 415, 416, 417, 418, 419, 420, 421, 422, 423, 424, 425, 426, 427, 428, 429, 430, 431, 432, 433, 434, 435, 436, 437, 438, 439, 440, 441, 442, 443, 444, 445, 446, 447, 448, 449, 450, 451, 452, 453, 454, 455, 456, 457, 458, 459, 460, 461, 462, 463, 464, 465, 466, 467, 468, 469, 470, 471, 472, 473, 474, 475, 476, 477, 478, 479, 480, 481, 482, 483, 484, 485, 486, 487, 488, 489, 490, 491, 492, 493, 494, 495, 496, 497, 498, 499, 500, 501, 502, 503, 504, 505, 506, 507, 508, 509, 510, 511, 512, 513, 514, 515, 516, 517, 518, 519, 520, 521, 522, 523, 524, 525, 526, 527, 528, 529, 530, 531, 532, 533, 534, 535, 536, 537, 538, 539, 540, 541, 542, 543, 544, 545, 546, 547, 548, 549, 550, 551, 552, 553, 554, 555, 556, 557, 558, 559, 560, 561, 562, 563, 564, 565, 566, 567, 568, 569, 570, 571, 572, 573, 574, 575, 576, 577, 578, 579, 580, 581, 582, 583, 584, 585, 586, 587, 588, 589, 590, 591, 592, 593, 594, 595, 596, 597, 598, 599, 600, 601, 602, 603, 604, 605, 606, 607, 608, 609, 610, 611, 612, 613, 614, 615, 616, 617, 618, 619, 620, 621, 622, 623, 624, 625, 626, 627, 628, 629, 630, 631, 632, 633, 634, 635, 636, 637, 638, 639, 640, 641, 642, 643, 644, 645, 646, 647, 648, 649, 650, 651, 652, 653, 654, 655, 656, 657, 658, 659, 660, 661, 662, 663, 664, 665, 666, 667, 668, 669, 670, 671, 672, 673, 674, 675, 676, 677, 678, 679, 680, 681, 682, 683, 684, 685, 686, 687, 688, 689, 690, 691, 692, 693, 694, 695, 696, 697, 698, 699, 700, 701, 702, 703, 704, 705, 706, 707, 708, 709, 710, 711, 712, 713, 714, 715, 716, 717, 718, 719, 720, 721, 722, 723, 724, 725, 726, 727, 728, 729, 730, 731, 732, 733, 734, 735, 736, 737, 738, 739, 740, 741, 742, 743, 744, 745, 746, 747, 748, 749, 750, 751, 752, 753, 754, 755, 756, 757, 758, 759, 760, 761, 762, 763, 764, 765, 766, 767, 768, 769, 770, 771, 772, 773, 774, 775, 776, 777, 778, 779, 780, 781, 782, 783, 784, 785, 786, 787, 788, 789, 790, 791, 792, 793, 794, 795, 796, 797, 798, 799, 800, 801, 802, 803, 804, 805, 806, 807, 808, 809, 810, 811, 812, 813, 814, 815, 816, 817, 818, 819, 820, 821, 822, 823, 824, 825, 826, 827, 828, 829, 830, 831, 832, 833, 834, 835, 836, 837, 838, 839, 840, 841, 842, 843, 844, 845, 846, 847, 848, 849, 850, 851, 852, 853, 854, 855, 856, 857, 858, 859, 860, 861, 862, 863, 864, 865, 866, 867, 868, 869, 870, 871, 872, 873, 874, 875, 876, 877, 878, 879, 880, 881, 882, 883, 884, 885, 886, 887, 888, 889, 890, 891, 892, 893, 894, 895, 896, 897, 898, 899, 900, 901, 902, 903, 904, 905, 906, 907, 908, 909, 910, 911, 912, 913, 914, 915, 916, 917, 918, 919, 920, 921, 922, 923, 924, 925, 926, 927, 928, 929, 930, 931, 932, 933, 934, 935, 936, 937, 938, 939, 940, 941, 942, 943, 944, 945, 946, 947, 948, 949, 950, 951, 952, 953, 954, 955, 956, 957, 958, 959, 960, 961, 962, 963, 964, 965, 966, 967],
      "AcquisitionTime": ["190022.465000", "190022.925000", "190023.385000", "190023.845000", "190024.305000", "190024.765000", "190025.225000", "190025.685000", "190026.145000", "190026.605000", "190027.065000", "190027.525000", "190027.985000", "190028.445000", "190028.905000", "190029.365000", "190029.825000", "190030.285000", "190030.745000", "190031.205000", "190031.665000", "190032.125000", "190032.585000", "190033.045000", "190033.505000", "190033.965000", "190034.425000", "190034.885000", "190035.345000", "190035.805000", "190036.265000", "190036.725000", "190037.185000", "190037.645000", "190038.105000", "190038.565000", "190039.025000", "190039.485000", "190039.945000", "190040.405000", "190040.865000", "190041.325000", "190041.785000", "190042.245000", "190042.705000", "190043.165000", "190043.625000", "190044.085000", "190044.545000", "190045.005000", "190045.465000", "190045.925000", "190046.385000", "190046.845000", "190047.305000", "190047.765000", "190048.225000", "190048.685000", "190049.145000", "190049.605000", "190050.065000", "190050.525000", "190050.985000", "190051.445000", "190051.905000", "190052.365000", "190052.825000", "190053.285000", "190053.745000", "190054.205000", "190054.665000", "190055.125000", "190055.585000", "190056.045000", "190056.505000", "190056.965000", "190057.425000", "190057.885000", "190058.345000", "190058.805000", "190059.265000", "190059.725000", "190100.185000", "190100.645000", "190101.105000", "190101.565000", "190102.025000", "190102.485000", "190102.945000", "190103.405000", "190103.865000", "190104.325000", "190104.785000", "190105.245000", "190105.705000", "190106.165000", "190106.625000", "190107.085000", "190107.545000", "190108.005000", "190108.465000", "190108.925000", "190109.385000", "190109.845000", "190110.305000", "190110.765000", "190111.225000", "190111.685000", "190112.145000", "190112.605000", "190113.065000", "190113.525000", "190113.985000", "190114.445000", "190114.905000", "190115.365000", "190115.825000", "190116.285000", "190116.745000", "190117.205000", "190117.665000", "190118.125000", "190118.585000", "190119.045000", "190119.505000", "190119.965000", "190120.425000", "190120.885000", "190121.345000", "190121.805000", "190122.265000", "190122.725000", "190123.185000", "190123.645000", "190124.105000", "190124.565000", "190125.025000", "190125.485000", "190125.945000", "190126.405000", "190126.865000", "190127.325000", "190127.785000", "190128.245000", "190128.705000", "190129.165000", "190129.625000", "190130.085000", "190130.545000", "190131.005000", "190131.465000", "190131.925000", "190132.385000", "190132.845000", "190133.305000", "190133.765000", "190134.225000", "190134.685000", "190135.145000", "190135.605000", "190136.065000", "190136.525000", "190136.985000", "190137.445000", "190137.905000", "190138.365000", "190138.825000", "190139.285000", "190139.745000", "190140.205000", "190140.665000", "190141.125000", "190141.585000", "190142.045000", "190142.505000", "190142.965000", "190143.425000", "190143.885000", "190144.345000", "190144.805000", "190145.265000", "190145.725000", "190146.185000", "190146.645000", "190147.105000", "190147.565000", "190148.025000", "190148.485000", "190148.945000", "190149.405000", "190149.865000", "190150.325000", "190150.785000", "190151.245000", "190151.705000", "190152.165000", "190152.625000", "190153.085000", "190153.545000", "190154.005000", "190154.465000", "190154.925000", "190155.385000", "190155.845000", "190156.305000", "190156.765000", "190157.225000", "190157.685000", "190158.145000", "190158.605000", "190159.065000", "190159.525000", "190159.985000", "190200.445000", "190200.905000", "190201.365000", "190201.825000", "190202.285000", "190202.745000", "190203.205000", "190203.665000", "190204.125000", "190204.585000", "190205.045000", "190205.505000", "190205.965000", "190206.425000", "190206.885000", "190207.345000", "190207.805000", "190208.265000", "190208.725000", "190209.185000", "190209.645000", "190210.105000", "190210.565000", "190211.025000", "190211.485000", "190211.945000", "190212.405000", "190212.865000", "190213.325000", "190213.785000", "190214.245000", "190214.705000", "190215.165000", "190215.625000", "190216.085000", "190216.545000", "190217.005000", "190217.465000", "190217.925000", "190218.385000", "190218.845000", "190219.305000", "190219.765000", "190220.225000", "190220.685000", "190221.145000", "190221.605000", "190222.065000", "190222.525000", "190222.985000", "190223.445000", "190223.905000", "190224.365000", "190224.825000", "190225.285000", "190225.745000", "190226.205000", "190226.665000", "190227.125000", "190227.585000", "190228.045000", "190228.505000", "190228.965000", "190229.425000", "190229.885000", "190230.345000", "190230.805000", "190231.265000", "190231.725000", "190232.185000", "190232.645000", "190233.105000", "190233.565000", "190234.025000", "190234.485000", "190234.945000", "190235.405000", "190235.865000", "190236.325000", "190236.785000", "190237.245000", "190237.705000", "190238.165000", "190238.625000", "190239.085000", "190239.545000", "190240.005000", "190240.465000", "190240.925000", "190241.385000", "190241.845000", "190242.305000", "190242.765000", "190243.225000", "190243.685000", "190244.145000", "190244.605000", "190245.065000", "190245.525000", "190245.985000", "190246.445000", "190246.905000", "190247.365000", "190247.825000", "190248.285000", "190248.745000", "190249.205000", "190249.665000", "190250.125000", "190250.585000", "190251.045000", "190251.505000", "190251.965000", "190252.425000", "190252.885000", "190253.345000", "190253.805000", "190254.265000", "190254.725000", "190255.185000", "190255.645000", "190256.105000", "190256.565000", "190257.025000", "190257.485000", "190257.945000", "190258.405000", "190258.865000", "190259.325000", "190259.785000", "190300.245000", "190300.705000", "190301.165000", "190301.625000", "190302.085000", "190302.545000", "190303.005000", "190303.465000", "190303.925000", "190304.385000", "190304.845000", "190305.305000", "190305.765000", "190306.225000", "190306.685000", "190307.145000", "190307.605000", "190308.065000", "190308.525000", "190308.985000", "190309.445000", "190309.905000", "190310.365000", "190310.825000", "190311.285000", "190311.745000", "190312.205000", "190312.665000", "190313.125000", "190313.585000", "190314.045000", "190314.505000", "190314.965000", "190315.425000", "190315.885000", "190316.345000", "190316.805000", "190317.265000", "190317.725000", "190318.185000", "190318.645000", "190319.105000", "190319.565000", "190320.025000", "190320.485000", "190320.945000", "190321.405000", "190321.865000", "190322.325000", "190322.785000", "190323.245000", "190323.705000", "190324.165000", "190324.625000", "190325.085000", "190325.545000", "190326.005000", "190326.465000", "190326.925000", "190327.385000", "190327.845000", "190328.305000", "190328.765000", "190329.225000", "190329.685000", "190330.145000", "190330.605000", "190331.065000", "190331.525000", "190331.985000", "190332.445000", "190332.905000", "190333.365000", "190333.825000", "190334.285000", "190334.745000", "190335.205000", "190335.665000", "190336.125000", "190336.585000", "190337.045000", "190337.505000", "190337.965000", "190338.425000", "190338.885000", "190339.345000", "190339.805000", "190340.265000", "190340.725000", "190341.185000", "190341.645000", "190342.105000", "190342.565000", "190343.025000", "190343.485000", "190343.945000", "190344.405000", "190344.865000", "190345.325000", "190345.785000", "190346.245000", "190346.705000", "190347.165000", "190347.625000", "190348.085000", "190348.545000", "190349.005000", "190349.465000", "190349.925000", "190350.385000", "190350.845000", "190351.305000", "190351.765000", "190352.225000", "190352.685000", "190353.145000", "190353.605000", "190354.065000", "190354.525000", "190354.985000", "190355.445000", "190355.905000", "190356.365000", "190356.825000", "190357.285000", "190357.745000", "190358.205000", "190358.665000", "190359.125000", "190359.585000", "190400.045000", "190400.505000", "190400.965000", "190401.425000", "190401.885000", "190402.345000", "190402.805000", "190403.265000", "190403.725000", "190404.185000", "190404.645000", "190405.105000", "190405.565000", "190406.025000", "190406.485000", "190406.945000", "190407.405000", "190407.865000", "190408.325000", "190408.785000", "190409.245000", "190409.705000", "190410.165000", "190410.625000", "190411.085000", "190411.545000", "190412.005000", "190412.465000", "190412.925000", "190413.385000", "190413.845000", "190414.305000", "190414.765000", "190415.225000", "190415.685000", "190416.145000", "190416.605000", "190417.065000", "190417.525000", "190417.985000", "190418.445000", "190418.905000", "190419.365000", "190419.825000", "190420.285000", "190420.745000", "190421.205000", "190421.665000", "190422.125000", "190422.585000", "190423.045000", "190423.505000", "190423.965000", "190424.425000", "190424.885000", "190425.345000", "190425.805000", "190426.265000", "190426.725000", "190427.185000", "190427.645000", "190428.105000", "190428.565000", "190429.025000", "190429.485000", "190429.945000", "190430.405000", "190430.865000", "190431.325000", "190431.785000", "190432.245000", "190432.705000", "190433.165000", "190433.625000", "190434.085000", "190434.545000", "190435.005000", "190435.465000", "190435.925000", "190436.385000", "190436.845000", "190437.305000", "190437.765000", "190438.225000", "190438.685000", "190439.145000", "190439.605000", "190440.065000", "190440.525000", "190440.985000", "190441.445000", "190441.905000", "190442.365000", "190442.825000", "190443.285000", "190443.745000", "190444.205000", "190444.665000", "190445.125000", "190445.585000", "190446.045000", "190446.505000", "190446.965000", "190447.425000", "190447.885000", "190448.345000", "190448.805000", "190449.265000", "190449.725000", "190450.185000", "190450.645000", "190451.105000", "190451.565000", "190452.025000", "190452.485000", "190452.945000", "190453.405000", "190453.865000", "190454.325000", "190454.785000", "190455.245000", "190455.705000", "190456.165000", "190456.625000", "190457.085000", "190457.545000", "190458.005000", "190458.465000", "190458.925000", "190459.385000", "190459.845000", "190500.305000", "190500.765000", "190501.225000", "190501.685000", "190502.145000", "190502.605000", "190503.065000", "190503.525000", "190503.985000", "190504.445000", "190504.905000", "190505.365000", "190505.825000", "190506.285000", "190506.745000", "190507.205000", "190507.665000", "190508.125000", "190508.585000", "190509.045000", "190509.505000", "190509.965000", "190510.425000", "190510.885000", "190511.345000", "190511.805000", "190512.265000", "190512.725000", "190513.185000", "190513.645000", "190514.105000", "190514.565000", "190515.025000", "190515.485000", "190515.945000", "190516.405000", "190516.865000", "190517.325000", "190517.785000", "190518.245000", "190518.705000", "190519.165000", "190519.625000", "190520.085000", "190520.545000", "190521.005000", "190521.465000", "190521.925000", "190522.385000", "190522.845000", "190523.305000", "190523.765000", "190524.225000", "190524.685000", "190525.145000", "190525.605000", "190526.065000", "190526.525000", "190526.985000", "190527.445000", "190527.905000", "190528.365000", "190528.825000", "190529.285000", "190529.745000", "190530.205000", "190530.665000", "190531.125000", "190531.585000", "190532.045000", "190532.505000", "190532.965000", "190533.425000", "190533.885000", "190534.345000", "190534.805000", "190535.265000", "190535.725000", "190536.185000", "190536.645000", "190537.105000", "190537.565000", "190538.025000", "190538.485000", "190538.945000", "190539.405000", "190539.865000", "190540.325000", "190540.785000", "190541.245000", "190541.705000", "190542.165000", "190542.625000", "190543.085000", "190543.545000", "190544.005000", "190544.465000", "190544.925000", "190545.385000", "190545.845000", "190546.305000", "190546.765000", "190547.225000", "190547.685000", "190548.145000", "190548.605000", "190549.065000", "190549.525000", "190549.985000", "190550.445000", "190550.905000", "190551.365000", "190551.825000", "190552.285000", "190552.745000", "190553.205000", "190553.665000", "190554.125000", "190554.585000", "190555.045000", "190555.505000", "190555.965000", "190556.425000", "190556.885000", "190557.345000", "190557.805000", "190558.265000", "190558.725000", "190559.185000", "190559.645000", "190600.105000", "190600.565000", "190601.025000", "190601.485000", "190601.945000", "190602.405000", "190602.865000", "190603.325000", "190603.785000", "190604.245000", "190604.705000", "190605.165000", "190605.625000", "190606.085000", "190606.545000", "190607.005000", "190607.465000", "190607.925000", "190608.385000", "190608.845000", "190609.305000", "190609.765000", "190610.225000", "190610.685000", "190611.145000", "190611.605000", "190612.065000", "190612.525000", "190612.985000", "190613.445000", "190613.905000", "190614.365000", "190614.825000", "190615.285000", "190615.745000", "190616.205000", "190616.665000", "190617.125000", "190617.585000", "190618.045000", "190618.505000", "190618.965000", "190619.425000", "190619.885000", "190620.345000", "190620.805000", "190621.265000", "190621.725000", "190622.185000", "190622.645000", "190623.105000", "190623.565000", "190624.025000", "190624.485000", "190624.945000", "190625.405000", "190625.865000", "190626.325000", "190626.785000", "190627.245000", "190627.705000", "190628.165000", "190628.625000", "190629.085000", "190629.545000", "190630.005000", "190630.465000", "190630.925000", "190631.385000", "190631.845000", "190632.305000", "190632.765000", "190633.225000", "190633.685000", "190634.145000", "190634.605000", "190635.065000", "190635.525000", "190635.985000", "190636.445000", "190636.905000", "190637.365000", "190637.825000", "190638.285000", "190638.745000", "190639.205000", "190639.665000", "190640.125000", "190640.585000", "190641.045000", "190641.505000", "190641.965000", "190642.425000", "190642.885000", "190643.345000", "190643.805000", "190644.265000", "190644.725000", "190645.185000", "190645.645000", "190646.105000", "190646.565000", "190647.025000", "190647.485000", "190647.945000", "190648.405000", "190648.865000", "190649.325000", "190649.785000", "190650.245000", "190650.705000", "190651.165000", "190651.625000", "190652.085000", "190652.545000", "190653.005000", "190653.465000", "190653.925000", "190654.385000", "190654.845000", "190655.305000", "190655.765000", "190656.225000", "190656.685000", "190657.145000", "190657.605000", "190658.065000", "190658.525000", "190658.985000", "190659.445000", "190659.905000", "190700.365000", "190700.825000", "190701.285000", "190701.745000", "190702.205000", "190702.665000", "190703.125000", "190703.585000", "190704.045000", "190704.505000", "190704.965000", "190705.425000", "190705.885000", "190706.345000", "190706.805000", "190707.265000", "190707.725000", "190708.185000", "190708.645000", "190709.105000", "190709.565000", "190710.025000", "190710.485000", "190710.945000", "190711.405000", "190711.865000", "190712.325000", "190712.785000", "190713.245000", "190713.705000", "190714.165000", "190714.625000", "190715.085000", "190715.545000", "190716.005000", "190716.465000", "190716.925000", "190717.385000", "190717.845000", "190718.305000", "190718.765000", "190719.225000", "190719.685000", "190720.145000", "190720.605000", "190721.065000", "190721.525000", "190721.985000", "190722.445000", "190722.905000", "190723.365000", "190723.825000", "190724.285000", "190724.745000", "190725.205000", "190725.665000", "190726.125000", "190726.585000", "190727.045000", "190727.505000", "190727.965000", "190728.425000", "190728.885000", "190729.345000", "190729.805000", "190730.265000", "190730.725000", "190731.185000", "190731.645000", "190732.105000", "190732.565000", "190733.025000", "190733.485000", "190733.945000", "190734.405000", "190734.865000", "190735.325000", "190735.785000", "190736.245000", "190736.705000", "190737.165000", "190737.625000", "190738.085000", "190738.545000", "190739.005000", "190739.465000", "190739.925000", "190740.385000", "190740.845000", "190741.305000", "190741.765000", "190742.225000", "190742.685000", "190743.145000", "190743.605000", "190744.065000", "190744.525000", "190744.985000", "190745.445000", "190745.905000", "190746.365000", "190746.825000"],
