{
  "AcquisitionMatrixPE": 140,
  "AcquisitionNumber": 1,
  "AcquisitionTime": "19:37:1.060000",
  "BandwidthPerPixelPhaseEncode": 10.352,
  "BaseResolution": 140,
  "BodyPartExamined": "BRAIN",
  "ConsistencyInfo": "N4_VE11E_LATEST_20181129",
  "ConversionSoftware": "dcm2niix",
  "ConversionSoftwareVersion": "v1.0.20201102",
  "DerivedVendorReportedEchoSpacing": 0.000689998,
  "DeviceSerialNumber": "66112",
  "DiffusionScheme": "Monopolar",
  "DwellTime": 2.1e-06,
  "EchoTime": 0.0884,
  "EchoTrainLength": 105,
  "EffectiveEchoSpacing": 0.000689998,
  "FlipAngle": 90,
  "ImageComments": "Unaliased MB3/PE3 SENSE1",
  "ImageOrientationPatientDICOM": [0.998661, -0.0271294, 0.0440465, 0.0106326, 0.940919, 0.338465],
  "ImageType": [
    "ORIGINAL",
    "PRIMARY",
    "DIFFUSION",
    "NONE",
    "MB",
    "ND",
    "MOSAIC"
],
  "ImagingFrequency": 123.259,
  "InPlanePhaseEncodingDirectionDICOM": "COL",
  "InstitutionAddress": "Maynard 3,Hanover,NH,US,03755",
  "InstitutionName": "Dartmouth College - PBS",
  "InstitutionalDepartmentName": "Department",
  "MRAcquisitionType": "2D",
  "MagneticFieldStrength": 3,
  "Manufacturer": "Siemens",
  "ManufacturersModelName": "Prisma",
  "Modality": "MR",
  "MultibandAccelerationFactor": 3,
  "PartialFourier": 0.75,
  "PatientPosition": "HFS",
  "PercentPhaseFOV": 100,
  "PercentSampling": 100,
  "PhaseEncodingDirection": "j-",
  "PhaseEncodingSteps": 105,
  "PhaseResolution": 1,
  "PixelBandwidth": 1700,
  "ProcedureStepDescription": "Wager_Wager^1076_spacetop",
  "ProtocolName": "dwi_acq-96dir-6b0-mb",
  "PulseSequenceDetails": "%CustomerSeq%\\cmrr_mbep2d_diff",
  "ReceiveCoilActiveElements": "HEA;HEP",
  "ReceiveCoilName": "Head_32",
  "ReconMatrixPE": 140,
  "RepetitionTime": 4.11,
  "SAR": 0.218855,
  "ScanOptions": "PFP\\FS",
  "ScanningSequence": "EP",
  "SequenceName": "ep_b5#1",
  "SequenceVariant": "SK\\SS",
  "SeriesDescription": "dwi_acq-96dir-6b0-mb",
  "SeriesNumber": 8,
  "ShimSetting": [4246, -7813, -7256, 294, -165, -14, 116, 96],
  "SliceThickness": 1.7,
  "SliceTiming": [0, 2.12, 0.1525, 2.2725, 0.3025, 2.425, 0.455, 2.575, 0.6075, 2.7275, 0.7575, 2.8775, 0.91, 3.03, 1.06, 3.1825, 1.2125, 3.3325, 1.3625, 3.485, 1.515, 3.635, 1.6675, 3.7875, 1.8175, 3.94, 1.97, 0, 2.12, 0.1525, 2.2725, 0.3025, 2.425, 0.455, 2.575, 0.6075, 2.7275, 0.7575, 2.8775, 0.91, 3.03, 1.06, 3.1825, 1.2125, 3.3325, 1.3625, 3.485, 1.515, 3.635, 1.6675, 3.7875, 1.8175, 3.94, 1.97, 0, 2.12, 0.1525, 2.2725, 0.3025, 2.425, 0.455, 2.575, 0.6075, 2.7275, 0.7575, 2.8775, 0.91, 3.03, 1.06, 3.1825, 1.2125, 3.3325, 1.3625, 3.485, 1.515, 3.635, 1.6675, 3.7875, 1.8175, 3.94, 1.97],
  "SoftwareVersions": "syngo MR E11",
  "SpacingBetweenSlices": 1.7,
  "StationName": "AWP66112",
  "TotalReadoutTime": 0.0959097,
  "TxRefAmp": 219.13,
  "WipMemBlock": "a095663f-6687-4d23-9a6a-40144e2bfdbb||Sequence: R016 ve11e/master r/434b28f1; Aug  7 2019 19:06:17 by eja",
  "dcmmeta_affine": [
    [-1.7119903564453125, 0.018227333202958107, 0.08606504648923874, 116.50575256347656],
    [0.04650755226612091, 1.6130037307739258, 0.573824405670166, -102.98092651367188],
    [0.07550820708274841, -0.5802261829376221, 1.5979106426239014, -23.57554817199707],
    [0.0, 0.0, 0.0, 1.0]
],
  "dcmmeta_reorient_transform": [
    [0.0, -1.0, 0.0, 139.0],
    [1.0, 0.0, 0.0, 0.0],
    [0.0, 0.0, 1.0, 0.0],
    [0.0, 0.0, 0.0, 1.0]
],
  "dcmmeta_shape": [140, 140, 81, 103],
  "dcmmeta_slice_dim": 2,
  "dcmmeta_version": 0.6,
  "global": {
    "const": {
      "AccessionNumber": "A004774",
      "AcquisitionMatrix": [140, 0, 0, 140],
      "AngioFlag": "N",
      "BitsAllocated": 16,
      "BitsStored": 16,
      "BodyPartExamined": "BRAIN",
      "Columns": 1260,
      "EchoNumbers": 1,
      "EchoTime": 88.4,
      "EchoTrainLength": 105,
      "FlipAngle": 90.0,
      "HighBit": 15,
      "ImageOrientationPatient": [0.99866105626897, -0.0271294060789, 0.04404645295075, 0.01063261067431, 0.94091881278523, 0.33846526459458],
      "ImagePositionPatient": [-1087.9612834472, -998.46442936014, -471.43823964978],
      "ImageType": [
        "ORIGINAL",
        "PRIMARY",
        "DIFFUSION",
        "NONE",
        "MB",
        "ND",
        "MOSAIC"
],
      "ImagedNucleus": "1H",
      "ImagingFrequency": 123.25907,
      "InPlanePhaseEncodingDirection": "COL",
      "MRAcquisitionType": "2D",
      "MagneticFieldStrength": 3.0,
      "Manufacturer": "SIEMENS",
      "ManufacturerModelName": "Prisma",
      "Modality": "MR",
      "NumberOfAverages": 1.0,
      "NumberOfPhaseEncodingSteps": 105,
      "PercentPhaseFieldOfView": 100.0,
      "PercentSampling": 100.0,
      "PerformedProcedureStepStartTime": "190842.696000",
      "PhotometricInterpretation": "MONOCHROME2",
      "PixelBandwidth": 1700.0,
      "PixelRepresentation": 0,
      "PixelSpacing": [1.7142857313156, 1.7142857313156],
      "ProtocolName": "dwi_acq-96dir-6b0-mb",
      "RepetitionTime": 4110.0,
      "Rows": 1260,
      "SAR": 0.21885510002877,
      "SamplesPerPixel": 1,
      "ScanOptions": [
        "PFP",
        "FS"
],
      "ScanningSequence": "EP",
      "SequenceVariant": [
        "SK",
        "SS"
],
      "SeriesDescription": "dwi_acq-96dir-6b0-mb",
      "SeriesNumber": 8,
      "SeriesTime": "193827.087000",
      "SliceLocation": -51.022065493381,
      "SliceThickness": 1.7000000476837,
      "SmallestImagePixelValue": 0,
      "SoftwareVersions": "syngo MR E11",
      "SpacingBetweenSlices": 1.70000000641,
      "SpecificCharacterSet": "ISO_IR 100",
      "StudyID": "1",
      "StudyTime": "190842.597000",
      "TransmitCoilName": "Body",
      "VariableFlipAngleFlag": "N",
      "WindowCenterWidthExplanation": "Algo1"
    },
    "slices": {}
  },
  "time": {
    "samples": {
      "AcquisitionNumber": [1, 2, 3, 4, 5, 6, 7, 8, 9, 10, 11, 12, 13, 14, 15, 16, 17, 18, 19, 20, 21, 22, 23, 24, 25, 26, 27, 28, 29, 30, 31, 32, 33, 34, 35, 36, 37, 38, 39, 40, 41, 42, 43, 44, 45, 46, 47, 48, 49, 50, 51, 52, 53, 54, 55, 56, 57, 58, 59, 60, 61, 62, 63, 64, 65, 66, 67, 68, 69, 70, 71, 72, 73, 74, 75, 76, 77, 78, 79, 80, 81, 82, 83, 84, 85, 86, 87, 88, 89, 90, 91, 92, 93, 94, 95, 96, 97, 98, 99, 100, 101, 102, 103],
      "AcquisitionTime": ["193701.060000", "193705.170000", "193709.280000", "193713.390000", "193717.500000", "193721.610000", "193725.720000", "193729.830000", "193733.940000", "193738.050000", "193742.160000", "193746.270000", "193750.380000", "193754.490000", "193758.600000", "193802.710000", "193806.820000", "193810.930000", "193815.040000", "193819.150000", "193823.260000", "193827.370000", "193831.480000", "193835.590000", "193839.700000", "193843.810000", "193847.920000", "193852.030000", "193856.140000", "193900.250000", "193904.360000", "193908.470000", "193912.580000", "193916.690000", "193920.800000", "193924.910000", "193929.020000", "193933.130000", "193937.240000", "193941.350000", "193945.460000", "193949.570000", "193953.680000", "193957.790000", "194001.900000", "194006.010000", "194010.120000", "194014.230000", "194018.340000", "194022.450000", "194026.560000", "194030.670000", "194034.780000", "194038.890000", "194043.000000", "194047.110000", "194051.220000", "194055.330000", "194059.440000", "194103.550000", "194107.660000", "194111.770000", "194115.880000", "194119.990000", "194124.100000", "194128.210000", "194132.320000", "194136.430000", "194140.540000", "194144.650000", "194148.760000", "194152.870000", "194156.980000", "194201.090000", "194205.200000", "194209.310000", "194213.420000", "194217.530000", "194221.640000", "194225.750000", "194229.860000", "194233.970000", "194238.080000", "194242.190000", "194246.300000", "194250.410000", "194254.520000", "194258.630000", "194302.740000", "194306.850000", "194310.960000", "194315.070000", "194319.180000", "194323.290000", "194327.400000", "194331.510000", "194335.620000", "194339.730000", "194343.840000", "194347.950000", "194352.060000", "194356.170000", "194400.280000"],
      "ContentTime": ["193827.091000", "193827.095000", "193827.098000", "193827.101000", "193827.104000", "193827.107000", "193827.110000", "193827.113000", "193827.116000", "193827.119000", "193827.122000", "193827.125000", "193827.128000", "193827.131000", "193827.133000", "193827.136000", "193827.145000", "193827.148000", "193827.151000", "193827.154000", "193947.086000", "193947.089000", "193947.092000", "193947.102000", "193947.105000", "193947.108000", "193947.111000", "193947.114000", "193947.117000", "193947.119000", "193947.122000", "193947.141000", "193947.144000", "193947.147000", "193947.150000", "193947.153000", "193947.156000", "193947.159000", "193947.162000", "193947.165000", "194047.086000", "194047.089000", "194047.092000", "194047.095000", "194047.098000", "194047.101000", "194047.104000", "194047.107000", "194047.110000", "194047.113000", "194047.116000", "194047.119000", "194047.122000", "194047.125000", "194207.086000", "194207.089000", "194207.092000", "194207.095000", "194207.098000", "194207.101000", "194207.104000", "194207.107000", "194207.110000", "194207.113000", "194207.116000", "194207.119000", "194207.122000", "194207.125000", "194207.128000", "194207.131000", "194207.134000", "194207.137000", "194207.140000", "194207.143000", "194347.086000", "194347.089000", "194347.092000", "194347.095000", "194347.098000", "194347.101000", "194347.104000", "194347.107000", "194347.110000", "194347.113000", "194347.116000", "194347.119000", "194347.122000", "194347.125000", "194347.128000", "194347.131000", "194347.134000", "194347.137000", "194347.140000", "194347.143000", "194347.146000", "194347.149000", "194347.152000", "194347.155000", "194405.259000", "194405.262000", "194405.266000", "194405.269000", "194405.272000"],
      "InstanceCreationTime": ["193827.091000", "193827.095000", "193827.098000", "193827.101000", "193827.104000", "193827.107000", "193827.110000", "193827.113000", "193827.116000", "193827.119000", "193827.122000", "193827.125000", "193827.128000", "193827.131000", "193827.133000", "193827.136000", "193827.145000", "193827.148000", "193827.151000", "193827.154000", "193947.086000", "193947.089000", "193947.092000", "193947.102000", "193947.105000", "193947.108000", "193947.111000", "193947.114000", "193947.117000", "193947.119000", "193947.122000", "193947.141000", "193947.144000", "193947.147000", "193947.150000", "193947.153000", "193947.156000", "193947.159000", "193947.162000", "193947.165000", "194047.086000", "194047.089000", "194047.092000", "194047.095000", "194047.098000", "194047.101000", "194047.104000", "194047.107000", "194047.110000", "194047.113000", "194047.116000", "194047.119000", "194047.122000", "194047.125000", "194207.086000", "194207.089000", "194207.092000", "194207.095000", "194207.098000", "194207.101000", "194207.104000", "194207.107000", "194207.110000", "194207.113000", "194207.116000", "194207.119000", "194207.122000", "194207.125000", "194207.128000", "194207.131000", "194207.134000", "194207.137000", "194207.140000", "194207.143000", "194347.086000", "194347.089000", "194347.092000", "194347.095000", "194347.098000", "194347.101000", "194347.104000", "194347.107000", "194347.110000", "194347.113000", "194347.116000", "194347.119000", "194347.122000", "194347.125000", "194347.128000", "194347.131000", "194347.134000", "194347.137000", "194347.140000", "194347.143000", "194347.146000", "194347.149000", "194347.152000", "194347.155000", "194405.259000", "194405.262000", "194405.266000", "194405.269000", "194405.272000"],
      "InstanceNumber": [1, 2, 3, 4, 5, 6, 7, 8, 9, 10, 11, 12, 13, 14, 15, 16, 17, 18, 19, 20, 21, 22, 23, 24, 25, 26, 27, 28, 29, 30, 31, 32, 33, 34, 35, 36, 37, 38, 39, 40, 41, 42, 43, 44, 45, 46, 47, 48, 49, 50, 51, 52, 53, 54, 55, 56, 57, 58, 59, 60, 61, 62, 63, 64, 65, 66, 67, 68, 69, 70, 71, 72, 73, 74, 75, 76, 77, 78, 79, 80, 81, 82, 83, 84, 85, 86, 87, 88, 89, 90, 91, 92, 93, 94, 95, 96, 97, 98, 99, 100, 101, 102, 103],
      "LargestImagePixelValue": [65535, 65535, 50746, 51822, 51456, 52276, 49334, 52225, 65535, 31813, 34759, 36319, 33197, 36327, 33680, 35375, 35178, 33150, 30864, 32784, 35315, 34582, 35107, 35966, 65535, 16747, 17175, 18128, 17409, 19326, 19003, 15421, 19638, 16662, 18525, 17058, 16444, 16976, 17197, 16687, 65535, 12206, 10441, 10865, 12139, 9823, 9733, 11694, 9688, 11390, 10278, 10521, 10993, 12209, 9930, 9635, 15334, 8786, 10992, 11351, 9547, 10878, 10342, 9172, 8582, 10162, 10591, 9532, 11994, 11050, 12138, 9315, 11388, 65535, 12228, 10063, 10065, 8798, 9576, 9564, 9863, 10937, 9999, 12387, 10366, 12553, 11257, 10303, 10358, 11010, 12353, 9163, 9280, 10581, 10134, 13191, 8970, 8760, 12003, 8761, 12080, 9563, 65535],
      "SequenceName": [
 "ep_b5#1",
 "ep_b5#1",
 "ep_b500#2",
 "ep_b500#3",
 "ep_b500#4",
 "ep_b505#5",
 "ep_b495#6",
 "ep_b500#7",
 "ep_b5#8",
 "ep_b1000#9",
 "ep_b1005#10",
 "ep_b1000#11",
 "ep_b1005#12",
 "ep_b995#13",
 "ep_b995#14",
 "ep_b1005#15",
 "ep_b1000#16",
 "ep_b1000#17",
 "ep_b995#18",
 "ep_b1000#19",
 "ep_b995#20",
 "ep_b1000#21",
 "ep_b1005#22",
 "ep_b1005#23",
 "ep_b5#24",
 "ep_b2000#25",
 "ep_b2000#26",
 "ep_b1995#27",
 "ep_b1995#28",
 "ep_b2005#29",
 "ep_b2010#30",
 "ep_b2005#31",
 "ep_b2005#32",
 "ep_b1995#33",
 "ep_b1990#34",
 "ep_b1995#35",
 "ep_b2005#36",
 "ep_b2000#37",
 "ep_b2010#38",
 "ep_b2000#39",
 "ep_b5#40",
 "ep_b3000#41",
 "ep_b3005#42",
 "ep_b3010#43",
 "ep_b3010#44",
 "ep_b2995#45",
 "ep_b2995#46",
 "ep_b2990#47",
 "ep_b3000#48",
 "ep_b3000#49",
 "ep_b2990#50",
 "ep_b2990#51",
 "ep_b2995#52",
 "ep_b2995#53",
 "ep_b3010#54",
 "ep_b3000#55",
 "ep_b2995#56",
 "ep_b3000#57",
 "ep_b2990#58",
 "ep_b2990#59",
 "ep_b3005#60",
 "ep_b2995#61",
 "ep_b2990#62",
 "ep_b2995#63",
 "ep_b3005#64",
 "ep_b3010#65",
 "ep_b3000#66",
 "ep_b3005#67",
 "ep_b3010#68",
 "ep_b3005#69",
 "ep_b3005#70",
 "ep_b3010#71",
 "ep_b2990#72",
 "ep_b5#73",
 "ep_b3010#74",
 "ep_b3000#75",
 "ep_b3005#76",
 "ep_b3005#77",
 "ep_b2995#78",
 "ep_b3000#79",
 "ep_b3000#80",
 "ep_b3010#81",
 "ep_b3010#82",
 "ep_b3005#83",
 "ep_b3000#84",
 "ep_b3005#85",
 "ep_b3005#86",
 "ep_b3005#87",
 "ep_b2990#88",
 "ep_b3010#89",
 "ep_b2990#90",
 "ep_b3000#91",
 "ep_b2995#92",
 "ep_b2995#93",
 "ep_b3005#94",
 "ep_b3005#95",
 "ep_b2990#96",
 "ep_b3005#97",
 "ep_b2990#98",
 "ep_b3000#99",
 "ep_b3000#100",
 "ep_b2990#101",
 "ep_b5#102"
],
      "WindowCenter": [10982.0, 10977.0, 7811.0, 7817.0, 7776.0, 7776.0, 7846.0, 7834.0, 10968.0, 5863.0, 5818.0, 5858.0, 5811.0, 5837.0, 5847.0, 5825.0, 5908.0, 5856.0, 5839.0, 5805.0, 5922.0, 5835.0, 5873.0, 5871.0, 10979.0, 3728.0, 3668.0, 3680.0, 3771.0, 3717.0, 3703.0, 3660.0, 3724.0, 3754.0, 3743.0, 3695.0, 3645.0, 3685.0, 3694.0, 3678.0, 10962.0, 2631.0, 2552.0, 2597.0, 2615.0, 2566.0, 2568.0, 2620.0, 2519.0, 2571.0, 2513.0, 2552.0, 2575.0, 2624.0, 2551.0, 2512.0, 2677.0, 2486.0, 2595.0, 2576.0, 2509.0, 2563.0, 2589.0, 2544.0, 2509.0, 2562.0, 2533.0, 2518.0, 2608.0, 2587.0, 2608.0, 2531.0, 2619.0, 10924.0, 2601.0, 2576.0, 2516.0, 2466.0, 2504.0, 2519.0, 2519.0, 2538.0, 2552.0, 2592.0, 2576.0, 2617.0, 2560.0, 2527.0, 2556.0, 2549.0, 2646.0, 2495.0, 2490.0, 2602.0, 2546.0, 2656.0, 2551.0, 2464.0, 2618.0, 2457.0, 2591.0, 2551.0, 10928.0],
      "WindowWidth": [25554.0, 25536.0, 16527.0, 16522.0, 16428.0, 16465.0, 16608.0, 16559.0, 25495.0, 12523.0, 12470.0, 12504.0, 12446.0, 12491.0, 12509.0, 12467.0, 12584.0, 12527.0, 12464.0, 12411.0, 12634.0, 12472.0, 12557.0, 12514.0, 25538.0, 8377.0, 8268.0, 8284.0, 8449.0, 8357.0, 8317.0, 8271.0, 8371.0, 8435.0, 8405.0, 8315.0, 8239.0, 8289.0, 8310.0, 8286.0, 25455.0, 6252.0, 6101.0, 6194.0, 6202.0, 6174.0, 6184.0, 6225.0, 6058.0, 6151.0, 6011.0, 6078.0, 6173.0, 6253.0, 6128.0, 6062.0, 6323.0, 6012.0, 6175.0, 6121.0, 6051.0, 6106.0, 6197.0, 6139.0, 6084.0, 6139.0, 6086.0, 6090.0, 6211.0, 6189.0, 6216.0, 6111.0, 6217.0, 25324.0, 6168.0, 6184.0, 6042.0, 5992.0, 6010.0, 6061.0, 6054.0, 6065.0, 6134.0, 6177.0, 6177.0, 6223.0, 6101.0, 6053.0, 6106.0, 6077.0, 6280.0, 6008.0, 5981.0, 6226.0, 6109.0, 6296.0, 6171.0, 5985.0, 6208.0, 5949.0, 6174.0, 6133.0, 25329.0]
    },
    "slices": {}
  }
}