{
  "AcquisitionMatrixPE": 82,
  "AcquisitionNumber": 1,
  "AcquisitionTime": "11:08:43.942500",
  "BandwidthPerPixelPhaseEncode": 24.888,
  "BaseResolution": 82,
  "BodyPartExamined": "BRAIN",
  "ConsistencyInfo": "N4_VE11C_LATEST_20160120",
  "ConversionSoftware": "dcm2niix",
  "ConversionSoftwareVersion": "v1.0.20201102",
  "DerivedVendorReportedEchoSpacing": 0.00049,
  "DeviceSerialNumber": "66112",
  "DwellTime": 2e-06,
  "EchoTime": 0.0272,
  "EchoTrainLength": 82,
  "EffectiveEchoSpacing": 0.00049,
  "FlipAngle": 44,
  "ImageComments": "Unaliased MB8/PE3",
  "ImageOrientationPatientDICOM": [0.995589, -0.0330429, 0.087816, 0.0234623, 0.993877, 0.107973],
  "ImageType": [
    "ORIGINAL",
    "PRIMARY",
    "M",
    "MB",
    "ND",
    "NORM",
    "MOSAIC"
],
  "ImagingFrequency": 123.252,
  "InPlanePhaseEncodingDirectionDICOM": "COL",
  "InstitutionAddress": "Maynard 3,Hanover,NH,US,03755",
  "InstitutionName": "Dartmouth College - PBS",
  "InstitutionalDepartmentName": "Department",
  "MRAcquisitionType": "2D",
  "MagneticFieldStrength": 3,
  "Manufacturer": "Siemens",
  "ManufacturersModelName": "Prisma",
  "Modality": "MR",
  "MultibandAccelerationFactor": 8,
  "PartialFourier": 1,
  "PatientPosition": "HFS",
  "PercentPhaseFOV": 100,
  "PercentSampling": 100,
  "PhaseEncodingDirection": "j-",
  "PhaseEncodingSteps": 82,
  "PhaseResolution": 1,
  "PixelBandwidth": 3050,
  "ProcedureStepDescription": "Wager_Wager^1076_spacetop",
  "ProtocolName": "func_run-03_task-alignvideo_acq-ap-mb8",
  "PulseSequenceDetails": "%CustomerSeq%\\cmrr_mbep2d_bold",
  "ReceiveCoilActiveElements": "HEA;HEP",
  "ReceiveCoilName": "Head_32",
  "ReconMatrixPE": 82,
  "RepetitionTime": 0.46,
  "SAR": 0.0908058,
  "ScanOptions": "FS",
  "ScanningSequence": "EP",
  "SequenceName": "epfid2d1_82",
  "SequenceVariant": "SK\\SS",
  "SeriesDescription": "func_run-03_task-alignvideo_acq-ap-mb8",
  "SeriesNumber": 32,
  "ShimSetting": [4163, -7745, -7248, 686, -27, -201, -33, 13],
  "SliceThickness": 2.7,
  "SliceTiming": [0, 0.2525, 0.0625, 0.315, 0.125, 0.3775, 0.1875, 0, 0.2525, 0.0625, 0.315, 0.125, 0.3775, 0.1875, 0, 0.2525, 0.0625, 0.315, 0.125, 0.3775, 0.1875, 0, 0.2525, 0.0625, 0.315, 0.125, 0.3775, 0.1875, 0, 0.2525, 0.0625, 0.315, 0.125, 0.3775, 0.1875, 0, 0.2525, 0.0625, 0.315, 0.125, 0.3775, 0.1875, 0, 0.2525, 0.0625, 0.315, 0.125, 0.3775, 0.1875, 0, 0.2525, 0.0625, 0.315, 0.125, 0.3775, 0.1875],
  "SoftwareVersions": "syngo MR E11",
  "SpacingBetweenSlices": 2.7,
  "StationName": "AWP66112",
  "TaskName": "alignvideo",
  "TotalReadoutTime": 0.03969,
  "TxRefAmp": 227.768,
  "WipMemBlock": "670c3e21-6f06-4755-9def-5963623f8995||Sequence: R016 ve11c/master r/e634e98; Dec 19 2017 11:00:25 by eja",
  "dcmmeta_affine": [
    [-2.671091318130493, 0.06294772028923035, 0.24528434872627258, 105.0157470703125],
    [0.0886516273021698, 2.666499137878418, 0.284677118062973, -105.78080749511719],
    [0.23560397326946259, -0.2896827459335327, 2.673722982406616, -59.053401947021484],
    [0.0, 0.0, 0.0, 1.0]
],
  "dcmmeta_reorient_transform": [
    [0.0, -1.0, 0.0, 81.0],
    [1.0, 0.0, 0.0, 0.0],
    [0.0, 0.0, 1.0, 0.0],
    [0.0, 0.0, 0.0, 1.0]
],
  "dcmmeta_shape": [82, 82, 56, 1065],
  "dcmmeta_slice_dim": 2,
  "dcmmeta_version": 0.6,
  "global": {
    "const": {
      "AccessionNumber": "A003638",
      "AcquisitionMatrix": [82, 0, 0, 82],
      "AngioFlag": "N",
      "BitsAllocated": 16,
      "BitsStored": 16,
      "BodyPartExamined": "BRAIN",
      "Columns": 656,
      "EchoNumbers": 1,
      "EchoTime": 27.2,
      "EchoTrainLength": 82,
      "FlipAngle": 44.0,
      "HighBit": 15,
      "ImageOrientationPatient": [0.99558852633146, -0.0330428794746, 0.08781602560572, 0.02346233088921, 0.99387696669074, 0.10797265445871],
      "ImagePositionPatient": [-894.7836894806, -850.04789477795, -233.27499196637],
      "ImageType": [
        "ORIGINAL",
        "PRIMARY",
        "M",
        "MB",
        "ND",
        "NORM",
        "MOSAIC"
],
      "ImagedNucleus": "1H",
      "ImagingFrequency": 123.252192,
      "InPlanePhaseEncodingDirection": "COL",
      "MRAcquisitionType": "2D",
      "MagneticFieldStrength": 3.0,
      "Manufacturer": "SIEMENS",
      "ManufacturerModelName": "Prisma",
      "Modality": "MR",
      "NumberOfAverages": 1.0,
      "NumberOfPhaseEncodingSteps": 82,
      "PercentPhaseFieldOfView": 100.0,
      "PercentSampling": 100.0,
      "PerformedProcedureStepStartTime": "091551.256000",
      "PhotometricInterpretation": "MONOCHROME2",
      "PixelBandwidth": 3050.0,
      "PixelRepresentation": 0,
      "PixelSpacing": [2.6829268932343, 2.6829268932343],
      "ProtocolName": "func_run-03_task-alignvideo_acq-ap-mb8",
      "RepetitionTime": 460.0,
      "Rows": 656,
      "SAR": 0.09080584703007,
      "SamplesPerPixel": 1,
      "ScanOptions": "FS",
      "ScanningSequence": "EP",
      "SequenceName": "epfid2d1_82",
      "SequenceVariant": [
        "SK",
        "SS"
],
      "SeriesDescription": "func_run-03_task-alignvideo_acq-ap-mb8",
      "SeriesNumber": 32,
      "SeriesTime": "110903.943000",
      "SliceLocation": -60.091517416629,
      "SliceThickness": 2.7000000476837,
      "SmallestImagePixelValue": 0,
      "SoftwareVersions": "syngo MR E11",
      "SpacingBetweenSlices": 2.7000000022511,
      "SpecificCharacterSet": "ISO_IR 100",
      "StudyID": "1",
      "StudyTime": "091551.158000",
      "TransmitCoilName": "Body",
      "VariableFlipAngleFlag": "N",
      "WindowCenterWidthExplanation": "Algo1",
      "dBdt": 0.0},
    "slices": {}
  },
  "time": {
    "samples": {
      "AcquisitionNumber": [1, 2, 3, 4, 5, 6, 7, 8, 9, 10, 11, 12, 13, 14, 15, 16, 17, 18, 19, 20, 21, 22, 23, 24, 25, 26, 27, 28, 29, 30, 31, 32, 33, 34, 35, 36, 37, 38, 39, 40, 41, 42, 43, 44, 45, 46, 47, 48, 49, 50, 51, 52, 53, 54, 55, 56, 57, 58, 59, 60, 61, 62, 63, 64, 65, 66, 67, 68, 69, 70, 71, 72, 73, 74, 75, 76, 77, 78, 79, 80, 81, 82, 83, 84, 85, 86, 87, 88, 89, 90, 91, 92, 93, 94, 95, 96, 97, 98, 99, 100, 101, 102, 103, 104, 105, 106, 107, 108, 109, 110, 111, 112, 113, 114, 115, 116, 117, 118, 119, 120, 121, 122, 123, 124, 125, 126, 127, 128, 129, 130, 131, 132, 133, 134, 135, 136, 137, 138, 139, 140, 141, 142, 143, 144, 145, 146, 147, 148, 149, 150, 151, 152, 153, 154, 155, 156, 157, 158, 159, 160, 161, 162, 163, 164, 165, 166, 167, 168, 169, 170, 171, 172, 173, 174, 175, 176, 177, 178, 179, 180, 181, 182, 183, 184, 185, 186, 187, 188, 189, 190, 191, 192, 193, 194, 195, 196, 197, 198, 199, 200, 201, 202, 203, 204, 205, 206, 207, 208, 209, 210, 211, 212, 213, 214, 215, 216, 217, 218, 219, 220, 221, 222, 223, 224, 225, 226, 227, 228, 229, 230, 231, 232, 233, 234, 235, 236, 237, 238, 239, 240, 241, 242, 243, 244, 245, 246, 247, 248, 249, 250, 251, 252, 253, 254, 255, 256, 257, 258, 259, 260, 261, 262, 263, 264, 265, 266, 267, 268, 269, 270, 271, 272, 273, 274, 275, 276, 277, 278, 279, 280, 281, 282, 283, 284, 285, 286, 287, 288, 289, 290, 291, 292, 293, 294, 295, 296, 297, 298, 299, 300, 301, 302, 303, 304, 305, 306, 307, 308, 309, 310, 311, 312, 313, 314, 315, 316, 317, 318, 319, 320, 321, 322, 323, 324, 325, 326, 327, 328, 329, 330, 331, 332, 333, 334, 335, 336, 337, 338, 339, 340, 341, 342, 343, 344, 345, 346, 347, 348, 349, 350, 351, 352, 353, 354, 355, 356, 357, 358, 359, 360, 361, 362, 363, 364, 365, 366, 367, 368, 369, 370, 371, 372, 373, 374, 375, 376, 377, 378, 379, 380, 381, 382, 383, 384, 385, 386, 387, 388, 389, 390, 391, 392, 393, 394, 395, 396, 397, 398, 399, 400, 401, 402, 403, 404, 405, 406, 407, 408, 409, 410, 411, 412, 413, 414, 415, 416, 417, 418, 419, 420, 421, 422, 423, 424, 425, 426, 427, 428, 429, 430, 431, 432, 433, 434, 435, 436, 437, 438, 439, 440, 441, 442, 443, 444, 445, 446, 447, 448, 449, 450, 451, 452, 453, 454, 455, 456, 457, 458, 459, 460, 461, 462, 463, 464, 465, 466, 467, 468, 469, 470, 471, 472, 473, 474, 475, 476, 477, 478, 479, 480, 481, 482, 483, 484, 485, 486, 487, 488, 489, 490, 491, 492, 493, 494, 495, 496, 497, 498, 499, 500, 501, 502, 503, 504, 505, 506, 507, 508, 509, 510, 511, 512, 513, 514, 515, 516, 517, 518, 519, 520, 521, 522, 523, 524, 525, 526, 527, 528, 529, 530, 531, 532, 533, 534, 535, 536, 537, 538, 539, 540, 541, 542, 543, 544, 545, 546, 547, 548, 549, 550, 551, 552, 553, 554, 555, 556, 557, 558, 559, 560, 561, 562, 563, 564, 565, 566, 567, 568, 569, 570, 571, 572, 573, 574, 575, 576, 577, 578, 579, 580, 581, 582, 583, 584, 585, 586, 587, 588, 589, 590, 591, 592, 593, 594, 595, 596, 597, 598, 599, 600, 601, 602, 603, 604, 605, 606, 607, 608, 609, 610, 611, 612, 613, 614, 615, 616, 617, 618, 619, 620, 621, 622, 623, 624, 625, 626, 627, 628, 629, 630, 631, 632, 633, 634, 635, 636, 637, 638, 639, 640, 641, 642, 643, 644, 645, 646, 647, 648, 649, 650, 651, 652, 653, 654, 655, 656, 657, 658, 659, 660, 661, 662, 663, 664, 665, 666, 667, 668, 669, 670, 671, 672, 673, 674, 675, 676, 677, 678, 679, 680, 681, 682, 683, 684, 685, 686, 687, 688, 689, 690, 691, 692, 693, 694, 695, 696, 697, 698, 699, 700, 701, 702, 703, 704, 705, 706, 707, 708, 709, 710, 711, 712, 713, 714, 715, 716, 717, 718, 719, 720, 721, 722, 723, 724, 725, 726, 727, 728, 729, 730, 731, 732, 733, 734, 735, 736, 737, 738, 739, 740, 741, 742, 743, 744, 745, 746, 747, 748, 749, 750, 751, 752, 753, 754, 755, 756, 757, 758, 759, 760, 761, 762, 763, 764, 765, 766, 767, 768, 769, 770, 771, 772, 773, 774, 775, 776, 777, 778, 779, 780, 781, 782, 783, 784, 785, 786, 787, 788, 789, 790, 791, 792, 793, 794, 795, 796, 797, 798, 799, 800, 801, 802, 803, 804, 805, 806, 807, 808, 809, 810, 811, 812, 813, 814, 815, 816, 817, 818, 819, 820, 821, 822, 823, 824, 825, 826, 827, 828, 829, 830, 831, 832, 833, 834, 835, 836, 837, 838, 839, 840, 841, 842, 843, 844, 845, 846, 847, 848, 849, 850, 851, 852, 853, 854, 855, 856, 857, 858, 859, 860, 861, 862, 863, 864, 865, 866, 867, 868, 869, 870, 871, 872, 873, 874, 875, 876, 877, 878, 879, 880, 881, 882, 883, 884, 885, 886, 887, 888, 889, 890, 891, 892, 893, 894, 895, 896, 897, 898, 899, 900, 901, 902, 903, 904, 905, 906, 907, 908, 909, 910, 911, 912, 913, 914, 915, 916, 917, 918, 919, 920, 921, 922, 923, 924, 925, 926, 927, 928, 929, 930, 931, 932, 933, 934, 935, 936, 937, 938, 939, 940, 941, 942, 943, 944, 945, 946, 947, 948, 949, 950, 951, 952, 953, 954, 955, 956, 957, 958, 959, 960, 961, 962, 963, 964, 965, 966, 967, 968, 969, 970, 971, 972, 973, 974, 975, 976, 977, 978, 979, 980, 981, 982, 983, 984, 985, 986, 987, 988, 989, 990, 991, 992, 993, 994, 995, 996, 997, 998, 999, 1000, 1001, 1002, 1003, 1004, 1005, 1006, 1007, 1008, 1009, 1010, 1011, 1012, 1013, 1014, 1015, 1016, 1017, 1018, 1019, 1020, 1021, 1022, 1023, 1024, 1025, 1026, 1027, 1028, 1029, 1030, 1031, 1032, 1033, 1034, 1035, 1036, 1037, 1038, 1039, 1040, 1041, 1042, 1043, 1044, 1045, 1046, 1047, 1048, 1049, 1050, 1051, 1052, 1053, 1054, 1055, 1056, 1057, 1058, 1059, 1060, 1061, 1062, 1063, 1064, 1065],
      "AcquisitionTime": ["110843.942500", "110844.402500", "110844.862500", "110845.322500", "110845.782500", "110846.242500", "110846.702500", "110847.162500", "110847.622500", "110848.082500", "110848.542500", "110849.002500", "110849.462500", "110849.922500", "110850.382500", "110850.842500", "110851.302500", "110851.762500", "110852.222500", "110852.682500", "110853.142500", "110853.602500", "110854.062500", "110854.522500", "110854.982500", "110855.442500", "110855.902500", "110856.362500", "110856.822500", "110857.282500", "110857.742500", "110858.202500", "110858.662500", "110859.122500", "110859.582500", "110900.042500", "110900.502500", "110900.962500", "110901.422500", "110901.882500", "110902.342500", "110902.802500", "110903.262500", "110903.722500", "110904.182500", "110904.642500", "110905.102500", "110905.562500", "110906.022500", "110906.482500", "110906.942500", "110907.402500", "110907.862500", "110908.322500", "110908.782500", "110909.242500", "110909.702500", "110910.162500", "110910.622500", "110911.082500", "110911.542500", "110912.002500", "110912.462500", "110912.922500", "110913.382500", "110913.842500", "110914.302500", "110914.762500", "110915.222500", "110915.682500", "110916.142500", "110916.602500", "110917.062500", "110917.522500", "110917.982500", "110918.442500", "110918.902500", "110919.362500", "110919.822500", "110920.282500", "110920.742500", "110921.202500", "110921.662500", "110922.122500", "110922.582500", "110923.042500", "110923.502500", "110923.962500", "110924.422500", "110924.882500", "110925.342500", "110925.802500", "110926.262500", "110926.722500", "110927.182500", "110927.642500", "110928.102500", "110928.562500", "110929.022500", "110929.482500", "110929.942500", "110930.402500", "110930.862500", "110931.322500", "110931.782500", "110932.242500", "110932.702500", "110933.162500", "110933.622500", "110934.082500", "110934.542500", "110935.002500", "110935.462500", "110935.922500", "110936.382500", "110936.842500", "110937.302500", "110937.762500", "110938.222500", "110938.682500", "110939.142500", "110939.602500", "110940.062500", "110940.522500", "110940.982500", "110941.442500", "110941.902500", "110942.362500", "110942.822500", "110943.282500", "110943.742500", "110944.202500", "110944.662500", "110945.122500", "110945.582500", "110946.042500", "110946.502500", "110946.962500", "110947.422500", "110947.882500", "110948.342500", "110948.802500", "110949.262500", "110949.722500", "110950.182500", "110950.642500", "110951.102500", "110951.562500", "110952.022500", "110952.482500", "110952.942500", "110953.402500", "110953.862500", "110954.322500", "110954.782500", "110955.242500", "110955.702500", "110956.162500", "110956.622500", "110957.082500", "110957.542500", "110958.002500", "110958.462500", "110958.922500", "110959.382500", "110959.842500", "111000.302500", "111000.762500", "111001.222500", "111001.682500", "111002.142500", "111002.602500", "111003.062500", "111003.522500", "111003.982500", "111004.442500", "111004.902500", "111005.362500", "111005.822500", "111006.282500", "111006.742500", "111007.202500", "111007.662500", "111008.122500", "111008.582500", "111009.042500", "111009.502500", "111009.962500", "111010.422500", "111010.882500", "111011.342500", "111011.802500", "111012.262500", "111012.722500", "111013.182500", "111013.642500", "111014.102500", "111014.562500", "111015.022500", "111015.482500", "111015.942500", "111016.402500", "111016.862500", "111017.322500", "111017.782500", "111018.242500", "111018.702500", "111019.162500", "111019.622500", "111020.082500", "111020.542500", "111021.002500", "111021.462500", "111021.922500", "111022.382500", "111022.842500", "111023.302500", "111023.762500", "111024.222500", "111024.682500", "111025.142500", "111025.602500", "111026.062500", "111026.522500", "111026.982500", "111027.442500", "111027.902500", "111028.362500", "111028.822500", "111029.282500", "111029.742500", "111030.202500", "111030.662500", "111031.122500", "111031.582500", "111032.042500", "111032.502500", "111032.962500", "111033.422500", "111033.882500", "111034.342500", "111034.802500", "111035.262500", "111035.722500", "111036.182500", "111036.642500", "111037.102500", "111037.562500", "111038.022500", "111038.482500", "111038.942500", "111039.402500", "111039.862500", "111040.322500", "111040.782500", "111041.242500", "111041.702500", "111042.162500", "111042.622500", "111043.082500", "111043.542500", "111044.002500", "111044.462500", "111044.922500", "111045.382500", "111045.842500", "111046.302500", "111046.762500", "111047.222500", "111047.682500", "111048.142500", "111048.602500", "111049.062500", "111049.522500", "111049.982500", "111050.442500", "111050.902500", "111051.362500", "111051.822500", "111052.282500", "111052.742500", "111053.202500", "111053.662500", "111054.122500", "111054.582500", "111055.042500", "111055.502500", "111055.962500", "111056.422500", "111056.882500", "111057.342500", "111057.802500", "111058.262500", "111058.722500", "111059.182500", "111059.642500", "111100.102500", "111100.562500", "111101.022500", "111101.482500", "111101.942500", "111102.402500", "111102.862500", "111103.322500", "111103.782500", "111104.242500", "111104.702500", "111105.162500", "111105.622500", "111106.082500", "111106.542500", "111107.002500", "111107.462500", "111107.922500", "111108.382500", "111108.842500", "111109.302500", "111109.762500", "111110.222500", "111110.682500", "111111.142500", "111111.602500", "111112.062500", "111112.522500", "111112.982500", "111113.442500", "111113.902500", "111114.362500", "111114.822500", "111115.282500", "111115.742500", "111116.202500", "111116.662500", "111117.122500", "111117.582500", "111118.042500", "111118.502500", "111118.962500", "111119.422500", "111119.882500", "111120.342500", "111120.802500", "111121.262500", "111121.722500", "111122.182500", "111122.642500", "111123.102500", "111123.562500", "111124.022500", "111124.482500", "111124.942500", "111125.402500", "111125.862500", "111126.322500", "111126.782500", "111127.242500", "111127.702500", "111128.162500", "111128.622500", "111129.082500", "111129.542500", "111130.002500", "111130.462500", "111130.922500", "111131.382500", "111131.842500", "111132.302500", "111132.762500", "111133.222500", "111133.682500", "111134.142500", "111134.602500", "111135.062500", "111135.522500", "111135.982500", "111136.442500", "111136.902500", "111137.362500", "111137.822500", "111138.282500", "111138.742500", "111139.202500", "111139.662500", "111140.122500", "111140.582500", "111141.042500", "111141.502500", "111141.962500", "111142.422500", "111142.882500", "111143.342500", "111143.802500", "111144.262500", "111144.722500", "111145.182500", "111145.642500", "111146.102500", "111146.562500", "111147.022500", "111147.482500", "111147.942500", "111148.402500", "111148.862500", "111149.322500", "111149.782500", "111150.242500", "111150.702500", "111151.162500", "111151.622500", "111152.082500", "111152.542500", "111153.002500", "111153.462500", "111153.922500", "111154.382500", "111154.842500", "111155.302500", "111155.762500", "111156.222500", "111156.682500", "111157.142500", "111157.602500", "111158.062500", "111158.522500", "111158.982500", "111159.442500", "111159.902500", "111200.362500", "111200.822500", "111201.282500", "111201.742500", "111202.202500", "111202.662500", "111203.122500", "111203.582500", "111204.042500", "111204.502500", "111204.962500", "111205.422500", "111205.882500", "111206.342500", "111206.802500", "111207.262500", "111207.722500", "111208.182500", "111208.642500", "111209.102500", "111209.562500", "111210.022500", "111210.482500", "111210.942500", "111211.402500", "111211.862500", "111212.322500", "111212.782500", "111213.242500", "111213.702500", "111214.162500", "111214.622500", "111215.082500", "111215.542500", "111216.002500", "111216.462500", "111216.922500", "111217.382500", "111217.842500", "111218.302500", "111218.762500", "111219.222500", "111219.682500", "111220.142500", "111220.602500", "111221.062500", "111221.522500", "111221.982500", "111222.442500", "111222.902500", "111223.362500", "111223.822500", "111224.282500", "111224.742500", "111225.202500", "111225.662500", "111226.122500", "111226.582500", "111227.042500", "111227.502500", "111227.962500", "111228.422500", "111228.882500", "111229.342500", "111229.802500", "111230.262500", "111230.722500", "111231.182500", "111231.642500", "111232.102500", "111232.562500", "111233.022500", "111233.482500", "111233.942500", "111234.402500", "111234.862500", "111235.322500", "111235.782500", "111236.242500", "111236.702500", "111237.162500", "111237.622500", "111238.082500", "111238.542500", "111239.002500", "111239.462500", "111239.922500", "111240.382500", "111240.842500", "111241.302500", "111241.762500", "111242.222500", "111242.682500", "111243.142500", "111243.602500", "111244.062500", "111244.522500", "111244.982500", "111245.442500", "111245.902500", "111246.362500", "111246.822500", "111247.282500", "111247.742500", "111248.202500", "111248.662500", "111249.122500", "111249.582500", "111250.042500", "111250.502500", "111250.962500", "111251.422500", "111251.882500", "111252.342500", "111252.802500", "111253.262500", "111253.722500", "111254.182500", "111254.642500", "111255.102500", "111255.562500", "111256.022500", "111256.482500", "111256.942500", "111257.402500", "111257.862500", "111258.322500", "111258.782500", "111259.242500", "111259.702500", "111300.162500", "111300.622500", "111301.082500", "111301.542500", "111302.002500", "111302.462500", "111302.922500", "111303.382500", "111303.842500", "111304.302500", "111304.762500", "111305.222500", "111305.682500", "111306.142500", "111306.602500", "111307.062500", "111307.522500", "111307.982500", "111308.442500", "111308.902500", "111309.362500", "111309.822500", "111310.282500", "111310.742500", "111311.202500", "111311.662500", "111312.122500", "111312.582500", "111313.042500", "111313.502500", "111313.962500", "111314.422500", "111314.882500", "111315.342500", "111315.802500", "111316.262500", "111316.722500", "111317.182500", "111317.642500", "111318.102500", "111318.562500", "111319.022500", "111319.482500", "111319.942500", "111320.402500", "111320.862500", "111321.322500", "111321.782500", "111322.242500", "111322.702500", "111323.162500", "111323.622500", "111324.082500", "111324.542500", "111325.002500", "111325.462500", "111325.922500", "111326.382500", "111326.842500", "111327.302500", "111327.762500", "111328.222500", "111328.682500", "111329.142500", "111329.602500", "111330.062500", "111330.522500", "111330.982500", "111331.442500", "111331.902500", "111332.362500", "111332.822500", "111333.282500", "111333.742500", "111334.202500", "111334.662500", "111335.122500", "111335.582500", "111336.042500", "111336.502500", "111336.962500", "111337.422500", "111337.882500", "111338.342500", "111338.802500", "111339.262500", "111339.722500", "111340.182500", "111340.642500", "111341.102500", "111341.562500", "111342.022500", "111342.482500", "111342.942500", "111343.402500", "111343.862500", "111344.322500", "111344.782500", "111345.242500", "111345.702500", "111346.162500", "111346.622500", "111347.082500", "111347.542500", "111348.002500", "111348.462500", "111348.922500", "111349.382500", "111349.842500", "111350.302500", "111350.762500", "111351.222500", "111351.682500", "111352.142500", "111352.602500", "111353.062500", "111353.522500", "111353.982500", "111354.442500", "111354.902500", "111355.362500", "111355.822500", "111356.282500", "111356.742500", "111357.202500", "111357.662500", "111358.122500", "111358.582500", "111359.042500", "111359.502500", "111359.962500", "111400.422500", "111400.882500", "111401.342500", "111401.802500", "111402.262500", "111402.722500", "111403.182500", "111403.642500", "111404.102500", "111404.562500", "111405.022500", "111405.482500", "111405.942500", "111406.402500", "111406.862500", "111407.322500", "111407.782500", "111408.242500", "111408.702500", "111409.162500", "111409.622500", "111410.082500", "111410.542500", "111411.002500", "111411.462500", "111411.922500", "111412.382500", "111412.842500", "111413.302500", "111413.762500", "111414.222500", "111414.682500", "111415.142500", "111415.602500", "111416.062500", "111416.522500", "111416.982500", "111417.442500", "111417.902500", "111418.362500", "111418.822500", "111419.282500", "111419.742500", "111420.202500", "111420.662500", "111421.122500", "111421.582500", "111422.042500", "111422.502500", "111422.962500", "111423.422500", "111423.882500", "111424.342500", "111424.802500", "111425.262500", "111425.722500", "111426.182500", "111426.642500", "111427.102500", "111427.562500", "111428.022500", "111428.482500", "111428.942500", "111429.402500", "111429.862500", "111430.322500", "111430.782500", "111431.242500", "111431.702500", "111432.162500", "111432.622500", "111433.082500", "111433.542500", "111434.002500", "111434.462500", "111434.922500", "111435.382500", "111435.842500", "111436.302500", "111436.762500", "111437.222500", "111437.682500", "111438.142500", "111438.602500", "111439.062500", "111439.522500", "111439.982500", "111440.442500", "111440.902500", "111441.362500", "111441.822500", "111442.282500", "111442.742500", "111443.202500", "111443.662500", "111444.122500", "111444.582500", "111445.042500", "111445.502500", "111445.962500", "111446.422500", "111446.882500", "111447.342500", "111447.802500", "111448.262500", "111448.722500", "111449.182500", "111449.642500", "111450.102500", "111450.562500", "111451.022500", "111451.482500", "111451.942500", "111452.402500", "111452.862500", "111453.322500", "111453.782500", "111454.242500", "111454.702500", "111455.162500", "111455.622500", "111456.082500", "111456.542500", "111457.002500", "111457.462500", "111457.922500", "111458.382500", "111458.842500", "111459.302500", "111459.762500", "111500.222500", "111500.682500", "111501.142500", "111501.602500", "111502.062500", "111502.522500", "111502.982500", "111503.442500", "111503.902500", "111504.362500", "111504.822500", "111505.282500", "111505.742500", "111506.202500", "111506.662500", "111507.122500", "111507.582500", "111508.042500", "111508.502500", "111508.962500", "111509.422500", "111509.882500", "111510.342500", "111510.802500", "111511.262500", "111511.722500", "111512.182500", "111512.642500", "111513.102500", "111513.562500", "111514.022500", "111514.482500", "111514.942500", "111515.402500", "111515.862500", "111516.322500", "111516.782500", "111517.242500", "111517.702500", "111518.162500", "111518.622500", "111519.082500", "111519.542500", "111520.002500", "111520.462500", "111520.922500", "111521.382500", "111521.842500", "111522.302500", "111522.762500", "111523.222500", "111523.682500", "111524.142500", "111524.602500", "111525.062500", "111525.522500", "111525.982500", "111526.442500", "111526.902500", "111527.362500", "111527.822500", "111528.282500", "111528.742500", "111529.202500", "111529.662500", "111530.122500", "111530.582500", "111531.042500", "111531.502500", "111531.962500", "111532.422500", "111532.882500", "111533.342500", "111533.802500", "111534.262500", "111534.722500", "111535.182500", "111535.642500", "111536.102500", "111536.562500", "111537.022500", "111537.482500", "111537.942500", "111538.402500", "111538.862500", "111539.322500", "111539.782500", "111540.242500", "111540.702500", "111541.162500", "111541.622500", "111542.082500", "111542.542500", "111543.002500", "111543.462500", "111543.922500", "111544.382500", "111544.842500", "111545.302500", "111545.762500", "111546.222500", "111546.682500", "111547.142500", "111547.602500", "111548.062500", "111548.522500", "111548.982500", "111549.442500", "111549.902500", "111550.362500", "111550.822500", "111551.282500", "111551.742500", "111552.202500", "111552.662500", "111553.122500", "111553.582500", "111554.042500", "111554.502500", "111554.962500", "111555.422500", "111555.882500", "111556.342500", "111556.802500", "111557.262500", "111557.722500", "111558.182500", "111558.642500", "111559.102500", "111559.562500", "111600.022500", "111600.482500", "111600.942500", "111601.402500", "111601.862500", "111602.322500", "111602.782500", "111603.242500", "111603.702500", "111604.162500", "111604.622500", "111605.082500", "111605.542500", "111606.002500", "111606.462500", "111606.922500", "111607.382500", "111607.842500", "111608.302500", "111608.762500", "111609.222500", "111609.682500", "111610.142500", "111610.602500", "111611.062500", "111611.522500", "111611.982500", "111612.442500", "111612.902500", "111613.362500", "111613.822500", "111614.282500", "111614.742500", "111615.202500", "111615.662500", "111616.122500", "111616.582500", "111617.042500", "111617.502500", "111617.962500", "111618.422500", "111618.882500", "111619.342500", "111619.802500", "111620.262500", "111620.722500", "111621.182500", "111621.642500", "111622.102500", "111622.562500", "111623.022500", "111623.482500", "111623.942500", "111624.402500", "111624.862500", "111625.322500", "111625.782500", "111626.242500", "111626.702500", "111627.162500", "111627.622500", "111628.082500", "111628.542500", "111629.002500", "111629.462500", "111629.922500", "111630.382500", "111630.842500", "111631.302500", "111631.762500", "111632.222500", "111632.682500", "111633.142500", "111633.602500", "111634.062500", "111634.522500", "111634.982500", "111635.442500", "111635.902500", "111636.362500", "111636.822500", "111637.282500", "111637.742500", "111638.202500", "111638.662500", "111639.122500", "111639.582500", "111640.042500", "111640.502500", "111640.962500", "111641.422500", "111641.882500", "111642.342500", "111642.802500", "111643.262500", "111643.722500", "111644.182500", "111644.642500", "111645.102500", "111645.562500", "111646.022500", "111646.482500", "111646.942500", "111647.402500", "111647.862500", "111648.322500", "111648.782500", "111649.242500", "111649.702500", "111650.162500", "111650.622500", "111651.082500", "111651.542500", "111652.002500", "111652.462500", "111652.922500", "111653.382500"],
