{
  "AcquisitionMatrixPE": 82,
  "AcquisitionNumber": 1,
  "AcquisitionTime": "10:05:14.380000",
  "BandwidthPerPixelPhaseEncode": 24.888,
  "BaseResolution": 82,
  "BodyPartExamined": "BRAIN",
  "ConsistencyInfo": "N4_VE11C_LATEST_20160120",
  "ConversionSoftware": "dcm2niix",
  "ConversionSoftwareVersion": "v1.0.20201102",
  "DerivedVendorReportedEchoSpacing": 0.00049,
  "DeviceSerialNumber": "66112",
  "DwellTime": 2e-06,
  "EchoTime": 0.0272,
  "EchoTrainLength": 82,
  "EffectiveEchoSpacing": 0.00049,
  "FlipAngle": 44,
  "ImageComments": "Unaliased MB8/PE3",
  "ImageOrientationPatientDICOM": [0.997038, -0.0204747, 0.0741382, 0.0231482, 0.999106, -0.0353839],
  "ImageType": [
    "ORIGINAL",
    "PRIMARY",
    "M",
    "MB",
    "ND",
    "NORM",
    "MOSAIC"
],
  "ImagingFrequency": 123.252,
  "InPlanePhaseEncodingDirectionDICOM": "COL",
  "InstitutionAddress": "Maynard 3,Hanover,NH,US,03755",
  "InstitutionName": "Dartmouth College - PBS",
  "InstitutionalDepartmentName": "Department",
  "MRAcquisitionType": "2D",
  "MagneticFieldStrength": 3,
  "Manufacturer": "Siemens",
  "ManufacturersModelName": "Prisma",
  "Modality": "MR",
  "MultibandAccelerationFactor": 8,
  "PartialFourier": 1,
  "PatientPosition": "HFS",
  "PercentPhaseFOV": 100,
  "PercentSampling": 100,
  "PhaseEncodingDirection": "j-",
  "PhaseEncodingSteps": 82,
  "PhaseResolution": 1,
  "PixelBandwidth": 3050,
  "ProcedureStepDescription": "Wager_Wager^1076_spacetop",
  "ProtocolName": "func_run-04_task-social_acq-ap-mb8",
  "PulseSequenceDetails": "%CustomerSeq%\\cmrr_mbep2d_bold",
  "ReceiveCoilActiveElements": "HEA;HEP",
  "ReceiveCoilName": "Head_32",
  "ReconMatrixPE": 82,
  "RepetitionTime": 0.46,
  "SAR": 0.0907035,
  "ScanOptions": "FS",
  "ScanningSequence": "EP",
  "SequenceName": "epfid2d1_82",
  "SequenceVariant": "SK\\SS",
  "SeriesDescription": "func_run-04_task-social_acq-ap-mb8",
  "SeriesNumber": 14,
  "ShimSetting": [4165, -7742, -7236, 735, -19, -179, -34, 18],
  "SliceThickness": 2.7,
  "SliceTiming": [0, 0.2525, 0.0625, 0.315, 0.125, 0.3775, 0.19, 0, 0.2525, 0.0625, 0.315, 0.125, 0.3775, 0.19, 0, 0.2525, 0.0625, 0.315, 0.125, 0.3775, 0.19, 0, 0.2525, 0.0625, 0.315, 0.125, 0.3775, 0.19, 0, 0.2525, 0.0625, 0.315, 0.125, 0.3775, 0.19, 0, 0.2525, 0.0625, 0.315, 0.125, 0.3775, 0.19, 0, 0.2525, 0.0625, 0.315, 0.125, 0.3775, 0.19, 0, 0.2525, 0.0625, 0.315, 0.125, 0.3775, 0.19],
  "SoftwareVersions": "syngo MR E11",
  "SpacingBetweenSlices": 2.7,
  "StationName": "AWP66112",
  "TaskName": "social",
  "TotalReadoutTime": 0.03969,
  "TxRefAmp": 227.768,
  "WipMemBlock": "973effc0-fca8-4de2-97e4-87ef445583d7||Sequence: R016 ve11c/master r/e634e98; Dec 19 2017 11:00:25 by eja",
  "dcmmeta_affine": [
    [-2.6749794483184814, 0.06210505589842796, 0.19803814589977264, 105.90564727783203],
    [0.054932091385126114, 2.680527448654175, -0.0998871773481369, -95.31631469726562],
    [0.19890747964382172, 0.09493240714073181, 2.6908740997314453, -67.37097930908203],
    [0.0, 0.0, 0.0, 1.0]
],
  "dcmmeta_reorient_transform": [
    [0.0, -1.0, 0.0, 81.0],
    [1.0, 0.0, 0.0, 0.0],
    [0.0, 0.0, 1.0, 0.0],
    [0.0, 0.0, 0.0, 1.0]
],
  "dcmmeta_shape": [82, 82, 56, 872],
  "dcmmeta_slice_dim": 2,
  "dcmmeta_version": 0.6,
  "global": {
    "const": {
      "AccessionNumber": "A003638",
      "AcquisitionMatrix": [82, 0, 0, 82],
      "AngioFlag": "N",
      "BitsAllocated": 16,
      "BitsStored": 16,
      "BodyPartExamined": "BRAIN",
      "Columns": 656,
      "EchoNumbers": 1,
      "EchoTime": 27.2,
      "EchoTrainLength": 82,
      "FlipAngle": 44.0,
      "HighBit": 15,
      "ImageOrientationPatient": [0.99703776697138, -0.0204746887168, 0.07413823814114, 0.02314824787129, 0.99910566930808, -0.0353838971417],
      "ImagePositionPatient": [-896.47940460186, -875.35228685556, -89.522296997342],
      "ImageType": [
        "ORIGINAL",
        "PRIMARY",
        "M",
        "MB",
        "ND",
        "NORM",
        "MOSAIC"
],
      "ImagedNucleus": "1H",
      "ImagingFrequency": 123.252172,
      "InPlanePhaseEncodingDirection": "COL",
      "MRAcquisitionType": "2D",
      "MagneticFieldStrength": 3.0,
      "Manufacturer": "SIEMENS",
      "ManufacturerModelName": "Prisma",
      "Modality": "MR",
      "NumberOfAverages": 1.0,
      "NumberOfPhaseEncodingSteps": 82,
      "PercentPhaseFieldOfView": 100.0,
      "PercentSampling": 100.0,
      "PerformedProcedureStepStartTime": "091551.256000",
      "PhotometricInterpretation": "MONOCHROME2",
      "PixelBandwidth": 3050.0,
      "PixelRepresentation": 0,
      "PixelSpacing": [2.6829268932343, 2.6829268932343],
      "ProtocolName": "func_run-04_task-social_acq-ap-mb8",
      "RepetitionTime": 460.0,
      "Rows": 656,
      "SAR": 0.09070353367594,
      "SamplesPerPixel": 1,
      "ScanOptions": "FS",
      "ScanningSequence": "EP",
      "SequenceName": "epfid2d1_82",
      "SequenceVariant": [
        "SK",
        "SS"
],
      "SeriesDescription": "func_run-04_task-social_acq-ap-mb8",
      "SeriesNumber": 14,
      "SeriesTime": "100543.951000",
      "SliceLocation": -55.849106574274,
      "SliceThickness": 2.7000000476837,
      "SmallestImagePixelValue": 0,
      "SoftwareVersions": "syngo MR E11",
      "SpacingBetweenSlices": 2.6999999613319,
      "SpecificCharacterSet": "ISO_IR 100",
      "StudyID": "1",
      "StudyTime": "091551.158000",
      "TransmitCoilName": "Body",
      "VariableFlipAngleFlag": "N",
      "WindowCenterWidthExplanation": "Algo1",
      "dBdt": 0.0},
    "slices": {}
  },
  "time": {
    "samples": {
      "AcquisitionNumber": [1, 2, 3, 4, 5, 6, 7, 8, 9, 10, 11, 12, 13, 14, 15, 16, 17, 18, 19, 20, 21, 22, 23, 24, 25, 26, 27, 28, 29, 30, 31, 32, 33, 34, 35, 36, 37, 38, 39, 40, 41, 42, 43, 44, 45, 46, 47, 48, 49, 50, 51, 52, 53, 54, 55, 56, 57, 58, 59, 60, 61, 62, 63, 64, 65, 66, 67, 68, 69, 70, 71, 72, 73, 74, 75, 76, 77, 78, 79, 80, 81, 82, 83, 84, 85, 86, 87, 88, 89, 90, 91, 92, 93, 94, 95, 96, 97, 98, 99, 100, 101, 102, 103, 104, 105, 106, 107, 108, 109, 110, 111, 112, 113, 114, 115, 116, 117, 118, 119, 120, 121, 122, 123, 124, 125, 126, 127, 128, 129, 130, 131, 132, 133, 134, 135, 136, 137, 138, 139, 140, 141, 142, 143, 144, 145, 146, 147, 148, 149, 150, 151, 152, 153, 154, 155, 156, 157, 158, 159, 160, 161, 162, 163, 164, 165, 166, 167, 168, 169, 170, 171, 172, 173, 174, 175, 176, 177, 178, 179, 180, 181, 182, 183, 184, 185, 186, 187, 188, 189, 190, 191, 192, 193, 194, 195, 196, 197, 198, 199, 200, 201, 202, 203, 204, 205, 206, 207, 208, 209, 210, 211, 212, 213, 214, 215, 216, 217, 218, 219, 220, 221, 222, 223, 224, 225, 226, 227, 228, 229, 230, 231, 232, 233, 234, 235, 236, 237, 238, 239, 240, 241, 242, 243, 244, 245, 246, 247, 248, 249, 250, 251, 252, 253, 254, 255, 256, 257, 258, 259, 260, 261, 262, 263, 264, 265, 266, 267, 268, 269, 270, 271, 272, 273, 274, 275, 276, 277, 278, 279, 280, 281, 282, 283, 284, 285, 286, 287, 288, 289, 290, 291, 292, 293, 294, 295, 296, 297, 298, 299, 300, 301, 302, 303, 304, 305, 306, 307, 308, 309, 310, 311, 312, 313, 314, 315, 316, 317, 318, 319, 320, 321, 322, 323, 324, 325, 326, 327, 328, 329, 330, 331, 332, 333, 334, 335, 336, 337, 338, 339, 340, 341, 342, 343, 344, 345, 346, 347, 348, 349, 350, 351, 352, 353, 354, 355, 356, 357, 358, 359, 360, 361, 362, 363, 364, 365, 366, 367, 368, 369, 370, 371, 372, 373, 374, 375, 376, 377, 378, 379, 380, 381, 382, 383, 384, 385, 386, 387, 388, 389, 390, 391, 392, 393, 394, 395, 396, 397, 398, 399, 400, 401, 402, 403, 404, 405, 406, 407, 408, 409, 410, 411, 412, 413, 414, 415, 416, 417, 418, 419, 420, 421, 422, 423, 424, 425, 426, 427, 428, 429, 430, 431, 432, 433, 434, 435, 436, 437, 438, 439, 440, 441, 442, 443, 444, 445, 446, 447, 448, 449, 450, 451, 452, 453, 454, 455, 456, 457, 458, 459, 460, 461, 462, 463, 464, 465, 466, 467, 468, 469, 470, 471, 472, 473, 474, 475, 476, 477, 478, 479, 480, 481, 482, 483, 484, 485, 486, 487, 488, 489, 490, 491, 492, 493, 494, 495, 496, 497, 498, 499, 500, 501, 502, 503, 504, 505, 506, 507, 508, 509, 510, 511, 512, 513, 514, 515, 516, 517, 518, 519, 520, 521, 522, 523, 524, 525, 526, 527, 528, 529, 530, 531, 532, 533, 534, 535, 536, 537, 538, 539, 540, 541, 542, 543, 544, 545, 546, 547, 548, 549, 550, 551, 552, 553, 554, 555, 556, 557, 558, 559, 560, 561, 562, 563, 564, 565, 566, 567, 568, 569, 570, 571, 572, 573, 574, 575, 576, 577, 578, 579, 580, 581, 582, 583, 584, 585, 586, 587, 588, 589, 590, 591, 592, 593, 594, 595, 596, 597, 598, 599, 600, 601, 602, 603, 604, 605, 606, 607, 608, 609, 610, 611, 612, 613, 614, 615, 616, 617, 618, 619, 620, 621, 622, 623, 624, 625, 626, 627, 628, 629, 630, 631, 632, 633, 634, 635, 636, 637, 638, 639, 640, 641, 642, 643, 644, 645, 646, 647, 648, 649, 650, 651, 652, 653, 654, 655, 656, 657, 658, 659, 660, 661, 662, 663, 664, 665, 666, 667, 668, 669, 670, 671, 672, 673, 674, 675, 676, 677, 678, 679, 680, 681, 682, 683, 684, 685, 686, 687, 688, 689, 690, 691, 692, 693, 694, 695, 696, 697, 698, 699, 700, 701, 702, 703, 704, 705, 706, 707, 708, 709, 710, 711, 712, 713, 714, 715, 716, 717, 718, 719, 720, 721, 722, 723, 724, 725, 726, 727, 728, 729, 730, 731, 732, 733, 734, 735, 736, 737, 738, 739, 740, 741, 742, 743, 744, 745, 746, 747, 748, 749, 750, 751, 752, 753, 754, 755, 756, 757, 758, 759, 760, 761, 762, 763, 764, 765, 766, 767, 768, 769, 770, 771, 772, 773, 774, 775, 776, 777, 778, 779, 780, 781, 782, 783, 784, 785, 786, 787, 788, 789, 790, 791, 792, 793, 794, 795, 796, 797, 798, 799, 800, 801, 802, 803, 804, 805, 806, 807, 808, 809, 810, 811, 812, 813, 814, 815, 816, 817, 818, 819, 820, 821, 822, 823, 824, 825, 826, 827, 828, 829, 830, 831, 832, 833, 834, 835, 836, 837, 838, 839, 840, 841, 842, 843, 844, 845, 846, 847, 848, 849, 850, 851, 852, 853, 854, 855, 856, 857, 858, 859, 860, 861, 862, 863, 864, 865, 866, 867, 868, 869, 870, 871, 872],
      "AcquisitionTime": ["100514.380000", "100514.840000", "100515.300000", "100515.760000", "100516.220000", "100516.680000", "100517.140000", "100517.600000", "100518.060000", "100518.520000", "100518.980000", "100519.440000", "100519.900000", "100520.360000", "100520.820000", "100521.280000", "100521.740000", "100522.200000", "100522.660000", "100523.120000", "100523.580000", "100524.040000", "100524.500000", "100524.960000", "100525.420000", "100525.880000", "100526.340000", "100526.800000", "100527.260000", "100527.720000", "100528.180000", "100528.640000", "100529.100000", "100529.560000", "100530.020000", "100530.480000", "100530.940000", "100531.400000", "100531.860000", "100532.320000", "100532.780000", "100533.240000", "100533.700000", "100534.160000", "100534.620000", "100535.080000", "100535.540000", "100536.000000", "100536.460000", "100536.920000", "100537.380000", "100537.840000", "100538.300000", "100538.760000", "100539.220000", "100539.680000", "100540.140000", "100540.600000", "100541.060000", "100541.520000", "100541.980000", "100542.440000", "100542.900000", "100543.360000", "100543.820000", "100544.280000", "100544.740000", "100545.200000", "100545.660000", "100546.120000", "100546.580000", "100547.040000", "100547.500000", "100547.960000", "100548.420000", "100548.880000", "100549.340000", "100549.800000", "100550.260000", "100550.720000", "100551.180000", "100551.640000", "100552.100000", "100552.560000", "100553.020000", "100553.480000", "100553.940000", "100554.400000", "100554.860000", "100555.320000", "100555.780000", "100556.240000", "100556.700000", "100557.160000", "100557.620000", "100558.080000", "100558.540000", "100559.000000", "100559.460000", "100559.920000", "100600.380000", "100600.840000", "100601.300000", "100601.760000", "100602.220000", "100602.680000", "100603.140000", "100603.600000", "100604.060000", "100604.520000", "100604.980000", "100605.440000", "100605.900000", "100606.360000", "100606.820000", "100607.280000", "100607.740000", "100608.200000", "100608.660000", "100609.120000", "100609.580000", "100610.040000", "100610.500000", "100610.960000", "100611.420000", "100611.880000", "100612.340000", "100612.800000", "100613.260000", "100613.720000", "100614.180000", "100614.640000", "100615.100000", "100615.560000", "100616.020000", "100616.480000", "100616.940000", "100617.400000", "100617.860000", "100618.320000", "100618.780000", "100619.240000", "100619.700000", "100620.160000", "100620.620000", "100621.080000", "100621.540000", "100622.000000", "100622.460000", "100622.920000", "100623.380000", "100623.840000", "100624.300000", "100624.760000", "100625.220000", "100625.680000", "100626.140000", "100626.600000", "100627.060000", "100627.520000", "100627.980000", "100628.440000", "100628.900000", "100629.360000", "100629.820000", "100630.280000", "100630.740000", "100631.200000", "100631.660000", "100632.120000", "100632.580000", "100633.040000", "100633.500000", "100633.960000", "100634.420000", "100634.880000", "100635.340000", "100635.800000", "100636.260000", "100636.720000", "100637.180000", "100637.640000", "100638.100000", "100638.560000", "100639.020000", "100639.480000", "100639.940000", "100640.400000", "100640.860000", "100641.320000", "100641.780000", "100642.240000", "100642.700000", "100643.160000", "100643.620000", "100644.080000", "100644.540000", "100645.000000", "100645.460000", "100645.920000", "100646.380000", "100646.840000", "100647.300000", "100647.760000", "100648.220000", "100648.680000", "100649.140000", "100649.600000", "100650.060000", "100650.520000", "100650.980000", "100651.440000", "100651.900000", "100652.360000", "100652.820000", "100653.280000", "100653.740000", "100654.200000", "100654.660000", "100655.120000", "100655.580000", "100656.040000", "100656.500000", "100656.960000", "100657.420000", "100657.880000", "100658.340000", "100658.800000", "100659.260000", "100659.720000", "100700.180000", "100700.640000", "100701.100000", "100701.560000", "100702.020000", "100702.480000", "100702.940000", "100703.400000", "100703.860000", "100704.320000", "100704.780000", "100705.240000", "100705.700000", "100706.160000", "100706.620000", "100707.080000", "100707.540000", "100708.000000", "100708.460000", "100708.920000", "100709.380000", "100709.840000", "100710.300000", "100710.760000", "100711.220000", "100711.680000", "100712.140000", "100712.600000", "100713.060000", "100713.520000", "100713.980000", "100714.440000", "100714.900000", "100715.360000", "100715.820000", "100716.280000", "100716.740000", "100717.200000", "100717.660000", "100718.120000", "100718.580000", "100719.040000", "100719.500000", "100719.960000", "100720.420000", "100720.880000", "100721.340000", "100721.800000", "100722.260000", "100722.720000", "100723.180000", "100723.640000", "100724.100000", "100724.560000", "100725.020000", "100725.480000", "100725.940000", "100726.400000", "100726.860000", "100727.320000", "100727.780000", "100728.240000", "100728.700000", "100729.160000", "100729.620000", "100730.080000", "100730.540000", "100731.000000", "100731.460000", "100731.920000", "100732.380000", "100732.840000", "100733.300000", "100733.760000", "100734.220000", "100734.680000", "100735.140000", "100735.600000", "100736.060000", "100736.520000", "100736.980000", "100737.440000", "100737.900000", "100738.360000", "100738.820000", "100739.280000", "100739.740000", "100740.200000", "100740.660000", "100741.120000", "100741.580000", "100742.040000", "100742.500000", "100742.960000", "100743.420000", "100743.880000", "100744.340000", "100744.800000", "100745.260000", "100745.720000", "100746.180000", "100746.640000", "100747.100000", "100747.560000", "100748.020000", "100748.480000", "100748.940000", "100749.400000", "100749.860000", "100750.320000", "100750.780000", "100751.240000", "100751.700000", "100752.160000", "100752.620000", "100753.080000", "100753.540000", "100754.000000", "100754.460000", "100754.920000", "100755.380000", "100755.840000", "100756.300000", "100756.760000", "100757.220000", "100757.680000", "100758.140000", "100758.600000", "100759.060000", "100759.520000", "100759.980000", "100800.440000", "100800.900000", "100801.360000", "100801.820000", "100802.280000", "100802.740000", "100803.200000", "100803.660000", "100804.120000", "100804.580000", "100805.040000", "100805.500000", "100805.960000", "100806.420000", "100806.880000", "100807.340000", "100807.800000", "100808.260000", "100808.720000", "100809.180000", "100809.640000", "100810.100000", "100810.560000", "100811.020000", "100811.480000", "100811.940000", "100812.400000", "100812.860000", "100813.320000", "100813.780000", "100814.240000", "100814.700000", "100815.160000", "100815.620000", "100816.080000", "100816.540000", "100817.000000", "100817.460000", "100817.920000", "100818.380000", "100818.840000", "100819.300000", "100819.760000", "100820.220000", "100820.680000", "100821.140000", "100821.600000", "100822.060000", "100822.520000", "100822.980000", "100823.440000", "100823.900000", "100824.360000", "100824.820000", "100825.280000", "100825.740000", "100826.200000", "100826.660000", "100827.120000", "100827.580000", "100828.040000", "100828.500000", "100828.960000", "100829.420000", "100829.880000", "100830.340000", "100830.800000", "100831.260000", "100831.720000", "100832.180000", "100832.640000", "100833.100000", "100833.560000", "100834.020000", "100834.480000", "100834.940000", "100835.400000", "100835.860000", "100836.320000", "100836.780000", "100837.240000", "100837.700000", "100838.160000", "100838.620000", "100839.080000", "100839.540000", "100840.000000", "100840.460000", "100840.920000", "100841.380000", "100841.840000", "100842.300000", "100842.760000", "100843.220000", "100843.680000", "100844.140000", "100844.600000", "100845.060000", "100845.520000", "100845.980000", "100846.440000", "100846.900000", "100847.360000", "100847.820000", "100848.280000", "100848.740000", "100849.200000", "100849.660000", "100850.120000", "100850.580000", "100851.040000", "100851.500000", "100851.960000", "100852.420000", "100852.880000", "100853.340000", "100853.800000", "100854.260000", "100854.720000", "100855.180000", "100855.640000", "100856.100000", "100856.560000", "100857.020000", "100857.480000", "100857.940000", "100858.400000", "100858.860000", "100859.320000", "100859.780000", "100900.240000", "100900.700000", "100901.160000", "100901.620000", "100902.080000", "100902.540000", "100903.000000", "100903.460000", "100903.920000", "100904.380000", "100904.840000", "100905.300000", "100905.760000", "100906.220000", "100906.680000", "100907.140000", "100907.600000", "100908.060000", "100908.520000", "100908.980000", "100909.440000", "100909.900000", "100910.360000", "100910.820000", "100911.280000", "100911.740000", "100912.200000", "100912.660000", "100913.120000", "100913.580000", "100914.040000", "100914.500000", "100914.960000", "100915.420000", "100915.880000", "100916.340000", "100916.800000", "100917.260000", "100917.720000", "100918.180000", "100918.640000", "100919.100000", "100919.560000", "100920.020000", "100920.480000", "100920.940000", "100921.400000", "100921.860000", "100922.320000", "100922.780000", "100923.240000", "100923.700000", "100924.160000", "100924.620000", "100925.080000", "100925.540000", "100926.000000", "100926.460000", "100926.920000", "100927.380000", "100927.840000", "100928.300000", "100928.760000", "100929.220000", "100929.680000", "100930.140000", "100930.600000", "100931.060000", "100931.520000", "100931.980000", "100932.440000", "100932.900000", "100933.360000", "100933.820000", "100934.280000", "100934.740000", "100935.200000", "100935.660000", "100936.120000", "100936.580000", "100937.040000", "100937.500000", "100937.960000", "100938.420000", "100938.880000", "100939.340000", "100939.800000", "100940.260000", "100940.720000", "100941.180000", "100941.640000", "100942.100000", "100942.560000", "100943.020000", "100943.480000", "100943.940000", "100944.400000", "100944.860000", "100945.320000", "100945.780000", "100946.240000", "100946.700000", "100947.160000", "100947.620000", "100948.080000", "100948.540000", "100949.000000", "100949.460000", "100949.920000", "100950.380000", "100950.840000", "100951.300000", "100951.760000", "100952.220000", "100952.680000", "100953.140000", "100953.600000", "100954.060000", "100954.520000", "100954.980000", "100955.440000", "100955.900000", "100956.360000", "100956.820000", "100957.280000", "100957.740000", "100958.200000", "100958.660000", "100959.120000", "100959.580000", "101000.040000", "101000.500000", "101000.960000", "101001.420000", "101001.880000", "101002.340000", "101002.800000", "101003.260000", "101003.720000", "101004.180000", "101004.640000", "101005.100000", "101005.560000", "101006.020000", "101006.480000", "101006.940000", "101007.400000", "101007.860000", "101008.320000", "101008.780000", "101009.240000", "101009.700000", "101010.160000", "101010.620000", "101011.080000", "101011.540000", "101012.000000", "101012.460000", "101012.920000", "101013.380000", "101013.840000", "101014.300000", "101014.760000", "101015.220000", "101015.680000", "101016.140000", "101016.600000", "101017.060000", "101017.520000", "101017.980000", "101018.440000", "101018.900000", "101019.360000", "101019.820000", "101020.280000", "101020.740000", "101021.200000", "101021.660000", "101022.120000", "101022.580000", "101023.040000", "101023.500000", "101023.960000", "101024.420000", "101024.880000", "101025.340000", "101025.800000", "101026.260000", "101026.720000", "101027.180000", "101027.640000", "101028.100000", "101028.560000", "101029.020000", "101029.480000", "101029.940000", "101030.400000", "101030.860000", "101031.320000", "101031.780000", "101032.240000", "101032.700000", "101033.160000", "101033.620000", "101034.080000", "101034.540000", "101035.000000", "101035.460000", "101035.920000", "101036.380000", "101036.840000", "101037.300000", "101037.760000", "101038.220000", "101038.680000", "101039.140000", "101039.600000", "101040.060000", "101040.520000", "101040.980000", "101041.440000", "101041.900000", "101042.360000", "101042.820000", "101043.280000", "101043.740000", "101044.200000", "101044.660000", "101045.120000", "101045.580000", "101046.040000", "101046.500000", "101046.960000", "101047.420000", "101047.880000", "101048.340000", "101048.800000", "101049.260000", "101049.720000", "101050.180000", "101050.640000", "101051.100000", "101051.560000", "101052.020000", "101052.480000", "101052.940000", "101053.400000", "101053.860000", "101054.320000", "101054.780000", "101055.240000", "101055.700000", "101056.160000", "101056.620000", "101057.080000", "101057.540000", "101058.000000", "101058.460000", "101058.920000", "101059.380000", "101059.840000", "101100.300000", "101100.760000", "101101.220000", "101101.680000", "101102.140000", "101102.600000", "101103.060000", "101103.520000", "101103.980000", "101104.440000", "101104.900000", "101105.360000", "101105.820000", "101106.280000", "101106.740000", "101107.200000", "101107.660000", "101108.120000", "101108.580000", "101109.040000", "101109.500000", "101109.960000", "101110.420000", "101110.880000", "101111.340000", "101111.800000", "101112.260000", "101112.720000", "101113.180000", "101113.640000", "101114.100000", "101114.560000", "101115.020000", "101115.480000", "101115.940000", "101116.400000", "101116.860000", "101117.320000", "101117.780000", "101118.240000", "101118.700000", "101119.160000", "101119.620000", "101120.080000", "101120.540000", "101121.000000", "101121.460000", "101121.920000", "101122.380000", "101122.840000", "101123.300000", "101123.760000", "101124.220000", "101124.680000", "101125.140000", "101125.600000", "101126.060000", "101126.520000", "101126.980000", "101127.440000", "101127.900000", "101128.360000", "101128.820000", "101129.280000", "101129.740000", "101130.200000", "101130.660000", "101131.120000", "101131.580000", "101132.040000", "101132.500000", "101132.960000", "101133.420000", "101133.880000", "101134.340000", "101134.800000", "101135.260000", "101135.720000", "101136.180000", "101136.640000", "101137.100000", "101137.560000", "101138.020000", "101138.480000", "101138.940000", "101139.400000", "101139.860000", "101140.320000", "101140.780000", "101141.240000", "101141.700000", "101142.160000", "101142.620000", "101143.080000", "101143.540000", "101144.000000", "101144.460000", "101144.920000", "101145.380000", "101145.840000", "101146.300000", "101146.760000", "101147.220000", "101147.680000", "101148.140000", "101148.600000", "101149.060000", "101149.520000", "101149.980000", "101150.440000", "101150.900000", "101151.360000", "101151.820000", "101152.280000", "101152.740000", "101153.200000", "101153.660000", "101154.120000", "101154.580000", "101155.040000"],
