{
  "AcquisitionMatrixPE": 82,
  "AcquisitionNumber": 1,
  "AcquisitionTime": "10:21:54.285000",
  "BandwidthPerPixelPhaseEncode": 24.888,
  "BaseResolution": 82,
  "BodyPartExamined": "BRAIN",
  "ConsistencyInfo": "N4_VE11C_LATEST_20160120",
  "ConversionSoftware": "dcm2niix",
  "ConversionSoftwareVersion": "v1.0.20201102",
  "DerivedVendorReportedEchoSpacing": 0.00049,
  "DeviceSerialNumber": "66112",
  "DwellTime": 2e-06,
  "EchoTime": 0.0272,
  "EchoTrainLength": 82,
  "EffectiveEchoSpacing": 0.00049,
  "FlipAngle": 44,
  "ImageComments": "Unaliased MB8/PE3",
  "ImageOrientationPatientDICOM": [0.997038, -0.0204747, 0.0741382, 0.0231482, 0.999106, -0.0353839],
  "ImageType": [
    "ORIGINAL",
    "PRIMARY",
    "M",
    "MB",
    "ND",
    "NORM",
    "MOSAIC"
],
  "ImagingFrequency": 123.252,
  "InPlanePhaseEncodingDirectionDICOM": "COL",
  "InstitutionAddress": "Maynard 3,Hanover,NH,US,03755",
  "InstitutionName": "Dartmouth College - PBS",
  "InstitutionalDepartmentName": "Department",
  "MRAcquisitionType": "2D",
  "MagneticFieldStrength": 3,
  "Manufacturer": "Siemens",
  "ManufacturersModelName": "Prisma",
  "Modality": "MR",
  "MultibandAccelerationFactor": 8,
  "PartialFourier": 1,
  "PatientPosition": "HFS",
  "PercentPhaseFOV": 100,
  "PercentSampling": 100,
  "PhaseEncodingDirection": "j-",
  "PhaseEncodingSteps": 82,
  "PhaseResolution": 1,
  "PixelBandwidth": 3050,
  "ProcedureStepDescription": "Wager_Wager^1076_spacetop",
  "ProtocolName": "func_run-06_task-social_acq-ap-mb8",
  "PulseSequenceDetails": "%CustomerSeq%\\cmrr_mbep2d_bold",
  "ReceiveCoilActiveElements": "HEA;HEP",
  "ReceiveCoilName": "Head_32",
  "ReconMatrixPE": 82,
  "RepetitionTime": 0.46,
  "SAR": 0.0907035,
  "ScanOptions": "FS",
  "ScanningSequence": "EP",
  "SequenceName": "epfid2d1_82",
  "SequenceVariant": "SK\\SS",
  "SeriesDescription": "func_run-06_task-social_acq-ap-mb8",
  "SeriesNumber": 18,
  "ShimSetting": [4165, -7742, -7236, 735, -19, -179, -34, 18],
  "SliceThickness": 2.7,
  "SliceTiming": [0, 0.2525, 0.0625, 0.315, 0.125, 0.3775, 0.19, 0, 0.2525, 0.0625, 0.315, 0.125, 0.3775, 0.19, 0, 0.2525, 0.0625, 0.315, 0.125, 0.3775, 0.19, 0, 0.2525, 0.0625, 0.315, 0.125, 0.3775, 0.19, 0, 0.2525, 0.0625, 0.315, 0.125, 0.3775, 0.19, 0, 0.2525, 0.0625, 0.315, 0.125, 0.3775, 0.19, 0, 0.2525, 0.0625, 0.315, 0.125, 0.3775, 0.19, 0, 0.2525, 0.0625, 0.315, 0.125, 0.3775, 0.19],
  "SoftwareVersions": "syngo MR E11",
  "SpacingBetweenSlices": 2.7,
  "StationName": "AWP66112",
  "TaskName": "social",
  "TotalReadoutTime": 0.03969,
  "TxRefAmp": 227.768,
  "WipMemBlock": "a14c46bb-9cae-4550-a273-9fd6122e937c||Sequence: R016 ve11c/master r/e634e98; Dec 19 2017 11:00:25 by eja",
  "dcmmeta_affine": [
    [-2.6749794483184814, 0.06210505589842796, 0.19803814589977264, 105.90564727783203],
    [0.054932091385126114, 2.680527448654175, -0.0998871773481369, -95.31631469726562],
    [0.19890747964382172, 0.09493240714073181, 2.6908740997314453, -67.37097930908203],
    [0.0, 0.0, 0.0, 1.0]
],
  "dcmmeta_reorient_transform": [
    [0.0, -1.0, 0.0, 81.0],
    [1.0, 0.0, 0.0, 0.0],
    [0.0, 0.0, 1.0, 0.0],
    [0.0, 0.0, 0.0, 1.0]
],
  "dcmmeta_shape": [82, 82, 56, 872],
  "dcmmeta_slice_dim": 2,
  "dcmmeta_version": 0.6,
  "global": {
    "const": {
      "AccessionNumber": "A003638",
      "AcquisitionMatrix": [82, 0, 0, 82],
      "AngioFlag": "N",
      "BitsAllocated": 16,
      "BitsStored": 16,
      "BodyPartExamined": "BRAIN",
      "Columns": 656,
      "EchoNumbers": 1,
      "EchoTime": 27.2,
      "EchoTrainLength": 82,
      "FlipAngle": 44.0,
      "HighBit": 15,
      "ImageOrientationPatient": [0.99703776697138, -0.0204746887168, 0.07413823814114, 0.02314824787129, 0.99910566930808, -0.0353838971417],
      "ImagePositionPatient": [-896.47940460186, -875.35228685556, -89.522296997342],
      "ImageType": [
        "ORIGINAL",
        "PRIMARY",
        "M",
        "MB",
        "ND",
        "NORM",
        "MOSAIC"
],
      "ImagedNucleus": "1H",
      "ImagingFrequency": 123.252179,
      "InPlanePhaseEncodingDirection": "COL",
      "MRAcquisitionType": "2D",
      "MagneticFieldStrength": 3.0,
      "Manufacturer": "SIEMENS",
      "ManufacturerModelName": "Prisma",
      "Modality": "MR",
      "NumberOfAverages": 1.0,
      "NumberOfPhaseEncodingSteps": 82,
      "PercentPhaseFieldOfView": 100.0,
      "PercentSampling": 100.0,
      "PerformedProcedureStepStartTime": "091551.256000",
      "PhotometricInterpretation": "MONOCHROME2",
      "PixelBandwidth": 3050.0,
      "PixelRepresentation": 0,
      "PixelSpacing": [2.6829268932343, 2.6829268932343],
      "ProtocolName": "func_run-06_task-social_acq-ap-mb8",
      "RepetitionTime": 460.0,
      "Rows": 656,
      "SAR": 0.09070353367594,
      "SamplesPerPixel": 1,
      "ScanOptions": "FS",
      "ScanningSequence": "EP",
      "SequenceName": "epfid2d1_82",
      "SequenceVariant": [
        "SK",
        "SS"
],
      "SeriesDescription": "func_run-06_task-social_acq-ap-mb8",
      "SeriesNumber": 18,
      "SeriesTime": "102203.889000",
      "SliceLocation": -55.849106574274,
      "SliceThickness": 2.7000000476837,
      "SmallestImagePixelValue": 0,
      "SoftwareVersions": "syngo MR E11",
      "SpacingBetweenSlices": 2.6999999613319,
      "SpecificCharacterSet": "ISO_IR 100",
      "StudyID": "1",
      "StudyTime": "091551.158000",
      "TransmitCoilName": "Body",
      "VariableFlipAngleFlag": "N",
      "WindowCenterWidthExplanation": "Algo1",
      "dBdt": 0.0},
    "slices": {}
  },
  "time": {
    "samples": {
      "AcquisitionNumber": [1, 2, 3, 4, 5, 6, 7, 8, 9, 10, 11, 12, 13, 14, 15, 16, 17, 18, 19, 20, 21, 22, 23, 24, 25, 26, 27, 28, 29, 30, 31, 32, 33, 34, 35, 36, 37, 38, 39, 40, 41, 42, 43, 44, 45, 46, 47, 48, 49, 50, 51, 52, 53, 54, 55, 56, 57, 58, 59, 60, 61, 62, 63, 64, 65, 66, 67, 68, 69, 70, 71, 72, 73, 74, 75, 76, 77, 78, 79, 80, 81, 82, 83, 84, 85, 86, 87, 88, 89, 90, 91, 92, 93, 94, 95, 96, 97, 98, 99, 100, 101, 102, 103, 104, 105, 106, 107, 108, 109, 110, 111, 112, 113, 114, 115, 116, 117, 118, 119, 120, 121, 122, 123, 124, 125, 126, 127, 128, 129, 130, 131, 132, 133, 134, 135, 136, 137, 138, 139, 140, 141, 142, 143, 144, 145, 146, 147, 148, 149, 150, 151, 152, 153, 154, 155, 156, 157, 158, 159, 160, 161, 162, 163, 164, 165, 166, 167, 168, 169, 170, 171, 172, 173, 174, 175, 176, 177, 178, 179, 180, 181, 182, 183, 184, 185, 186, 187, 188, 189, 190, 191, 192, 193, 194, 195, 196, 197, 198, 199, 200, 201, 202, 203, 204, 205, 206, 207, 208, 209, 210, 211, 212, 213, 214, 215, 216, 217, 218, 219, 220, 221, 222, 223, 224, 225, 226, 227, 228, 229, 230, 231, 232, 233, 234, 235, 236, 237, 238, 239, 240, 241, 242, 243, 244, 245, 246, 247, 248, 249, 250, 251, 252, 253, 254, 255, 256, 257, 258, 259, 260, 261, 262, 263, 264, 265, 266, 267, 268, 269, 270, 271, 272, 273, 274, 275, 276, 277, 278, 279, 280, 281, 282, 283, 284, 285, 286, 287, 288, 289, 290, 291, 292, 293, 294, 295, 296, 297, 298, 299, 300, 301, 302, 303, 304, 305, 306, 307, 308, 309, 310, 311, 312, 313, 314, 315, 316, 317, 318, 319, 320, 321, 322, 323, 324, 325, 326, 327, 328, 329, 330, 331, 332, 333, 334, 335, 336, 337, 338, 339, 340, 341, 342, 343, 344, 345, 346, 347, 348, 349, 350, 351, 352, 353, 354, 355, 356, 357, 358, 359, 360, 361, 362, 363, 364, 365, 366, 367, 368, 369, 370, 371, 372, 373, 374, 375, 376, 377, 378, 379, 380, 381, 382, 383, 384, 385, 386, 387, 388, 389, 390, 391, 392, 393, 394, 395, 396, 397, 398, 399, 400, 401, 402, 403, 404, 405, 406, 407, 408, 409, 410, 411, 412, 413, 414, 415, 416, 417, 418, 419, 420, 421, 422, 423, 424, 425, 426, 427, 428, 429, 430, 431, 432, 433, 434, 435, 436, 437, 438, 439, 440, 441, 442, 443, 444, 445, 446, 447, 448, 449, 450, 451, 452, 453, 454, 455, 456, 457, 458, 459, 460, 461, 462, 463, 464, 465, 466, 467, 468, 469, 470, 471, 472, 473, 474, 475, 476, 477, 478, 479, 480, 481, 482, 483, 484, 485, 486, 487, 488, 489, 490, 491, 492, 493, 494, 495, 496, 497, 498, 499, 500, 501, 502, 503, 504, 505, 506, 507, 508, 509, 510, 511, 512, 513, 514, 515, 516, 517, 518, 519, 520, 521, 522, 523, 524, 525, 526, 527, 528, 529, 530, 531, 532, 533, 534, 535, 536, 537, 538, 539, 540, 541, 542, 543, 544, 545, 546, 547, 548, 549, 550, 551, 552, 553, 554, 555, 556, 557, 558, 559, 560, 561, 562, 563, 564, 565, 566, 567, 568, 569, 570, 571, 572, 573, 574, 575, 576, 577, 578, 579, 580, 581, 582, 583, 584, 585, 586, 587, 588, 589, 590, 591, 592, 593, 594, 595, 596, 597, 598, 599, 600, 601, 602, 603, 604, 605, 606, 607, 608, 609, 610, 611, 612, 613, 614, 615, 616, 617, 618, 619, 620, 621, 622, 623, 624, 625, 626, 627, 628, 629, 630, 631, 632, 633, 634, 635, 636, 637, 638, 639, 640, 641, 642, 643, 644, 645, 646, 647, 648, 649, 650, 651, 652, 653, 654, 655, 656, 657, 658, 659, 660, 661, 662, 663, 664, 665, 666, 667, 668, 669, 670, 671, 672, 673, 674, 675, 676, 677, 678, 679, 680, 681, 682, 683, 684, 685, 686, 687, 688, 689, 690, 691, 692, 693, 694, 695, 696, 697, 698, 699, 700, 701, 702, 703, 704, 705, 706, 707, 708, 709, 710, 711, 712, 713, 714, 715, 716, 717, 718, 719, 720, 721, 722, 723, 724, 725, 726, 727, 728, 729, 730, 731, 732, 733, 734, 735, 736, 737, 738, 739, 740, 741, 742, 743, 744, 745, 746, 747, 748, 749, 750, 751, 752, 753, 754, 755, 756, 757, 758, 759, 760, 761, 762, 763, 764, 765, 766, 767, 768, 769, 770, 771, 772, 773, 774, 775, 776, 777, 778, 779, 780, 781, 782, 783, 784, 785, 786, 787, 788, 789, 790, 791, 792, 793, 794, 795, 796, 797, 798, 799, 800, 801, 802, 803, 804, 805, 806, 807, 808, 809, 810, 811, 812, 813, 814, 815, 816, 817, 818, 819, 820, 821, 822, 823, 824, 825, 826, 827, 828, 829, 830, 831, 832, 833, 834, 835, 836, 837, 838, 839, 840, 841, 842, 843, 844, 845, 846, 847, 848, 849, 850, 851, 852, 853, 854, 855, 856, 857, 858, 859, 860, 861, 862, 863, 864, 865, 866, 867, 868, 869, 870, 871, 872],
      "AcquisitionTime": ["102154.285000", "102154.745000", "102155.205000", "102155.665000", "102156.125000", "102156.585000", "102157.045000", "102157.505000", "102157.965000", "102158.425000", "102158.885000", "102159.345000", "102159.805000", "102200.265000", "102200.725000", "102201.185000", "102201.645000", "102202.105000", "102202.565000", "102203.025000", "102203.485000", "102203.945000", "102204.405000", "102204.865000", "102205.325000", "102205.785000", "102206.245000", "102206.705000", "102207.165000", "102207.625000", "102208.085000", "102208.545000", "102209.005000", "102209.465000", "102209.925000", "102210.385000", "102210.845000", "102211.305000", "102211.765000", "102212.225000", "102212.685000", "102213.145000", "102213.605000", "102214.065000", "102214.525000", "102214.985000", "102215.445000", "102215.905000", "102216.365000", "102216.825000", "102217.285000", "102217.745000", "102218.205000", "102218.665000", "102219.125000", "102219.585000", "102220.045000", "102220.505000", "102220.965000", "102221.425000", "102221.885000", "102222.345000", "102222.805000", "102223.265000", "102223.725000", "102224.185000", "102224.645000", "102225.105000", "102225.565000", "102226.025000", "102226.485000", "102226.945000", "102227.405000", "102227.865000", "102228.325000", "102228.785000", "102229.245000", "102229.705000", "102230.165000", "102230.625000", "102231.085000", "102231.545000", "102232.005000", "102232.465000", "102232.925000", "102233.385000", "102233.845000", "102234.305000", "102234.765000", "102235.225000", "102235.685000", "102236.145000", "102236.605000", "102237.065000", "102237.525000", "102237.985000", "102238.445000", "102238.905000", "102239.365000", "102239.825000", "102240.285000", "102240.745000", "102241.205000", "102241.665000", "102242.125000", "102242.585000", "102243.045000", "102243.505000", "102243.965000", "102244.425000", "102244.885000", "102245.345000", "102245.805000", "102246.265000", "102246.725000", "102247.185000", "102247.645000", "102248.105000", "102248.565000", "102249.025000", "102249.485000", "102249.945000", "102250.405000", "102250.865000", "102251.325000", "102251.785000", "102252.245000", "102252.705000", "102253.165000", "102253.625000", "102254.085000", "102254.545000", "102255.005000", "102255.465000", "102255.925000", "102256.385000", "102256.845000", "102257.305000", "102257.765000", "102258.225000", "102258.685000", "102259.145000", "102259.605000", "102300.065000", "102300.525000", "102300.985000", "102301.445000", "102301.905000", "102302.365000", "102302.825000", "102303.285000", "102303.745000", "102304.205000", "102304.665000", "102305.125000", "102305.585000", "102306.045000", "102306.505000", "102306.965000", "102307.425000", "102307.885000", "102308.345000", "102308.805000", "102309.265000", "102309.725000", "102310.185000", "102310.645000", "102311.105000", "102311.565000", "102312.025000", "102312.485000", "102312.945000", "102313.405000", "102313.865000", "102314.325000", "102314.785000", "102315.245000", "102315.705000", "102316.165000", "102316.625000", "102317.085000", "102317.545000", "102318.005000", "102318.465000", "102318.925000", "102319.385000", "102319.845000", "102320.305000", "102320.765000", "102321.225000", "102321.685000", "102322.145000", "102322.605000", "102323.065000", "102323.525000", "102323.985000", "102324.445000", "102324.905000", "102325.365000", "102325.825000", "102326.285000", "102326.745000", "102327.205000", "102327.665000", "102328.125000", "102328.585000", "102329.045000", "102329.505000", "102329.965000", "102330.425000", "102330.885000", "102331.345000", "102331.805000", "102332.265000", "102332.725000", "102333.185000", "102333.645000", "102334.105000", "102334.565000", "102335.025000", "102335.485000", "102335.945000", "102336.405000", "102336.865000", "102337.325000", "102337.785000", "102338.245000", "102338.705000", "102339.165000", "102339.625000", "102340.085000", "102340.545000", "102341.005000", "102341.465000", "102341.925000", "102342.385000", "102342.845000", "102343.305000", "102343.765000", "102344.225000", "102344.685000", "102345.145000", "102345.605000", "102346.065000", "102346.525000", "102346.985000", "102347.445000", "102347.905000", "102348.365000", "102348.825000", "102349.285000", "102349.745000", "102350.205000", "102350.665000", "102351.125000", "102351.585000", "102352.045000", "102352.505000", "102352.965000", "102353.425000", "102353.885000", "102354.345000", "102354.805000", "102355.265000", "102355.725000", "102356.185000", "102356.645000", "102357.105000", "102357.565000", "102358.025000", "102358.485000", "102358.945000", "102359.405000", "102359.865000", "102400.325000", "102400.785000", "102401.245000", "102401.705000", "102402.165000", "102402.625000", "102403.085000", "102403.545000", "102404.005000", "102404.465000", "102404.925000", "102405.385000", "102405.845000", "102406.305000", "102406.765000", "102407.225000", "102407.685000", "102408.145000", "102408.605000", "102409.065000", "102409.525000", "102409.985000", "102410.445000", "102410.905000", "102411.365000", "102411.825000", "102412.285000", "102412.745000", "102413.205000", "102413.665000", "102414.125000", "102414.585000", "102415.045000", "102415.505000", "102415.965000", "102416.425000", "102416.885000", "102417.345000", "102417.805000", "102418.265000", "102418.725000", "102419.185000", "102419.645000", "102420.105000", "102420.565000", "102421.025000", "102421.485000", "102421.945000", "102422.405000", "102422.865000", "102423.325000", "102423.785000", "102424.245000", "102424.705000", "102425.165000", "102425.625000", "102426.085000", "102426.545000", "102427.005000", "102427.465000", "102427.925000", "102428.385000", "102428.845000", "102429.305000", "102429.765000", "102430.225000", "102430.685000", "102431.145000", "102431.605000", "102432.065000", "102432.525000", "102432.985000", "102433.445000", "102433.905000", "102434.365000", "102434.825000", "102435.285000", "102435.745000", "102436.205000", "102436.665000", "102437.125000", "102437.585000", "102438.045000", "102438.505000", "102438.965000", "102439.425000", "102439.885000", "102440.345000", "102440.805000", "102441.265000", "102441.725000", "102442.185000", "102442.645000", "102443.105000", "102443.565000", "102444.025000", "102444.485000", "102444.945000", "102445.405000", "102445.865000", "102446.325000", "102446.785000", "102447.245000", "102447.705000", "102448.165000", "102448.625000", "102449.085000", "102449.545000", "102450.005000", "102450.465000", "102450.925000", "102451.385000", "102451.845000", "102452.305000", "102452.765000", "102453.225000", "102453.685000", "102454.145000", "102454.605000", "102455.065000", "102455.525000", "102455.985000", "102456.445000", "102456.905000", "102457.365000", "102457.825000", "102458.285000", "102458.745000", "102459.205000", "102459.665000", "102500.125000", "102500.585000", "102501.045000", "102501.505000", "102501.965000", "102502.425000", "102502.885000", "102503.345000", "102503.805000", "102504.265000", "102504.725000", "102505.185000", "102505.645000", "102506.105000", "102506.565000", "102507.025000", "102507.485000", "102507.945000", "102508.405000", "102508.865000", "102509.325000", "102509.785000", "102510.245000", "102510.705000", "102511.165000", "102511.625000", "102512.085000", "102512.545000", "102513.005000", "102513.465000", "102513.925000", "102514.385000", "102514.845000", "102515.305000", "102515.765000", "102516.225000", "102516.685000", "102517.145000", "102517.605000", "102518.065000", "102518.525000", "102518.985000", "102519.445000", "102519.905000", "102520.365000", "102520.825000", "102521.285000", "102521.745000", "102522.205000", "102522.665000", "102523.125000", "102523.585000", "102524.045000", "102524.505000", "102524.965000", "102525.425000", "102525.885000", "102526.345000", "102526.805000", "102527.265000", "102527.725000", "102528.185000", "102528.645000", "102529.105000", "102529.565000", "102530.025000", "102530.485000", "102530.945000", "102531.405000", "102531.865000", "102532.325000", "102532.785000", "102533.245000", "102533.705000", "102534.165000", "102534.625000", "102535.085000", "102535.545000", "102536.005000", "102536.465000", "102536.925000", "102537.385000", "102537.845000", "102538.305000", "102538.765000", "102539.225000", "102539.685000", "102540.145000", "102540.605000", "102541.065000", "102541.525000", "102541.985000", "102542.445000", "102542.905000", "102543.365000", "102543.825000", "102544.285000", "102544.745000", "102545.205000", "102545.665000", "102546.125000", "102546.585000", "102547.045000", "102547.505000", "102547.965000", "102548.425000", "102548.885000", "102549.345000", "102549.805000", "102550.265000", "102550.725000", "102551.185000", "102551.645000", "102552.105000", "102552.565000", "102553.025000", "102553.485000", "102553.945000", "102554.405000", "102554.865000", "102555.325000", "102555.785000", "102556.245000", "102556.705000", "102557.165000", "102557.625000", "102558.085000", "102558.545000", "102559.005000", "102559.465000", "102559.925000", "102600.385000", "102600.845000", "102601.305000", "102601.765000", "102602.225000", "102602.685000", "102603.145000", "102603.605000", "102604.065000", "102604.525000", "102604.985000", "102605.445000", "102605.905000", "102606.365000", "102606.825000", "102607.285000", "102607.745000", "102608.205000", "102608.665000", "102609.125000", "102609.585000", "102610.045000", "102610.505000", "102610.965000", "102611.425000", "102611.885000", "102612.345000", "102612.805000", "102613.265000", "102613.725000", "102614.185000", "102614.645000", "102615.105000", "102615.565000", "102616.025000", "102616.485000", "102616.945000", "102617.405000", "102617.865000", "102618.325000", "102618.785000", "102619.245000", "102619.705000", "102620.165000", "102620.625000", "102621.085000", "102621.545000", "102622.005000", "102622.465000", "102622.925000", "102623.385000", "102623.845000", "102624.305000", "102624.765000", "102625.225000", "102625.685000", "102626.145000", "102626.605000", "102627.065000", "102627.525000", "102627.985000", "102628.445000", "102628.905000", "102629.365000", "102629.825000", "102630.285000", "102630.745000", "102631.205000", "102631.665000", "102632.125000", "102632.585000", "102633.045000", "102633.505000", "102633.965000", "102634.425000", "102634.885000", "102635.345000", "102635.805000", "102636.265000", "102636.725000", "102637.185000", "102637.645000", "102638.105000", "102638.565000", "102639.025000", "102639.485000", "102639.945000", "102640.405000", "102640.865000", "102641.325000", "102641.785000", "102642.245000", "102642.705000", "102643.165000", "102643.625000", "102644.085000", "102644.545000", "102645.005000", "102645.465000", "102645.925000", "102646.385000", "102646.845000", "102647.305000", "102647.765000", "102648.225000", "102648.685000", "102649.145000", "102649.605000", "102650.065000", "102650.525000", "102650.985000", "102651.445000", "102651.905000", "102652.365000", "102652.825000", "102653.285000", "102653.745000", "102654.205000", "102654.665000", "102655.125000", "102655.585000", "102656.045000", "102656.505000", "102656.965000", "102657.425000", "102657.885000", "102658.345000", "102658.805000", "102659.265000", "102659.725000", "102700.185000", "102700.645000", "102701.105000", "102701.565000", "102702.025000", "102702.485000", "102702.945000", "102703.405000", "102703.865000", "102704.325000", "102704.785000", "102705.245000", "102705.705000", "102706.165000", "102706.625000", "102707.085000", "102707.545000", "102708.005000", "102708.465000", "102708.925000", "102709.385000", "102709.845000", "102710.305000", "102710.765000", "102711.225000", "102711.685000", "102712.145000", "102712.605000", "102713.065000", "102713.525000", "102713.985000", "102714.445000", "102714.905000", "102715.365000", "102715.825000", "102716.285000", "102716.745000", "102717.205000", "102717.665000", "102718.125000", "102718.585000", "102719.045000", "102719.505000", "102719.965000", "102720.425000", "102720.885000", "102721.345000", "102721.805000", "102722.265000", "102722.725000", "102723.185000", "102723.645000", "102724.105000", "102724.565000", "102725.025000", "102725.485000", "102725.945000", "102726.405000", "102726.865000", "102727.325000", "102727.785000", "102728.245000", "102728.705000", "102729.165000", "102729.625000", "102730.085000", "102730.545000", "102731.005000", "102731.465000", "102731.925000", "102732.385000", "102732.845000", "102733.305000", "102733.765000", "102734.225000", "102734.685000", "102735.145000", "102735.605000", "102736.065000", "102736.525000", "102736.985000", "102737.445000", "102737.905000", "102738.365000", "102738.825000", "102739.285000", "102739.745000", "102740.205000", "102740.665000", "102741.125000", "102741.585000", "102742.045000", "102742.505000", "102742.965000", "102743.425000", "102743.885000", "102744.345000", "102744.805000", "102745.265000", "102745.725000", "102746.185000", "102746.645000", "102747.105000", "102747.565000", "102748.025000", "102748.485000", "102748.945000", "102749.405000", "102749.865000", "102750.325000", "102750.785000", "102751.245000", "102751.705000", "102752.165000", "102752.625000", "102753.085000", "102753.545000", "102754.005000", "102754.465000", "102754.925000", "102755.385000", "102755.845000", "102756.305000", "102756.765000", "102757.225000", "102757.685000", "102758.145000", "102758.605000", "102759.065000", "102759.525000", "102759.985000", "102800.445000", "102800.905000", "102801.365000", "102801.825000", "102802.285000", "102802.745000", "102803.205000", "102803.665000", "102804.125000", "102804.585000", "102805.045000", "102805.505000", "102805.965000", "102806.425000", "102806.885000", "102807.345000", "102807.805000", "102808.265000", "102808.725000", "102809.185000", "102809.645000", "102810.105000", "102810.565000", "102811.025000", "102811.485000", "102811.945000", "102812.405000", "102812.865000", "102813.325000", "102813.785000", "102814.245000", "102814.705000", "102815.165000", "102815.625000", "102816.085000", "102816.545000", "102817.005000", "102817.465000", "102817.925000", "102818.385000", "102818.845000", "102819.305000", "102819.765000", "102820.225000", "102820.685000", "102821.145000", "102821.605000", "102822.065000", "102822.525000", "102822.985000", "102823.445000", "102823.905000", "102824.365000", "102824.825000", "102825.285000", "102825.745000", "102826.205000", "102826.665000", "102827.125000", "102827.585000", "102828.045000", "102828.505000", "102828.965000", "102829.425000", "102829.885000", "102830.345000", "102830.805000", "102831.265000", "102831.725000", "102832.185000", "102832.645000", "102833.105000", "102833.565000", "102834.025000", "102834.485000", "102834.945000"],
