{
  "AcquisitionMatrixPE": 82,
  "AcquisitionNumber": 1,
  "AcquisitionTime": "09:50:29.310000",
  "BandwidthPerPixelPhaseEncode": 24.888,
  "BaseResolution": 82,
  "BodyPartExamined": "BRAIN",
  "ConsistencyInfo": "N4_VE11C_LATEST_20160120",
  "ConversionSoftware": "dcm2niix",
  "ConversionSoftwareVersion": "v1.0.20201102",
  "DerivedVendorReportedEchoSpacing": 0.00049,
  "DeviceSerialNumber": "66112",
  "DwellTime": 2e-06,
  "EchoTime": 0.0272,
  "EchoTrainLength": 82,
  "EffectiveEchoSpacing": 0.00049,
  "FlipAngle": 44,
  "ImageComments": "Unaliased MB8/PE3",
  "ImageOrientationPatientDICOM": [0.997038, -0.0204747, 0.0741382, 0.0231482, 0.999106, -0.0353839],
  "ImageType": [
    "ORIGINAL",
    "PRIMARY",
    "M",
    "MB",
    "ND",
    "NORM",
    "MOSAIC"
],
  "ImagingFrequency": 123.252,
  "InPlanePhaseEncodingDirectionDICOM": "COL",
  "InstitutionAddress": "Maynard 3,Hanover,NH,US,03755",
  "InstitutionName": "Dartmouth College - PBS",
  "InstitutionalDepartmentName": "Department",
  "MRAcquisitionType": "2D",
  "MagneticFieldStrength": 3,
  "Manufacturer": "Siemens",
  "ManufacturersModelName": "Prisma",
  "Modality": "MR",
  "MultibandAccelerationFactor": 8,
  "PartialFourier": 1,
  "PatientPosition": "HFS",
  "PercentPhaseFOV": 100,
  "PercentSampling": 100,
  "PhaseEncodingDirection": "j-",
  "PhaseEncodingSteps": 82,
  "PhaseResolution": 1,
  "PixelBandwidth": 3050,
  "ProcedureStepDescription": "Wager_Wager^1076_spacetop",
  "ProtocolName": "func_run-02_task-social_acq-ap-mb8",
  "PulseSequenceDetails": "%CustomerSeq%\\cmrr_mbep2d_bold",
  "ReceiveCoilActiveElements": "HEA;HEP",
  "ReceiveCoilName": "Head_32",
  "ReconMatrixPE": 82,
  "RepetitionTime": 0.46,
  "SAR": 0.0907035,
  "ScanOptions": "FS",
  "ScanningSequence": "EP",
  "SequenceName": "epfid2d1_82",
  "SequenceVariant": "SK\\SS",
  "SeriesDescription": "func_run-02_task-social_acq-ap-mb8",
  "SeriesNumber": 10,
  "ShimSetting": [4165, -7742, -7236, 735, -19, -179, -34, 18],
  "SliceThickness": 2.7,
  "SliceTiming": [0, 0.2525, 0.0625, 0.315, 0.125, 0.3775, 0.1875, 0, 0.2525, 0.0625, 0.315, 0.125, 0.3775, 0.1875, 0, 0.2525, 0.0625, 0.315, 0.125, 0.3775, 0.1875, 0, 0.2525, 0.0625, 0.315, 0.125, 0.3775, 0.1875, 0, 0.2525, 0.0625, 0.315, 0.125, 0.3775, 0.1875, 0, 0.2525, 0.0625, 0.315, 0.125, 0.3775, 0.1875, 0, 0.2525, 0.0625, 0.315, 0.125, 0.3775, 0.1875, 0, 0.2525, 0.0625, 0.315, 0.125, 0.3775, 0.1875],
  "SoftwareVersions": "syngo MR E11",
  "SpacingBetweenSlices": 2.7,
  "StationName": "AWP66112",
  "TaskName": "social",
  "TotalReadoutTime": 0.03969,
  "TxRefAmp": 227.768,
  "WipMemBlock": "2c24080c-9e79-46c5-b6b8-e6f95b1d99f0||Sequence: R016 ve11c/master r/e634e98; Dec 19 2017 11:00:25 by eja",
  "dcmmeta_affine": [
    [-2.6749794483184814, 0.06210505589842796, 0.19803814589977264, 105.90564727783203],
    [0.054932091385126114, 2.680527448654175, -0.0998871773481369, -95.31631469726562],
    [0.19890747964382172, 0.09493240714073181, 2.6908740997314453, -67.37097930908203],
    [0.0, 0.0, 0.0, 1.0]
],
  "dcmmeta_reorient_transform": [
    [0.0, -1.0, 0.0, 81.0],
    [1.0, 0.0, 0.0, 0.0],
    [0.0, 0.0, 1.0, 0.0],
    [0.0, 0.0, 0.0, 1.0]
],
  "dcmmeta_shape": [82, 82, 56, 872],
  "dcmmeta_slice_dim": 2,
  "dcmmeta_version": 0.6,
  "global": {
    "const": {
      "AccessionNumber": "A003638",
      "AcquisitionMatrix": [82, 0, 0, 82],
      "AngioFlag": "N",
      "BitsAllocated": 16,
      "BitsStored": 16,
      "BodyPartExamined": "BRAIN",
      "Columns": 656,
      "EchoNumbers": 1,
      "EchoTime": 27.2,
      "EchoTrainLength": 82,
      "FlipAngle": 44.0,
      "HighBit": 15,
      "ImageOrientationPatient": [0.99703776697138, -0.0204746887168, 0.07413823814114, 0.02314824787129, 0.99910566930808, -0.0353838971417],
      "ImagePositionPatient": [-896.47940460186, -875.35228685556, -89.522296997342],
      "ImageType": [
        "ORIGINAL",
        "PRIMARY",
        "M",
        "MB",
        "ND",
        "NORM",
        "MOSAIC"
],
      "ImagedNucleus": "1H",
      "ImagingFrequency": 123.252163,
      "InPlanePhaseEncodingDirection": "COL",
      "MRAcquisitionType": "2D",
      "MagneticFieldStrength": 3.0,
      "Manufacturer": "SIEMENS",
      "ManufacturerModelName": "Prisma",
      "Modality": "MR",
      "NumberOfAverages": 1.0,
      "NumberOfPhaseEncodingSteps": 82,
      "PercentPhaseFieldOfView": 100.0,
      "PercentSampling": 100.0,
      "PerformedProcedureStepStartTime": "091551.256000",
      "PhotometricInterpretation": "MONOCHROME2",
      "PixelBandwidth": 3050.0,
      "PixelRepresentation": 0,
      "PixelSpacing": [2.6829268932343, 2.6829268932343],
      "ProtocolName": "func_run-02_task-social_acq-ap-mb8",
      "RepetitionTime": 460.0,
      "Rows": 656,
      "SAR": 0.09070353367594,
      "SamplesPerPixel": 1,
      "ScanOptions": "FS",
      "ScanningSequence": "EP",
      "SequenceName": "epfid2d1_82",
      "SequenceVariant": [
        "SK",
        "SS"
],
      "SeriesDescription": "func_run-02_task-social_acq-ap-mb8",
      "SeriesNumber": 10,
      "SeriesTime": "095044.013000",
      "SliceLocation": -55.849106574274,
      "SliceThickness": 2.7000000476837,
      "SmallestImagePixelValue": 0,
      "SoftwareVersions": "syngo MR E11",
      "SpacingBetweenSlices": 2.6999999613319,
      "SpecificCharacterSet": "ISO_IR 100",
      "StudyID": "1",
      "StudyTime": "091551.158000",
      "TransmitCoilName": "Body",
      "VariableFlipAngleFlag": "N",
      "WindowCenterWidthExplanation": "Algo1",
      "dBdt": 0.0},
    "slices": {}
  },
  "time": {
    "samples": {
      "AcquisitionNumber": [1, 2, 3, 4, 5, 6, 7, 8, 9, 10, 11, 12, 13, 14, 15, 16, 17, 18, 19, 20, 21, 22, 23, 24, 25, 26, 27, 28, 29, 30, 31, 32, 33, 34, 35, 36, 37, 38, 39, 40, 41, 42, 43, 44, 45, 46, 47, 48, 49, 50, 51, 52, 53, 54, 55, 56, 57, 58, 59, 60, 61, 62, 63, 64, 65, 66, 67, 68, 69, 70, 71, 72, 73, 74, 75, 76, 77, 78, 79, 80, 81, 82, 83, 84, 85, 86, 87, 88, 89, 90, 91, 92, 93, 94, 95, 96, 97, 98, 99, 100, 101, 102, 103, 104, 105, 106, 107, 108, 109, 110, 111, 112, 113, 114, 115, 116, 117, 118, 119, 120, 121, 122, 123, 124, 125, 126, 127, 128, 129, 130, 131, 132, 133, 134, 135, 136, 137, 138, 139, 140, 141, 142, 143, 144, 145, 146, 147, 148, 149, 150, 151, 152, 153, 154, 155, 156, 157, 158, 159, 160, 161, 162, 163, 164, 165, 166, 167, 168, 169, 170, 171, 172, 173, 174, 175, 176, 177, 178, 179, 180, 181, 182, 183, 184, 185, 186, 187, 188, 189, 190, 191, 192, 193, 194, 195, 196, 197, 198, 199, 200, 201, 202, 203, 204, 205, 206, 207, 208, 209, 210, 211, 212, 213, 214, 215, 216, 217, 218, 219, 220, 221, 222, 223, 224, 225, 226, 227, 228, 229, 230, 231, 232, 233, 234, 235, 236, 237, 238, 239, 240, 241, 242, 243, 244, 245, 246, 247, 248, 249, 250, 251, 252, 253, 254, 255, 256, 257, 258, 259, 260, 261, 262, 263, 264, 265, 266, 267, 268, 269, 270, 271, 272, 273, 274, 275, 276, 277, 278, 279, 280, 281, 282, 283, 284, 285, 286, 287, 288, 289, 290, 291, 292, 293, 294, 295, 296, 297, 298, 299, 300, 301, 302, 303, 304, 305, 306, 307, 308, 309, 310, 311, 312, 313, 314, 315, 316, 317, 318, 319, 320, 321, 322, 323, 324, 325, 326, 327, 328, 329, 330, 331, 332, 333, 334, 335, 336, 337, 338, 339, 340, 341, 342, 343, 344, 345, 346, 347, 348, 349, 350, 351, 352, 353, 354, 355, 356, 357, 358, 359, 360, 361, 362, 363, 364, 365, 366, 367, 368, 369, 370, 371, 372, 373, 374, 375, 376, 377, 378, 379, 380, 381, 382, 383, 384, 385, 386, 387, 388, 389, 390, 391, 392, 393, 394, 395, 396, 397, 398, 399, 400, 401, 402, 403, 404, 405, 406, 407, 408, 409, 410, 411, 412, 413, 414, 415, 416, 417, 418, 419, 420, 421, 422, 423, 424, 425, 426, 427, 428, 429, 430, 431, 432, 433, 434, 435, 436, 437, 438, 439, 440, 441, 442, 443, 444, 445, 446, 447, 448, 449, 450, 451, 452, 453, 454, 455, 456, 457, 458, 459, 460, 461, 462, 463, 464, 465, 466, 467, 468, 469, 470, 471, 472, 473, 474, 475, 476, 477, 478, 479, 480, 481, 482, 483, 484, 485, 486, 487, 488, 489, 490, 491, 492, 493, 494, 495, 496, 497, 498, 499, 500, 501, 502, 503, 504, 505, 506, 507, 508, 509, 510, 511, 512, 513, 514, 515, 516, 517, 518, 519, 520, 521, 522, 523, 524, 525, 526, 527, 528, 529, 530, 531, 532, 533, 534, 535, 536, 537, 538, 539, 540, 541, 542, 543, 544, 545, 546, 547, 548, 549, 550, 551, 552, 553, 554, 555, 556, 557, 558, 559, 560, 561, 562, 563, 564, 565, 566, 567, 568, 569, 570, 571, 572, 573, 574, 575, 576, 577, 578, 579, 580, 581, 582, 583, 584, 585, 586, 587, 588, 589, 590, 591, 592, 593, 594, 595, 596, 597, 598, 599, 600, 601, 602, 603, 604, 605, 606, 607, 608, 609, 610, 611, 612, 613, 614, 615, 616, 617, 618, 619, 620, 621, 622, 623, 624, 625, 626, 627, 628, 629, 630, 631, 632, 633, 634, 635, 636, 637, 638, 639, 640, 641, 642, 643, 644, 645, 646, 647, 648, 649, 650, 651, 652, 653, 654, 655, 656, 657, 658, 659, 660, 661, 662, 663, 664, 665, 666, 667, 668, 669, 670, 671, 672, 673, 674, 675, 676, 677, 678, 679, 680, 681, 682, 683, 684, 685, 686, 687, 688, 689, 690, 691, 692, 693, 694, 695, 696, 697, 698, 699, 700, 701, 702, 703, 704, 705, 706, 707, 708, 709, 710, 711, 712, 713, 714, 715, 716, 717, 718, 719, 720, 721, 722, 723, 724, 725, 726, 727, 728, 729, 730, 731, 732, 733, 734, 735, 736, 737, 738, 739, 740, 741, 742, 743, 744, 745, 746, 747, 748, 749, 750, 751, 752, 753, 754, 755, 756, 757, 758, 759, 760, 761, 762, 763, 764, 765, 766, 767, 768, 769, 770, 771, 772, 773, 774, 775, 776, 777, 778, 779, 780, 781, 782, 783, 784, 785, 786, 787, 788, 789, 790, 791, 792, 793, 794, 795, 796, 797, 798, 799, 800, 801, 802, 803, 804, 805, 806, 807, 808, 809, 810, 811, 812, 813, 814, 815, 816, 817, 818, 819, 820, 821, 822, 823, 824, 825, 826, 827, 828, 829, 830, 831, 832, 833, 834, 835, 836, 837, 838, 839, 840, 841, 842, 843, 844, 845, 846, 847, 848, 849, 850, 851, 852, 853, 854, 855, 856, 857, 858, 859, 860, 861, 862, 863, 864, 865, 866, 867, 868, 869, 870, 871, 872],
      "AcquisitionTime": ["095029.310000", "095029.770000", "095030.230000", "095030.690000", "095031.150000", "095031.610000", "095032.070000", "095032.530000", "095032.990000", "095033.450000", "095033.910000", "095034.370000", "095034.830000", "095035.290000", "095035.750000", "095036.210000", "095036.670000", "095037.130000", "095037.590000", "095038.050000", "095038.510000", "095038.970000", "095039.430000", "095039.890000", "095040.350000", "095040.810000", "095041.270000", "095041.730000", "095042.190000", "095042.650000", "095043.110000", "095043.570000", "095044.030000", "095044.490000", "095044.950000", "095045.410000", "095045.870000", "095046.330000", "095046.790000", "095047.250000", "095047.710000", "095048.170000", "095048.630000", "095049.090000", "095049.550000", "095050.010000", "095050.470000", "095050.930000", "095051.390000", "095051.850000", "095052.310000", "095052.770000", "095053.230000", "095053.690000", "095054.150000", "095054.610000", "095055.070000", "095055.530000", "095055.990000", "095056.450000", "095056.910000", "095057.370000", "095057.830000", "095058.290000", "095058.750000", "095059.210000", "095059.670000", "095100.130000", "095100.590000", "095101.050000", "095101.510000", "095101.970000", "095102.430000", "095102.890000", "095103.350000", "095103.810000", "095104.270000", "095104.730000", "095105.190000", "095105.650000", "095106.110000", "095106.570000", "095107.030000", "095107.490000", "095107.950000", "095108.410000", "095108.870000", "095109.330000", "095109.790000", "095110.250000", "095110.710000", "095111.170000", "095111.630000", "095112.090000", "095112.550000", "095113.010000", "095113.470000", "095113.930000", "095114.390000", "095114.850000", "095115.310000", "095115.770000", "095116.230000", "095116.690000", "095117.150000", "095117.610000", "095118.070000", "095118.530000", "095118.990000", "095119.450000", "095119.910000", "095120.370000", "095120.830000", "095121.290000", "095121.750000", "095122.210000", "095122.670000", "095123.130000", "095123.590000", "095124.050000", "095124.510000", "095124.970000", "095125.430000", "095125.890000", "095126.350000", "095126.810000", "095127.270000", "095127.730000", "095128.190000", "095128.650000", "095129.110000", "095129.570000", "095130.030000", "095130.490000", "095130.950000", "095131.410000", "095131.870000", "095132.330000", "095132.790000", "095133.250000", "095133.710000", "095134.170000", "095134.630000", "095135.090000", "095135.550000", "095136.010000", "095136.470000", "095136.930000", "095137.390000", "095137.850000", "095138.310000", "095138.770000", "095139.230000", "095139.690000", "095140.150000", "095140.610000", "095141.070000", "095141.530000", "095141.990000", "095142.450000", "095142.910000", "095143.370000", "095143.830000", "095144.290000", "095144.750000", "095145.210000", "095145.670000", "095146.130000", "095146.590000", "095147.050000", "095147.510000", "095147.970000", "095148.430000", "095148.890000", "095149.350000", "095149.810000", "095150.270000", "095150.730000", "095151.190000", "095151.650000", "095152.110000", "095152.570000", "095153.030000", "095153.490000", "095153.950000", "095154.410000", "095154.870000", "095155.330000", "095155.790000", "095156.250000", "095156.710000", "095157.170000", "095157.630000", "095158.090000", "095158.550000", "095159.010000", "095159.470000", "095159.930000", "095200.390000", "095200.850000", "095201.310000", "095201.770000", "095202.230000", "095202.690000", "095203.150000", "095203.610000", "095204.070000", "095204.530000", "095204.990000", "095205.450000", "095205.910000", "095206.370000", "095206.830000", "095207.290000", "095207.750000", "095208.210000", "095208.670000", "095209.130000", "095209.590000", "095210.050000", "095210.510000", "095210.970000", "095211.430000", "095211.890000", "095212.350000", "095212.810000", "095213.270000", "095213.730000", "095214.190000", "095214.650000", "095215.110000", "095215.570000", "095216.030000", "095216.490000", "095216.950000", "095217.410000", "095217.870000", "095218.330000", "095218.790000", "095219.250000", "095219.710000", "095220.170000", "095220.630000", "095221.090000", "095221.550000", "095222.010000", "095222.470000", "095222.930000", "095223.390000", "095223.850000", "095224.310000", "095224.770000", "095225.230000", "095225.690000", "095226.150000", "095226.610000", "095227.070000", "095227.530000", "095227.990000", "095228.450000", "095228.910000", "095229.370000", "095229.830000", "095230.290000", "095230.750000", "095231.210000", "095231.670000", "095232.130000", "095232.590000", "095233.050000", "095233.510000", "095233.970000", "095234.430000", "095234.890000", "095235.350000", "095235.810000", "095236.270000", "095236.730000", "095237.190000", "095237.650000", "095238.110000", "095238.570000", "095239.030000", "095239.490000", "095239.950000", "095240.410000", "095240.870000", "095241.330000", "095241.790000", "095242.250000", "095242.710000", "095243.170000", "095243.630000", "095244.090000", "095244.550000", "095245.010000", "095245.470000", "095245.930000", "095246.390000", "095246.850000", "095247.310000", "095247.770000", "095248.230000", "095248.690000", "095249.150000", "095249.610000", "095250.070000", "095250.530000", "095250.990000", "095251.450000", "095251.910000", "095252.370000", "095252.830000", "095253.290000", "095253.750000", "095254.210000", "095254.670000", "095255.130000", "095255.590000", "095256.050000", "095256.510000", "095256.970000", "095257.430000", "095257.890000", "095258.350000", "095258.810000", "095259.270000", "095259.730000", "095300.190000", "095300.650000", "095301.110000", "095301.570000", "095302.030000", "095302.490000", "095302.950000", "095303.410000", "095303.870000", "095304.330000", "095304.790000", "095305.250000", "095305.710000", "095306.170000", "095306.630000", "095307.090000", "095307.550000", "095308.010000", "095308.470000", "095308.930000", "095309.390000", "095309.850000", "095310.310000", "095310.770000", "095311.230000", "095311.690000", "095312.150000", "095312.610000", "095313.070000", "095313.530000", "095313.990000", "095314.450000", "095314.910000", "095315.370000", "095315.830000", "095316.290000", "095316.750000", "095317.210000", "095317.670000", "095318.130000", "095318.590000", "095319.050000", "095319.510000", "095319.970000", "095320.430000", "095320.890000", "095321.350000", "095321.810000", "095322.270000", "095322.730000", "095323.190000", "095323.650000", "095324.110000", "095324.570000", "095325.030000", "095325.490000", "095325.950000", "095326.410000", "095326.870000", "095327.330000", "095327.790000", "095328.250000", "095328.710000", "095329.170000", "095329.630000", "095330.090000", "095330.550000", "095331.010000", "095331.470000", "095331.930000", "095332.390000", "095332.850000", "095333.310000", "095333.770000", "095334.230000", "095334.690000", "095335.150000", "095335.610000", "095336.070000", "095336.530000", "095336.990000", "095337.450000", "095337.910000", "095338.370000", "095338.830000", "095339.290000", "095339.750000", "095340.210000", "095340.670000", "095341.130000", "095341.590000", "095342.050000", "095342.510000", "095342.970000", "095343.430000", "095343.890000", "095344.350000", "095344.810000", "095345.270000", "095345.730000", "095346.190000", "095346.650000", "095347.110000", "095347.570000", "095348.030000", "095348.490000", "095348.950000", "095349.410000", "095349.870000", "095350.330000", "095350.790000", "095351.250000", "095351.710000", "095352.170000", "095352.630000", "095353.090000", "095353.550000", "095354.010000", "095354.470000", "095354.930000", "095355.390000", "095355.850000", "095356.310000", "095356.770000", "095357.230000", "095357.690000", "095358.150000", "095358.610000", "095359.070000", "095359.530000", "095359.990000", "095400.450000", "095400.910000", "095401.370000", "095401.830000", "095402.290000", "095402.750000", "095403.210000", "095403.670000", "095404.130000", "095404.590000", "095405.050000", "095405.510000", "095405.970000", "095406.430000", "095406.890000", "095407.350000", "095407.810000", "095408.270000", "095408.730000", "095409.190000", "095409.650000", "095410.110000", "095410.570000", "095411.030000", "095411.490000", "095411.950000", "095412.410000", "095412.870000", "095413.330000", "095413.790000", "095414.250000", "095414.710000", "095415.170000", "095415.630000", "095416.090000", "095416.550000", "095417.010000", "095417.470000", "095417.930000", "095418.390000", "095418.850000", "095419.310000", "095419.770000", "095420.230000", "095420.690000", "095421.150000", "095421.610000", "095422.070000", "095422.530000", "095422.990000", "095423.450000", "095423.910000", "095424.370000", "095424.830000", "095425.290000", "095425.750000", "095426.210000", "095426.670000", "095427.130000", "095427.590000", "095428.050000", "095428.510000", "095428.970000", "095429.430000", "095429.890000", "095430.350000", "095430.810000", "095431.270000", "095431.730000", "095432.190000", "095432.650000", "095433.110000", "095433.570000", "095434.030000", "095434.490000", "095434.950000", "095435.410000", "095435.870000", "095436.330000", "095436.790000", "095437.250000", "095437.710000", "095438.170000", "095438.630000", "095439.090000", "095439.550000", "095440.010000", "095440.470000", "095440.930000", "095441.390000", "095441.850000", "095442.310000", "095442.770000", "095443.230000", "095443.690000", "095444.150000", "095444.610000", "095445.070000", "095445.530000", "095445.990000", "095446.450000", "095446.910000", "095447.370000", "095447.830000", "095448.290000", "095448.750000", "095449.210000", "095449.670000", "095450.130000", "095450.590000", "095451.050000", "095451.510000", "095451.970000", "095452.430000", "095452.890000", "095453.350000", "095453.810000", "095454.270000", "095454.730000", "095455.190000", "095455.650000", "095456.110000", "095456.570000", "095457.030000", "095457.490000", "095457.950000", "095458.410000", "095458.870000", "095459.330000", "095459.790000", "095500.250000", "095500.710000", "095501.170000", "095501.630000", "095502.090000", "095502.550000", "095503.010000", "095503.470000", "095503.930000", "095504.390000", "095504.850000", "095505.310000", "095505.770000", "095506.230000", "095506.690000", "095507.150000", "095507.610000", "095508.070000", "095508.530000", "095508.990000", "095509.450000", "095509.910000", "095510.370000", "095510.830000", "095511.290000", "095511.750000", "095512.210000", "095512.670000", "095513.130000", "095513.590000", "095514.050000", "095514.510000", "095514.970000", "095515.430000", "095515.890000", "095516.350000", "095516.810000", "095517.270000", "095517.730000", "095518.190000", "095518.650000", "095519.110000", "095519.570000", "095520.030000", "095520.490000", "095520.950000", "095521.410000", "095521.870000", "095522.330000", "095522.790000", "095523.250000", "095523.710000", "095524.170000", "095524.630000", "095525.090000", "095525.550000", "095526.010000", "095526.470000", "095526.930000", "095527.390000", "095527.850000", "095528.310000", "095528.770000", "095529.230000", "095529.690000", "095530.150000", "095530.610000", "095531.070000", "095531.530000", "095531.990000", "095532.450000", "095532.910000", "095533.370000", "095533.830000", "095534.290000", "095534.750000", "095535.210000", "095535.670000", "095536.130000", "095536.590000", "095537.050000", "095537.510000", "095537.970000", "095538.430000", "095538.890000", "095539.350000", "095539.810000", "095540.270000", "095540.730000", "095541.190000", "095541.650000", "095542.110000", "095542.570000", "095543.030000", "095543.490000", "095543.950000", "095544.410000", "095544.870000", "095545.330000", "095545.790000", "095546.250000", "095546.710000", "095547.170000", "095547.630000", "095548.090000", "095548.550000", "095549.010000", "095549.470000", "095549.930000", "095550.390000", "095550.850000", "095551.310000", "095551.770000", "095552.230000", "095552.690000", "095553.150000", "095553.610000", "095554.070000", "095554.530000", "095554.990000", "095555.450000", "095555.910000", "095556.370000", "095556.830000", "095557.290000", "095557.750000", "095558.210000", "095558.670000", "095559.130000", "095559.590000", "095600.050000", "095600.510000", "095600.970000", "095601.430000", "095601.890000", "095602.350000", "095602.810000", "095603.270000", "095603.730000", "095604.190000", "095604.650000", "095605.110000", "095605.570000", "095606.030000", "095606.490000", "095606.950000", "095607.410000", "095607.870000", "095608.330000", "095608.790000", "095609.250000", "095609.710000", "095610.170000", "095610.630000", "095611.090000", "095611.550000", "095612.010000", "095612.470000", "095612.930000", "095613.390000", "095613.850000", "095614.310000", "095614.770000", "095615.230000", "095615.690000", "095616.150000", "095616.610000", "095617.070000", "095617.530000", "095617.990000", "095618.450000", "095618.910000", "095619.370000", "095619.830000", "095620.290000", "095620.750000", "095621.210000", "095621.670000", "095622.130000", "095622.590000", "095623.050000", "095623.510000", "095623.970000", "095624.430000", "095624.890000", "095625.350000", "095625.810000", "095626.270000", "095626.730000", "095627.190000", "095627.650000", "095628.110000", "095628.570000", "095629.030000", "095629.490000", "095629.950000", "095630.410000", "095630.870000", "095631.330000", "095631.790000", "095632.250000", "095632.710000", "095633.170000", "095633.630000", "095634.090000", "095634.550000", "095635.010000", "095635.470000", "095635.930000", "095636.390000", "095636.850000", "095637.310000", "095637.770000", "095638.230000", "095638.690000", "095639.150000", "095639.610000", "095640.070000", "095640.530000", "095640.990000", "095641.450000", "095641.910000", "095642.370000", "095642.830000", "095643.290000", "095643.750000", "095644.210000", "095644.670000", "095645.130000", "095645.590000", "095646.050000", "095646.510000", "095646.970000", "095647.430000", "095647.890000", "095648.350000", "095648.810000", "095649.270000", "095649.730000", "095650.190000", "095650.650000", "095651.110000", "095651.570000", "095652.030000", "095652.490000", "095652.950000", "095653.410000", "095653.870000", "095654.330000", "095654.790000", "095655.250000", "095655.710000", "095656.170000", "095656.630000", "095657.090000", "095657.550000", "095658.010000", "095658.470000", "095658.930000", "095659.390000", "095659.850000", "095700.310000", "095700.770000", "095701.230000", "095701.690000", "095702.150000", "095702.610000", "095703.070000", "095703.530000", "095703.990000", "095704.450000", "095704.910000", "095705.370000", "095705.830000", "095706.290000", "095706.750000", "095707.210000", "095707.670000", "095708.130000", "095708.590000", "095709.050000", "095709.510000", "095709.970000"],
