{
  "AcquisitionMatrixPE": 82,
  "AcquisitionNumber": 1,
  "AcquisitionTime": "09:43:15.342500",
  "BandwidthPerPixelPhaseEncode": 24.888,
  "BaseResolution": 82,
  "BodyPartExamined": "BRAIN",
  "ConsistencyInfo": "N4_VE11C_LATEST_20160120",
  "ConversionSoftware": "dcm2niix",
  "ConversionSoftwareVersion": "v1.0.20201102",
  "DerivedVendorReportedEchoSpacing": 0.00049,
  "DeviceSerialNumber": "66112",
  "DwellTime": 2e-06,
  "EchoTime": 0.0272,
  "EchoTrainLength": 82,
  "EffectiveEchoSpacing": 0.00049,
  "FlipAngle": 44,
  "ImageComments": "Unaliased MB8/PE3",
  "ImageOrientationPatientDICOM": [0.997038, -0.0204747, 0.0741382, 0.0231482, 0.999106, -0.0353839],
  "ImageType": [
    "ORIGINAL",
    "PRIMARY",
    "M",
    "MB",
    "ND",
    "NORM",
    "MOSAIC"
],
  "ImagingFrequency": 123.252,
  "InPlanePhaseEncodingDirectionDICOM": "COL",
  "InstitutionAddress": "Maynard 3,Hanover,NH,US,03755",
  "InstitutionName": "Dartmouth College - PBS",
  "InstitutionalDepartmentName": "Department",
  "MRAcquisitionType": "2D",
  "MagneticFieldStrength": 3,
  "Manufacturer": "Siemens",
  "ManufacturersModelName": "Prisma",
  "Modality": "MR",
  "MultibandAccelerationFactor": 8,
  "PartialFourier": 1,
  "PatientPosition": "HFS",
  "PercentPhaseFOV": 100,
  "PercentSampling": 100,
  "PhaseEncodingDirection": "j-",
  "PhaseEncodingSteps": 82,
  "PhaseResolution": 1,
  "PixelBandwidth": 3050,
  "ProcedureStepDescription": "Wager_Wager^1076_spacetop",
  "ProtocolName": "func_run-01_task-social_acq-ap-mb8",
  "PulseSequenceDetails": "%CustomerSeq%\\cmrr_mbep2d_bold",
  "ReceiveCoilActiveElements": "HEA;HEP",
  "ReceiveCoilName": "Head_32",
  "ReconMatrixPE": 82,
  "RepetitionTime": 0.46,
  "SAR": 0.0907035,
  "ScanOptions": "FS",
  "ScanningSequence": "EP",
  "SequenceName": "epfid2d1_82",
  "SequenceVariant": "SK\\SS",
  "SeriesDescription": "func_run-01_task-social_acq-ap-mb8",
  "SeriesNumber": 8,
  "ShimSetting": [4165, -7742, -7236, 735, -19, -179, -34, 18],
  "SliceThickness": 2.7,
  "SliceTiming": [0, 0.2525, 0.0625, 0.315, 0.125, 0.3775, 0.19, 0, 0.2525, 0.0625, 0.315, 0.125, 0.3775, 0.19, 0, 0.2525, 0.0625, 0.315, 0.125, 0.3775, 0.19, 0, 0.2525, 0.0625, 0.315, 0.125, 0.3775, 0.19, 0, 0.2525, 0.0625, 0.315, 0.125, 0.3775, 0.19, 0, 0.2525, 0.0625, 0.315, 0.125, 0.3775, 0.19, 0, 0.2525, 0.0625, 0.315, 0.125, 0.3775, 0.19, 0, 0.2525, 0.0625, 0.315, 0.125, 0.3775, 0.19],
  "SoftwareVersions": "syngo MR E11",
  "SpacingBetweenSlices": 2.7,
  "StationName": "AWP66112",
  "TaskName": "social",
  "TotalReadoutTime": 0.03969,
  "TxRefAmp": 227.768,
  "WipMemBlock": "434a5c93-efe6-4414-bd7d-c2234aed1f2c||Sequence: R016 ve11c/master r/e634e98; Dec 19 2017 11:00:25 by eja",
  "dcmmeta_affine": [
    [-2.6749794483184814, 0.06210505589842796, 0.19803814589977264, 105.90564727783203],
    [0.054932091385126114, 2.680527448654175, -0.0998871773481369, -95.31631469726562],
    [0.19890747964382172, 0.09493240714073181, 2.6908740997314453, -67.37097930908203],
    [0.0, 0.0, 0.0, 1.0]
],
  "dcmmeta_reorient_transform": [
    [0.0, -1.0, 0.0, 81.0],
    [1.0, 0.0, 0.0, 0.0],
    [0.0, 0.0, 1.0, 0.0],
    [0.0, 0.0, 0.0, 1.0]
],
  "dcmmeta_shape": [82, 82, 56, 872],
  "dcmmeta_slice_dim": 2,
  "dcmmeta_version": 0.6,
  "global": {
    "const": {
      "AccessionNumber": "A003638",
      "AcquisitionMatrix": [82, 0, 0, 82],
      "AngioFlag": "N",
      "BitsAllocated": 16,
      "BitsStored": 16,
      "BodyPartExamined": "BRAIN",
      "Columns": 656,
      "EchoNumbers": 1,
      "EchoTime": 27.2,
      "EchoTrainLength": 82,
      "FlipAngle": 44.0,
      "HighBit": 15,
      "ImageOrientationPatient": [0.99703776697138, -0.0204746887168, 0.07413823814114, 0.02314824787129, 0.99910566930808, -0.0353838971417],
      "ImagePositionPatient": [-896.47940460186, -875.35228685556, -89.522296997342],
      "ImageType": [
        "ORIGINAL",
        "PRIMARY",
        "M",
        "MB",
        "ND",
        "NORM",
        "MOSAIC"
],
      "ImagedNucleus": "1H",
      "ImagingFrequency": 123.252154,
      "InPlanePhaseEncodingDirection": "COL",
      "MRAcquisitionType": "2D",
      "MagneticFieldStrength": 3.0,
      "Manufacturer": "SIEMENS",
      "ManufacturerModelName": "Prisma",
      "Modality": "MR",
      "NumberOfAverages": 1.0,
      "NumberOfPhaseEncodingSteps": 82,
      "PercentPhaseFieldOfView": 100.0,
      "PercentSampling": 100.0,
      "PerformedProcedureStepStartTime": "091551.256000",
      "PhotometricInterpretation": "MONOCHROME2",
      "PixelBandwidth": 3050.0,
      "PixelRepresentation": 0,
      "PixelSpacing": [2.6829268932343, 2.6829268932343],
      "ProtocolName": "func_run-01_task-social_acq-ap-mb8",
      "RepetitionTime": 460.0,
      "Rows": 656,
      "SAR": 0.09070353367594,
      "SamplesPerPixel": 1,
      "ScanOptions": "FS",
      "ScanningSequence": "EP",
      "SequenceName": "epfid2d1_82",
      "SequenceVariant": [
        "SK",
        "SS"
],
      "SeriesDescription": "func_run-01_task-social_acq-ap-mb8",
      "SeriesNumber": 8,
      "SeriesTime": "094343.943000",
      "SliceLocation": -55.849106574274,
      "SliceThickness": 2.7000000476837,
      "SmallestImagePixelValue": 0,
      "SoftwareVersions": "syngo MR E11",
      "SpacingBetweenSlices": 2.6999999613319,
      "SpecificCharacterSet": "ISO_IR 100",
      "StudyID": "1",
      "StudyTime": "091551.158000",
      "TransmitCoilName": "Body",
      "VariableFlipAngleFlag": "N",
      "WindowCenterWidthExplanation": "Algo1",
      "dBdt": 0.0},
    "slices": {}
  },
  "time": {
    "samples": {
      "AcquisitionNumber": [1, 2, 3, 4, 5, 6, 7, 8, 9, 10, 11, 12, 13, 14, 15, 16, 17, 18, 19, 20, 21, 22, 23, 24, 25, 26, 27, 28, 29, 30, 31, 32, 33, 34, 35, 36, 37, 38, 39, 40, 41, 42, 43, 44, 45, 46, 47, 48, 49, 50, 51, 52, 53, 54, 55, 56, 57, 58, 59, 60, 61, 62, 63, 64, 65, 66, 67, 68, 69, 70, 71, 72, 73, 74, 75, 76, 77, 78, 79, 80, 81, 82, 83, 84, 85, 86, 87, 88, 89, 90, 91, 92, 93, 94, 95, 96, 97, 98, 99, 100, 101, 102, 103, 104, 105, 106, 107, 108, 109, 110, 111, 112, 113, 114, 115, 116, 117, 118, 119, 120, 121, 122, 123, 124, 125, 126, 127, 128, 129, 130, 131, 132, 133, 134, 135, 136, 137, 138, 139, 140, 141, 142, 143, 144, 145, 146, 147, 148, 149, 150, 151, 152, 153, 154, 155, 156, 157, 158, 159, 160, 161, 162, 163, 164, 165, 166, 167, 168, 169, 170, 171, 172, 173, 174, 175, 176, 177, 178, 179, 180, 181, 182, 183, 184, 185, 186, 187, 188, 189, 190, 191, 192, 193, 194, 195, 196, 197, 198, 199, 200, 201, 202, 203, 204, 205, 206, 207, 208, 209, 210, 211, 212, 213, 214, 215, 216, 217, 218, 219, 220, 221, 222, 223, 224, 225, 226, 227, 228, 229, 230, 231, 232, 233, 234, 235, 236, 237, 238, 239, 240, 241, 242, 243, 244, 245, 246, 247, 248, 249, 250, 251, 252, 253, 254, 255, 256, 257, 258, 259, 260, 261, 262, 263, 264, 265, 266, 267, 268, 269, 270, 271, 272, 273, 274, 275, 276, 277, 278, 279, 280, 281, 282, 283, 284, 285, 286, 287, 288, 289, 290, 291, 292, 293, 294, 295, 296, 297, 298, 299, 300, 301, 302, 303, 304, 305, 306, 307, 308, 309, 310, 311, 312, 313, 314, 315, 316, 317, 318, 319, 320, 321, 322, 323, 324, 325, 326, 327, 328, 329, 330, 331, 332, 333, 334, 335, 336, 337, 338, 339, 340, 341, 342, 343, 344, 345, 346, 347, 348, 349, 350, 351, 352, 353, 354, 355, 356, 357, 358, 359, 360, 361, 362, 363, 364, 365, 366, 367, 368, 369, 370, 371, 372, 373, 374, 375, 376, 377, 378, 379, 380, 381, 382, 383, 384, 385, 386, 387, 388, 389, 390, 391, 392, 393, 394, 395, 396, 397, 398, 399, 400, 401, 402, 403, 404, 405, 406, 407, 408, 409, 410, 411, 412, 413, 414, 415, 416, 417, 418, 419, 420, 421, 422, 423, 424, 425, 426, 427, 428, 429, 430, 431, 432, 433, 434, 435, 436, 437, 438, 439, 440, 441, 442, 443, 444, 445, 446, 447, 448, 449, 450, 451, 452, 453, 454, 455, 456, 457, 458, 459, 460, 461, 462, 463, 464, 465, 466, 467, 468, 469, 470, 471, 472, 473, 474, 475, 476, 477, 478, 479, 480, 481, 482, 483, 484, 485, 486, 487, 488, 489, 490, 491, 492, 493, 494, 495, 496, 497, 498, 499, 500, 501, 502, 503, 504, 505, 506, 507, 508, 509, 510, 511, 512, 513, 514, 515, 516, 517, 518, 519, 520, 521, 522, 523, 524, 525, 526, 527, 528, 529, 530, 531, 532, 533, 534, 535, 536, 537, 538, 539, 540, 541, 542, 543, 544, 545, 546, 547, 548, 549, 550, 551, 552, 553, 554, 555, 556, 557, 558, 559, 560, 561, 562, 563, 564, 565, 566, 567, 568, 569, 570, 571, 572, 573, 574, 575, 576, 577, 578, 579, 580, 581, 582, 583, 584, 585, 586, 587, 588, 589, 590, 591, 592, 593, 594, 595, 596, 597, 598, 599, 600, 601, 602, 603, 604, 605, 606, 607, 608, 609, 610, 611, 612, 613, 614, 615, 616, 617, 618, 619, 620, 621, 622, 623, 624, 625, 626, 627, 628, 629, 630, 631, 632, 633, 634, 635, 636, 637, 638, 639, 640, 641, 642, 643, 644, 645, 646, 647, 648, 649, 650, 651, 652, 653, 654, 655, 656, 657, 658, 659, 660, 661, 662, 663, 664, 665, 666, 667, 668, 669, 670, 671, 672, 673, 674, 675, 676, 677, 678, 679, 680, 681, 682, 683, 684, 685, 686, 687, 688, 689, 690, 691, 692, 693, 694, 695, 696, 697, 698, 699, 700, 701, 702, 703, 704, 705, 706, 707, 708, 709, 710, 711, 712, 713, 714, 715, 716, 717, 718, 719, 720, 721, 722, 723, 724, 725, 726, 727, 728, 729, 730, 731, 732, 733, 734, 735, 736, 737, 738, 739, 740, 741, 742, 743, 744, 745, 746, 747, 748, 749, 750, 751, 752, 753, 754, 755, 756, 757, 758, 759, 760, 761, 762, 763, 764, 765, 766, 767, 768, 769, 770, 771, 772, 773, 774, 775, 776, 777, 778, 779, 780, 781, 782, 783, 784, 785, 786, 787, 788, 789, 790, 791, 792, 793, 794, 795, 796, 797, 798, 799, 800, 801, 802, 803, 804, 805, 806, 807, 808, 809, 810, 811, 812, 813, 814, 815, 816, 817, 818, 819, 820, 821, 822, 823, 824, 825, 826, 827, 828, 829, 830, 831, 832, 833, 834, 835, 836, 837, 838, 839, 840, 841, 842, 843, 844, 845, 846, 847, 848, 849, 850, 851, 852, 853, 854, 855, 856, 857, 858, 859, 860, 861, 862, 863, 864, 865, 866, 867, 868, 869, 870, 871, 872],
      "AcquisitionTime": ["094315.342500", "094315.802500", "094316.262500", "094316.722500", "094317.182500", "094317.642500", "094318.102500", "094318.562500", "094319.022500", "094319.482500", "094319.942500", "094320.402500", "094320.862500", "094321.322500", "094321.782500", "094322.242500", "094322.702500", "094323.162500", "094323.622500", "094324.082500", "094324.542500", "094325.002500", "094325.462500", "094325.922500", "094326.382500", "094326.842500", "094327.302500", "094327.762500", "094328.222500", "094328.682500", "094329.142500", "094329.602500", "094330.062500", "094330.522500", "094330.982500", "094331.442500", "094331.902500", "094332.362500", "094332.822500", "094333.282500", "094333.742500", "094334.202500", "094334.662500", "094335.122500", "094335.582500", "094336.042500", "094336.502500", "094336.962500", "094337.422500", "094337.882500", "094338.342500", "094338.802500", "094339.262500", "094339.722500", "094340.182500", "094340.642500", "094341.102500", "094341.562500", "094342.022500", "094342.482500", "094342.942500", "094343.402500", "094343.862500", "094344.322500", "094344.782500", "094345.242500", "094345.702500", "094346.162500", "094346.622500", "094347.082500", "094347.542500", "094348.002500", "094348.462500", "094348.922500", "094349.382500", "094349.842500", "094350.302500", "094350.762500", "094351.222500", "094351.682500", "094352.142500", "094352.602500", "094353.062500", "094353.522500", "094353.982500", "094354.442500", "094354.902500", "094355.362500", "094355.822500", "094356.282500", "094356.742500", "094357.202500", "094357.662500", "094358.122500", "094358.582500", "094359.042500", "094359.502500", "094359.962500", "094400.422500", "094400.882500", "094401.342500", "094401.802500", "094402.262500", "094402.722500", "094403.182500", "094403.642500", "094404.102500", "094404.562500", "094405.022500", "094405.482500", "094405.942500", "094406.402500", "094406.862500", "094407.322500", "094407.782500", "094408.242500", "094408.702500", "094409.162500", "094409.622500", "094410.082500", "094410.542500", "094411.002500", "094411.462500", "094411.922500", "094412.382500", "094412.842500", "094413.302500", "094413.762500", "094414.222500", "094414.682500", "094415.142500", "094415.602500", "094416.062500", "094416.522500", "094416.982500", "094417.442500", "094417.902500", "094418.362500", "094418.822500", "094419.282500", "094419.742500", "094420.202500", "094420.662500", "094421.122500", "094421.582500", "094422.042500", "094422.502500", "094422.962500", "094423.422500", "094423.882500", "094424.342500", "094424.802500", "094425.262500", "094425.722500", "094426.182500", "094426.642500", "094427.102500", "094427.562500", "094428.022500", "094428.482500", "094428.942500", "094429.402500", "094429.862500", "094430.322500", "094430.782500", "094431.242500", "094431.702500", "094432.162500", "094432.622500", "094433.082500", "094433.542500", "094434.002500", "094434.462500", "094434.922500", "094435.382500", "094435.842500", "094436.302500", "094436.762500", "094437.222500", "094437.682500", "094438.142500", "094438.602500", "094439.062500", "094439.522500", "094439.982500", "094440.442500", "094440.902500", "094441.362500", "094441.822500", "094442.282500", "094442.742500", "094443.202500", "094443.662500", "094444.122500", "094444.582500", "094445.042500", "094445.502500", "094445.962500", "094446.422500", "094446.882500", "094447.342500", "094447.802500", "094448.262500", "094448.722500", "094449.182500", "094449.642500", "094450.102500", "094450.562500", "094451.022500", "094451.482500", "094451.942500", "094452.402500", "094452.862500", "094453.322500", "094453.782500", "094454.242500", "094454.702500", "094455.162500", "094455.622500", "094456.082500", "094456.542500", "094457.002500", "094457.462500", "094457.922500", "094458.382500", "094458.842500", "094459.302500", "094459.762500", "094500.222500", "094500.682500", "094501.142500", "094501.602500", "094502.062500", "094502.522500", "094502.982500", "094503.442500", "094503.902500", "094504.362500", "094504.822500", "094505.282500", "094505.742500", "094506.202500", "094506.662500", "094507.122500", "094507.582500", "094508.042500", "094508.502500", "094508.962500", "094509.422500", "094509.882500", "094510.342500", "094510.802500", "094511.262500", "094511.722500", "094512.182500", "094512.642500", "094513.102500", "094513.562500", "094514.022500", "094514.482500", "094514.942500", "094515.402500", "094515.862500", "094516.322500", "094516.782500", "094517.242500", "094517.702500", "094518.162500", "094518.622500", "094519.082500", "094519.542500", "094520.002500", "094520.462500", "094520.922500", "094521.382500", "094521.842500", "094522.302500", "094522.762500", "094523.222500", "094523.682500", "094524.142500", "094524.602500", "094525.062500", "094525.522500", "094525.982500", "094526.442500", "094526.902500", "094527.362500", "094527.822500", "094528.282500", "094528.742500", "094529.202500", "094529.662500", "094530.122500", "094530.582500", "094531.042500", "094531.502500", "094531.962500", "094532.422500", "094532.882500", "094533.342500", "094533.802500", "094534.262500", "094534.722500", "094535.182500", "094535.642500", "094536.102500", "094536.562500", "094537.022500", "094537.482500", "094537.942500", "094538.402500", "094538.862500", "094539.322500", "094539.782500", "094540.242500", "094540.702500", "094541.162500", "094541.622500", "094542.082500", "094542.542500", "094543.002500", "094543.462500", "094543.922500", "094544.382500", "094544.842500", "094545.302500", "094545.762500", "094546.222500", "094546.682500", "094547.142500", "094547.602500", "094548.062500", "094548.522500", "094548.982500", "094549.442500", "094549.902500", "094550.362500", "094550.822500", "094551.282500", "094551.742500", "094552.202500", "094552.662500", "094553.122500", "094553.582500", "094554.042500", "094554.502500", "094554.962500", "094555.422500", "094555.882500", "094556.342500", "094556.802500", "094557.262500", "094557.722500", "094558.182500", "094558.642500", "094559.102500", "094559.562500", "094600.022500", "094600.482500", "094600.942500", "094601.402500", "094601.862500", "094602.322500", "094602.782500", "094603.242500", "094603.702500", "094604.162500", "094604.622500", "094605.082500", "094605.542500", "094606.002500", "094606.462500", "094606.922500", "094607.382500", "094607.842500", "094608.302500", "094608.762500", "094609.222500", "094609.682500", "094610.142500", "094610.602500", "094611.062500", "094611.522500", "094611.982500", "094612.442500", "094612.902500", "094613.362500", "094613.822500", "094614.282500", "094614.742500", "094615.202500", "094615.662500", "094616.122500", "094616.582500", "094617.042500", "094617.502500", "094617.962500", "094618.422500", "094618.882500", "094619.342500", "094619.802500", "094620.262500", "094620.722500", "094621.182500", "094621.642500", "094622.102500", "094622.562500", "094623.022500", "094623.482500", "094623.942500", "094624.402500", "094624.862500", "094625.322500", "094625.782500", "094626.242500", "094626.702500", "094627.162500", "094627.622500", "094628.082500", "094628.542500", "094629.002500", "094629.462500", "094629.922500", "094630.382500", "094630.842500", "094631.302500", "094631.762500", "094632.222500", "094632.682500", "094633.142500", "094633.602500", "094634.062500", "094634.522500", "094634.982500", "094635.442500", "094635.902500", "094636.362500", "094636.822500", "094637.282500", "094637.742500", "094638.202500", "094638.662500", "094639.122500", "094639.582500", "094640.042500", "094640.502500", "094640.962500", "094641.422500", "094641.882500", "094642.342500", "094642.802500", "094643.262500", "094643.722500", "094644.182500", "094644.642500", "094645.102500", "094645.562500", "094646.022500", "094646.482500", "094646.942500", "094647.402500", "094647.862500", "094648.322500", "094648.782500", "094649.242500", "094649.702500", "094650.162500", "094650.622500", "094651.082500", "094651.542500", "094652.002500", "094652.462500", "094652.922500", "094653.382500", "094653.842500", "094654.302500", "094654.762500", "094655.222500", "094655.682500", "094656.142500", "094656.602500", "094657.062500", "094657.522500", "094657.982500", "094658.442500", "094658.902500", "094659.362500", "094659.822500", "094700.282500", "094700.742500", "094701.202500", "094701.662500", "094702.122500", "094702.582500", "094703.042500", "094703.502500", "094703.962500", "094704.422500", "094704.882500", "094705.342500", "094705.802500", "094706.262500", "094706.722500", "094707.182500", "094707.642500", "094708.102500", "094708.562500", "094709.022500", "094709.482500", "094709.942500", "094710.402500", "094710.862500", "094711.322500", "094711.782500", "094712.242500", "094712.702500", "094713.162500", "094713.622500", "094714.082500", "094714.542500", "094715.002500", "094715.462500", "094715.922500", "094716.382500", "094716.842500", "094717.302500", "094717.762500", "094718.222500", "094718.682500", "094719.142500", "094719.602500", "094720.062500", "094720.522500", "094720.982500", "094721.442500", "094721.902500", "094722.362500", "094722.822500", "094723.282500", "094723.742500", "094724.202500", "094724.662500", "094725.122500", "094725.582500", "094726.042500", "094726.502500", "094726.962500", "094727.422500", "094727.882500", "094728.342500", "094728.802500", "094729.262500", "094729.722500", "094730.182500", "094730.642500", "094731.102500", "094731.562500", "094732.022500", "094732.482500", "094732.942500", "094733.402500", "094733.862500", "094734.322500", "094734.782500", "094735.242500", "094735.702500", "094736.162500", "094736.622500", "094737.082500", "094737.542500", "094738.002500", "094738.462500", "094738.922500", "094739.382500", "094739.842500", "094740.302500", "094740.762500", "094741.222500", "094741.682500", "094742.142500", "094742.602500", "094743.062500", "094743.522500", "094743.982500", "094744.442500", "094744.902500", "094745.362500", "094745.822500", "094746.282500", "094746.742500", "094747.202500", "094747.662500", "094748.122500", "094748.582500", "094749.042500", "094749.502500", "094749.962500", "094750.422500", "094750.882500", "094751.342500", "094751.802500", "094752.262500", "094752.722500", "094753.182500", "094753.642500", "094754.102500", "094754.562500", "094755.022500", "094755.482500", "094755.942500", "094756.402500", "094756.862500", "094757.322500", "094757.782500", "094758.242500", "094758.702500", "094759.162500", "094759.622500", "094800.082500", "094800.542500", "094801.002500", "094801.462500", "094801.922500", "094802.382500", "094802.842500", "094803.302500", "094803.762500", "094804.222500", "094804.682500", "094805.142500", "094805.602500", "094806.062500", "094806.522500", "094806.982500", "094807.442500", "094807.902500", "094808.362500", "094808.822500", "094809.282500", "094809.742500", "094810.202500", "094810.662500", "094811.122500", "094811.582500", "094812.042500", "094812.502500", "094812.962500", "094813.422500", "094813.882500", "094814.342500", "094814.802500", "094815.262500", "094815.722500", "094816.182500", "094816.642500", "094817.102500", "094817.562500", "094818.022500", "094818.482500", "094818.942500", "094819.402500", "094819.862500", "094820.322500", "094820.782500", "094821.242500", "094821.702500", "094822.162500", "094822.622500", "094823.082500", "094823.542500", "094824.002500", "094824.462500", "094824.922500", "094825.382500", "094825.842500", "094826.302500", "094826.762500", "094827.222500", "094827.682500", "094828.142500", "094828.602500", "094829.062500", "094829.522500", "094829.982500", "094830.442500", "094830.902500", "094831.362500", "094831.822500", "094832.282500", "094832.742500", "094833.202500", "094833.662500", "094834.122500", "094834.582500", "094835.042500", "094835.502500", "094835.962500", "094836.422500", "094836.882500", "094837.342500", "094837.802500", "094838.262500", "094838.722500", "094839.182500", "094839.642500", "094840.102500", "094840.562500", "094841.022500", "094841.482500", "094841.942500", "094842.402500", "094842.862500", "094843.322500", "094843.782500", "094844.242500", "094844.702500", "094845.162500", "094845.622500", "094846.082500", "094846.542500", "094847.002500", "094847.462500", "094847.922500", "094848.382500", "094848.842500", "094849.302500", "094849.762500", "094850.222500", "094850.682500", "094851.142500", "094851.602500", "094852.062500", "094852.522500", "094852.982500", "094853.442500", "094853.902500", "094854.362500", "094854.822500", "094855.282500", "094855.742500", "094856.202500", "094856.662500", "094857.122500", "094857.582500", "094858.042500", "094858.502500", "094858.962500", "094859.422500", "094859.882500", "094900.342500", "094900.802500", "094901.262500", "094901.722500", "094902.182500", "094902.642500", "094903.102500", "094903.562500", "094904.022500", "094904.482500", "094904.942500", "094905.402500", "094905.862500", "094906.322500", "094906.782500", "094907.242500", "094907.702500", "094908.162500", "094908.622500", "094909.082500", "094909.542500", "094910.002500", "094910.462500", "094910.922500", "094911.382500", "094911.842500", "094912.302500", "094912.762500", "094913.222500", "094913.682500", "094914.142500", "094914.602500", "094915.062500", "094915.522500", "094915.982500", "094916.442500", "094916.902500", "094917.362500", "094917.822500", "094918.282500", "094918.742500", "094919.202500", "094919.662500", "094920.122500", "094920.582500", "094921.042500", "094921.502500", "094921.962500", "094922.422500", "094922.882500", "094923.342500", "094923.802500", "094924.262500", "094924.722500", "094925.182500", "094925.642500", "094926.102500", "094926.562500", "094927.022500", "094927.482500", "094927.942500", "094928.402500", "094928.862500", "094929.322500", "094929.782500", "094930.242500", "094930.702500", "094931.162500", "094931.622500", "094932.082500", "094932.542500", "094933.002500", "094933.462500", "094933.922500", "094934.382500", "094934.842500", "094935.302500", "094935.762500", "094936.222500", "094936.682500", "094937.142500", "094937.602500", "094938.062500", "094938.522500", "094938.982500", "094939.442500", "094939.902500", "094940.362500", "094940.822500", "094941.282500", "094941.742500", "094942.202500", "094942.662500", "094943.122500", "094943.582500", "094944.042500", "094944.502500", "094944.962500", "094945.422500", "094945.882500", "094946.342500", "094946.802500", "094947.262500", "094947.722500", "094948.182500", "094948.642500", "094949.102500", "094949.562500", "094950.022500", "094950.482500", "094950.942500", "094951.402500", "094951.862500", "094952.322500", "094952.782500", "094953.242500", "094953.702500", "094954.162500", "094954.622500", "094955.082500", "094955.542500", "094956.002500"],
