{
  "AcquisitionMatrixPE": 82,
  "AcquisitionNumber": 1,
  "AcquisitionTime": "10:21:8.405000",
  "BandwidthPerPixelPhaseEncode": 24.888,
  "BaseResolution": 82,
  "BodyPartExamined": "BRAIN",
  "ConsistencyInfo": "N4_VE11C_LATEST_20160120",
  "ConversionSoftware": "dcm2niix",
  "ConversionSoftwareVersion": "v1.0.20201102",
  "DerivedVendorReportedEchoSpacing": 0.00049,
  "DeviceSerialNumber": "66112",
  "DwellTime": 2e-06,
  "EchoTime": 0.0272,
  "EchoTrainLength": 82,
  "EffectiveEchoSpacing": 0.00049,
  "FlipAngle": 44,
  "ImageComments": "Unaliased MB8/PE3",
  "ImageOrientationPatientDICOM": [0.997501, -0.0594939, 0.0380973, 0.0568169, 0.996075, 0.0678658],
  "ImageType": [
    "ORIGINAL",
    "PRIMARY",
    "FMRI",
    "NONE",
    "MB",
    "ND",
    "NORM",
    "MOSAIC"
],
  "ImagingFrequency": 123.252,
  "InPlanePhaseEncodingDirectionDICOM": "COL",
  "InstitutionAddress": "Maynard 3,Hanover,NH,US,03755",
  "InstitutionName": "Dartmouth College - PBS",
  "InstitutionalDepartmentName": "Department",
  "MRAcquisitionType": "2D",
  "MagneticFieldStrength": 3,
  "Manufacturer": "Siemens",
  "ManufacturersModelName": "Prisma",
  "Modality": "MR",
  "MultibandAccelerationFactor": 8,
  "PartialFourier": 1,
  "PatientPosition": "HFS",
  "PercentPhaseFOV": 100,
  "PercentSampling": 100,
  "PhaseEncodingDirection": "j-",
  "PhaseEncodingSteps": 82,
  "PhaseResolution": 1,
  "PixelBandwidth": 3050,
  "ProcedureStepDescription": "Wager_Wager^1076_spacetop",
  "ProtocolName": "func_run-03_task-social_acq-ap-mb8",
  "PulseSequenceDetails": "%CustomerSeq%\\cmrr_mbep2d_bold",
  "ReceiveCoilActiveElements": "HEA;HEP",
  "ReceiveCoilName": "Head_32",
  "ReconMatrixPE": 82,
  "RepetitionTime": 0.46,
  "SAR": 0.100017,
  "ScanOptions": "FS",
  "ScanningSequence": "EP",
  "SequenceName": "epfid2d1_82",
  "SequenceVariant": "SK\\SS",
  "SeriesDescription": "func_run-03_task-social_acq-ap-mb8",
  "SeriesNumber": 25,
  "ShimSetting": [4156, -7740, -7276, 673, -65, -229, -20, 12],
  "SliceThickness": 2.7,
  "SliceTiming": [0, 0.25, 0.0625, 0.315, 0.125, 0.3775, 0.1875, 0, 0.25, 0.0625, 0.315, 0.125, 0.3775, 0.1875, 0, 0.25, 0.0625, 0.315, 0.125, 0.3775, 0.1875, 0, 0.25, 0.0625, 0.315, 0.125, 0.3775, 0.1875, 0, 0.25, 0.0625, 0.315, 0.125, 0.3775, 0.1875, 0, 0.25, 0.0625, 0.315, 0.125, 0.3775, 0.1875, 0, 0.25, 0.0625, 0.315, 0.125, 0.3775, 0.1875, 0, 0.25, 0.0625, 0.315, 0.125, 0.3775, 0.1875],
  "SoftwareVersions": "syngo MR E11",
  "SpacingBetweenSlices": 2.7,
  "StationName": "AWP66112",
  "TaskName": "social",
  "TotalReadoutTime": 0.03969,
  "TxRefAmp": 232.71,
  "WipMemBlock": "c343e97d-a8e1-4932-9d05-d685d2ec5dce||Sequence: R016 ve11c/master r/e634e98; Dec 19 2017 11:00:25 by eja",
  "dcmmeta_affine": [
    [-2.6762232780456543, 0.1524355560541153, 0.11336053162813187, 103.03473663330078],
    [0.1596178561449051, 2.6723973751068115, 0.17693547904491425, -103.24422454833984],
    [0.10221226513385773, -0.18207897245883942, 2.691810369491577, -60.427490234375],
    [0.0, 0.0, 0.0, 1.0]
],
  "dcmmeta_reorient_transform": [
    [0.0, -1.0, 0.0, 81.0],
    [1.0, 0.0, 0.0, 0.0],
    [0.0, 0.0, 1.0, 0.0],
    [0.0, 0.0, 0.0, 1.0]
],
  "dcmmeta_shape": [82, 82, 56, 872],
  "dcmmeta_slice_dim": 2,
  "dcmmeta_version": 0.6,
  "global": {
    "const": {
      "AccessionNumber": "A003585",
      "AcquisitionMatrix": [82, 0, 0, 82],
      "AngioFlag": "N",
      "BitsAllocated": 16,
      "BitsStored": 12,
      "BodyPartExamined": "BRAIN",
      "Columns": 656,
      "EchoNumbers": 1,
      "EchoTime": 27.2,
      "EchoTrainLength": 82,
      "FlipAngle": 44.0,
      "HighBit": 11,
      "ImageOrientationPatient": [0.99750141293635, -0.0594939240771, 0.03809729895793, 0.05681688871688, 0.99607533575831, 0.06786579882755],
      "ImagePositionPatient": [-927.20712626926, -834.3876582142, -156.76747532642],
      "ImageType": [
        "ORIGINAL",
        "PRIMARY",
        "FMRI",
        "NONE",
        "MB",
        "ND",
        "NORM",
        "MOSAIC"
],
      "ImagedNucleus": "1H",
      "ImagingFrequency": 123.252187,
      "InPlanePhaseEncodingDirection": "COL",
      "MRAcquisitionType": "2D",
      "MagneticFieldStrength": 3.0,
      "Manufacturer": "SIEMENS",
      "ManufacturerModelName": "Prisma",
      "Modality": "MR",
      "NumberOfAverages": 1.0,
      "NumberOfPhaseEncodingSteps": 82,
      "PercentPhaseFieldOfView": 100.0,
      "PercentSampling": 100.0,
      "PerformedProcedureStepStartTime": "085846.609000",
      "PhotometricInterpretation": "MONOCHROME2",
      "PixelBandwidth": 3050.0,
      "PixelRepresentation": 0,
      "PixelSpacing": [2.6829268932343, 2.6829268932343],
      "ProtocolName": "func_run-03_task-social_acq-ap-mb8",
      "RepetitionTime": 460.0,
      "Rows": 656,
      "SAR": 0.1000174113262,
      "SamplesPerPixel": 1,
      "ScanOptions": "FS",
      "ScanningSequence": "EP",
      "SequenceName": "epfid2d1_82",
      "SequenceVariant": [
        "SK",
        "SS"
],
      "SeriesDescription": "func_run-03_task-social_acq-ap-mb8",
      "SeriesNumber": 25,
      "SeriesTime": "102111.671000",
      "SliceLocation": -62.684016090471,
      "SliceThickness": 2.7000000476837,
      "SmallestImagePixelValue": 0,
      "SoftwareVersions": "syngo MR E11",
      "SpacingBetweenSlices": 2.7000000013305,
      "SpecificCharacterSet": "ISO_IR 100",
      "StudyID": "1",
      "StudyTime": "085846.445000",
      "TransmitCoilName": "Body",
      "VariableFlipAngleFlag": "N",
      "WindowCenterWidthExplanation": "Algo1",
      "dBdt": 0.0},
    "slices": {}
  },
  "time": {
    "samples": {
      "AcquisitionNumber": [1, 2, 3, 4, 5, 6, 7, 8, 9, 10, 11, 12, 13, 14, 15, 16, 17, 18, 19, 20, 21, 22, 23, 24, 25, 26, 27, 28, 29, 30, 31, 32, 33, 34, 35, 36, 37, 38, 39, 40, 41, 42, 43, 44, 45, 46, 47, 48, 49, 50, 51, 52, 53, 54, 55, 56, 57, 58, 59, 60, 61, 62, 63, 64, 65, 66, 67, 68, 69, 70, 71, 72, 73, 74, 75, 76, 77, 78, 79, 80, 81, 82, 83, 84, 85, 86, 87, 88, 89, 90, 91, 92, 93, 94, 95, 96, 97, 98, 99, 100, 101, 102, 103, 104, 105, 106, 107, 108, 109, 110, 111, 112, 113, 114, 115, 116, 117, 118, 119, 120, 121, 122, 123, 124, 125, 126, 127, 128, 129, 130, 131, 132, 133, 134, 135, 136, 137, 138, 139, 140, 141, 142, 143, 144, 145, 146, 147, 148, 149, 150, 151, 152, 153, 154, 155, 156, 157, 158, 159, 160, 161, 162, 163, 164, 165, 166, 167, 168, 169, 170, 171, 172, 173, 174, 175, 176, 177, 178, 179, 180, 181, 182, 183, 184, 185, 186, 187, 188, 189, 190, 191, 192, 193, 194, 195, 196, 197, 198, 199, 200, 201, 202, 203, 204, 205, 206, 207, 208, 209, 210, 211, 212, 213, 214, 215, 216, 217, 218, 219, 220, 221, 222, 223, 224, 225, 226, 227, 228, 229, 230, 231, 232, 233, 234, 235, 236, 237, 238, 239, 240, 241, 242, 243, 244, 245, 246, 247, 248, 249, 250, 251, 252, 253, 254, 255, 256, 257, 258, 259, 260, 261, 262, 263, 264, 265, 266, 267, 268, 269, 270, 271, 272, 273, 274, 275, 276, 277, 278, 279, 280, 281, 282, 283, 284, 285, 286, 287, 288, 289, 290, 291, 292, 293, 294, 295, 296, 297, 298, 299, 300, 301, 302, 303, 304, 305, 306, 307, 308, 309, 310, 311, 312, 313, 314, 315, 316, 317, 318, 319, 320, 321, 322, 323, 324, 325, 326, 327, 328, 329, 330, 331, 332, 333, 334, 335, 336, 337, 338, 339, 340, 341, 342, 343, 344, 345, 346, 347, 348, 349, 350, 351, 352, 353, 354, 355, 356, 357, 358, 359, 360, 361, 362, 363, 364, 365, 366, 367, 368, 369, 370, 371, 372, 373, 374, 375, 376, 377, 378, 379, 380, 381, 382, 383, 384, 385, 386, 387, 388, 389, 390, 391, 392, 393, 394, 395, 396, 397, 398, 399, 400, 401, 402, 403, 404, 405, 406, 407, 408, 409, 410, 411, 412, 413, 414, 415, 416, 417, 418, 419, 420, 421, 422, 423, 424, 425, 426, 427, 428, 429, 430, 431, 432, 433, 434, 435, 436, 437, 438, 439, 440, 441, 442, 443, 444, 445, 446, 447, 448, 449, 450, 451, 452, 453, 454, 455, 456, 457, 458, 459, 460, 461, 462, 463, 464, 465, 466, 467, 468, 469, 470, 471, 472, 473, 474, 475, 476, 477, 478, 479, 480, 481, 482, 483, 484, 485, 486, 487, 488, 489, 490, 491, 492, 493, 494, 495, 496, 497, 498, 499, 500, 501, 502, 503, 504, 505, 506, 507, 508, 509, 510, 511, 512, 513, 514, 515, 516, 517, 518, 519, 520, 521, 522, 523, 524, 525, 526, 527, 528, 529, 530, 531, 532, 533, 534, 535, 536, 537, 538, 539, 540, 541, 542, 543, 544, 545, 546, 547, 548, 549, 550, 551, 552, 553, 554, 555, 556, 557, 558, 559, 560, 561, 562, 563, 564, 565, 566, 567, 568, 569, 570, 571, 572, 573, 574, 575, 576, 577, 578, 579, 580, 581, 582, 583, 584, 585, 586, 587, 588, 589, 590, 591, 592, 593, 594, 595, 596, 597, 598, 599, 600, 601, 602, 603, 604, 605, 606, 607, 608, 609, 610, 611, 612, 613, 614, 615, 616, 617, 618, 619, 620, 621, 622, 623, 624, 625, 626, 627, 628, 629, 630, 631, 632, 633, 634, 635, 636, 637, 638, 639, 640, 641, 642, 643, 644, 645, 646, 647, 648, 649, 650, 651, 652, 653, 654, 655, 656, 657, 658, 659, 660, 661, 662, 663, 664, 665, 666, 667, 668, 669, 670, 671, 672, 673, 674, 675, 676, 677, 678, 679, 680, 681, 682, 683, 684, 685, 686, 687, 688, 689, 690, 691, 692, 693, 694, 695, 696, 697, 698, 699, 700, 701, 702, 703, 704, 705, 706, 707, 708, 709, 710, 711, 712, 713, 714, 715, 716, 717, 718, 719, 720, 721, 722, 723, 724, 725, 726, 727, 728, 729, 730, 731, 732, 733, 734, 735, 736, 737, 738, 739, 740, 741, 742, 743, 744, 745, 746, 747, 748, 749, 750, 751, 752, 753, 754, 755, 756, 757, 758, 759, 760, 761, 762, 763, 764, 765, 766, 767, 768, 769, 770, 771, 772, 773, 774, 775, 776, 777, 778, 779, 780, 781, 782, 783, 784, 785, 786, 787, 788, 789, 790, 791, 792, 793, 794, 795, 796, 797, 798, 799, 800, 801, 802, 803, 804, 805, 806, 807, 808, 809, 810, 811, 812, 813, 814, 815, 816, 817, 818, 819, 820, 821, 822, 823, 824, 825, 826, 827, 828, 829, 830, 831, 832, 833, 834, 835, 836, 837, 838, 839, 840, 841, 842, 843, 844, 845, 846, 847, 848, 849, 850, 851, 852, 853, 854, 855, 856, 857, 858, 859, 860, 861, 862, 863, 864, 865, 866, 867, 868, 869, 870, 871, 872],
      "AcquisitionTime": ["102108.405000", "102108.865000", "102109.325000", "102109.785000", "102110.245000", "102110.705000", "102111.165000", "102111.625000", "102112.085000", "102112.545000", "102113.005000", "102113.465000", "102113.925000", "102114.385000", "102114.845000", "102115.305000", "102115.765000", "102116.225000", "102116.685000", "102117.145000", "102117.605000", "102118.065000", "102118.525000", "102118.985000", "102119.445000", "102119.905000", "102120.365000", "102120.825000", "102121.285000", "102121.745000", "102122.205000", "102122.665000", "102123.125000", "102123.585000", "102124.045000", "102124.505000", "102124.965000", "102125.425000", "102125.885000", "102126.345000", "102126.805000", "102127.265000", "102127.725000", "102128.185000", "102128.645000", "102129.105000", "102129.565000", "102130.025000", "102130.485000", "102130.945000", "102131.405000", "102131.865000", "102132.325000", "102132.785000", "102133.245000", "102133.705000", "102134.165000", "102134.625000", "102135.085000", "102135.545000", "102136.005000", "102136.465000", "102136.925000", "102137.385000", "102137.845000", "102138.305000", "102138.765000", "102139.225000", "102139.685000", "102140.145000", "102140.605000", "102141.065000", "102141.525000", "102141.985000", "102142.445000", "102142.905000", "102143.365000", "102143.825000", "102144.285000", "102144.745000", "102145.205000", "102145.665000", "102146.125000", "102146.585000", "102147.045000", "102147.505000", "102147.965000", "102148.425000", "102148.885000", "102149.345000", "102149.805000", "102150.265000", "102150.725000", "102151.185000", "102151.645000", "102152.105000", "102152.565000", "102153.025000", "102153.485000", "102153.945000", "102154.405000", "102154.865000", "102155.325000", "102155.785000", "102156.245000", "102156.705000", "102157.165000", "102157.625000", "102158.085000", "102158.545000", "102159.005000", "102159.465000", "102159.925000", "102200.385000", "102200.845000", "102201.305000", "102201.765000", "102202.225000", "102202.685000", "102203.145000", "102203.605000", "102204.065000", "102204.525000", "102204.985000", "102205.445000", "102205.905000", "102206.365000", "102206.825000", "102207.285000", "102207.745000", "102208.205000", "102208.665000", "102209.125000", "102209.585000", "102210.045000", "102210.505000", "102210.965000", "102211.425000", "102211.885000", "102212.345000", "102212.805000", "102213.265000", "102213.725000", "102214.185000", "102214.645000", "102215.105000", "102215.565000", "102216.025000", "102216.485000", "102216.945000", "102217.405000", "102217.865000", "102218.325000", "102218.785000", "102219.245000", "102219.705000", "102220.165000", "102220.625000", "102221.085000", "102221.545000", "102222.005000", "102222.465000", "102222.925000", "102223.385000", "102223.845000", "102224.305000", "102224.765000", "102225.225000", "102225.685000", "102226.145000", "102226.605000", "102227.065000", "102227.525000", "102227.985000", "102228.445000", "102228.905000", "102229.365000", "102229.825000", "102230.285000", "102230.745000", "102231.205000", "102231.665000", "102232.125000", "102232.585000", "102233.045000", "102233.505000", "102233.965000", "102234.425000", "102234.885000", "102235.345000", "102235.805000", "102236.265000", "102236.725000", "102237.185000", "102237.645000", "102238.105000", "102238.565000", "102239.025000", "102239.485000", "102239.945000", "102240.405000", "102240.865000", "102241.325000", "102241.785000", "102242.245000", "102242.705000", "102243.165000", "102243.625000", "102244.085000", "102244.545000", "102245.005000", "102245.465000", "102245.925000", "102246.385000", "102246.845000", "102247.305000", "102247.765000", "102248.225000", "102248.685000", "102249.145000", "102249.605000", "102250.065000", "102250.525000", "102250.985000", "102251.445000", "102251.905000", "102252.365000", "102252.825000", "102253.285000", "102253.745000", "102254.205000", "102254.665000", "102255.125000", "102255.585000", "102256.045000", "102256.505000", "102256.965000", "102257.425000", "102257.885000", "102258.345000", "102258.805000", "102259.265000", "102259.725000", "102300.185000", "102300.645000", "102301.105000", "102301.565000", "102302.025000", "102302.485000", "102302.945000", "102303.405000", "102303.865000", "102304.325000", "102304.785000", "102305.245000", "102305.705000", "102306.165000", "102306.625000", "102307.085000", "102307.545000", "102308.005000", "102308.465000", "102308.925000", "102309.385000", "102309.845000", "102310.305000", "102310.765000", "102311.225000", "102311.685000", "102312.145000", "102312.605000", "102313.065000", "102313.525000", "102313.985000", "102314.445000", "102314.905000", "102315.365000", "102315.825000", "102316.285000", "102316.745000", "102317.205000", "102317.665000", "102318.125000", "102318.585000", "102319.045000", "102319.505000", "102319.965000", "102320.425000", "102320.885000", "102321.345000", "102321.805000", "102322.265000", "102322.725000", "102323.185000", "102323.645000", "102324.105000", "102324.565000", "102325.025000", "102325.485000", "102325.945000", "102326.405000", "102326.865000", "102327.325000", "102327.785000", "102328.245000", "102328.705000", "102329.165000", "102329.625000", "102330.085000", "102330.545000", "102331.005000", "102331.465000", "102331.925000", "102332.385000", "102332.845000", "102333.305000", "102333.765000", "102334.225000", "102334.685000", "102335.145000", "102335.605000", "102336.065000", "102336.525000", "102336.985000", "102337.445000", "102337.905000", "102338.365000", "102338.825000", "102339.285000", "102339.745000", "102340.205000", "102340.665000", "102341.125000", "102341.585000", "102342.045000", "102342.505000", "102342.965000", "102343.425000", "102343.885000", "102344.345000", "102344.805000", "102345.265000", "102345.725000", "102346.185000", "102346.645000", "102347.105000", "102347.565000", "102348.025000", "102348.485000", "102348.945000", "102349.405000", "102349.865000", "102350.325000", "102350.785000", "102351.245000", "102351.705000", "102352.165000", "102352.625000", "102353.085000", "102353.545000", "102354.005000", "102354.465000", "102354.925000", "102355.385000", "102355.845000", "102356.305000", "102356.765000", "102357.225000", "102357.685000", "102358.145000", "102358.605000", "102359.065000", "102359.525000", "102359.985000", "102400.445000", "102400.905000", "102401.365000", "102401.825000", "102402.285000", "102402.745000", "102403.205000", "102403.665000", "102404.125000", "102404.585000", "102405.045000", "102405.505000", "102405.965000", "102406.425000", "102406.885000", "102407.345000", "102407.805000", "102408.265000", "102408.725000", "102409.185000", "102409.645000", "102410.105000", "102410.565000", "102411.025000", "102411.485000", "102411.945000", "102412.405000", "102412.865000", "102413.325000", "102413.785000", "102414.245000", "102414.705000", "102415.165000", "102415.625000", "102416.085000", "102416.545000", "102417.005000", "102417.465000", "102417.925000", "102418.385000", "102418.845000", "102419.305000", "102419.765000", "102420.225000", "102420.685000", "102421.145000", "102421.605000", "102422.065000", "102422.525000", "102422.985000", "102423.445000", "102423.905000", "102424.365000", "102424.825000", "102425.285000", "102425.745000", "102426.205000", "102426.665000", "102427.125000", "102427.585000", "102428.045000", "102428.505000", "102428.965000", "102429.425000", "102429.885000", "102430.345000", "102430.805000", "102431.265000", "102431.725000", "102432.185000", "102432.645000", "102433.105000", "102433.565000", "102434.025000", "102434.485000", "102434.945000", "102435.405000", "102435.865000", "102436.325000", "102436.785000", "102437.245000", "102437.705000", "102438.165000", "102438.625000", "102439.085000", "102439.545000", "102440.005000", "102440.465000", "102440.925000", "102441.385000", "102441.845000", "102442.305000", "102442.765000", "102443.225000", "102443.685000", "102444.145000", "102444.605000", "102445.065000", "102445.525000", "102445.985000", "102446.445000", "102446.905000", "102447.365000", "102447.825000", "102448.285000", "102448.745000", "102449.205000", "102449.665000", "102450.125000", "102450.585000", "102451.045000", "102451.505000", "102451.965000", "102452.425000", "102452.885000", "102453.345000", "102453.805000", "102454.265000", "102454.725000", "102455.185000", "102455.645000", "102456.105000", "102456.565000", "102457.025000", "102457.485000", "102457.945000", "102458.405000", "102458.865000", "102459.325000", "102459.785000", "102500.245000", "102500.705000", "102501.165000", "102501.625000", "102502.085000", "102502.545000", "102503.005000", "102503.465000", "102503.925000", "102504.385000", "102504.845000", "102505.305000", "102505.765000", "102506.225000", "102506.685000", "102507.145000", "102507.605000", "102508.065000", "102508.525000", "102508.985000", "102509.445000", "102509.905000", "102510.365000", "102510.825000", "102511.285000", "102511.745000", "102512.205000", "102512.665000", "102513.125000", "102513.585000", "102514.045000", "102514.505000", "102514.965000", "102515.425000", "102515.885000", "102516.345000", "102516.805000", "102517.265000", "102517.725000", "102518.185000", "102518.645000", "102519.105000", "102519.565000", "102520.025000", "102520.485000", "102520.945000", "102521.405000", "102521.865000", "102522.325000", "102522.785000", "102523.245000", "102523.705000", "102524.165000", "102524.625000", "102525.085000", "102525.545000", "102526.005000", "102526.465000", "102526.925000", "102527.385000", "102527.845000", "102528.305000", "102528.765000", "102529.225000", "102529.685000", "102530.145000", "102530.605000", "102531.065000", "102531.525000", "102531.985000", "102532.445000", "102532.905000", "102533.365000", "102533.825000", "102534.285000", "102534.745000", "102535.205000", "102535.665000", "102536.125000", "102536.585000", "102537.045000", "102537.505000", "102537.965000", "102538.425000", "102538.885000", "102539.345000", "102539.805000", "102540.265000", "102540.725000", "102541.185000", "102541.645000", "102542.105000", "102542.565000", "102543.025000", "102543.485000", "102543.945000", "102544.405000", "102544.865000", "102545.325000", "102545.785000", "102546.245000", "102546.705000", "102547.165000", "102547.625000", "102548.085000", "102548.545000", "102549.005000", "102549.465000", "102549.925000", "102550.385000", "102550.845000", "102551.305000", "102551.765000", "102552.225000", "102552.685000", "102553.145000", "102553.605000", "102554.065000", "102554.525000", "102554.985000", "102555.445000", "102555.905000", "102556.365000", "102556.825000", "102557.285000", "102557.745000", "102558.205000", "102558.665000", "102559.125000", "102559.585000", "102600.045000", "102600.505000", "102600.965000", "102601.425000", "102601.885000", "102602.345000", "102602.805000", "102603.265000", "102603.725000", "102604.185000", "102604.645000", "102605.105000", "102605.565000", "102606.025000", "102606.485000", "102606.945000", "102607.405000", "102607.865000", "102608.325000", "102608.785000", "102609.245000", "102609.705000", "102610.165000", "102610.625000", "102611.085000", "102611.545000", "102612.005000", "102612.465000", "102612.925000", "102613.385000", "102613.845000", "102614.305000", "102614.765000", "102615.225000", "102615.685000", "102616.145000", "102616.605000", "102617.065000", "102617.525000", "102617.985000", "102618.445000", "102618.905000", "102619.365000", "102619.825000", "102620.285000", "102620.745000", "102621.205000", "102621.665000", "102622.125000", "102622.585000", "102623.045000", "102623.505000", "102623.965000", "102624.425000", "102624.885000", "102625.345000", "102625.805000", "102626.265000", "102626.725000", "102627.185000", "102627.645000", "102628.105000", "102628.565000", "102629.025000", "102629.485000", "102629.945000", "102630.405000", "102630.865000", "102631.325000", "102631.785000", "102632.245000", "102632.705000", "102633.165000", "102633.625000", "102634.085000", "102634.545000", "102635.005000", "102635.465000", "102635.925000", "102636.385000", "102636.845000", "102637.305000", "102637.765000", "102638.225000", "102638.685000", "102639.145000", "102639.605000", "102640.065000", "102640.525000", "102640.985000", "102641.445000", "102641.905000", "102642.365000", "102642.825000", "102643.285000", "102643.745000", "102644.205000", "102644.665000", "102645.125000", "102645.585000", "102646.045000", "102646.505000", "102646.965000", "102647.425000", "102647.885000", "102648.345000", "102648.805000", "102649.265000", "102649.725000", "102650.185000", "102650.645000", "102651.105000", "102651.565000", "102652.025000", "102652.485000", "102652.945000", "102653.405000", "102653.865000", "102654.325000", "102654.785000", "102655.245000", "102655.705000", "102656.165000", "102656.625000", "102657.085000", "102657.545000", "102658.005000", "102658.465000", "102658.925000", "102659.385000", "102659.845000", "102700.305000", "102700.765000", "102701.225000", "102701.685000", "102702.145000", "102702.605000", "102703.065000", "102703.525000", "102703.985000", "102704.445000", "102704.905000", "102705.365000", "102705.825000", "102706.285000", "102706.745000", "102707.205000", "102707.665000", "102708.125000", "102708.585000", "102709.045000", "102709.505000", "102709.965000", "102710.425000", "102710.885000", "102711.345000", "102711.805000", "102712.265000", "102712.725000", "102713.185000", "102713.645000", "102714.105000", "102714.565000", "102715.025000", "102715.485000", "102715.945000", "102716.405000", "102716.865000", "102717.325000", "102717.785000", "102718.245000", "102718.705000", "102719.165000", "102719.625000", "102720.085000", "102720.545000", "102721.005000", "102721.465000", "102721.925000", "102722.385000", "102722.845000", "102723.305000", "102723.765000", "102724.225000", "102724.685000", "102725.145000", "102725.605000", "102726.065000", "102726.525000", "102726.985000", "102727.445000", "102727.905000", "102728.365000", "102728.825000", "102729.285000", "102729.745000", "102730.205000", "102730.665000", "102731.125000", "102731.585000", "102732.045000", "102732.505000", "102732.965000", "102733.425000", "102733.885000", "102734.345000", "102734.805000", "102735.265000", "102735.725000", "102736.185000", "102736.645000", "102737.105000", "102737.565000", "102738.025000", "102738.485000", "102738.945000", "102739.405000", "102739.865000", "102740.325000", "102740.785000", "102741.245000", "102741.705000", "102742.165000", "102742.625000", "102743.085000", "102743.545000", "102744.005000", "102744.465000", "102744.925000", "102745.385000", "102745.845000", "102746.305000", "102746.765000", "102747.225000", "102747.685000", "102748.145000", "102748.605000", "102749.065000"],
