{
  "AcquisitionMatrixPE": 82,
  "AcquisitionNumber": 1,
  "AcquisitionTime": "11:13:56.697500",
  "BandwidthPerPixelPhaseEncode": 24.888,
  "BaseResolution": 82,
  "BodyPartExamined": "BRAIN",
  "ConsistencyInfo": "N4_VE11C_LATEST_20160120",
  "ConversionSoftware": "dcm2niix",
  "ConversionSoftwareVersion": "v1.0.20201102",
  "DerivedVendorReportedEchoSpacing": 0.00049,
  "DeviceSerialNumber": "66112",
  "DwellTime": 2e-06,
  "EchoTime": 0.0272,
  "EchoTrainLength": 82,
  "EffectiveEchoSpacing": 0.00049,
  "FlipAngle": 44,
  "ImageComments": "Unaliased MB8/PE3",
  "ImageOrientationPatientDICOM": [0.995368, -0.0819082, 0.0503398, 0.0758904, 0.990847, 0.111634],
  "ImageType": [
    "ORIGINAL",
    "PRIMARY",
    "FMRI",
    "NONE",
    "MB",
    "ND",
    "NORM",
    "MOSAIC"
],
  "ImagingFrequency": 123.252,
  "InPlanePhaseEncodingDirectionDICOM": "COL",
  "InstitutionAddress": "Maynard 3,Hanover,NH,US,03755",
  "InstitutionName": "Dartmouth College - PBS",
  "InstitutionalDepartmentName": "Department",
  "MRAcquisitionType": "2D",
  "MagneticFieldStrength": 3,
  "Manufacturer": "Siemens",
  "ManufacturersModelName": "Prisma",
  "Modality": "MR",
  "MultibandAccelerationFactor": 8,
  "PartialFourier": 1,
  "PatientPosition": "HFS",
  "PercentPhaseFOV": 100,
  "PercentSampling": 100,
  "PhaseEncodingDirection": "j-",
  "PhaseEncodingSteps": 82,
  "PhaseResolution": 1,
  "PixelBandwidth": 3050,
  "ProcedureStepDescription": "Wager_Wager^1076_spacetop",
  "ProtocolName": "func_run-03_task-alignvideo_acq-ap-mb8",
  "PulseSequenceDetails": "%CustomerSeq%\\cmrr_mbep2d_bold",
  "ReceiveCoilActiveElements": "HEA;HEP",
  "ReceiveCoilName": "Head_32",
  "ReconMatrixPE": 82,
  "RepetitionTime": 0.46,
  "SAR": 0.100106,
  "ScanOptions": "FS",
  "ScanningSequence": "EP",
  "SequenceName": "epfid2d1_82",
  "SequenceVariant": "SK\\SS",
  "SeriesDescription": "func_run-03_task-alignvideo_acq-ap-mb8",
  "SeriesNumber": 73,
  "ShimSetting": [4157, -7743, -7281, 646, -57, -247, -15, 13],
  "SliceThickness": 2.7,
  "SliceTiming": [0, 0.25, 0.0625, 0.3125, 0.125, 0.375, 0.1875, 0, 0.25, 0.0625, 0.3125, 0.125, 0.375, 0.1875, 0, 0.25, 0.0625, 0.3125, 0.125, 0.375, 0.1875, 0, 0.25, 0.0625, 0.3125, 0.125, 0.375, 0.1875, 0, 0.25, 0.0625, 0.3125, 0.125, 0.375, 0.1875, 0, 0.25, 0.0625, 0.3125, 0.125, 0.375, 0.1875, 0, 0.25, 0.0625, 0.3125, 0.125, 0.375, 0.1875, 0, 0.25, 0.0625, 0.3125, 0.125, 0.375, 0.1875],
  "SoftwareVersions": "syngo MR E11",
  "SpacingBetweenSlices": 2.7,
  "StationName": "AWP66112",
  "TaskName": "alignvideo",
  "TotalReadoutTime": 0.03969,
  "TxRefAmp": 232.71,
  "WipMemBlock": "a76b261a-b90b-476b-8851-1f6e741014ea||Sequence: R016 ve11c/master r/e634e98; Dec 19 2017 11:00:25 by eja",
  "dcmmeta_affine": [
    [-2.670498847961426, 0.2036084234714508, 0.15936139225959778, 99.80409240722656],
    [0.21975360810756683, 2.6583712100982666, 0.28970015048980713, -108.49424743652344],
    [0.13505788147449493, -0.2995052635669708, 2.6796786785125732, -60.756526947021484],
    [0.0, 0.0, 0.0, 1.0]
],
  "dcmmeta_reorient_transform": [
    [0.0, -1.0, 0.0, 81.0],
    [1.0, 0.0, 0.0, 0.0],
    [0.0, 0.0, 1.0, 0.0],
    [0.0, 0.0, 0.0, 1.0]
],
  "dcmmeta_shape": [82, 82, 56, 1016],
  "dcmmeta_slice_dim": 2,
  "dcmmeta_version": 0.6,
  "global": {
    "const": {
      "AccessionNumber": "A003585",
      "AcquisitionMatrix": [82, 0, 0, 82],
      "AngioFlag": "N",
      "BitsAllocated": 16,
      "BitsStored": 12,
      "BodyPartExamined": "BRAIN",
      "Columns": 656,
      "EchoNumbers": 1,
      "EchoTime": 27.2,
      "EchoTrainLength": 82,
      "FlipAngle": 44.0,
      "HighBit": 11,
      "ImageOrientationPatient": [0.9953677522121, -0.0819081603854, 0.05033975683804, 0.07589041300864, 0.99084738789029, 0.11163377232885],
      "ImagePositionPatient": [-941.16518230404, -806.71703032148, -209.7360727737],
      "ImageType": [
        "ORIGINAL",
        "PRIMARY",
        "FMRI",
        "NONE",
        "MB",
        "ND",
        "NORM",
        "MOSAIC"
],
      "ImagedNucleus": "1H",
      "ImagingFrequency": 123.252199,
      "InPlanePhaseEncodingDirection": "COL",
      "MRAcquisitionType": "2D",
      "MagneticFieldStrength": 3.0,
      "Manufacturer": "SIEMENS",
      "ManufacturerModelName": "Prisma",
      "Modality": "MR",
      "NumberOfAverages": 1.0,
      "NumberOfPhaseEncodingSteps": 82,
      "PercentPhaseFieldOfView": 100.0,
      "PercentSampling": 100.0,
      "PerformedProcedureStepStartTime": "085846.609000",
      "PhotometricInterpretation": "MONOCHROME2",
      "PixelBandwidth": 3050.0,
      "PixelRepresentation": 0,
      "PixelSpacing": [2.6829268932343, 2.6829268932343],
      "ProtocolName": "func_run-03_task-alignvideo_acq-ap-mb8",
      "RepetitionTime": 460.0,
      "Rows": 656,
      "SAR": 0.10010559505774,
      "SamplesPerPixel": 1,
      "ScanOptions": "FS",
      "ScanningSequence": "EP",
      "SequenceName": "epfid2d1_82",
      "SequenceVariant": [
        "SK",
        "SS"
],
      "SeriesDescription": "func_run-03_task-alignvideo_acq-ap-mb8",
      "SeriesNumber": 73,
      "SeriesTime": "111400.110000",
      "SliceLocation": -66.049575031533,
      "SliceThickness": 2.7000000476837,
      "SmallestImagePixelValue": 0,
      "SoftwareVersions": "syngo MR E11",
      "SpacingBetweenSlices": 2.7000000887519,
      "SpecificCharacterSet": "ISO_IR 100",
      "StudyID": "1",
      "StudyTime": "085846.445000",
      "TransmitCoilName": "Body",
      "VariableFlipAngleFlag": "N",
      "WindowCenterWidthExplanation": "Algo1",
      "dBdt": 0.0},
    "slices": {}
  },
  "time": {
    "samples": {
      "AcquisitionNumber": [1, 2, 3, 4, 5, 6, 7, 8, 9, 10, 11, 12, 13, 14, 15, 16, 17, 18, 19, 20, 21, 22, 23, 24, 25, 26, 27, 28, 29, 30, 31, 32, 33, 34, 35, 36, 37, 38, 39, 40, 41, 42, 43, 44, 45, 46, 47, 48, 49, 50, 51, 52, 53, 54, 55, 56, 57, 58, 59, 60, 61, 62, 63, 64, 65, 66, 67, 68, 69, 70, 71, 72, 73, 74, 75, 76, 77, 78, 79, 80, 81, 82, 83, 84, 85, 86, 87, 88, 89, 90, 91, 92, 93, 94, 95, 96, 97, 98, 99, 100, 101, 102, 103, 104, 105, 106, 107, 108, 109, 110, 111, 112, 113, 114, 115, 116, 117, 118, 119, 120, 121, 122, 123, 124, 125, 126, 127, 128, 129, 130, 131, 132, 133, 134, 135, 136, 137, 138, 139, 140, 141, 142, 143, 144, 145, 146, 147, 148, 149, 150, 151, 152, 153, 154, 155, 156, 157, 158, 159, 160, 161, 162, 163, 164, 165, 166, 167, 168, 169, 170, 171, 172, 173, 174, 175, 176, 177, 178, 179, 180, 181, 182, 183, 184, 185, 186, 187, 188, 189, 190, 191, 192, 193, 194, 195, 196, 197, 198, 199, 200, 201, 202, 203, 204, 205, 206, 207, 208, 209, 210, 211, 212, 213, 214, 215, 216, 217, 218, 219, 220, 221, 222, 223, 224, 225, 226, 227, 228, 229, 230, 231, 232, 233, 234, 235, 236, 237, 238, 239, 240, 241, 242, 243, 244, 245, 246, 247, 248, 249, 250, 251, 252, 253, 254, 255, 256, 257, 258, 259, 260, 261, 262, 263, 264, 265, 266, 267, 268, 269, 270, 271, 272, 273, 274, 275, 276, 277, 278, 279, 280, 281, 282, 283, 284, 285, 286, 287, 288, 289, 290, 291, 292, 293, 294, 295, 296, 297, 298, 299, 300, 301, 302, 303, 304, 305, 306, 307, 308, 309, 310, 311, 312, 313, 314, 315, 316, 317, 318, 319, 320, 321, 322, 323, 324, 325, 326, 327, 328, 329, 330, 331, 332, 333, 334, 335, 336, 337, 338, 339, 340, 341, 342, 343, 344, 345, 346, 347, 348, 349, 350, 351, 352, 353, 354, 355, 356, 357, 358, 359, 360, 361, 362, 363, 364, 365, 366, 367, 368, 369, 370, 371, 372, 373, 374, 375, 376, 377, 378, 379, 380, 381, 382, 383, 384, 385, 386, 387, 388, 389, 390, 391, 392, 393, 394, 395, 396, 397, 398, 399, 400, 401, 402, 403, 404, 405, 406, 407, 408, 409, 410, 411, 412, 413, 414, 415, 416, 417, 418, 419, 420, 421, 422, 423, 424, 425, 426, 427, 428, 429, 430, 431, 432, 433, 434, 435, 436, 437, 438, 439, 440, 441, 442, 443, 444, 445, 446, 447, 448, 449, 450, 451, 452, 453, 454, 455, 456, 457, 458, 459, 460, 461, 462, 463, 464, 465, 466, 467, 468, 469, 470, 471, 472, 473, 474, 475, 476, 477, 478, 479, 480, 481, 482, 483, 484, 485, 486, 487, 488, 489, 490, 491, 492, 493, 494, 495, 496, 497, 498, 499, 500, 501, 502, 503, 504, 505, 506, 507, 508, 509, 510, 511, 512, 513, 514, 515, 516, 517, 518, 519, 520, 521, 522, 523, 524, 525, 526, 527, 528, 529, 530, 531, 532, 533, 534, 535, 536, 537, 538, 539, 540, 541, 542, 543, 544, 545, 546, 547, 548, 549, 550, 551, 552, 553, 554, 555, 556, 557, 558, 559, 560, 561, 562, 563, 564, 565, 566, 567, 568, 569, 570, 571, 572, 573, 574, 575, 576, 577, 578, 579, 580, 581, 582, 583, 584, 585, 586, 587, 588, 589, 590, 591, 592, 593, 594, 595, 596, 597, 598, 599, 600, 601, 602, 603, 604, 605, 606, 607, 608, 609, 610, 611, 612, 613, 614, 615, 616, 617, 618, 619, 620, 621, 622, 623, 624, 625, 626, 627, 628, 629, 630, 631, 632, 633, 634, 635, 636, 637, 638, 639, 640, 641, 642, 643, 644, 645, 646, 647, 648, 649, 650, 651, 652, 653, 654, 655, 656, 657, 658, 659, 660, 661, 662, 663, 664, 665, 666, 667, 668, 669, 670, 671, 672, 673, 674, 675, 676, 677, 678, 679, 680, 681, 682, 683, 684, 685, 686, 687, 688, 689, 690, 691, 692, 693, 694, 695, 696, 697, 698, 699, 700, 701, 702, 703, 704, 705, 706, 707, 708, 709, 710, 711, 712, 713, 714, 715, 716, 717, 718, 719, 720, 721, 722, 723, 724, 725, 726, 727, 728, 729, 730, 731, 732, 733, 734, 735, 736, 737, 738, 739, 740, 741, 742, 743, 744, 745, 746, 747, 748, 749, 750, 751, 752, 753, 754, 755, 756, 757, 758, 759, 760, 761, 762, 763, 764, 765, 766, 767, 768, 769, 770, 771, 772, 773, 774, 775, 776, 777, 778, 779, 780, 781, 782, 783, 784, 785, 786, 787, 788, 789, 790, 791, 792, 793, 794, 795, 796, 797, 798, 799, 800, 801, 802, 803, 804, 805, 806, 807, 808, 809, 810, 811, 812, 813, 814, 815, 816, 817, 818, 819, 820, 821, 822, 823, 824, 825, 826, 827, 828, 829, 830, 831, 832, 833, 834, 835, 836, 837, 838, 839, 840, 841, 842, 843, 844, 845, 846, 847, 848, 849, 850, 851, 852, 853, 854, 855, 856, 857, 858, 859, 860, 861, 862, 863, 864, 865, 866, 867, 868, 869, 870, 871, 872, 873, 874, 875, 876, 877, 878, 879, 880, 881, 882, 883, 884, 885, 886, 887, 888, 889, 890, 891, 892, 893, 894, 895, 896, 897, 898, 899, 900, 901, 902, 903, 904, 905, 906, 907, 908, 909, 910, 911, 912, 913, 914, 915, 916, 917, 918, 919, 920, 921, 922, 923, 924, 925, 926, 927, 928, 929, 930, 931, 932, 933, 934, 935, 936, 937, 938, 939, 940, 941, 942, 943, 944, 945, 946, 947, 948, 949, 950, 951, 952, 953, 954, 955, 956, 957, 958, 959, 960, 961, 962, 963, 964, 965, 966, 967, 968, 969, 970, 971, 972, 973, 974, 975, 976, 977, 978, 979, 980, 981, 982, 983, 984, 985, 986, 987, 988, 989, 990, 991, 992, 993, 994, 995, 996, 997, 998, 999, 1000, 1001, 1002, 1003, 1004, 1005, 1006, 1007, 1008, 1009, 1010, 1011, 1012, 1013, 1014, 1015, 1016],
      "AcquisitionTime": ["111356.697500", "111357.157500", "111357.617500", "111358.077500", "111358.537500", "111358.997500", "111359.457500", "111359.917500", "111400.377500", "111400.837500", "111401.297500", "111401.757500", "111402.217500", "111402.677500", "111403.137500", "111403.597500", "111404.057500", "111404.517500", "111404.977500", "111405.437500", "111405.897500", "111406.357500", "111406.817500", "111407.277500", "111407.737500", "111408.197500", "111408.657500", "111409.117500", "111409.577500", "111410.037500", "111410.497500", "111410.957500", "111411.417500", "111411.877500", "111412.337500", "111412.797500", "111413.257500", "111413.717500", "111414.177500", "111414.637500", "111415.097500", "111415.557500", "111416.017500", "111416.477500", "111416.937500", "111417.397500", "111417.857500", "111418.317500", "111418.777500", "111419.237500", "111419.697500", "111420.157500", "111420.617500", "111421.077500", "111421.537500", "111421.997500", "111422.457500", "111422.917500", "111423.377500", "111423.837500", "111424.297500", "111424.757500", "111425.217500", "111425.677500", "111426.137500", "111426.597500", "111427.057500", "111427.517500", "111427.977500", "111428.437500", "111428.897500", "111429.357500", "111429.817500", "111430.277500", "111430.737500", "111431.197500", "111431.657500", "111432.117500", "111432.577500", "111433.037500", "111433.497500", "111433.957500", "111434.417500", "111434.877500", "111435.337500", "111435.797500", "111436.257500", "111436.717500", "111437.177500", "111437.637500", "111438.097500", "111438.557500", "111439.017500", "111439.477500", "111439.937500", "111440.397500", "111440.857500", "111441.317500", "111441.777500", "111442.237500", "111442.697500", "111443.157500", "111443.617500", "111444.077500", "111444.537500", "111444.997500", "111445.457500", "111445.917500", "111446.377500", "111446.837500", "111447.297500", "111447.757500", "111448.217500", "111448.677500", "111449.137500", "111449.597500", "111450.057500", "111450.517500", "111450.977500", "111451.437500", "111451.897500", "111452.357500", "111452.817500", "111453.277500", "111453.737500", "111454.197500", "111454.657500", "111455.117500", "111455.577500", "111456.037500", "111456.497500", "111456.957500", "111457.417500", "111457.877500", "111458.337500", "111458.797500", "111459.257500", "111459.717500", "111500.177500", "111500.637500", "111501.097500", "111501.557500", "111502.017500", "111502.477500", "111502.937500", "111503.397500", "111503.857500", "111504.317500", "111504.777500", "111505.237500", "111505.697500", "111506.157500", "111506.617500", "111507.077500", "111507.537500", "111507.997500", "111508.457500", "111508.917500", "111509.377500", "111509.837500", "111510.297500", "111510.757500", "111511.217500", "111511.677500", "111512.137500", "111512.597500", "111513.057500", "111513.517500", "111513.977500", "111514.437500", "111514.897500", "111515.357500", "111515.817500", "111516.277500", "111516.737500", "111517.197500", "111517.657500", "111518.117500", "111518.577500", "111519.037500", "111519.497500", "111519.957500", "111520.417500", "111520.877500", "111521.337500", "111521.797500", "111522.257500", "111522.717500", "111523.177500", "111523.637500", "111524.097500", "111524.557500", "111525.017500", "111525.477500", "111525.937500", "111526.397500", "111526.857500", "111527.317500", "111527.777500", "111528.237500", "111528.697500", "111529.157500", "111529.617500", "111530.077500", "111530.537500", "111530.997500", "111531.457500", "111531.917500", "111532.377500", "111532.837500", "111533.297500", "111533.757500", "111534.217500", "111534.677500", "111535.137500", "111535.597500", "111536.057500", "111536.517500", "111536.977500", "111537.437500", "111537.897500", "111538.357500", "111538.817500", "111539.277500", "111539.737500", "111540.197500", "111540.657500", "111541.117500", "111541.577500", "111542.037500", "111542.497500", "111542.957500", "111543.417500", "111543.877500", "111544.337500", "111544.797500", "111545.257500", "111545.717500", "111546.177500", "111546.637500", "111547.097500", "111547.557500", "111548.017500", "111548.477500", "111548.937500", "111549.397500", "111549.857500", "111550.317500", "111550.777500", "111551.237500", "111551.697500", "111552.157500", "111552.617500", "111553.077500", "111553.537500", "111553.997500", "111554.457500", "111554.917500", "111555.377500", "111555.837500", "111556.297500", "111556.757500", "111557.217500", "111557.677500", "111558.137500", "111558.597500", "111559.057500", "111559.517500", "111559.977500", "111600.437500", "111600.897500", "111601.357500", "111601.817500", "111602.277500", "111602.737500", "111603.197500", "111603.657500", "111604.117500", "111604.577500", "111605.037500", "111605.497500", "111605.957500", "111606.417500", "111606.877500", "111607.337500", "111607.797500", "111608.257500", "111608.717500", "111609.177500", "111609.637500", "111610.097500", "111610.557500", "111611.017500", "111611.477500", "111611.937500", "111612.397500", "111612.857500", "111613.317500", "111613.777500", "111614.237500", "111614.697500", "111615.157500", "111615.617500", "111616.077500", "111616.537500", "111616.997500", "111617.457500", "111617.917500", "111618.377500", "111618.837500", "111619.297500", "111619.757500", "111620.217500", "111620.677500", "111621.137500", "111621.597500", "111622.057500", "111622.517500", "111622.977500", "111623.437500", "111623.897500", "111624.357500", "111624.817500", "111625.277500", "111625.737500", "111626.197500", "111626.657500", "111627.117500", "111627.577500", "111628.037500", "111628.497500", "111628.957500", "111629.417500", "111629.877500", "111630.337500", "111630.797500", "111631.257500", "111631.717500", "111632.177500", "111632.637500", "111633.097500", "111633.557500", "111634.017500", "111634.477500", "111634.937500", "111635.397500", "111635.857500", "111636.317500", "111636.777500", "111637.237500", "111637.697500", "111638.157500", "111638.617500", "111639.077500", "111639.537500", "111639.997500", "111640.457500", "111640.917500", "111641.377500", "111641.837500", "111642.297500", "111642.757500", "111643.217500", "111643.677500", "111644.137500", "111644.597500", "111645.057500", "111645.517500", "111645.977500", "111646.437500", "111646.897500", "111647.357500", "111647.817500", "111648.277500", "111648.737500", "111649.197500", "111649.657500", "111650.117500", "111650.577500", "111651.037500", "111651.497500", "111651.957500", "111652.417500", "111652.877500", "111653.337500", "111653.797500", "111654.257500", "111654.717500", "111655.177500", "111655.637500", "111656.097500", "111656.557500", "111657.017500", "111657.477500", "111657.937500", "111658.397500", "111658.857500", "111659.317500", "111659.777500", "111700.237500", "111700.697500", "111701.157500", "111701.617500", "111702.077500", "111702.537500", "111702.997500", "111703.457500", "111703.917500", "111704.377500", "111704.837500", "111705.297500", "111705.757500", "111706.217500", "111706.677500", "111707.137500", "111707.597500", "111708.057500", "111708.517500", "111708.977500", "111709.437500", "111709.897500", "111710.357500", "111710.817500", "111711.277500", "111711.737500", "111712.197500", "111712.657500", "111713.117500", "111713.577500", "111714.037500", "111714.497500", "111714.957500", "111715.417500", "111715.877500", "111716.337500", "111716.797500", "111717.257500", "111717.717500", "111718.177500", "111718.637500", "111719.097500", "111719.557500", "111720.017500", "111720.477500", "111720.937500", "111721.397500", "111721.857500", "111722.317500", "111722.777500", "111723.237500", "111723.697500", "111724.157500", "111724.617500", "111725.077500", "111725.537500", "111725.997500", "111726.457500", "111726.917500", "111727.377500", "111727.837500", "111728.297500", "111728.757500", "111729.217500", "111729.677500", "111730.137500", "111730.597500", "111731.057500", "111731.517500", "111731.977500", "111732.437500", "111732.897500", "111733.357500", "111733.817500", "111734.277500", "111734.737500", "111735.197500", "111735.657500", "111736.117500", "111736.577500", "111737.037500", "111737.497500", "111737.957500", "111738.417500", "111738.877500", "111739.337500", "111739.797500", "111740.257500", "111740.717500", "111741.177500", "111741.637500", "111742.097500", "111742.557500", "111743.017500", "111743.477500", "111743.937500", "111744.397500", "111744.857500", "111745.317500", "111745.777500", "111746.237500", "111746.697500", "111747.157500", "111747.617500", "111748.077500", "111748.537500", "111748.997500", "111749.457500", "111749.917500", "111750.377500", "111750.837500", "111751.297500", "111751.757500", "111752.217500", "111752.677500", "111753.137500", "111753.597500", "111754.057500", "111754.517500", "111754.977500", "111755.437500", "111755.897500", "111756.357500", "111756.817500", "111757.277500", "111757.737500", "111758.197500", "111758.657500", "111759.117500", "111759.577500", "111800.037500", "111800.497500", "111800.957500", "111801.417500", "111801.877500", "111802.337500", "111802.797500", "111803.257500", "111803.717500", "111804.177500", "111804.637500", "111805.097500", "111805.557500", "111806.017500", "111806.477500", "111806.937500", "111807.397500", "111807.857500", "111808.317500", "111808.777500", "111809.237500", "111809.697500", "111810.157500", "111810.617500", "111811.077500", "111811.537500", "111811.997500", "111812.457500", "111812.917500", "111813.377500", "111813.837500", "111814.297500", "111814.757500", "111815.217500", "111815.677500", "111816.137500", "111816.597500", "111817.057500", "111817.517500", "111817.977500", "111818.437500", "111818.897500", "111819.357500", "111819.817500", "111820.277500", "111820.737500", "111821.197500", "111821.657500", "111822.117500", "111822.577500", "111823.037500", "111823.497500", "111823.957500", "111824.417500", "111824.877500", "111825.337500", "111825.797500", "111826.257500", "111826.717500", "111827.177500", "111827.637500", "111828.097500", "111828.557500", "111829.017500", "111829.477500", "111829.937500", "111830.397500", "111830.857500", "111831.317500", "111831.777500", "111832.237500", "111832.697500", "111833.157500", "111833.617500", "111834.077500", "111834.537500", "111834.997500", "111835.457500", "111835.917500", "111836.377500", "111836.837500", "111837.297500", "111837.757500", "111838.217500", "111838.677500", "111839.137500", "111839.597500", "111840.057500", "111840.517500", "111840.977500", "111841.437500", "111841.897500", "111842.357500", "111842.817500", "111843.277500", "111843.737500", "111844.197500", "111844.657500", "111845.117500", "111845.577500", "111846.037500", "111846.497500", "111846.957500", "111847.417500", "111847.877500", "111848.337500", "111848.797500", "111849.257500", "111849.717500", "111850.177500", "111850.637500", "111851.097500", "111851.557500", "111852.017500", "111852.477500", "111852.937500", "111853.397500", "111853.857500", "111854.317500", "111854.777500", "111855.237500", "111855.697500", "111856.157500", "111856.617500", "111857.077500", "111857.537500", "111857.997500", "111858.457500", "111858.917500", "111859.377500", "111859.837500", "111900.297500", "111900.757500", "111901.217500", "111901.677500", "111902.137500", "111902.597500", "111903.057500", "111903.517500", "111903.977500", "111904.437500", "111904.897500", "111905.357500", "111905.817500", "111906.277500", "111906.737500", "111907.197500", "111907.657500", "111908.117500", "111908.577500", "111909.037500", "111909.497500", "111909.957500", "111910.417500", "111910.877500", "111911.337500", "111911.797500", "111912.257500", "111912.717500", "111913.177500", "111913.637500", "111914.097500", "111914.557500", "111915.017500", "111915.477500", "111915.937500", "111916.397500", "111916.857500", "111917.317500", "111917.777500", "111918.237500", "111918.697500", "111919.157500", "111919.617500", "111920.077500", "111920.537500", "111920.997500", "111921.457500", "111921.917500", "111922.377500", "111922.837500", "111923.297500", "111923.757500", "111924.217500", "111924.677500", "111925.137500", "111925.597500", "111926.057500", "111926.517500", "111926.977500", "111927.437500", "111927.897500", "111928.357500", "111928.817500", "111929.277500", "111929.737500", "111930.197500", "111930.657500", "111931.117500", "111931.577500", "111932.037500", "111932.497500", "111932.957500", "111933.417500", "111933.877500", "111934.337500", "111934.797500", "111935.257500", "111935.717500", "111936.177500", "111936.637500", "111937.097500", "111937.557500", "111938.017500", "111938.477500", "111938.937500", "111939.397500", "111939.857500", "111940.317500", "111940.777500", "111941.237500", "111941.697500", "111942.157500", "111942.617500", "111943.077500", "111943.537500", "111943.997500", "111944.457500", "111944.917500", "111945.377500", "111945.837500", "111946.297500", "111946.757500", "111947.217500", "111947.677500", "111948.137500", "111948.597500", "111949.057500", "111949.517500", "111949.977500", "111950.437500", "111950.897500", "111951.357500", "111951.817500", "111952.277500", "111952.737500", "111953.197500", "111953.657500", "111954.117500", "111954.577500", "111955.037500", "111955.497500", "111955.957500", "111956.417500", "111956.877500", "111957.337500", "111957.797500", "111958.257500", "111958.717500", "111959.177500", "111959.637500", "112000.097500", "112000.557500", "112001.017500", "112001.477500", "112001.937500", "112002.397500", "112002.857500", "112003.317500", "112003.777500", "112004.237500", "112004.697500", "112005.157500", "112005.617500", "112006.077500", "112006.537500", "112006.997500", "112007.457500", "112007.917500", "112008.377500", "112008.837500", "112009.297500", "112009.757500", "112010.217500", "112010.677500", "112011.137500", "112011.597500", "112012.057500", "112012.517500", "112012.977500", "112013.437500", "112013.897500", "112014.357500", "112014.817500", "112015.277500", "112015.737500", "112016.197500", "112016.657500", "112017.117500", "112017.577500", "112018.037500", "112018.497500", "112018.957500", "112019.417500", "112019.877500", "112020.337500", "112020.797500", "112021.257500", "112021.717500", "112022.177500", "112022.637500", "112023.097500", "112023.557500", "112024.017500", "112024.477500", "112024.937500", "112025.397500", "112025.857500", "112026.317500", "112026.777500", "112027.237500", "112027.697500", "112028.157500", "112028.617500", "112029.077500", "112029.537500", "112029.997500", "112030.457500", "112030.917500", "112031.377500", "112031.837500", "112032.297500", "112032.757500", "112033.217500", "112033.677500", "112034.137500", "112034.597500", "112035.057500", "112035.517500", "112035.977500", "112036.437500", "112036.897500", "112037.357500", "112037.817500", "112038.277500", "112038.737500", "112039.197500", "112039.657500", "112040.117500", "112040.577500", "112041.037500", "112041.497500", "112041.957500", "112042.417500", "112042.877500", "112043.337500", "112043.797500", "112044.257500", "112044.717500", "112045.177500", "112045.637500", "112046.097500", "112046.557500", "112047.017500", "112047.477500", "112047.937500", "112048.397500", "112048.857500", "112049.317500", "112049.777500", "112050.237500", "112050.697500", "112051.157500", "112051.617500", "112052.077500", "112052.537500", "112052.997500", "112053.457500", "112053.917500", "112054.377500", "112054.837500", "112055.297500", "112055.757500", "112056.217500", "112056.677500", "112057.137500", "112057.597500", "112058.057500", "112058.517500", "112058.977500", "112059.437500", "112059.897500", "112100.357500", "112100.817500", "112101.277500", "112101.737500", "112102.197500", "112102.657500", "112103.117500", "112103.577500", "112104.037500", "112104.497500", "112104.957500", "112105.417500", "112105.877500", "112106.337500", "112106.797500", "112107.257500", "112107.717500", "112108.177500", "112108.637500", "112109.097500", "112109.557500", "112110.017500", "112110.477500", "112110.937500", "112111.397500", "112111.857500", "112112.317500", "112112.777500", "112113.237500", "112113.697500", "112114.157500", "112114.617500", "112115.077500", "112115.537500", "112115.997500", "112116.457500", "112116.917500", "112117.377500", "112117.837500", "112118.297500", "112118.757500", "112119.217500", "112119.677500", "112120.137500", "112120.597500", "112121.057500", "112121.517500", "112121.977500", "112122.437500", "112122.897500", "112123.357500", "112123.817500", "112124.277500", "112124.737500", "112125.197500", "112125.657500", "112126.117500", "112126.577500", "112127.037500", "112127.497500", "112127.957500", "112128.417500", "112128.877500", "112129.337500", "112129.797500", "112130.257500", "112130.717500", "112131.177500", "112131.637500", "112132.097500", "112132.557500", "112133.017500", "112133.477500", "112133.937500", "112134.397500", "112134.857500", "112135.317500", "112135.777500", "112136.237500", "112136.697500", "112137.157500", "112137.617500", "112138.077500", "112138.537500", "112138.997500", "112139.457500", "112139.917500", "112140.377500", "112140.837500", "112141.297500", "112141.757500", "112142.217500", "112142.677500", "112143.137500", "112143.597500"],
