{
  "AcquisitionMatrixPE": 82,
  "AcquisitionNumber": 1,
  "AcquisitionTime": "10:36:48.520000",
  "BandwidthPerPixelPhaseEncode": 24.888,
  "BaseResolution": 82,
  "BodyPartExamined": "BRAIN",
  "ConsistencyInfo": "N4_VE11C_LATEST_20160120",
  "ConversionSoftware": "dcm2niix",
  "ConversionSoftwareVersion": "v1.0.20201102",
  "DerivedVendorReportedEchoSpacing": 0.00049,
  "DeviceSerialNumber": "66112",
  "DwellTime": 2e-06,
  "EchoTime": 0.0272,
  "EchoTrainLength": 82,
  "EffectiveEchoSpacing": 0.00049,
  "FlipAngle": 44,
  "ImageComments": "Unaliased MB8/PE3",
  "ImageOrientationPatientDICOM": [0.997501, -0.0594939, 0.0380973, 0.0568169, 0.996075, 0.0678658],
  "ImageType": [
    "ORIGINAL",
    "PRIMARY",
    "FMRI",
    "NONE",
    "MB",
    "ND",
    "NORM",
    "MOSAIC"
],
  "ImagingFrequency": 123.252,
  "InPlanePhaseEncodingDirectionDICOM": "COL",
  "InstitutionAddress": "Maynard 3,Hanover,NH,US,03755",
  "InstitutionName": "Dartmouth College - PBS",
  "InstitutionalDepartmentName": "Department",
  "MRAcquisitionType": "2D",
  "MagneticFieldStrength": 3,
  "Manufacturer": "Siemens",
  "ManufacturersModelName": "Prisma",
  "Modality": "MR",
  "MultibandAccelerationFactor": 8,
  "PartialFourier": 1,
  "PatientPosition": "HFS",
  "PercentPhaseFOV": 100,
  "PercentSampling": 100,
  "PhaseEncodingDirection": "j-",
  "PhaseEncodingSteps": 82,
  "PhaseResolution": 1,
  "PixelBandwidth": 3050,
  "ProcedureStepDescription": "Wager_Wager^1076_spacetop",
  "ProtocolName": "func_run-05_task-social_acq-ap-mb8",
  "PulseSequenceDetails": "%CustomerSeq%\\cmrr_mbep2d_bold",
  "ReceiveCoilActiveElements": "HEA;HEP",
  "ReceiveCoilName": "Head_32",
  "ReconMatrixPE": 82,
  "RepetitionTime": 0.46,
  "SAR": 0.100017,
  "ScanOptions": "FS",
  "ScanningSequence": "EP",
  "SequenceName": "epfid2d1_82",
  "SequenceVariant": "SK\\SS",
  "SeriesDescription": "func_run-05_task-social_acq-ap-mb8",
  "SeriesNumber": 39,
  "ShimSetting": [4156, -7740, -7276, 673, -65, -229, -20, 12],
  "SliceThickness": 2.7,
  "SliceTiming": [0, 0.2525, 0.0625, 0.315, 0.1275, 0.3775, 0.19, 0, 0.2525, 0.0625, 0.315, 0.1275, 0.3775, 0.19, 0, 0.2525, 0.0625, 0.315, 0.1275, 0.3775, 0.19, 0, 0.2525, 0.0625, 0.315, 0.1275, 0.3775, 0.19, 0, 0.2525, 0.0625, 0.315, 0.1275, 0.3775, 0.19, 0, 0.2525, 0.0625, 0.315, 0.1275, 0.3775, 0.19, 0, 0.2525, 0.0625, 0.315, 0.1275, 0.3775, 0.19, 0, 0.2525, 0.0625, 0.315, 0.1275, 0.3775, 0.19],
  "SoftwareVersions": "syngo MR E11",
  "SpacingBetweenSlices": 2.7,
  "StationName": "AWP66112",
  "TaskName": "social",
  "TotalReadoutTime": 0.03969,
  "TxRefAmp": 232.71,
  "WipMemBlock": "578b0697-f04b-4cd5-8b46-6fce2ae6c11e||Sequence: R016 ve11c/master r/e634e98; Dec 19 2017 11:00:25 by eja",
  "dcmmeta_affine": [
    [-2.6762232780456543, 0.1524355560541153, 0.11336053162813187, 103.03473663330078],
    [0.1596178561449051, 2.6723973751068115, 0.17693547904491425, -103.24422454833984],
    [0.10221226513385773, -0.18207897245883942, 2.691810369491577, -60.427490234375],
    [0.0, 0.0, 0.0, 1.0]
],
  "dcmmeta_reorient_transform": [
    [0.0, -1.0, 0.0, 81.0],
    [1.0, 0.0, 0.0, 0.0],
    [0.0, 0.0, 1.0, 0.0],
    [0.0, 0.0, 0.0, 1.0]
],
  "dcmmeta_shape": [82, 82, 56, 872],
  "dcmmeta_slice_dim": 2,
  "dcmmeta_version": 0.6,
  "global": {
    "const": {
      "AccessionNumber": "A003585",
      "AcquisitionMatrix": [82, 0, 0, 82],
      "AngioFlag": "N",
      "BitsAllocated": 16,
      "BitsStored": 12,
      "BodyPartExamined": "BRAIN",
      "Columns": 656,
      "EchoNumbers": 1,
      "EchoTime": 27.2,
      "EchoTrainLength": 82,
      "FlipAngle": 44.0,
      "HighBit": 11,
      "ImageOrientationPatient": [0.99750141293635, -0.0594939240771, 0.03809729895793, 0.05681688871688, 0.99607533575831, 0.06786579882755],
      "ImagePositionPatient": [-927.20712626926, -834.3876582142, -156.76747532642],
      "ImageType": [
        "ORIGINAL",
        "PRIMARY",
        "FMRI",
        "NONE",
        "MB",
        "ND",
        "NORM",
        "MOSAIC"
],
      "ImagedNucleus": "1H",
      "ImagingFrequency": 123.252194,
      "InPlanePhaseEncodingDirection": "COL",
      "MRAcquisitionType": "2D",
      "MagneticFieldStrength": 3.0,
      "Manufacturer": "SIEMENS",
      "ManufacturerModelName": "Prisma",
      "Modality": "MR",
      "NumberOfAverages": 1.0,
      "NumberOfPhaseEncodingSteps": 82,
      "PercentPhaseFieldOfView": 100.0,
      "PercentSampling": 100.0,
      "PerformedProcedureStepStartTime": "085846.609000",
      "PhotometricInterpretation": "MONOCHROME2",
      "PixelBandwidth": 3050.0,
      "PixelRepresentation": 0,
      "PixelSpacing": [2.6829268932343, 2.6829268932343],
      "ProtocolName": "func_run-05_task-social_acq-ap-mb8",
      "RepetitionTime": 460.0,
      "Rows": 656,
      "SAR": 0.1000174113262,
      "SamplesPerPixel": 1,
      "ScanOptions": "FS",
      "ScanningSequence": "EP",
      "SequenceName": "epfid2d1_82",
      "SequenceVariant": [
        "SK",
        "SS"
],
      "SeriesDescription": "func_run-05_task-social_acq-ap-mb8",
      "SeriesNumber": 39,
      "SeriesTime": "103652.026000",
      "SliceLocation": -62.684016090471,
      "SliceThickness": 2.7000000476837,
      "SmallestImagePixelValue": 0,
      "SoftwareVersions": "syngo MR E11",
      "SpacingBetweenSlices": 2.7000000013305,
      "SpecificCharacterSet": "ISO_IR 100",
      "StudyID": "1",
      "StudyTime": "085846.445000",
      "TransmitCoilName": "Body",
      "VariableFlipAngleFlag": "N",
      "WindowCenterWidthExplanation": "Algo1",
      "dBdt": 0.0},
    "slices": {}
  },
  "time": {
    "samples": {
      "AcquisitionNumber": [1, 2, 3, 4, 5, 6, 7, 8, 9, 10, 11, 12, 13, 14, 15, 16, 17, 18, 19, 20, 21, 22, 23, 24, 25, 26, 27, 28, 29, 30, 31, 32, 33, 34, 35, 36, 37, 38, 39, 40, 41, 42, 43, 44, 45, 46, 47, 48, 49, 50, 51, 52, 53, 54, 55, 56, 57, 58, 59, 60, 61, 62, 63, 64, 65, 66, 67, 68, 69, 70, 71, 72, 73, 74, 75, 76, 77, 78, 79, 80, 81, 82, 83, 84, 85, 86, 87, 88, 89, 90, 91, 92, 93, 94, 95, 96, 97, 98, 99, 100, 101, 102, 103, 104, 105, 106, 107, 108, 109, 110, 111, 112, 113, 114, 115, 116, 117, 118, 119, 120, 121, 122, 123, 124, 125, 126, 127, 128, 129, 130, 131, 132, 133, 134, 135, 136, 137, 138, 139, 140, 141, 142, 143, 144, 145, 146, 147, 148, 149, 150, 151, 152, 153, 154, 155, 156, 157, 158, 159, 160, 161, 162, 163, 164, 165, 166, 167, 168, 169, 170, 171, 172, 173, 174, 175, 176, 177, 178, 179, 180, 181, 182, 183, 184, 185, 186, 187, 188, 189, 190, 191, 192, 193, 194, 195, 196, 197, 198, 199, 200, 201, 202, 203, 204, 205, 206, 207, 208, 209, 210, 211, 212, 213, 214, 215, 216, 217, 218, 219, 220, 221, 222, 223, 224, 225, 226, 227, 228, 229, 230, 231, 232, 233, 234, 235, 236, 237, 238, 239, 240, 241, 242, 243, 244, 245, 246, 247, 248, 249, 250, 251, 252, 253, 254, 255, 256, 257, 258, 259, 260, 261, 262, 263, 264, 265, 266, 267, 268, 269, 270, 271, 272, 273, 274, 275, 276, 277, 278, 279, 280, 281, 282, 283, 284, 285, 286, 287, 288, 289, 290, 291, 292, 293, 294, 295, 296, 297, 298, 299, 300, 301, 302, 303, 304, 305, 306, 307, 308, 309, 310, 311, 312, 313, 314, 315, 316, 317, 318, 319, 320, 321, 322, 323, 324, 325, 326, 327, 328, 329, 330, 331, 332, 333, 334, 335, 336, 337, 338, 339, 340, 341, 342, 343, 344, 345, 346, 347, 348, 349, 350, 351, 352, 353, 354, 355, 356, 357, 358, 359, 360, 361, 362, 363, 364, 365, 366, 367, 368, 369, 370, 371, 372, 373, 374, 375, 376, 377, 378, 379, 380, 381, 382, 383, 384, 385, 386, 387, 388, 389, 390, 391, 392, 393, 394, 395, 396, 397, 398, 399, 400, 401, 402, 403, 404, 405, 406, 407, 408, 409, 410, 411, 412, 413, 414, 415, 416, 417, 418, 419, 420, 421, 422, 423, 424, 425, 426, 427, 428, 429, 430, 431, 432, 433, 434, 435, 436, 437, 438, 439, 440, 441, 442, 443, 444, 445, 446, 447, 448, 449, 450, 451, 452, 453, 454, 455, 456, 457, 458, 459, 460, 461, 462, 463, 464, 465, 466, 467, 468, 469, 470, 471, 472, 473, 474, 475, 476, 477, 478, 479, 480, 481, 482, 483, 484, 485, 486, 487, 488, 489, 490, 491, 492, 493, 494, 495, 496, 497, 498, 499, 500, 501, 502, 503, 504, 505, 506, 507, 508, 509, 510, 511, 512, 513, 514, 515, 516, 517, 518, 519, 520, 521, 522, 523, 524, 525, 526, 527, 528, 529, 530, 531, 532, 533, 534, 535, 536, 537, 538, 539, 540, 541, 542, 543, 544, 545, 546, 547, 548, 549, 550, 551, 552, 553, 554, 555, 556, 557, 558, 559, 560, 561, 562, 563, 564, 565, 566, 567, 568, 569, 570, 571, 572, 573, 574, 575, 576, 577, 578, 579, 580, 581, 582, 583, 584, 585, 586, 587, 588, 589, 590, 591, 592, 593, 594, 595, 596, 597, 598, 599, 600, 601, 602, 603, 604, 605, 606, 607, 608, 609, 610, 611, 612, 613, 614, 615, 616, 617, 618, 619, 620, 621, 622, 623, 624, 625, 626, 627, 628, 629, 630, 631, 632, 633, 634, 635, 636, 637, 638, 639, 640, 641, 642, 643, 644, 645, 646, 647, 648, 649, 650, 651, 652, 653, 654, 655, 656, 657, 658, 659, 660, 661, 662, 663, 664, 665, 666, 667, 668, 669, 670, 671, 672, 673, 674, 675, 676, 677, 678, 679, 680, 681, 682, 683, 684, 685, 686, 687, 688, 689, 690, 691, 692, 693, 694, 695, 696, 697, 698, 699, 700, 701, 702, 703, 704, 705, 706, 707, 708, 709, 710, 711, 712, 713, 714, 715, 716, 717, 718, 719, 720, 721, 722, 723, 724, 725, 726, 727, 728, 729, 730, 731, 732, 733, 734, 735, 736, 737, 738, 739, 740, 741, 742, 743, 744, 745, 746, 747, 748, 749, 750, 751, 752, 753, 754, 755, 756, 757, 758, 759, 760, 761, 762, 763, 764, 765, 766, 767, 768, 769, 770, 771, 772, 773, 774, 775, 776, 777, 778, 779, 780, 781, 782, 783, 784, 785, 786, 787, 788, 789, 790, 791, 792, 793, 794, 795, 796, 797, 798, 799, 800, 801, 802, 803, 804, 805, 806, 807, 808, 809, 810, 811, 812, 813, 814, 815, 816, 817, 818, 819, 820, 821, 822, 823, 824, 825, 826, 827, 828, 829, 830, 831, 832, 833, 834, 835, 836, 837, 838, 839, 840, 841, 842, 843, 844, 845, 846, 847, 848, 849, 850, 851, 852, 853, 854, 855, 856, 857, 858, 859, 860, 861, 862, 863, 864, 865, 866, 867, 868, 869, 870, 871, 872],
      "AcquisitionTime": ["103648.520000", "103648.980000", "103649.440000", "103649.900000", "103650.360000", "103650.820000", "103651.280000", "103651.740000", "103652.200000", "103652.660000", "103653.120000", "103653.580000", "103654.040000", "103654.500000", "103654.960000", "103655.420000", "103655.880000", "103656.340000", "103656.800000", "103657.260000", "103657.720000", "103658.180000", "103658.640000", "103659.100000", "103659.560000", "103700.020000", "103700.480000", "103700.940000", "103701.400000", "103701.860000", "103702.320000", "103702.780000", "103703.240000", "103703.700000", "103704.160000", "103704.620000", "103705.080000", "103705.540000", "103706.000000", "103706.460000", "103706.920000", "103707.380000", "103707.840000", "103708.300000", "103708.760000", "103709.220000", "103709.680000", "103710.140000", "103710.600000", "103711.060000", "103711.520000", "103711.980000", "103712.440000", "103712.900000", "103713.360000", "103713.820000", "103714.280000", "103714.740000", "103715.200000", "103715.660000", "103716.120000", "103716.580000", "103717.040000", "103717.500000", "103717.960000", "103718.420000", "103718.880000", "103719.340000", "103719.800000", "103720.260000", "103720.720000", "103721.180000", "103721.640000", "103722.100000", "103722.560000", "103723.020000", "103723.480000", "103723.940000", "103724.400000", "103724.860000", "103725.320000", "103725.780000", "103726.240000", "103726.700000", "103727.160000", "103727.620000", "103728.080000", "103728.540000", "103729.000000", "103729.460000", "103729.920000", "103730.380000", "103730.840000", "103731.300000", "103731.760000", "103732.220000", "103732.680000", "103733.140000", "103733.600000", "103734.060000", "103734.520000", "103734.980000", "103735.440000", "103735.900000", "103736.360000", "103736.820000", "103737.280000", "103737.740000", "103738.200000", "103738.660000", "103739.120000", "103739.580000", "103740.040000", "103740.500000", "103740.960000", "103741.420000", "103741.880000", "103742.340000", "103742.800000", "103743.260000", "103743.720000", "103744.180000", "103744.640000", "103745.100000", "103745.560000", "103746.020000", "103746.480000", "103746.940000", "103747.400000", "103747.860000", "103748.320000", "103748.780000", "103749.240000", "103749.700000", "103750.160000", "103750.620000", "103751.080000", "103751.540000", "103752.000000", "103752.460000", "103752.920000", "103753.380000", "103753.840000", "103754.300000", "103754.760000", "103755.220000", "103755.680000", "103756.140000", "103756.600000", "103757.060000", "103757.520000", "103757.980000", "103758.440000", "103758.900000", "103759.360000", "103759.820000", "103800.280000", "103800.740000", "103801.200000", "103801.660000", "103802.120000", "103802.580000", "103803.040000", "103803.500000", "103803.960000", "103804.420000", "103804.880000", "103805.340000", "103805.800000", "103806.260000", "103806.720000", "103807.180000", "103807.640000", "103808.100000", "103808.560000", "103809.020000", "103809.480000", "103809.940000", "103810.400000", "103810.860000", "103811.320000", "103811.780000", "103812.240000", "103812.700000", "103813.160000", "103813.620000", "103814.080000", "103814.540000", "103815.000000", "103815.460000", "103815.920000", "103816.380000", "103816.840000", "103817.300000", "103817.760000", "103818.220000", "103818.680000", "103819.140000", "103819.600000", "103820.060000", "103820.520000", "103820.980000", "103821.440000", "103821.900000", "103822.360000", "103822.820000", "103823.280000", "103823.740000", "103824.200000", "103824.660000", "103825.120000", "103825.580000", "103826.040000", "103826.500000", "103826.960000", "103827.420000", "103827.880000", "103828.340000", "103828.800000", "103829.260000", "103829.720000", "103830.180000", "103830.640000", "103831.100000", "103831.560000", "103832.020000", "103832.480000", "103832.940000", "103833.400000", "103833.860000", "103834.320000", "103834.780000", "103835.240000", "103835.700000", "103836.160000", "103836.620000", "103837.080000", "103837.540000", "103838.000000", "103838.460000", "103838.920000", "103839.380000", "103839.840000", "103840.300000", "103840.760000", "103841.220000", "103841.680000", "103842.140000", "103842.600000", "103843.060000", "103843.520000", "103843.980000", "103844.440000", "103844.900000", "103845.360000", "103845.820000", "103846.280000", "103846.740000", "103847.200000", "103847.660000", "103848.120000", "103848.580000", "103849.040000", "103849.500000", "103849.960000", "103850.420000", "103850.880000", "103851.340000", "103851.800000", "103852.260000", "103852.720000", "103853.180000", "103853.640000", "103854.100000", "103854.560000", "103855.020000", "103855.480000", "103855.940000", "103856.400000", "103856.860000", "103857.320000", "103857.780000", "103858.240000", "103858.700000", "103859.160000", "103859.620000", "103900.080000", "103900.540000", "103901.000000", "103901.460000", "103901.920000", "103902.380000", "103902.840000", "103903.300000", "103903.760000", "103904.220000", "103904.680000", "103905.140000", "103905.600000", "103906.060000", "103906.520000", "103906.980000", "103907.440000", "103907.900000", "103908.360000", "103908.820000", "103909.280000", "103909.740000", "103910.200000", "103910.660000", "103911.120000", "103911.580000", "103912.040000", "103912.500000", "103912.960000", "103913.420000", "103913.880000", "103914.340000", "103914.800000", "103915.260000", "103915.720000", "103916.180000", "103916.640000", "103917.100000", "103917.560000", "103918.020000", "103918.480000", "103918.940000", "103919.400000", "103919.860000", "103920.320000", "103920.780000", "103921.240000", "103921.700000", "103922.160000", "103922.620000", "103923.080000", "103923.540000", "103924.000000", "103924.460000", "103924.920000", "103925.380000", "103925.840000", "103926.300000", "103926.760000", "103927.220000", "103927.680000", "103928.140000", "103928.600000", "103929.060000", "103929.520000", "103929.980000", "103930.440000", "103930.900000", "103931.360000", "103931.820000", "103932.280000", "103932.740000", "103933.200000", "103933.660000", "103934.120000", "103934.580000", "103935.040000", "103935.500000", "103935.960000", "103936.420000", "103936.880000", "103937.340000", "103937.800000", "103938.260000", "103938.720000", "103939.180000", "103939.640000", "103940.100000", "103940.560000", "103941.020000", "103941.480000", "103941.940000", "103942.400000", "103942.860000", "103943.320000", "103943.780000", "103944.240000", "103944.700000", "103945.160000", "103945.620000", "103946.080000", "103946.540000", "103947.000000", "103947.460000", "103947.920000", "103948.380000", "103948.840000", "103949.300000", "103949.760000", "103950.220000", "103950.680000", "103951.140000", "103951.600000", "103952.060000", "103952.520000", "103952.980000", "103953.440000", "103953.900000", "103954.360000", "103954.820000", "103955.280000", "103955.740000", "103956.200000", "103956.660000", "103957.120000", "103957.580000", "103958.040000", "103958.500000", "103958.960000", "103959.420000", "103959.880000", "104000.340000", "104000.800000", "104001.260000", "104001.720000", "104002.180000", "104002.640000", "104003.100000", "104003.560000", "104004.020000", "104004.480000", "104004.940000", "104005.400000", "104005.860000", "104006.320000", "104006.780000", "104007.240000", "104007.700000", "104008.160000", "104008.620000", "104009.080000", "104009.540000", "104010.000000", "104010.460000", "104010.920000", "104011.380000", "104011.840000", "104012.300000", "104012.760000", "104013.220000", "104013.680000", "104014.140000", "104014.600000", "104015.060000", "104015.520000", "104015.980000", "104016.440000", "104016.900000", "104017.360000", "104017.820000", "104018.280000", "104018.740000", "104019.200000", "104019.660000", "104020.120000", "104020.580000", "104021.040000", "104021.500000", "104021.960000", "104022.420000", "104022.880000", "104023.340000", "104023.800000", "104024.260000", "104024.720000", "104025.180000", "104025.640000", "104026.100000", "104026.560000", "104027.020000", "104027.480000", "104027.940000", "104028.400000", "104028.860000", "104029.320000", "104029.780000", "104030.240000", "104030.700000", "104031.160000", "104031.620000", "104032.080000", "104032.540000", "104033.000000", "104033.460000", "104033.920000", "104034.380000", "104034.840000", "104035.300000", "104035.760000", "104036.220000", "104036.680000", "104037.140000", "104037.600000", "104038.060000", "104038.520000", "104038.980000", "104039.440000", "104039.900000", "104040.360000", "104040.820000", "104041.280000", "104041.740000", "104042.200000", "104042.660000", "104043.120000", "104043.580000", "104044.040000", "104044.500000", "104044.960000", "104045.420000", "104045.880000", "104046.340000", "104046.800000", "104047.260000", "104047.720000", "104048.180000", "104048.640000", "104049.100000", "104049.560000", "104050.020000", "104050.480000", "104050.940000", "104051.400000", "104051.860000", "104052.320000", "104052.780000", "104053.240000", "104053.700000", "104054.160000", "104054.620000", "104055.080000", "104055.540000", "104056.000000", "104056.460000", "104056.920000", "104057.380000", "104057.840000", "104058.300000", "104058.760000", "104059.220000", "104059.680000", "104100.140000", "104100.600000", "104101.060000", "104101.520000", "104101.980000", "104102.440000", "104102.900000", "104103.360000", "104103.820000", "104104.280000", "104104.740000", "104105.200000", "104105.660000", "104106.120000", "104106.580000", "104107.040000", "104107.500000", "104107.960000", "104108.420000", "104108.880000", "104109.340000", "104109.800000", "104110.260000", "104110.720000", "104111.180000", "104111.640000", "104112.100000", "104112.560000", "104113.020000", "104113.480000", "104113.940000", "104114.400000", "104114.860000", "104115.320000", "104115.780000", "104116.240000", "104116.700000", "104117.160000", "104117.620000", "104118.080000", "104118.540000", "104119.000000", "104119.460000", "104119.920000", "104120.380000", "104120.840000", "104121.300000", "104121.760000", "104122.220000", "104122.680000", "104123.140000", "104123.600000", "104124.060000", "104124.520000", "104124.980000", "104125.440000", "104125.900000", "104126.360000", "104126.820000", "104127.280000", "104127.740000", "104128.200000", "104128.660000", "104129.120000", "104129.580000", "104130.040000", "104130.500000", "104130.960000", "104131.420000", "104131.880000", "104132.340000", "104132.800000", "104133.260000", "104133.720000", "104134.180000", "104134.640000", "104135.100000", "104135.560000", "104136.020000", "104136.480000", "104136.940000", "104137.400000", "104137.860000", "104138.320000", "104138.780000", "104139.240000", "104139.700000", "104140.160000", "104140.620000", "104141.080000", "104141.540000", "104142.000000", "104142.460000", "104142.920000", "104143.380000", "104143.840000", "104144.300000", "104144.760000", "104145.220000", "104145.680000", "104146.140000", "104146.600000", "104147.060000", "104147.520000", "104147.980000", "104148.440000", "104148.900000", "104149.360000", "104149.820000", "104150.280000", "104150.740000", "104151.200000", "104151.660000", "104152.120000", "104152.580000", "104153.040000", "104153.500000", "104153.960000", "104154.420000", "104154.880000", "104155.340000", "104155.800000", "104156.260000", "104156.720000", "104157.180000", "104157.640000", "104158.100000", "104158.560000", "104159.020000", "104159.480000", "104159.940000", "104200.400000", "104200.860000", "104201.320000", "104201.780000", "104202.240000", "104202.700000", "104203.160000", "104203.620000", "104204.080000", "104204.540000", "104205.000000", "104205.460000", "104205.920000", "104206.380000", "104206.840000", "104207.300000", "104207.760000", "104208.220000", "104208.680000", "104209.140000", "104209.600000", "104210.060000", "104210.520000", "104210.980000", "104211.440000", "104211.900000", "104212.360000", "104212.820000", "104213.280000", "104213.740000", "104214.200000", "104214.660000", "104215.120000", "104215.580000", "104216.040000", "104216.500000", "104216.960000", "104217.420000", "104217.880000", "104218.340000", "104218.800000", "104219.260000", "104219.720000", "104220.180000", "104220.640000", "104221.100000", "104221.560000", "104222.020000", "104222.480000", "104222.940000", "104223.400000", "104223.860000", "104224.320000", "104224.780000", "104225.240000", "104225.700000", "104226.160000", "104226.620000", "104227.080000", "104227.540000", "104228.000000", "104228.460000", "104228.920000", "104229.380000", "104229.840000", "104230.300000", "104230.760000", "104231.220000", "104231.680000", "104232.140000", "104232.600000", "104233.060000", "104233.520000", "104233.980000", "104234.440000", "104234.900000", "104235.360000", "104235.820000", "104236.280000", "104236.740000", "104237.200000", "104237.660000", "104238.120000", "104238.580000", "104239.040000", "104239.500000", "104239.960000", "104240.420000", "104240.880000", "104241.340000", "104241.800000", "104242.260000", "104242.720000", "104243.180000", "104243.640000", "104244.100000", "104244.560000", "104245.020000", "104245.480000", "104245.940000", "104246.400000", "104246.860000", "104247.320000", "104247.780000", "104248.240000", "104248.700000", "104249.160000", "104249.620000", "104250.080000", "104250.540000", "104251.000000", "104251.460000", "104251.920000", "104252.380000", "104252.840000", "104253.300000", "104253.760000", "104254.220000", "104254.680000", "104255.140000", "104255.600000", "104256.060000", "104256.520000", "104256.980000", "104257.440000", "104257.900000", "104258.360000", "104258.820000", "104259.280000", "104259.740000", "104300.200000", "104300.660000", "104301.120000", "104301.580000", "104302.040000", "104302.500000", "104302.960000", "104303.420000", "104303.880000", "104304.340000", "104304.800000", "104305.260000", "104305.720000", "104306.180000", "104306.640000", "104307.100000", "104307.560000", "104308.020000", "104308.480000", "104308.940000", "104309.400000", "104309.860000", "104310.320000", "104310.780000", "104311.240000", "104311.700000", "104312.160000", "104312.620000", "104313.080000", "104313.540000", "104314.000000", "104314.460000", "104314.920000", "104315.380000", "104315.840000", "104316.300000", "104316.760000", "104317.220000", "104317.680000", "104318.140000", "104318.600000", "104319.060000", "104319.520000", "104319.980000", "104320.440000", "104320.900000", "104321.360000", "104321.820000", "104322.280000", "104322.740000", "104323.200000", "104323.660000", "104324.120000", "104324.580000", "104325.040000", "104325.500000", "104325.960000", "104326.420000", "104326.880000", "104327.340000", "104327.800000", "104328.260000", "104328.720000", "104329.180000"],
