{
  "AcquisitionMatrixPE": 82,
  "AcquisitionNumber": 1,
  "AcquisitionTime": "10:54:26.992500",
  "BandwidthPerPixelPhaseEncode": 24.888,
  "BaseResolution": 82,
  "BodyPartExamined": "BRAIN",
  "ConsistencyInfo": "N4_VE11C_LATEST_20160120",
  "ConversionSoftware": "dcm2niix",
  "ConversionSoftwareVersion": "v1.0.20201102",
  "DerivedVendorReportedEchoSpacing": 0.00049,
  "DeviceSerialNumber": "66112",
  "DwellTime": 2e-06,
  "EchoTime": 0.0272,
  "EchoTrainLength": 82,
  "EffectiveEchoSpacing": 0.00049,
  "FlipAngle": 44,
  "ImageComments": "Unaliased MB8/PE3",
  "ImageOrientationPatientDICOM": [0.995368, -0.0819082, 0.0503398, 0.0758904, 0.990847, 0.111634],
  "ImageType": [
    "ORIGINAL",
    "PRIMARY",
    "FMRI",
    "NONE",
    "MB",
    "ND",
    "NORM",
    "MOSAIC"
],
  "ImagingFrequency": 123.252,
  "InPlanePhaseEncodingDirectionDICOM": "COL",
  "InstitutionAddress": "Maynard 3,Hanover,NH,US,03755",
  "InstitutionName": "Dartmouth College - PBS",
  "InstitutionalDepartmentName": "Department",
  "MRAcquisitionType": "2D",
  "MagneticFieldStrength": 3,
  "Manufacturer": "Siemens",
  "ManufacturersModelName": "Prisma",
  "Modality": "MR",
  "MultibandAccelerationFactor": 8,
  "PartialFourier": 1,
  "PatientPosition": "HFS",
  "PercentPhaseFOV": 100,
  "PercentSampling": 100,
  "PhaseEncodingDirection": "j-",
  "PhaseEncodingSteps": 82,
  "PhaseResolution": 1,
  "PixelBandwidth": 3050,
  "ProcedureStepDescription": "Wager_Wager^1076_spacetop",
  "ProtocolName": "func_run-01_task-alignvideo_acq-ap-mb8",
  "PulseSequenceDetails": "%CustomerSeq%\\cmrr_mbep2d_bold",
  "ReceiveCoilActiveElements": "HEA;HEP",
  "ReceiveCoilName": "Head_32",
  "ReconMatrixPE": 82,
  "RepetitionTime": 0.46,
  "SAR": 0.100134,
  "ScanOptions": "FS",
  "ScanningSequence": "EP",
  "SequenceName": "epfid2d1_82",
  "SequenceVariant": "SK\\SS",
  "SeriesDescription": "func_run-01_task-alignvideo_acq-ap-mb8",
  "SeriesNumber": 59,
  "ShimSetting": [4157, -7743, -7281, 646, -57, -247, -15, 13],
  "SliceThickness": 2.7,
  "SliceTiming": [0, 0.25, 0.0625, 0.3125, 0.125, 0.375, 0.1875, 0, 0.25, 0.0625, 0.3125, 0.125, 0.375, 0.1875, 0, 0.25, 0.0625, 0.3125, 0.125, 0.375, 0.1875, 0, 0.25, 0.0625, 0.3125, 0.125, 0.375, 0.1875, 0, 0.25, 0.0625, 0.3125, 0.125, 0.375, 0.1875, 0, 0.25, 0.0625, 0.3125, 0.125, 0.375, 0.1875, 0, 0.25, 0.0625, 0.3125, 0.125, 0.375, 0.1875, 0, 0.25, 0.0625, 0.3125, 0.125, 0.375, 0.1875],
  "SoftwareVersions": "syngo MR E11",
  "SpacingBetweenSlices": 2.7,
  "StationName": "AWP66112",
  "TaskName": "alignvideo",
  "TotalReadoutTime": 0.03969,
  "TxRefAmp": 232.71,
  "WipMemBlock": "bb202fdb-68d8-4964-99e0-a02977ba9673||Sequence: R016 ve11c/master r/e634e98; Dec 19 2017 11:00:25 by eja",
  "dcmmeta_affine": [
    [-2.670498847961426, 0.2036084234714508, 0.15936139225959778, 99.80409240722656],
    [0.21975360810756683, 2.6583712100982666, 0.28970015048980713, -108.49424743652344],
    [0.13505788147449493, -0.2995052635669708, 2.6796786785125732, -60.756526947021484],
    [0.0, 0.0, 0.0, 1.0]
],
  "dcmmeta_reorient_transform": [
    [0.0, -1.0, 0.0, 81.0],
    [1.0, 0.0, 0.0, 0.0],
    [0.0, 0.0, 1.0, 0.0],
    [0.0, 0.0, 0.0, 1.0]
],
  "dcmmeta_shape": [82, 82, 56, 1073],
  "dcmmeta_slice_dim": 2,
  "dcmmeta_version": 0.6,
  "global": {
    "const": {
      "AccessionNumber": "A003585",
      "AcquisitionMatrix": [82, 0, 0, 82],
      "AngioFlag": "N",
      "BitsAllocated": 16,
      "BitsStored": 12,
      "BodyPartExamined": "BRAIN",
      "Columns": 656,
      "EchoNumbers": 1,
      "EchoTime": 27.2,
      "EchoTrainLength": 82,
      "FlipAngle": 44.0,
      "HighBit": 11,
      "ImageOrientationPatient": [0.9953677522121, -0.0819081603854, 0.05033975683804, 0.07589041300864, 0.99084738789029, 0.11163377232885],
      "ImagePositionPatient": [-941.16518230404, -806.71703032148, -209.7360727737],
      "ImageType": [
        "ORIGINAL",
        "PRIMARY",
        "FMRI",
        "NONE",
        "MB",
        "ND",
        "NORM",
        "MOSAIC"
],
      "ImagedNucleus": "1H",
      "ImagingFrequency": 123.252194,
      "InPlanePhaseEncodingDirection": "COL",
      "MRAcquisitionType": "2D",
      "MagneticFieldStrength": 3.0,
      "Manufacturer": "SIEMENS",
      "ManufacturerModelName": "Prisma",
      "Modality": "MR",
      "NumberOfAverages": 1.0,
      "NumberOfPhaseEncodingSteps": 82,
      "PercentPhaseFieldOfView": 100.0,
      "PercentSampling": 100.0,
      "PerformedProcedureStepStartTime": "085846.609000",
      "PhotometricInterpretation": "MONOCHROME2",
      "PixelBandwidth": 3050.0,
      "PixelRepresentation": 0,
      "PixelSpacing": [2.6829268932343, 2.6829268932343],
      "ProtocolName": "func_run-01_task-alignvideo_acq-ap-mb8",
      "RepetitionTime": 460.0,
      "Rows": 656,
      "SAR": 0.10013404983451,
      "SamplesPerPixel": 1,
      "ScanOptions": "FS",
      "ScanningSequence": "EP",
      "SequenceName": "epfid2d1_82",
      "SequenceVariant": [
        "SK",
        "SS"
],
      "SeriesDescription": "func_run-01_task-alignvideo_acq-ap-mb8",
      "SeriesNumber": 59,
      "SeriesTime": "105430.817000",
      "SliceLocation": -66.049575031533,
      "SliceThickness": 2.7000000476837,
      "SmallestImagePixelValue": 0,
      "SoftwareVersions": "syngo MR E11",
      "SpacingBetweenSlices": 2.7000000887519,
      "SpecificCharacterSet": "ISO_IR 100",
      "StudyID": "1",
      "StudyTime": "085846.445000",
      "TransmitCoilName": "Body",
      "VariableFlipAngleFlag": "N",
      "WindowCenterWidthExplanation": "Algo1",
      "dBdt": 0.0},
    "slices": {}
  },
  "time": {
    "samples": {
      "AcquisitionNumber": [1, 2, 3, 4, 5, 6, 7, 8, 9, 10, 11, 12, 13, 14, 15, 16, 17, 18, 19, 20, 21, 22, 23, 24, 25, 26, 27, 28, 29, 30, 31, 32, 33, 34, 35, 36, 37, 38, 39, 40, 41, 42, 43, 44, 45, 46, 47, 48, 49, 50, 51, 52, 53, 54, 55, 56, 57, 58, 59, 60, 61, 62, 63, 64, 65, 66, 67, 68, 69, 70, 71, 72, 73, 74, 75, 76, 77, 78, 79, 80, 81, 82, 83, 84, 85, 86, 87, 88, 89, 90, 91, 92, 93, 94, 95, 96, 97, 98, 99, 100, 101, 102, 103, 104, 105, 106, 107, 108, 109, 110, 111, 112, 113, 114, 115, 116, 117, 118, 119, 120, 121, 122, 123, 124, 125, 126, 127, 128, 129, 130, 131, 132, 133, 134, 135, 136, 137, 138, 139, 140, 141, 142, 143, 144, 145, 146, 147, 148, 149, 150, 151, 152, 153, 154, 155, 156, 157, 158, 159, 160, 161, 162, 163, 164, 165, 166, 167, 168, 169, 170, 171, 172, 173, 174, 175, 176, 177, 178, 179, 180, 181, 182, 183, 184, 185, 186, 187, 188, 189, 190, 191, 192, 193, 194, 195, 196, 197, 198, 199, 200, 201, 202, 203, 204, 205, 206, 207, 208, 209, 210, 211, 212, 213, 214, 215, 216, 217, 218, 219, 220, 221, 222, 223, 224, 225, 226, 227, 228, 229, 230, 231, 232, 233, 234, 235, 236, 237, 238, 239, 240, 241, 242, 243, 244, 245, 246, 247, 248, 249, 250, 251, 252, 253, 254, 255, 256, 257, 258, 259, 260, 261, 262, 263, 264, 265, 266, 267, 268, 269, 270, 271, 272, 273, 274, 275, 276, 277, 278, 279, 280, 281, 282, 283, 284, 285, 286, 287, 288, 289, 290, 291, 292, 293, 294, 295, 296, 297, 298, 299, 300, 301, 302, 303, 304, 305, 306, 307, 308, 309, 310, 311, 312, 313, 314, 315, 316, 317, 318, 319, 320, 321, 322, 323, 324, 325, 326, 327, 328, 329, 330, 331, 332, 333, 334, 335, 336, 337, 338, 339, 340, 341, 342, 343, 344, 345, 346, 347, 348, 349, 350, 351, 352, 353, 354, 355, 356, 357, 358, 359, 360, 361, 362, 363, 364, 365, 366, 367, 368, 369, 370, 371, 372, 373, 374, 375, 376, 377, 378, 379, 380, 381, 382, 383, 384, 385, 386, 387, 388, 389, 390, 391, 392, 393, 394, 395, 396, 397, 398, 399, 400, 401, 402, 403, 404, 405, 406, 407, 408, 409, 410, 411, 412, 413, 414, 415, 416, 417, 418, 419, 420, 421, 422, 423, 424, 425, 426, 427, 428, 429, 430, 431, 432, 433, 434, 435, 436, 437, 438, 439, 440, 441, 442, 443, 444, 445, 446, 447, 448, 449, 450, 451, 452, 453, 454, 455, 456, 457, 458, 459, 460, 461, 462, 463, 464, 465, 466, 467, 468, 469, 470, 471, 472, 473, 474, 475, 476, 477, 478, 479, 480, 481, 482, 483, 484, 485, 486, 487, 488, 489, 490, 491, 492, 493, 494, 495, 496, 497, 498, 499, 500, 501, 502, 503, 504, 505, 506, 507, 508, 509, 510, 511, 512, 513, 514, 515, 516, 517, 518, 519, 520, 521, 522, 523, 524, 525, 526, 527, 528, 529, 530, 531, 532, 533, 534, 535, 536, 537, 538, 539, 540, 541, 542, 543, 544, 545, 546, 547, 548, 549, 550, 551, 552, 553, 554, 555, 556, 557, 558, 559, 560, 561, 562, 563, 564, 565, 566, 567, 568, 569, 570, 571, 572, 573, 574, 575, 576, 577, 578, 579, 580, 581, 582, 583, 584, 585, 586, 587, 588, 589, 590, 591, 592, 593, 594, 595, 596, 597, 598, 599, 600, 601, 602, 603, 604, 605, 606, 607, 608, 609, 610, 611, 612, 613, 614, 615, 616, 617, 618, 619, 620, 621, 622, 623, 624, 625, 626, 627, 628, 629, 630, 631, 632, 633, 634, 635, 636, 637, 638, 639, 640, 641, 642, 643, 644, 645, 646, 647, 648, 649, 650, 651, 652, 653, 654, 655, 656, 657, 658, 659, 660, 661, 662, 663, 664, 665, 666, 667, 668, 669, 670, 671, 672, 673, 674, 675, 676, 677, 678, 679, 680, 681, 682, 683, 684, 685, 686, 687, 688, 689, 690, 691, 692, 693, 694, 695, 696, 697, 698, 699, 700, 701, 702, 703, 704, 705, 706, 707, 708, 709, 710, 711, 712, 713, 714, 715, 716, 717, 718, 719, 720, 721, 722, 723, 724, 725, 726, 727, 728, 729, 730, 731, 732, 733, 734, 735, 736, 737, 738, 739, 740, 741, 742, 743, 744, 745, 746, 747, 748, 749, 750, 751, 752, 753, 754, 755, 756, 757, 758, 759, 760, 761, 762, 763, 764, 765, 766, 767, 768, 769, 770, 771, 772, 773, 774, 775, 776, 777, 778, 779, 780, 781, 782, 783, 784, 785, 786, 787, 788, 789, 790, 791, 792, 793, 794, 795, 796, 797, 798, 799, 800, 801, 802, 803, 804, 805, 806, 807, 808, 809, 810, 811, 812, 813, 814, 815, 816, 817, 818, 819, 820, 821, 822, 823, 824, 825, 826, 827, 828, 829, 830, 831, 832, 833, 834, 835, 836, 837, 838, 839, 840, 841, 842, 843, 844, 845, 846, 847, 848, 849, 850, 851, 852, 853, 854, 855, 856, 857, 858, 859, 860, 861, 862, 863, 864, 865, 866, 867, 868, 869, 870, 871, 872, 873, 874, 875, 876, 877, 878, 879, 880, 881, 882, 883, 884, 885, 886, 887, 888, 889, 890, 891, 892, 893, 894, 895, 896, 897, 898, 899, 900, 901, 902, 903, 904, 905, 906, 907, 908, 909, 910, 911, 912, 913, 914, 915, 916, 917, 918, 919, 920, 921, 922, 923, 924, 925, 926, 927, 928, 929, 930, 931, 932, 933, 934, 935, 936, 937, 938, 939, 940, 941, 942, 943, 944, 945, 946, 947, 948, 949, 950, 951, 952, 953, 954, 955, 956, 957, 958, 959, 960, 961, 962, 963, 964, 965, 966, 967, 968, 969, 970, 971, 972, 973, 974, 975, 976, 977, 978, 979, 980, 981, 982, 983, 984, 985, 986, 987, 988, 989, 990, 991, 992, 993, 994, 995, 996, 997, 998, 999, 1000, 1001, 1002, 1003, 1004, 1005, 1006, 1007, 1008, 1009, 1010, 1011, 1012, 1013, 1014, 1015, 1016, 1017, 1018, 1019, 1020, 1021, 1022, 1023, 1024, 1025, 1026, 1027, 1028, 1029, 1030, 1031, 1032, 1033, 1034, 1035, 1036, 1037, 1038, 1039, 1040, 1041, 1042, 1043, 1044, 1045, 1046, 1047, 1048, 1049, 1050, 1051, 1052, 1053, 1054, 1055, 1056, 1057, 1058, 1059, 1060, 1061, 1062, 1063, 1064, 1065, 1066, 1067, 1068, 1069, 1070, 1071, 1072, 1073],
      "AcquisitionTime": ["105426.992500", "105427.452500", "105427.912500", "105428.372500", "105428.832500", "105429.292500", "105429.752500", "105430.212500", "105430.672500", "105431.132500", "105431.592500", "105432.052500", "105432.512500", "105432.972500", "105433.432500", "105433.892500", "105434.352500", "105434.812500", "105435.272500", "105435.732500", "105436.192500", "105436.652500", "105437.112500", "105437.572500", "105438.032500", "105438.492500", "105438.952500", "105439.412500", "105439.872500", "105440.332500", "105440.792500", "105441.252500", "105441.712500", "105442.172500", "105442.632500", "105443.092500", "105443.552500", "105444.012500", "105444.472500", "105444.932500", "105445.392500", "105445.852500", "105446.312500", "105446.772500", "105447.232500", "105447.692500", "105448.152500", "105448.612500", "105449.072500", "105449.532500", "105449.992500", "105450.452500", "105450.912500", "105451.372500", "105451.832500", "105452.292500", "105452.752500", "105453.212500", "105453.672500", "105454.132500", "105454.592500", "105455.052500", "105455.512500", "105455.972500", "105456.432500", "105456.892500", "105457.352500", "105457.812500", "105458.272500", "105458.732500", "105459.192500", "105459.652500", "105500.112500", "105500.572500", "105501.032500", "105501.492500", "105501.952500", "105502.412500", "105502.872500", "105503.332500", "105503.792500", "105504.252500", "105504.712500", "105505.172500", "105505.632500", "105506.092500", "105506.552500", "105507.012500", "105507.472500", "105507.932500", "105508.392500", "105508.852500", "105509.312500", "105509.772500", "105510.232500", "105510.692500", "105511.152500", "105511.612500", "105512.072500", "105512.532500", "105512.992500", "105513.452500", "105513.912500", "105514.372500", "105514.832500", "105515.292500", "105515.752500", "105516.212500", "105516.672500", "105517.132500", "105517.592500", "105518.052500", "105518.512500", "105518.972500", "105519.432500", "105519.892500", "105520.352500", "105520.812500", "105521.272500", "105521.732500", "105522.192500", "105522.652500", "105523.112500", "105523.572500", "105524.032500", "105524.492500", "105524.952500", "105525.412500", "105525.872500", "105526.332500", "105526.792500", "105527.252500", "105527.712500", "105528.172500", "105528.632500", "105529.092500", "105529.552500", "105530.012500", "105530.472500", "105530.932500", "105531.392500", "105531.852500", "105532.312500", "105532.772500", "105533.232500", "105533.692500", "105534.152500", "105534.612500", "105535.072500", "105535.532500", "105535.992500", "105536.452500", "105536.912500", "105537.372500", "105537.832500", "105538.292500", "105538.752500", "105539.212500", "105539.672500", "105540.132500", "105540.592500", "105541.052500", "105541.512500", "105541.972500", "105542.432500", "105542.892500", "105543.352500", "105543.812500", "105544.272500", "105544.732500", "105545.192500", "105545.652500", "105546.112500", "105546.572500", "105547.032500", "105547.492500", "105547.952500", "105548.412500", "105548.872500", "105549.332500", "105549.792500", "105550.252500", "105550.712500", "105551.172500", "105551.632500", "105552.092500", "105552.552500", "105553.012500", "105553.472500", "105553.932500", "105554.392500", "105554.852500", "105555.312500", "105555.772500", "105556.232500", "105556.692500", "105557.152500", "105557.612500", "105558.072500", "105558.532500", "105558.992500", "105559.452500", "105559.912500", "105600.372500", "105600.832500", "105601.292500", "105601.752500", "105602.212500", "105602.672500", "105603.132500", "105603.592500", "105604.052500", "105604.512500", "105604.972500", "105605.432500", "105605.892500", "105606.352500", "105606.812500", "105607.272500", "105607.732500", "105608.192500", "105608.652500", "105609.112500", "105609.572500", "105610.032500", "105610.492500", "105610.952500", "105611.412500", "105611.872500", "105612.332500", "105612.792500", "105613.252500", "105613.712500", "105614.172500", "105614.632500", "105615.092500", "105615.552500", "105616.012500", "105616.472500", "105616.932500", "105617.392500", "105617.852500", "105618.312500", "105618.772500", "105619.232500", "105619.692500", "105620.152500", "105620.612500", "105621.072500", "105621.532500", "105621.992500", "105622.452500", "105622.912500", "105623.372500", "105623.832500", "105624.292500", "105624.752500", "105625.212500", "105625.672500", "105626.132500", "105626.592500", "105627.052500", "105627.512500", "105627.972500", "105628.432500", "105628.892500", "105629.352500", "105629.812500", "105630.272500", "105630.732500", "105631.192500", "105631.652500", "105632.112500", "105632.572500", "105633.032500", "105633.492500", "105633.952500", "105634.412500", "105634.872500", "105635.332500", "105635.792500", "105636.252500", "105636.712500", "105637.172500", "105637.632500", "105638.092500", "105638.552500", "105639.012500", "105639.472500", "105639.932500", "105640.392500", "105640.852500", "105641.312500", "105641.772500", "105642.232500", "105642.692500", "105643.152500", "105643.612500", "105644.072500", "105644.532500", "105644.992500", "105645.452500", "105645.912500", "105646.372500", "105646.832500", "105647.292500", "105647.752500", "105648.212500", "105648.672500", "105649.132500", "105649.592500", "105650.052500", "105650.512500", "105650.972500", "105651.432500", "105651.892500", "105652.352500", "105652.812500", "105653.272500", "105653.732500", "105654.192500", "105654.652500", "105655.112500", "105655.572500", "105656.032500", "105656.492500", "105656.952500", "105657.412500", "105657.872500", "105658.332500", "105658.792500", "105659.252500", "105659.712500", "105700.172500", "105700.632500", "105701.092500", "105701.552500", "105702.012500", "105702.472500", "105702.932500", "105703.392500", "105703.852500", "105704.312500", "105704.772500", "105705.232500", "105705.692500", "105706.152500", "105706.612500", "105707.072500", "105707.532500", "105707.992500", "105708.452500", "105708.912500", "105709.372500", "105709.832500", "105710.292500", "105710.752500", "105711.212500", "105711.672500", "105712.132500", "105712.592500", "105713.052500", "105713.512500", "105713.972500", "105714.432500", "105714.892500", "105715.352500", "105715.812500", "105716.272500", "105716.732500", "105717.192500", "105717.652500", "105718.112500", "105718.572500", "105719.032500", "105719.492500", "105719.952500", "105720.412500", "105720.872500", "105721.332500", "105721.792500", "105722.252500", "105722.712500", "105723.172500", "105723.632500", "105724.092500", "105724.552500", "105725.012500", "105725.472500", "105725.932500", "105726.392500", "105726.852500", "105727.312500", "105727.772500", "105728.232500", "105728.692500", "105729.152500", "105729.612500", "105730.072500", "105730.532500", "105730.992500", "105731.452500", "105731.912500", "105732.372500", "105732.832500", "105733.292500", "105733.752500", "105734.212500", "105734.672500", "105735.132500", "105735.592500", "105736.052500", "105736.512500", "105736.972500", "105737.432500", "105737.892500", "105738.352500", "105738.812500", "105739.272500", "105739.732500", "105740.192500", "105740.652500", "105741.112500", "105741.572500", "105742.032500", "105742.492500", "105742.952500", "105743.412500", "105743.872500", "105744.332500", "105744.792500", "105745.252500", "105745.712500", "105746.172500", "105746.632500", "105747.092500", "105747.552500", "105748.012500", "105748.472500", "105748.932500", "105749.392500", "105749.852500", "105750.312500", "105750.772500", "105751.232500", "105751.692500", "105752.152500", "105752.612500", "105753.072500", "105753.532500", "105753.992500", "105754.452500", "105754.912500", "105755.372500", "105755.832500", "105756.292500", "105756.752500", "105757.212500", "105757.672500", "105758.132500", "105758.592500", "105759.052500", "105759.512500", "105759.972500", "105800.432500", "105800.892500", "105801.352500", "105801.812500", "105802.272500", "105802.732500", "105803.192500", "105803.652500", "105804.112500", "105804.572500", "105805.032500", "105805.492500", "105805.952500", "105806.412500", "105806.872500", "105807.332500", "105807.792500", "105808.252500", "105808.712500", "105809.172500", "105809.632500", "105810.092500", "105810.552500", "105811.012500", "105811.472500", "105811.932500", "105812.392500", "105812.852500", "105813.312500", "105813.772500", "105814.232500", "105814.692500", "105815.152500", "105815.612500", "105816.072500", "105816.532500", "105816.992500", "105817.452500", "105817.912500", "105818.372500", "105818.832500", "105819.292500", "105819.752500", "105820.212500", "105820.672500", "105821.132500", "105821.592500", "105822.052500", "105822.512500", "105822.972500", "105823.432500", "105823.892500", "105824.352500", "105824.812500", "105825.272500", "105825.732500", "105826.192500", "105826.652500", "105827.112500", "105827.572500", "105828.032500", "105828.492500", "105828.952500", "105829.412500", "105829.872500", "105830.332500", "105830.792500", "105831.252500", "105831.712500", "105832.172500", "105832.632500", "105833.092500", "105833.552500", "105834.012500", "105834.472500", "105834.932500", "105835.392500", "105835.852500", "105836.312500", "105836.772500", "105837.232500", "105837.692500", "105838.152500", "105838.612500", "105839.072500", "105839.532500", "105839.992500", "105840.452500", "105840.912500", "105841.372500", "105841.832500", "105842.292500", "105842.752500", "105843.212500", "105843.672500", "105844.132500", "105844.592500", "105845.052500", "105845.512500", "105845.972500", "105846.432500", "105846.892500", "105847.352500", "105847.812500", "105848.272500", "105848.732500", "105849.192500", "105849.652500", "105850.112500", "105850.572500", "105851.032500", "105851.492500", "105851.952500", "105852.412500", "105852.872500", "105853.332500", "105853.792500", "105854.252500", "105854.712500", "105855.172500", "105855.632500", "105856.092500", "105856.552500", "105857.012500", "105857.472500", "105857.932500", "105858.392500", "105858.852500", "105859.312500", "105859.772500", "105900.232500", "105900.692500", "105901.152500", "105901.612500", "105902.072500", "105902.532500", "105902.992500", "105903.452500", "105903.912500", "105904.372500", "105904.832500", "105905.292500", "105905.752500", "105906.212500", "105906.672500", "105907.132500", "105907.592500", "105908.052500", "105908.512500", "105908.972500", "105909.432500", "105909.892500", "105910.352500", "105910.812500", "105911.272500", "105911.732500", "105912.192500", "105912.652500", "105913.112500", "105913.572500", "105914.032500", "105914.492500", "105914.952500", "105915.412500", "105915.872500", "105916.332500", "105916.792500", "105917.252500", "105917.712500", "105918.172500", "105918.632500", "105919.092500", "105919.552500", "105920.012500", "105920.472500", "105920.932500", "105921.392500", "105921.852500", "105922.312500", "105922.772500", "105923.232500", "105923.692500", "105924.152500", "105924.612500", "105925.072500", "105925.532500", "105925.992500", "105926.452500", "105926.912500", "105927.372500", "105927.832500", "105928.292500", "105928.752500", "105929.212500", "105929.672500", "105930.132500", "105930.592500", "105931.052500", "105931.512500", "105931.972500", "105932.432500", "105932.892500", "105933.352500", "105933.812500", "105934.272500", "105934.732500", "105935.192500", "105935.652500", "105936.112500", "105936.572500", "105937.032500", "105937.492500", "105937.952500", "105938.412500", "105938.872500", "105939.332500", "105939.792500", "105940.252500", "105940.712500", "105941.172500", "105941.632500", "105942.092500", "105942.552500", "105943.012500", "105943.472500", "105943.932500", "105944.392500", "105944.852500", "105945.312500", "105945.772500", "105946.232500", "105946.692500", "105947.152500", "105947.612500", "105948.072500", "105948.532500", "105948.992500", "105949.452500", "105949.912500", "105950.372500", "105950.832500", "105951.292500", "105951.752500", "105952.212500", "105952.672500", "105953.132500", "105953.592500", "105954.052500", "105954.512500", "105954.972500", "105955.432500", "105955.892500", "105956.352500", "105956.812500", "105957.272500", "105957.732500", "105958.192500", "105958.652500", "105959.112500", "105959.572500", "110000.032500", "110000.492500", "110000.952500", "110001.412500", "110001.872500", "110002.332500", "110002.792500", "110003.252500", "110003.712500", "110004.172500", "110004.632500", "110005.092500", "110005.552500", "110006.012500", "110006.472500", "110006.932500", "110007.392500", "110007.852500", "110008.312500", "110008.772500", "110009.232500", "110009.692500", "110010.152500", "110010.612500", "110011.072500", "110011.532500", "110011.992500", "110012.452500", "110012.912500", "110013.372500", "110013.832500", "110014.292500", "110014.752500", "110015.212500", "110015.672500", "110016.132500", "110016.592500", "110017.052500", "110017.512500", "110017.972500", "110018.432500", "110018.892500", "110019.352500", "110019.812500", "110020.272500", "110020.732500", "110021.192500", "110021.652500", "110022.112500", "110022.572500", "110023.032500", "110023.492500", "110023.952500", "110024.412500", "110024.872500", "110025.332500", "110025.792500", "110026.252500", "110026.712500", "110027.172500", "110027.632500", "110028.092500", "110028.552500", "110029.012500", "110029.472500", "110029.932500", "110030.392500", "110030.852500", "110031.312500", "110031.772500", "110032.232500", "110032.692500", "110033.152500", "110033.612500", "110034.072500", "110034.532500", "110034.992500", "110035.452500", "110035.912500", "110036.372500", "110036.832500", "110037.292500", "110037.752500", "110038.212500", "110038.672500", "110039.132500", "110039.592500", "110040.052500", "110040.512500", "110040.972500", "110041.432500", "110041.892500", "110042.352500", "110042.812500", "110043.272500", "110043.732500", "110044.192500", "110044.652500", "110045.112500", "110045.572500", "110046.032500", "110046.492500", "110046.952500", "110047.412500", "110047.872500", "110048.332500", "110048.792500", "110049.252500", "110049.712500", "110050.172500", "110050.632500", "110051.092500", "110051.552500", "110052.012500", "110052.472500", "110052.932500", "110053.392500", "110053.852500", "110054.312500", "110054.772500", "110055.232500", "110055.692500", "110056.152500", "110056.612500", "110057.072500", "110057.532500", "110057.992500", "110058.452500", "110058.912500", "110059.372500", "110059.832500", "110100.292500", "110100.752500", "110101.212500", "110101.672500", "110102.132500", "110102.592500", "110103.052500", "110103.512500", "110103.972500", "110104.432500", "110104.892500", "110105.352500", "110105.812500", "110106.272500", "110106.732500", "110107.192500", "110107.652500", "110108.112500", "110108.572500", "110109.032500", "110109.492500", "110109.952500", "110110.412500", "110110.872500", "110111.332500", "110111.792500", "110112.252500", "110112.712500", "110113.172500", "110113.632500", "110114.092500", "110114.552500", "110115.012500", "110115.472500", "110115.932500", "110116.392500", "110116.852500", "110117.312500", "110117.772500", "110118.232500", "110118.692500", "110119.152500", "110119.612500", "110120.072500", "110120.532500", "110120.992500", "110121.452500", "110121.912500", "110122.372500", "110122.832500", "110123.292500", "110123.752500", "110124.212500", "110124.672500", "110125.132500", "110125.592500", "110126.052500", "110126.512500", "110126.972500", "110127.432500", "110127.892500", "110128.352500", "110128.812500", "110129.272500", "110129.732500", "110130.192500", "110130.652500", "110131.112500", "110131.572500", "110132.032500", "110132.492500", "110132.952500", "110133.412500", "110133.872500", "110134.332500", "110134.792500", "110135.252500", "110135.712500", "110136.172500", "110136.632500", "110137.092500", "110137.552500", "110138.012500", "110138.472500", "110138.932500", "110139.392500", "110139.852500", "110140.312500", "110140.772500", "110141.232500", "110141.692500", "110142.152500", "110142.612500", "110143.072500", "110143.532500", "110143.992500", "110144.452500", "110144.912500", "110145.372500", "110145.832500", "110146.292500", "110146.752500", "110147.212500", "110147.672500", "110148.132500", "110148.592500", "110149.052500", "110149.512500", "110149.972500", "110150.432500", "110150.892500", "110151.352500", "110151.812500", "110152.272500", "110152.732500", "110153.192500", "110153.652500", "110154.112500", "110154.572500", "110155.032500", "110155.492500", "110155.952500", "110156.412500", "110156.872500", "110157.332500", "110157.792500", "110158.252500", "110158.712500", "110159.172500", "110159.632500", "110200.092500", "110200.552500", "110201.012500", "110201.472500", "110201.932500", "110202.392500", "110202.852500", "110203.312500", "110203.772500", "110204.232500", "110204.692500", "110205.152500", "110205.612500", "110206.072500", "110206.532500", "110206.992500", "110207.452500", "110207.912500", "110208.372500", "110208.832500", "110209.292500", "110209.752500", "110210.212500", "110210.672500", "110211.132500", "110211.592500", "110212.052500", "110212.512500", "110212.972500", "110213.432500", "110213.892500", "110214.352500", "110214.812500", "110215.272500", "110215.732500", "110216.192500", "110216.652500", "110217.112500", "110217.572500", "110218.032500", "110218.492500", "110218.952500", "110219.412500", "110219.872500", "110220.332500", "110220.792500", "110221.252500", "110221.712500", "110222.172500", "110222.632500", "110223.092500", "110223.552500", "110224.012500", "110224.472500", "110224.932500", "110225.392500", "110225.852500", "110226.312500", "110226.772500", "110227.232500", "110227.692500", "110228.152500", "110228.612500", "110229.072500", "110229.532500", "110229.992500", "110230.452500", "110230.912500", "110231.372500", "110231.832500", "110232.292500", "110232.752500", "110233.212500", "110233.672500", "110234.132500", "110234.592500", "110235.052500", "110235.512500", "110235.972500", "110236.432500", "110236.892500", "110237.352500", "110237.812500", "110238.272500", "110238.732500", "110239.192500", "110239.652500", "110240.112500"],
