{
  "AcquisitionMatrixPE": 140,
  "AcquisitionNumber": 1,
  "AcquisitionTime": "08:57:49.067500",
  "BandwidthPerPixelPhaseEncode": 10.352,
  "BaseResolution": 140,
  "BodyPartExamined": "BRAIN",
  "ConsistencyInfo": "N4_VE11E_LATEST_20181129",
  "ConversionSoftware": "dcm2niix",
  "ConversionSoftwareVersion": "v1.0.20201102",
  "DerivedVendorReportedEchoSpacing": 0.000689998,
  "DeviceSerialNumber": "66112",
  "DiffusionScheme": "Monopolar",
  "DwellTime": 2.1e-06,
  "EchoTime": 0.088,
  "EchoTrainLength": 105,
  "EffectiveEchoSpacing": 0.000689998,
  "FlipAngle": 90,
  "ImageComments": "Unaliased MB3/PE3",
  "ImageOrientationPatientDICOM": [0.998524, -0.0468803, 0.0274387, 0.0355672, 0.946054, 0.32205],
  "ImageType": [
    "ORIGINAL",
    "PRIMARY",
    "DIFFUSION",
    "NONE",
    "MB",
    "ND"
],
  "ImagingFrequency": 123.252,
  "InPlanePhaseEncodingDirectionDICOM": "COL",
  "InstitutionAddress": "Maynard 3,Hanover,NH,US,03755",
  "InstitutionName": "Dartmouth College - PBS",
  "InstitutionalDepartmentName": "Department",
  "IntendedFor": [
    "ses-01/dwi/sub-0088_ses-01_acq-96dirX6b0Xmb_dwi.nii.gz"
],
  "MRAcquisitionType": "2D",
  "MagneticFieldStrength": 3,
  "Manufacturer": "Siemens",
  "ManufacturersModelName": "Prisma",
  "Modality": "MR",
  "MultibandAccelerationFactor": 3,
  "PartialFourier": 0.75,
  "PatientPosition": "HFS",
  "PercentPhaseFOV": 100,
  "PercentSampling": 100,
  "PhaseEncodingDirection": "j",
  "PhaseEncodingSteps": 105,
  "PhaseResolution": 1,
  "PixelBandwidth": 1700,
  "ProcedureStepDescription": "Wager_Wager^1076_spacetop",
  "ProtocolName": "dwi_acq-discorr-PA",
  "PulseSequenceDetails": "%CustomerSeq%\\cmrr_mbep2d_diff",
  "ReceiveCoilActiveElements": "HEA;HEP",
  "ReceiveCoilName": "Head_32",
  "ReconMatrixPE": 140,
  "RepetitionTime": 4.1,
  "SAR": 0.132273,
  "ScanOptions": "PFP\\FS",
  "ScanningSequence": "EP",
  "SequenceName": "ep_b0",
  "SequenceVariant": "SK\\SS",
  "SeriesDescription": "dwi_acq-discorr-PA",
  "SeriesNumber": 6,
  "ShimSetting": [4151, -7811, -7192, 560, -29, -233, -26, 80],
  "SliceThickness": 1.7,
  "SliceTiming": [0, 2.10938, 0.14844, 2.26562, 0.29688, 2.41406, 0.45312, 2.5625, 0.60156, 2.71875, 0.75, 2.86719, 0.89844, 3.02344, 1.05469, 3.17188, 1.20312, 3.32031, 1.35938, 3.46875, 1.50781, 3.625, 1.65625, 3.77344, 1.8125, 3.92188, 1.96094, 0, 2.10938, 0.14844, 2.26562, 0.29688, 2.41406, 0.45312, 2.5625, 0.60156, 2.71875, 0.75, 2.86719, 0.89844, 3.02344, 1.05469, 3.17188, 1.20312, 3.32031, 1.35938, 3.46875, 1.50781, 3.625, 1.65625, 3.77344, 1.8125, 3.92188, 1.96094, 0, 2.10938, 0.14844, 2.26562, 0.29688, 2.41406, 0.45312, 2.5625, 0.60156, 2.71875, 0.75, 2.86719, 0.89844, 3.02344, 1.05469, 3.17188, 1.20312, 3.32031, 1.35938, 3.46875, 1.50781, 3.625, 1.65625, 3.77344, 1.8125, 3.92188, 1.96094],
  "SoftwareVersions": "syngo MR E11",
  "SpacingBetweenSlices": 1.7,
  "StationName": "AWP66112",
  "TotalReadoutTime": 0.0959097,
  "TxRefAmp": 251.173,
  "WipMemBlock": "f259081f-515f-4f83-8e1f-c9afacb7a4ff||Sequence: R016 ve11e/master r/434b28f1; Aug  7 2019 19:06:17 by eja",
  "dcmmeta_affine": [
    [-1.7117547988891602, 0.06097237765789032, 0.06979560852050781, 117.7366943359375],
    [0.08036623895168304, 1.6218076944351196, 0.5450172424316406, -102.17178344726562],
    [0.04703772813081741, -0.5520851016044617, 1.6087570190429688, -26.059778213500977],
    [0.0, 0.0, 0.0, 1.0]
],
  "dcmmeta_reorient_transform": [
    [0.0, -1.0, 0.0, 139.0],
    [1.0, 0.0, 0.0, 0.0],
    [0.0, 0.0, -1.0, 80.0],
    [0.0, 0.0, 0.0, 1.0]
],
  "dcmmeta_shape": [140, 140, 81],
  "dcmmeta_slice_dim": 2,
  "dcmmeta_version": 0.6,
  "global": {
    "const": {
      "AccessionNumber": "A004105",
      "AcquisitionMatrix": [140, 0, 0, 140],
      "AcquisitionNumber": 1,
      "AngioFlag": "N",
      "BitsAllocated": 16,
      "BitsStored": 16,
      "BodyPartExamined": "BRAIN",
      "Columns": 140,
      "EchoNumbers": 1,
      "EchoTime": 88.0,
      "EchoTrainLength": 105,
      "FlipAngle": 90.0,
      "HighBit": 15,
      "ImageOrientationPatient": [0.99852358809483, -0.046880306747, 0.02743867448574, 0.03556721958208, 0.94605444438651, 0.32204962528735],
      "ImageType": [
        "ORIGINAL",
        "PRIMARY",
        "DIFFUSION",
        "NONE",
        "MB",
        "ND"
],
      "ImagedNucleus": "1H",
      "ImagingFrequency": 123.252129,
      "InPlanePhaseEncodingDirection": "COL",
      "MRAcquisitionType": "2D",
      "MagneticFieldStrength": 3.0,
      "Manufacturer": "SIEMENS",
      "ManufacturerModelName": "Prisma",
      "Modality": "MR",
      "NumberOfAverages": 1.0,
      "NumberOfPhaseEncodingSteps": 105,
      "PercentPhaseFieldOfView": 100.0,
      "PercentSampling": 100.0,
      "PerformedProcedureStepStartTime": "083141.826000",
      "PhotometricInterpretation": "MONOCHROME2",
      "PixelBandwidth": 1700.0,
      "PixelRepresentation": 0,
      "PixelSpacing": [1.7142857313156, 1.7142857313156],
      "ProtocolName": "dwi_acq-discorr-PA",
      "RepetitionTime": 4100.0,
      "Rows": 140,
      "SAR": 0.13227270218149,
      "SamplesPerPixel": 1,
      "ScanOptions": [
        "PFP",
        "FS"
],
      "ScanningSequence": "EP",
      "SequenceName": "ep_b0",
      "SequenceVariant": [
        "SK",
        "SS"
],
      "SeriesDescription": "dwi_acq-discorr-PA",
      "SeriesNumber": 6,
      "SeriesTime": "085753.988000",
      "SliceThickness": 1.7000000476837,
      "SmallestImagePixelValue": 0,
      "SoftwareVersions": "syngo MR E11",
      "SpacingBetweenSlices": 1.7,
      "SpecificCharacterSet": "ISO_IR 100",
      "StudyID": "1",
      "StudyTime": "083141.663000",
      "TransmitCoilName": "Body",
      "VariableFlipAngleFlag": "N",
      "WindowCenterWidthExplanation": "Algo1"
    },
    "slices": {
      "AcquisitionTime": ["085749.067500", "085751.182500", "085749.217500", "085751.332500", "085749.370000", "085751.485000", "085749.520000", "085751.635000", "085749.672500", "085751.787500", "085749.822500", "085751.937500", "085749.972500", "085752.090000", "085750.125000", "085752.240000", "085750.275000", "085752.392500", "085750.427500", "085752.542500", "085750.577500", "085752.692500", "085750.730000", "085752.845000", "085750.880000", "085752.995000", "085751.032500", "085749.067500", "085751.182500", "085749.217500", "085751.332500", "085749.370000", "085751.485000", "085749.520000", "085751.635000", "085749.672500", "085751.787500", "085749.822500", "085751.937500", "085749.972500", "085752.090000", "085750.125000", "085752.240000", "085750.275000", "085752.392500", "085750.427500", "085752.542500", "085750.577500", "085752.692500", "085750.730000", "085752.845000", "085750.880000", "085752.995000", "085751.032500", "085749.067500", "085751.182500", "085749.217500", "085751.332500", "085749.370000", "085751.485000", "085749.520000", "085751.635000", "085749.672500", "085751.787500", "085749.822500", "085751.937500", "085749.972500", "085752.090000", "085750.125000", "085752.240000", "085750.275000", "085752.392500", "085750.427500", "085752.542500", "085750.577500", "085752.692500", "085750.730000", "085752.845000", "085750.880000", "085752.995000", "085751.032500"],
      "ContentTime": ["085753.990000", "085754.088000", "085753.997000", "085754.095000", "085754.005000", "085754.101000", "085754.012000", "085754.115000", "085754.018000", "085754.122000", "085754.024000", "085754.129000", "085754.030000", "085754.136000", "085754.037000", "085754.142000", "085754.043000", "085754.147000", "085754.049000", "085754.153000", "085754.055000", "085754.160000", "085754.061000", "085754.166000", "085754.075000", "085754.172000", "085754.081000", "085753.993000", "085754.090000", "085754.001000", "085754.097000", "085754.008000", "085754.103000", "085754.014000", "085754.117000", "085754.020000", "085754.125000", "085754.026000", "085754.131000", "085754.033000", "085754.138000", "085754.039000", "085754.144000", "085754.045000", "085754.149000", "085754.051000", "085754.155000", "085754.057000", "085754.162000", "085754.063000", "085754.168000", "085754.077000", "085754.175000", "085754.083000", "085753.995000", "085754.092000", "085754.003000", "085754.099000", "085754.010000", "085754.113000", "085754.016000", "085754.120000", "085754.022000", "085754.127000", "085754.028000", "085754.133000", "085754.035000", "085754.140000", "085754.041000", "085754.145000", "085754.047000", "085754.151000", "085754.053000", "085754.158000", "085754.059000", "085754.164000", "085754.072000", "085754.170000", "085754.079000", "085754.177000", "085754.086000"],
      "CsaImage.GSWDDataType": [
        "predicted",
        "predicted",
        "predicted",
        "predicted",
        "predicted",
        "predicted",
        "predicted",
        "predicted",
        "predicted",
        "predicted",
        "predicted",
        "predicted",
        "predicted",
        "predicted",
        "predicted",
        "predicted",
        "predicted",
        "predicted",
        "predicted",
        "predicted",
        "predicted",
        "predicted",
        "predicted",
        "measured",
        "predicted",
        "measured",
        "predicted",
        "predicted",
        "predicted",
        "predicted",
        "predicted",
        "predicted",
        "predicted",
        "predicted",
        "predicted",
        "predicted",
        "predicted",
        "predicted",
        "predicted",
        "predicted",
        "predicted",
        "predicted",
        "predicted",
        "predicted",
        "predicted",
        "predicted",
        "predicted",
        "predicted",
        "predicted",
        "predicted",
        "measured",
        "predicted",
        "measured",
        "predicted",
        "predicted",
        "predicted",
        "predicted",
        "predicted",
        "predicted",
        "predicted",
        "predicted",
        "predicted",
        "predicted",
        "predicted",
        "predicted",
        "predicted",
        "predicted",
        "predicted",
        "predicted",
        "predicted",
        "predicted",
        "predicted",
        "predicted",
        "predicted",
        "predicted",
        "predicted",
        "predicted",
        "measured",
        "predicted",
        "measured",
        "predicted"
],
      "CsaImage.ICE_Dims": [
        "X_1_1_1_1_1_1_1_1_1_1_1_24",
        "X_1_1_1_1_1_1_42_1_1_2_1_24",
        "X_1_1_1_1_1_1_2_1_1_3_1_24",
        "X_1_1_1_1_1_1_43_1_1_4_1_24",
        "X_1_1_1_1_1_1_3_1_1_5_1_24",
        "X_1_1_1_1_1_1_44_1_1_6_1_24",
        "X_1_1_1_1_1_1_4_1_1_7_1_24",
        "X_1_1_1_1_1_1_45_1_1_8_1_24",
        "X_1_1_1_1_1_1_5_1_1_9_1_24",
        "X_1_1_1_1_1_1_46_1_1_10_1_24",
        "X_1_1_1_1_1_1_6_1_1_11_1_24",
        "X_1_1_1_1_1_1_47_1_1_12_1_24",
        "X_1_1_1_1_1_1_7_1_1_13_1_24",
        "X_1_1_1_1_1_1_48_1_1_14_1_24",
        "X_1_1_1_1_1_1_8_1_1_15_1_24",
        "X_1_1_1_1_1_1_49_1_1_16_1_24",
        "X_1_1_1_1_1_1_9_1_1_17_1_24",
        "X_1_1_1_1_1_1_50_1_1_18_1_24",
        "X_1_1_1_1_1_1_10_1_1_19_1_24",
        "X_1_1_1_1_1_1_51_1_1_20_1_24",
        "X_1_1_1_1_1_1_11_1_1_21_1_24",
        "X_1_1_1_1_1_1_52_1_1_22_1_24",
        "X_1_1_1_1_1_1_12_1_1_23_1_24",
        "X_1_1_1_1_1_1_53_1_1_24_1_24",
        "X_1_1_1_1_1_1_13_1_1_25_1_24",
        "X_1_1_1_1_1_1_54_1_1_26_1_24",
        "X_1_1_1_1_1_1_14_1_1_27_1_24",
        "X_1_1_1_1_1_1_55_1_1_28_1_24",
        "X_1_1_1_1_1_1_15_1_1_29_1_24",
        "X_1_1_1_1_1_1_56_1_1_30_1_24",
        "X_1_1_1_1_1_1_16_1_1_31_1_24",
        "X_1_1_1_1_1_1_57_1_1_32_1_24",
        "X_1_1_1_1_1_1_17_1_1_33_1_24",
        "X_1_1_1_1_1_1_58_1_1_34_1_24",
        "X_1_1_1_1_1_1_18_1_1_35_1_24",
        "X_1_1_1_1_1_1_59_1_1_36_1_24",
        "X_1_1_1_1_1_1_19_1_1_37_1_24",
        "X_1_1_1_1_1_1_60_1_1_38_1_24",
        "X_1_1_1_1_1_1_20_1_1_39_1_24",
        "X_1_1_1_1_1_1_61_1_1_40_1_24",
        "X_1_1_1_1_1_1_21_1_1_41_1_24",
        "X_1_1_1_1_1_1_62_1_1_42_1_24",
        "X_1_1_1_1_1_1_22_1_1_43_1_24",
        "X_1_1_1_1_1_1_63_1_1_44_1_24",
        "X_1_1_1_1_1_1_23_1_1_45_1_24",
        "X_1_1_1_1_1_1_64_1_1_46_1_24",
        "X_1_1_1_1_1_1_24_1_1_47_1_24",
        "X_1_1_1_1_1_1_65_1_1_48_1_24",
        "X_1_1_1_1_1_1_25_1_1_49_1_24",
        "X_1_1_1_1_1_1_66_1_1_50_1_24",
        "X_1_1_1_1_1_1_26_1_1_51_1_24",
        "X_1_1_1_1_1_1_67_1_1_52_1_24",
        "X_1_1_1_1_1_1_27_1_1_53_1_24",
        "X_1_1_1_1_1_1_68_1_1_54_1_24",
        "X_1_1_1_1_1_1_28_1_1_55_1_24",
        "X_1_1_1_1_1_1_69_1_1_56_1_24",
        "X_1_1_1_1_1_1_29_1_1_57_1_24",
        "X_1_1_1_1_1_1_70_1_1_58_1_24",
        "X_1_1_1_1_1_1_30_1_1_59_1_24",
        "X_1_1_1_1_1_1_71_1_1_60_1_24",
        "X_1_1_1_1_1_1_31_1_1_61_1_24",
        "X_1_1_1_1_1_1_72_1_1_62_1_24",
        "X_1_1_1_1_1_1_32_1_1_63_1_24",
        "X_1_1_1_1_1_1_73_1_1_64_1_24",
        "X_1_1_1_1_1_1_33_1_1_65_1_24",
        "X_1_1_1_1_1_1_74_1_1_66_1_24",
        "X_1_1_1_1_1_1_34_1_1_67_1_24",
        "X_1_1_1_1_1_1_75_1_1_68_1_24",
        "X_1_1_1_1_1_1_35_1_1_69_1_24",
        "X_1_1_1_1_1_1_76_1_1_70_1_24",
        "X_1_1_1_1_1_1_36_1_1_71_1_24",
        "X_1_1_1_1_1_1_77_1_1_72_1_24",
        "X_1_1_1_1_1_1_37_1_1_73_1_24",
        "X_1_1_1_1_1_1_78_1_1_74_1_24",
        "X_1_1_1_1_1_1_38_1_1_75_1_24",
        "X_1_1_1_1_1_1_79_1_1_76_1_24",
        "X_1_1_1_1_1_1_39_1_1_77_1_24",
        "X_1_1_1_1_1_1_80_1_1_78_1_24",
        "X_1_1_1_1_1_1_40_1_1_79_1_24",
        "X_1_1_1_1_1_1_81_1_1_80_1_24",
        "X_1_1_1_1_1_1_41_1_1_81_1_24"
],
      "CsaImage.ProtocolSliceNumber": [0, 1, 2, 3, 4, 5, 6, 7, 8, 9, 10, 11, 12, 13, 14, 15, 16, 17, 18, 19, 20, 21, 22, 23, 24, 25, 26, 27, 28, 29, 30, 31, 32, 33, 34, 35, 36, 37, 38, 39, 40, 41, 42, 43, 44, 45, 46, 47, 48, 49, 50, 51, 52, 53, 54, 55, 56, 57, 58, 59, 60, 61, 62, 63, 64, 65, 66, 67, 68, 69, 70, 71, 72, 73, 74, 75, 76, 77, 78, 79, 80],
      "CsaImage.RFSWDDataType": [
        "predicted",
        "predicted",
        "predicted",
        "predicted",
        "predicted",
        "predicted",
        "predicted",
        "predicted",
        "predicted",
        "predicted",
        "predicted",
        "predicted",
        "predicted",
        "predicted",
        "predicted",
        "predicted",
        "predicted",
        "predicted",
        "predicted",
        "predicted",
        "predicted",
        "predicted",
        "predicted",
        "measured",
        "predicted",
        "measured",
        "predicted",
        "predicted",
        "predicted",
        "predicted",
        "predicted",
        "predicted",
        "predicted",
        "predicted",
        "predicted",
        "predicted",
        "predicted",
        "predicted",
        "predicted",
        "predicted",
        "predicted",
        "predicted",
        "predicted",
        "predicted",
        "predicted",
        "predicted",
        "predicted",
        "predicted",
        "predicted",
        "predicted",
        "measured",
        "predicted",
        "measured",
        "predicted",
        "predicted",
        "predicted",
        "predicted",
        "predicted",
        "predicted",
        "predicted",
        "predicted",
        "predicted",
        "predicted",
        "predicted",
        "predicted",
        "predicted",
        "predicted",
        "predicted",
        "predicted",
        "predicted",
        "predicted",
        "predicted",
        "predicted",
        "predicted",
        "predicted",
        "predicted",
        "predicted",
        "measured",
        "predicted",
        "measured",
        "predicted"
],
      "CsaImage.SlicePosition_PCS": [
        [-126.21184861, -123.25949534, -102.79925313],
        [-126.28164422, -123.80451259, -101.19050374],
        [-126.35143983, -124.34952888, -99.58175053],
        [-126.42123568, -124.89454612, -97.97299733],
        [-126.49103129, -125.43956336, -96.36424412],
        [-126.5608269, -125.9845806, -94.75549092],
        [-126.6306225, -126.52959784, -93.14673772],
        [-126.70041811, -127.07461509, -91.53798451],
        [-126.77021396, -127.61963042, -89.92923512],
        [-126.84000957, -128.16464766, -88.32048192],
        [-126.90980518, -128.70966491, -86.71172871],
        [-126.97960078, -129.25468215, -85.10297551],
        [-127.04939639, -129.79969939, -83.4942223],
        [-127.119192, -130.34471663, -81.8854691],
        [-127.18898785, -130.88973388, -80.2767159],
        [-127.25878346, -131.43475112, -78.66796651],
        [-127.32857907, -131.97976645, -77.0592133],
        [-127.39837467, -132.5247837, -75.4504601],
        [-127.46817028, -133.06980094, -73.84170689],
        [-127.53796589, -133.61481818, -72.23295369],
        [-127.60776174, -134.15983542, -70.62420239],
        [-127.67755735, -134.70485267, -69.01544919],
        [-127.74735296, -135.24986991, -67.40669598],
        [-127.81714856, -135.79488524, -65.79794469],
        [-127.88694417, -136.33990249, -64.18919148],
        [-127.95673978, -136.88491973, -62.58043828],
        [-128.02653563, -137.42993697, -60.97168507],
        [-128.09633124, -137.97495421, -59.36293378],
        [-128.16612685, -138.51997146, -57.75418057],
        [-128.23592245, -139.0649887, -56.14542832],
        [-128.30571806, -139.61000594, -54.53667512],
        [-128.37551367, -140.15502128, -52.92792287],
        [-128.44530928, -140.70003852, -51.31917062],
        [-128.51510489, -141.24505576, -49.71041741],
        [-128.58490097, -141.790073, -48.10166516],
        [-128.65469658, -142.33509025, -46.49291243],
        [-128.72449219, -142.88010749, -44.88415971],
        [-128.7942878, -143.42512473, -43.27540698],
        [-128.86408341, -143.97014197, -41.6666544],
        [-128.93387902, -144.51515922, -40.05790176],
        [-129.00367462, -145.06017646, -38.44914903],
        [-129.07347023, -145.6051937, -36.84039655],
        [-129.14326584, -146.15021094, -35.23164382],
        [-129.21306145, -146.69522437, -33.62289109],
        [-129.28285706, -147.24024161, -32.01413884],
        [-129.35265267, -147.78525886, -30.40538563],
        [-129.42244875, -148.3302761, -28.79663338],
        [-129.49224436, -148.87529334, -27.18788113],
        [-129.56203997, -149.42031058, -25.57912793],
        [-129.63183558, -149.96532783, -23.97037472],
        [-129.70163119, -150.51034507, -22.36162343],
        [-129.77142679, -151.05536231, -20.75287022],
        [-129.8412224, -151.60037955, -19.14411702],
        [-129.91101801, -152.1453968, -17.53536572],
        [-129.98081362, -152.69041404, -15.92661252],
        [-130.05060923, -153.23543128, -14.31785931],
        [-130.12040484, -153.78044852, -12.70910611],
        [-130.19020045, -154.32546576, -11.10035481],
        [-130.25999653, -154.87048301, -9.49160161],
        [-130.32979214, -155.41549644, -7.8828484],
        [-130.39958775, -155.96051368, -6.2740952],
        [-130.46938336, -156.50553092, -4.66534199],
        [-130.53917897, -157.05054816, -3.05659261],
        [-130.60897457, -157.5955654, -1.4478394],
        [-130.67877018, -158.14058265, 0.1609138],
        [-130.74856579, -158.68559989, 1.76966701],
        [-130.8183614, -159.23061713, 3.37842021],
        [-130.88815701, -159.77563437, 4.98717342],
        [-130.95795262, -160.32065162, 6.59592281],
        [-131.0277487, -160.86566886, 8.20467601],
        [-131.09754431, -161.4106861, 9.81342921],
        [-131.16733992, -161.95570334, 11.42218242],
        [-131.23713553, -162.50072059, 13.03093562],
        [-131.30693114, -163.04573783, 14.63968883],
        [-131.37672674, -163.59075507, 16.24844203],
        [-131.44652235, -164.1357685, 17.85719142],
        [-131.51631796, -164.68078574, 19.46594463],
        [-131.58611357, -165.22580298, 21.07469783],
        [-131.65590918, -165.77082023, 22.68345103],
        [-131.72570479, -166.31583747, 24.29220042],
        [-131.7955004, -166.86085471, 25.90095744]
],
      "CsaImage.TimeAfterStart": [16.4, 18.515, 16.55, 18.665, 16.7, 18.8175, 16.8525, 18.9675, 17.0025, 19.12, 17.155, 19.27, 17.305, 19.42, 17.4575, 19.5725, 17.6075, 19.7225, 17.76, 19.875, 17.91, 20.025, 18.06, 20.1775, 18.2125, 20.3275, 18.3625, 16.4, 18.515, 16.55, 18.665, 16.7, 18.8175, 16.8525, 18.9675, 17.0025, 19.12, 17.155, 19.27, 17.305, 19.42, 17.4575, 19.5725, 17.6075, 19.7225, 17.76, 19.875, 17.91, 20.025, 18.06, 20.1775, 18.2125, 20.3275, 18.3625, 16.4, 18.515, 16.55, 18.665, 16.7, 18.8175, 16.8525, 18.9675, 17.0025, 19.12, 17.155, 19.27, 17.305, 19.42, 17.4575, 19.5725, 17.6075, 19.7225, 17.76, 19.875, 17.91, 20.025, 18.06, 20.1775, 18.2125, 20.3275, 18.3625],
      "ImagePositionPatient": [
        [-126.2118486144, -123.25949534408, -102.79925312767],
        [-126.28164422292, -123.80451258651, -101.19050373803],
        [-126.35143983144, -124.34952887527, -99.58175053368],
        [-126.42123567838, -124.8945461177, -97.972997329334],
        [-126.4910312869, -125.43956336013, -96.364244124989],
        [-126.56082689542, -125.98458060256, -94.755490920643],
        [-126.63062250394, -126.52959784499, -93.146737716297],
        [-126.70041811246, -127.07461508742, -91.537984511952],
        [-126.7702139594, -127.61963042251, -89.929235122303],
        [-126.84000956792, -128.16464766494, -88.320481917957],
        [-126.90980517644, -128.70966490737, -86.711728713612],
        [-126.97960078496, -129.2546821498, -85.102975509266],
        [-127.04939639348, -129.79969939223, -83.49422230492],
        [-127.119192002, -130.34471663467, -81.885469100575],
        [-127.18898784894, -130.8897338771, -80.276715896229],
        [-127.25878345746, -131.43475111953, -78.66796650658],
        [-127.32857906598, -131.97976645461, -77.059213302235],
        [-127.3983746745, -132.52478369704, -75.450460097889],
        [-127.46817028302, -133.06980093948, -73.841706893543],
        [-127.53796589154, -133.61481818191, -72.232953689198],
        [-127.60776173848, -134.15983542434, -70.624202392201],
        [-127.677557347, -134.70485266677, -69.015449187855],
        [-127.74735295552, -135.2498699092, -67.406695983509],
        [-127.81714856404, -135.79488524428, -65.797944686512],
        [-127.88694417256, -136.33990248672, -64.189191482166],
        [-127.95673978108, -136.88491972915, -62.580438277821],
        [-128.02653562802, -137.42993697158, -60.971685073475],
        [-128.09633123654, -137.97495421401, -59.362933776478],
        [-128.16612684506, -138.51997145644, -57.754180572132],
        [-128.23592245358, -139.06498869887, -56.145428321461],
        [-128.3057180621, -139.61000594131, -54.536675117115],
        [-128.37551367062, -140.15502127639, -52.927922866444],
        [-128.44530927914, -140.70003851882, -51.319170615772],
        [-128.51510488766, -141.24505576125, -49.710417411427],
        [-128.58490097302, -141.79007300368, -48.101665160755],
        [-128.65469658154, -142.33509024612, -46.492912433247],
        [-128.72449219006, -142.88010748855, -44.884159705738],
        [-128.79428779858, -143.42512473098, -43.27540697823],
        [-128.8640834071, -143.97014197341, -41.666654399733],
        [-128.93387901562, -144.51515921584, -40.057901761631],
        [-129.00367462415, -145.06017645827, -38.449149034123],
        [-129.07347023267, -145.60519370071, -36.840396545033],
        [-129.14326584119, -146.15021094314, -35.231643817524],
        [-129.21306144971, -146.69522437087, -33.622891090016],
        [-129.28285705823, -147.2402416133, -32.014138839344],
        [-129.35265266675, -147.78525885573, -30.405385634998],
        [-129.42244875211, -148.33027609817, -28.796633384327],
        [-129.49224436063, -148.8752933406, -27.187881133656],
        [-129.56203996915, -149.42031058303, -25.57912792931],
        [-129.63183557767, -149.96532782546, -23.970374724964],
        [-129.70163118619, -150.51034506789, -22.361623427967],
        [-129.77142679471, -151.05536231032, -20.752870223621],
        [-129.84122240323, -151.60037955276, -19.144117019276],
        [-129.91101801175, -152.14539679519, -17.535365722279],
        [-129.98081362027, -152.69041403762, -15.926612517933],
        [-130.05060922879, -153.23543128005, -14.317859313587],
        [-130.12040483731, -153.78044852248, -12.709106109242],
        [-130.19020044583, -154.32546576491, -11.100354812245],
        [-130.25999653119, -154.87048300735, -9.4916016078988],
        [-130.32979213971, -155.41549643508, -7.8828484035531],
        [-130.39958774823, -155.96051367751, -6.2740951992074],
        [-130.46938335675, -156.50553091994, -4.6653419948617],
        [-130.53917896527, -157.05054816238, -3.0565926052133],
        [-130.60897457379, -157.59556540481, -1.4478394008676],
        [-130.67877018231, -158.14058264724, 0.16091380347814],
        [-130.74856579083, -158.68559988967, 1.7696670078238],
        [-130.81836139935, -159.2306171321, 3.3784202121695],
        [-130.88815700787, -159.77563437453, 4.9871734165152],
        [-130.95795261639, -160.32065161697, 6.5959228061637],
        [-131.02774870175, -160.8656688594, 8.2046760105094],
        [-131.09754431027, -161.41068610183, 9.8134292148551],
        [-131.16733991879, -161.95570334426, 11.422182419201],
        [-131.23713552731, -162.50072058669, 13.030935623546],
        [-131.30693113583, -163.04573782912, 14.639688827892],
        [-131.37672674435, -163.59075507156, 16.248442032238],
        [-131.44652235287, -164.13576849929, 17.857191421886],
        [-131.5163179614, -164.68078574172, 19.465944626232],
        [-131.58611356992, -165.22580298415, 21.074697830578],
        [-131.65590917844, -165.77082022658, 22.683451034923],
        [-131.72570478696, -166.31583746902, 24.292200424572],
        [-131.79550039548, -166.86085471145, 25.900957443615]
],
      "InstanceCreationTime": ["085753.990000", "085754.088000", "085753.997000", "085754.095000", "085754.005000", "085754.101000", "085754.012000", "085754.115000", "085754.018000", "085754.122000", "085754.024000", "085754.129000", "085754.030000", "085754.136000", "085754.037000", "085754.142000", "085754.043000", "085754.147000", "085754.049000", "085754.153000", "085754.055000", "085754.160000", "085754.061000", "085754.166000", "085754.075000", "085754.172000", "085754.081000", "085753.993000", "085754.090000", "085754.001000", "085754.097000", "085754.008000", "085754.103000", "085754.014000", "085754.117000", "085754.020000", "085754.125000", "085754.026000", "085754.131000", "085754.033000", "085754.138000", "085754.039000", "085754.144000", "085754.045000", "085754.149000", "085754.051000", "085754.155000", "085754.057000", "085754.162000", "085754.063000", "085754.168000", "085754.077000", "085754.175000", "085754.083000", "085753.995000", "085754.092000", "085754.003000", "085754.099000", "085754.010000", "085754.113000", "085754.016000", "085754.120000", "085754.022000", "085754.127000", "085754.028000", "085754.133000", "085754.035000", "085754.140000", "085754.041000", "085754.145000", "085754.047000", "085754.151000", "085754.053000", "085754.158000", "085754.059000", "085754.164000", "085754.072000", "085754.170000", "085754.079000", "085754.177000", "085754.086000"],
      "InstanceNumber": [1, 2, 3, 4, 5, 6, 7, 8, 9, 10, 11, 12, 13, 14, 15, 16, 17, 18, 19, 20, 21, 22, 23, 24, 25, 26, 27, 28, 29, 30, 31, 32, 33, 34, 35, 36, 37, 38, 39, 40, 41, 42, 43, 44, 45, 46, 47, 48, 49, 50, 51, 52, 53, 54, 55, 56, 57, 58, 59, 60, 61, 62, 63, 64, 65, 66, 67, 68, 69, 70, 71, 72, 73, 74, 75, 76, 77, 78, 79, 80, 81],
      "LargestImagePixelValue": [23830, 24889, 29059, 29172, 31733, 32521, 30710, 26420, 26772, 30950, 29272, 29440, 23813, 22308, 21896, 21045, 25948, 25251, 22448, 35412, 46185, 46435, 54977, 57310, 65535, 65535, 65535, 65535, 65535, 65535, 60636, 46280, 32107, 28897, 43972, 44769, 39422, 33239, 35480, 34164, 36831, 37915, 32634, 33089, 35039, 35365, 35547, 39941, 40833, 36083, 47150, 52468, 45619, 40178, 34259, 34874, 38866, 41071, 39475, 40989, 44965, 46526, 52336, 47787, 48891, 40691, 59357, 48891, 64485, 64899, 65535, 65535, 65535, 65535, 65535, 45175, 54693, 27533, 15255, 15173, 12025],
      "SliceLocation": [-52.582948326922, -50.88295132098, -49.182951010842, -47.482950385168, -45.782949769283, -44.082949153398, -42.382948537513, -40.682947921629, -38.982951517391, -37.282950901506, -35.582950285622, -33.882949669737, -32.182949053852, -30.482948437967, -28.782947812293, -27.082950806352, -25.38295080196, -23.682950186075, -21.98294957019, -20.282948954305, -18.582950133603, -16.882949517718, -15.182948901834, -13.482950702413, -11.782950086528, -10.082949470643, -8.3829488449697, -6.6829500340566, -4.9829494181717, -3.2829497047727, -1.5829490888878, 0.11705001301859, 1.8170497264176, 3.5170503423025, 5.2170500752786, 6.9170502399206, 8.6170504045626, 10.317050569205, 12.017050592833, 13.717050672867, 15.417050837509, 17.117050776529, 18.817050941171, 20.517049882828, 22.217049596227, 23.917050212112, 25.617049945088, 27.317049658487, 29.017050274372, 30.717050890257, 32.41704970117, 34.117050317055, 35.81705093294, 37.517049743853, 39.217050359738, 40.917050975623, 42.617051591508, 44.317050402421, 46.017051037883, 47.717050430783, 49.417051046667, 51.117051662552, 52.817048668494, 54.517049284379, 56.217049900263, 57.917050516148, 59.617051132033, 61.317051747918, 63.017048753859, 64.717049389321, 66.417050005206, 68.117050621091, 69.817051236976, 71.517051852861, 73.217052468746, 74.917048251702, 76.617048867587, 78.317049483472, 80.017050099357, 81.717047105298, 83.417051331127],
