{
  "AcquisitionMatrixPE": 82,
  "AcquisitionNumber": 1,
  "AcquisitionTime": "12:25:34.675000",
  "BandwidthPerPixelPhaseEncode": 24.888,
  "BaseResolution": 82,
  "BodyPartExamined": "BRAIN",
  "ConsistencyInfo": "N4_VE11C_LATEST_20160120",
  "ConversionSoftware": "dcm2niix",
  "ConversionSoftwareVersion": "v1.0.20201102",
  "DerivedVendorReportedEchoSpacing": 0.00049,
  "DeviceSerialNumber": "66112",
  "DwellTime": 2e-06,
  "EchoTime": 0.0272,
  "EchoTrainLength": 82,
  "EffectiveEchoSpacing": 0.00049,
  "FlipAngle": 44,
  "ImageComments": "Unaliased MB8/PE3",
  "ImageOrientationPatientDICOM": [0.999352, 0.0137459, 0.033276, -0.00924452, 0.991229, -0.131831],
  "ImageType": [
    "ORIGINAL",
    "PRIMARY",
    "M",
    "MB",
    "ND",
    "NORM",
    "MOSAIC"
],
  "ImagingFrequency": 123.252,
  "InPlanePhaseEncodingDirectionDICOM": "COL",
  "InstitutionAddress": "Maynard 3,Hanover,NH,US,03755",
  "InstitutionName": "Dartmouth College - PBS",
  "InstitutionalDepartmentName": "Department",
  "MRAcquisitionType": "2D",
  "MagneticFieldStrength": 3,
  "Manufacturer": "Siemens",
  "ManufacturersModelName": "Prisma",
  "Modality": "MR",
  "MultibandAccelerationFactor": 8,
  "PartialFourier": 1,
  "PatientPosition": "HFS",
  "PercentPhaseFOV": 100,
  "PercentSampling": 100,
  "PhaseEncodingDirection": "j-",
  "PhaseEncodingSteps": 82,
  "PhaseResolution": 1,
  "PixelBandwidth": 3050,
  "ProcedureStepDescription": "Wager_Wager^1076_spacetop",
  "ProtocolName": "func_run-03_task-alignvideo_acq-ap-mb8",
  "PulseSequenceDetails": "%CustomerSeq%\\cmrr_mbep2d_bold",
  "ReceiveCoilActiveElements": "HEA;HEP",
  "ReceiveCoilName": "Head_32",
  "ReconMatrixPE": 82,
  "RepetitionTime": 0.46,
  "SAR": 0.838743,
  "ScanOptions": "FS",
  "ScanningSequence": "EP",
  "SequenceName": "epfid2d1_82",
  "SequenceVariant": "SK\\SS",
  "SeriesDescription": "func_run-03_task-alignvideo_acq-ap-mb8",
  "SeriesNumber": 32,
  "ShimSetting": [4156, -7727, -7248, 401, -34, -44, -32, 98],
  "SliceThickness": 2.7,
  "SliceTiming": [0, 0.25, 0.0625, 0.3125, 0.125, 0.3775, 0.1875, 0, 0.25, 0.0625, 0.3125, 0.125, 0.3775, 0.1875, 0, 0.25, 0.0625, 0.3125, 0.125, 0.3775, 0.1875, 0, 0.25, 0.0625, 0.3125, 0.125, 0.3775, 0.1875, 0, 0.25, 0.0625, 0.3125, 0.125, 0.3775, 0.1875, 0, 0.25, 0.0625, 0.3125, 0.125, 0.3775, 0.1875, 0, 0.25, 0.0625, 0.3125, 0.125, 0.3775, 0.1875, 0, 0.25, 0.0625, 0.3125, 0.125, 0.3775, 0.1875],
  "SoftwareVersions": "syngo MR E11",
  "SpacingBetweenSlices": 2.7,
  "StationName": "AWP66112",
  "TaskName": "alignvideo",
  "TotalReadoutTime": 0.03969,
  "TxRefAmp": 287.891,
  "WipMemBlock": "e5f858f9-23fa-4200-afb6-ae892c3dcdca||Sequence: R016 ve11c/master r/e634e98; Dec 19 2017 11:00:25 by eja",
  "dcmmeta_affine": [
    [-2.681187391281128, -0.024802373722195625, 0.09394995123147964, 110.95172119140625],
    [-0.0368792787194252, 2.6593949794769287, -0.3548833727836609, -82.14362335205078],
    [0.08927707374095917, 0.35369396209716797, 2.674926280975342, -82.3322982788086],
    [0.0, 0.0, 0.0, 1.0]
],
  "dcmmeta_reorient_transform": [
    [0.0, -1.0, 0.0, 81.0],
    [1.0, 0.0, 0.0, 0.0],
    [0.0, 0.0, 1.0, 0.0],
    [0.0, 0.0, 0.0, 1.0]
],
  "dcmmeta_shape": [82, 82, 56, 1065],
  "dcmmeta_slice_dim": 2,
  "dcmmeta_version": 0.6,
  "global": {
    "const": {
      "AccessionNumber": "A003840",
      "AcquisitionMatrix": [82, 0, 0, 82],
      "AngioFlag": "N",
      "BitsAllocated": 16,
      "BitsStored": 16,
      "BodyPartExamined": "BRAIN",
      "Columns": 656,
      "EchoNumbers": 1,
      "EchoTime": 27.2,
      "EchoTrainLength": 82,
      "FlipAngle": 44.0,
      "HighBit": 15,
      "ImageOrientationPatient": [0.99935166870288, 0.01374591290205, 0.03327599944808, -0.0092445207951, 0.99122904842536, -0.1318313786358],
      "ImagePositionPatient": [-871.32524828529, -907.09811415905, 22.204558201703],
      "ImageType": [
        "ORIGINAL",
        "PRIMARY",
        "M",
        "MB",
        "ND",
        "NORM",
        "MOSAIC"
],
      "ImagedNucleus": "1H",
      "ImagingFrequency": 123.252197,
      "InPlanePhaseEncodingDirection": "COL",
      "MRAcquisitionType": "2D",
      "MagneticFieldStrength": 3.0,
      "Manufacturer": "SIEMENS",
      "ManufacturerModelName": "Prisma",
      "Modality": "MR",
      "NumberOfAverages": 1.0,
      "NumberOfPhaseEncodingSteps": 82,
      "PercentPhaseFieldOfView": 100.0,
      "PercentSampling": 100.0,
      "PerformedProcedureStepStartTime": "105241.096000",
      "PhotometricInterpretation": "MONOCHROME2",
      "PixelBandwidth": 3050.0,
      "PixelRepresentation": 0,
      "PixelSpacing": [2.6829268932343, 2.6829268932343],
      "ProtocolName": "func_run-03_task-alignvideo_acq-ap-mb8",
      "RepetitionTime": 460.0,
      "Rows": 656,
      "SAR": 0.838743199884,
      "SamplesPerPixel": 1,
      "ScanOptions": "FS",
      "ScanningSequence": "EP",
      "SequenceName": "epfid2d1_82",
      "SequenceVariant": [
        "SK",
        "SS"
],
      "SeriesDescription": "func_run-03_task-alignvideo_acq-ap-mb8",
      "SeriesNumber": 32,
      "SeriesTime": "122555.640000",
      "SliceLocation": -66.910190451234,
      "SliceThickness": 2.7000000476837,
      "SmallestImagePixelValue": 0,
      "SoftwareVersions": "syngo MR E11",
      "SpacingBetweenSlices": 2.6999999520659,
      "SpecificCharacterSet": "ISO_IR 100",
      "StudyID": "1",
      "StudyTime": "105241.022000",
      "TransmitCoilName": "Body",
      "VariableFlipAngleFlag": "N",
      "WindowCenterWidthExplanation": "Algo1",
      "dBdt": 0.0},
    "slices": {}
  },
  "time": {
    "samples": {
      "AcquisitionNumber": [1, 2, 3, 4, 5, 6, 7, 8, 9, 10, 11, 12, 13, 14, 15, 16, 17, 18, 19, 20, 21, 22, 23, 24, 25, 26, 27, 28, 29, 30, 31, 32, 33, 34, 35, 36, 37, 38, 39, 40, 41, 42, 43, 44, 45, 46, 47, 48, 49, 50, 51, 52, 53, 54, 55, 56, 57, 58, 59, 60, 61, 62, 63, 64, 65, 66, 67, 68, 69, 70, 71, 72, 73, 74, 75, 76, 77, 78, 79, 80, 81, 82, 83, 84, 85, 86, 87, 88, 89, 90, 91, 92, 93, 94, 95, 96, 97, 98, 99, 100, 101, 102, 103, 104, 105, 106, 107, 108, 109, 110, 111, 112, 113, 114, 115, 116, 117, 118, 119, 120, 121, 122, 123, 124, 125, 126, 127, 128, 129, 130, 131, 132, 133, 134, 135, 136, 137, 138, 139, 140, 141, 142, 143, 144, 145, 146, 147, 148, 149, 150, 151, 152, 153, 154, 155, 156, 157, 158, 159, 160, 161, 162, 163, 164, 165, 166, 167, 168, 169, 170, 171, 172, 173, 174, 175, 176, 177, 178, 179, 180, 181, 182, 183, 184, 185, 186, 187, 188, 189, 190, 191, 192, 193, 194, 195, 196, 197, 198, 199, 200, 201, 202, 203, 204, 205, 206, 207, 208, 209, 210, 211, 212, 213, 214, 215, 216, 217, 218, 219, 220, 221, 222, 223, 224, 225, 226, 227, 228, 229, 230, 231, 232, 233, 234, 235, 236, 237, 238, 239, 240, 241, 242, 243, 244, 245, 246, 247, 248, 249, 250, 251, 252, 253, 254, 255, 256, 257, 258, 259, 260, 261, 262, 263, 264, 265, 266, 267, 268, 269, 270, 271, 272, 273, 274, 275, 276, 277, 278, 279, 280, 281, 282, 283, 284, 285, 286, 287, 288, 289, 290, 291, 292, 293, 294, 295, 296, 297, 298, 299, 300, 301, 302, 303, 304, 305, 306, 307, 308, 309, 310, 311, 312, 313, 314, 315, 316, 317, 318, 319, 320, 321, 322, 323, 324, 325, 326, 327, 328, 329, 330, 331, 332, 333, 334, 335, 336, 337, 338, 339, 340, 341, 342, 343, 344, 345, 346, 347, 348, 349, 350, 351, 352, 353, 354, 355, 356, 357, 358, 359, 360, 361, 362, 363, 364, 365, 366, 367, 368, 369, 370, 371, 372, 373, 374, 375, 376, 377, 378, 379, 380, 381, 382, 383, 384, 385, 386, 387, 388, 389, 390, 391, 392, 393, 394, 395, 396, 397, 398, 399, 400, 401, 402, 403, 404, 405, 406, 407, 408, 409, 410, 411, 412, 413, 414, 415, 416, 417, 418, 419, 420, 421, 422, 423, 424, 425, 426, 427, 428, 429, 430, 431, 432, 433, 434, 435, 436, 437, 438, 439, 440, 441, 442, 443, 444, 445, 446, 447, 448, 449, 450, 451, 452, 453, 454, 455, 456, 457, 458, 459, 460, 461, 462, 463, 464, 465, 466, 467, 468, 469, 470, 471, 472, 473, 474, 475, 476, 477, 478, 479, 480, 481, 482, 483, 484, 485, 486, 487, 488, 489, 490, 491, 492, 493, 494, 495, 496, 497, 498, 499, 500, 501, 502, 503, 504, 505, 506, 507, 508, 509, 510, 511, 512, 513, 514, 515, 516, 517, 518, 519, 520, 521, 522, 523, 524, 525, 526, 527, 528, 529, 530, 531, 532, 533, 534, 535, 536, 537, 538, 539, 540, 541, 542, 543, 544, 545, 546, 547, 548, 549, 550, 551, 552, 553, 554, 555, 556, 557, 558, 559, 560, 561, 562, 563, 564, 565, 566, 567, 568, 569, 570, 571, 572, 573, 574, 575, 576, 577, 578, 579, 580, 581, 582, 583, 584, 585, 586, 587, 588, 589, 590, 591, 592, 593, 594, 595, 596, 597, 598, 599, 600, 601, 602, 603, 604, 605, 606, 607, 608, 609, 610, 611, 612, 613, 614, 615, 616, 617, 618, 619, 620, 621, 622, 623, 624, 625, 626, 627, 628, 629, 630, 631, 632, 633, 634, 635, 636, 637, 638, 639, 640, 641, 642, 643, 644, 645, 646, 647, 648, 649, 650, 651, 652, 653, 654, 655, 656, 657, 658, 659, 660, 661, 662, 663, 664, 665, 666, 667, 668, 669, 670, 671, 672, 673, 674, 675, 676, 677, 678, 679, 680, 681, 682, 683, 684, 685, 686, 687, 688, 689, 690, 691, 692, 693, 694, 695, 696, 697, 698, 699, 700, 701, 702, 703, 704, 705, 706, 707, 708, 709, 710, 711, 712, 713, 714, 715, 716, 717, 718, 719, 720, 721, 722, 723, 724, 725, 726, 727, 728, 729, 730, 731, 732, 733, 734, 735, 736, 737, 738, 739, 740, 741, 742, 743, 744, 745, 746, 747, 748, 749, 750, 751, 752, 753, 754, 755, 756, 757, 758, 759, 760, 761, 762, 763, 764, 765, 766, 767, 768, 769, 770, 771, 772, 773, 774, 775, 776, 777, 778, 779, 780, 781, 782, 783, 784, 785, 786, 787, 788, 789, 790, 791, 792, 793, 794, 795, 796, 797, 798, 799, 800, 801, 802, 803, 804, 805, 806, 807, 808, 809, 810, 811, 812, 813, 814, 815, 816, 817, 818, 819, 820, 821, 822, 823, 824, 825, 826, 827, 828, 829, 830, 831, 832, 833, 834, 835, 836, 837, 838, 839, 840, 841, 842, 843, 844, 845, 846, 847, 848, 849, 850, 851, 852, 853, 854, 855, 856, 857, 858, 859, 860, 861, 862, 863, 864, 865, 866, 867, 868, 869, 870, 871, 872, 873, 874, 875, 876, 877, 878, 879, 880, 881, 882, 883, 884, 885, 886, 887, 888, 889, 890, 891, 892, 893, 894, 895, 896, 897, 898, 899, 900, 901, 902, 903, 904, 905, 906, 907, 908, 909, 910, 911, 912, 913, 914, 915, 916, 917, 918, 919, 920, 921, 922, 923, 924, 925, 926, 927, 928, 929, 930, 931, 932, 933, 934, 935, 936, 937, 938, 939, 940, 941, 942, 943, 944, 945, 946, 947, 948, 949, 950, 951, 952, 953, 954, 955, 956, 957, 958, 959, 960, 961, 962, 963, 964, 965, 966, 967, 968, 969, 970, 971, 972, 973, 974, 975, 976, 977, 978, 979, 980, 981, 982, 983, 984, 985, 986, 987, 988, 989, 990, 991, 992, 993, 994, 995, 996, 997, 998, 999, 1000, 1001, 1002, 1003, 1004, 1005, 1006, 1007, 1008, 1009, 1010, 1011, 1012, 1013, 1014, 1015, 1016, 1017, 1018, 1019, 1020, 1021, 1022, 1023, 1024, 1025, 1026, 1027, 1028, 1029, 1030, 1031, 1032, 1033, 1034, 1035, 1036, 1037, 1038, 1039, 1040, 1041, 1042, 1043, 1044, 1045, 1046, 1047, 1048, 1049, 1050, 1051, 1052, 1053, 1054, 1055, 1056, 1057, 1058, 1059, 1060, 1061, 1062, 1063, 1064, 1065],
      "AcquisitionTime": ["122534.675000", "122535.135000", "122535.595000", "122536.055000", "122536.515000", "122536.975000", "122537.435000", "122537.895000", "122538.355000", "122538.815000", "122539.275000", "122539.735000", "122540.195000", "122540.655000", "122541.115000", "122541.575000", "122542.035000", "122542.495000", "122542.955000", "122543.415000", "122543.875000", "122544.335000", "122544.795000", "122545.255000", "122545.715000", "122546.175000", "122546.635000", "122547.095000", "122547.555000", "122548.015000", "122548.475000", "122548.935000", "122549.395000", "122549.855000", "122550.315000", "122550.775000", "122551.235000", "122551.695000", "122552.155000", "122552.615000", "122553.075000", "122553.535000", "122553.995000", "122554.455000", "122554.915000", "122555.375000", "122555.835000", "122556.295000", "122556.755000", "122557.215000", "122557.675000", "122558.135000", "122558.595000", "122559.055000", "122559.515000", "122559.975000", "122600.435000", "122600.895000", "122601.355000", "122601.815000", "122602.275000", "122602.735000", "122603.195000", "122603.655000", "122604.115000", "122604.575000", "122605.035000", "122605.495000", "122605.955000", "122606.415000", "122606.875000", "122607.335000", "122607.795000", "122608.255000", "122608.715000", "122609.175000", "122609.635000", "122610.095000", "122610.555000", "122611.015000", "122611.475000", "122611.935000", "122612.395000", "122612.855000", "122613.315000", "122613.775000", "122614.235000", "122614.695000", "122615.155000", "122615.615000", "122616.075000", "122616.535000", "122616.995000", "122617.455000", "122617.915000", "122618.375000", "122618.835000", "122619.295000", "122619.755000", "122620.215000", "122620.675000", "122621.135000", "122621.595000", "122622.055000", "122622.515000", "122622.975000", "122623.435000", "122623.895000", "122624.355000", "122624.815000", "122625.275000", "122625.735000", "122626.195000", "122626.655000", "122627.115000", "122627.575000", "122628.035000", "122628.495000", "122628.955000", "122629.415000", "122629.875000", "122630.335000", "122630.795000", "122631.255000", "122631.715000", "122632.175000", "122632.635000", "122633.095000", "122633.555000", "122634.015000", "122634.475000", "122634.935000", "122635.395000", "122635.855000", "122636.315000", "122636.775000", "122637.235000", "122637.695000", "122638.155000", "122638.615000", "122639.075000", "122639.535000", "122639.995000", "122640.455000", "122640.915000", "122641.375000", "122641.835000", "122642.295000", "122642.755000", "122643.215000", "122643.675000", "122644.135000", "122644.595000", "122645.055000", "122645.515000", "122645.975000", "122646.435000", "122646.895000", "122647.355000", "122647.815000", "122648.275000", "122648.735000", "122649.195000", "122649.655000", "122650.115000", "122650.575000", "122651.035000", "122651.495000", "122651.955000", "122652.415000", "122652.875000", "122653.335000", "122653.795000", "122654.255000", "122654.715000", "122655.175000", "122655.635000", "122656.095000", "122656.555000", "122657.015000", "122657.475000", "122657.935000", "122658.395000", "122658.855000", "122659.315000", "122659.775000", "122700.235000", "122700.695000", "122701.155000", "122701.615000", "122702.075000", "122702.535000", "122702.995000", "122703.455000", "122703.915000", "122704.375000", "122704.835000", "122705.295000", "122705.755000", "122706.215000", "122706.675000", "122707.135000", "122707.595000", "122708.055000", "122708.515000", "122708.975000", "122709.435000", "122709.895000", "122710.355000", "122710.815000", "122711.275000", "122711.735000", "122712.195000", "122712.655000", "122713.115000", "122713.575000", "122714.035000", "122714.495000", "122714.955000", "122715.415000", "122715.875000", "122716.335000", "122716.795000", "122717.255000", "122717.715000", "122718.175000", "122718.635000", "122719.095000", "122719.555000", "122720.015000", "122720.475000", "122720.935000", "122721.395000", "122721.855000", "122722.315000", "122722.775000", "122723.235000", "122723.695000", "122724.155000", "122724.615000", "122725.075000", "122725.535000", "122725.995000", "122726.455000", "122726.915000", "122727.375000", "122727.835000", "122728.295000", "122728.755000", "122729.215000", "122729.675000", "122730.135000", "122730.595000", "122731.055000", "122731.515000", "122731.975000", "122732.435000", "122732.895000", "122733.355000", "122733.815000", "122734.275000", "122734.735000", "122735.195000", "122735.655000", "122736.115000", "122736.575000", "122737.035000", "122737.495000", "122737.955000", "122738.415000", "122738.875000", "122739.335000", "122739.795000", "122740.255000", "122740.715000", "122741.175000", "122741.635000", "122742.095000", "122742.555000", "122743.015000", "122743.475000", "122743.935000", "122744.395000", "122744.855000", "122745.315000", "122745.775000", "122746.235000", "122746.695000", "122747.155000", "122747.615000", "122748.075000", "122748.535000", "122748.995000", "122749.455000", "122749.915000", "122750.375000", "122750.835000", "122751.295000", "122751.755000", "122752.215000", "122752.675000", "122753.135000", "122753.595000", "122754.055000", "122754.515000", "122754.975000", "122755.435000", "122755.895000", "122756.355000", "122756.815000", "122757.275000", "122757.735000", "122758.195000", "122758.655000", "122759.115000", "122759.575000", "122800.035000", "122800.495000", "122800.955000", "122801.415000", "122801.875000", "122802.335000", "122802.795000", "122803.255000", "122803.715000", "122804.175000", "122804.635000", "122805.095000", "122805.555000", "122806.015000", "122806.475000", "122806.935000", "122807.395000", "122807.855000", "122808.315000", "122808.775000", "122809.235000", "122809.695000", "122810.155000", "122810.615000", "122811.075000", "122811.535000", "122811.995000", "122812.455000", "122812.915000", "122813.375000", "122813.835000", "122814.295000", "122814.755000", "122815.215000", "122815.675000", "122816.135000", "122816.595000", "122817.055000", "122817.515000", "122817.975000", "122818.435000", "122818.895000", "122819.355000", "122819.815000", "122820.275000", "122820.735000", "122821.195000", "122821.655000", "122822.115000", "122822.575000", "122823.035000", "122823.495000", "122823.955000", "122824.415000", "122824.875000", "122825.335000", "122825.795000", "122826.255000", "122826.715000", "122827.175000", "122827.635000", "122828.095000", "122828.555000", "122829.015000", "122829.475000", "122829.935000", "122830.395000", "122830.855000", "122831.315000", "122831.775000", "122832.235000", "122832.695000", "122833.155000", "122833.615000", "122834.075000", "122834.535000", "122834.995000", "122835.455000", "122835.915000", "122836.375000", "122836.835000", "122837.295000", "122837.755000", "122838.215000", "122838.675000", "122839.135000", "122839.595000", "122840.055000", "122840.515000", "122840.975000", "122841.435000", "122841.895000", "122842.355000", "122842.815000", "122843.275000", "122843.735000", "122844.195000", "122844.655000", "122845.115000", "122845.575000", "122846.035000", "122846.495000", "122846.955000", "122847.415000", "122847.875000", "122848.335000", "122848.795000", "122849.255000", "122849.715000", "122850.175000", "122850.635000", "122851.095000", "122851.555000", "122852.015000", "122852.475000", "122852.935000", "122853.395000", "122853.855000", "122854.315000", "122854.775000", "122855.235000", "122855.695000", "122856.155000", "122856.615000", "122857.075000", "122857.535000", "122857.995000", "122858.455000", "122858.915000", "122859.375000", "122859.835000", "122900.295000", "122900.755000", "122901.215000", "122901.675000", "122902.135000", "122902.595000", "122903.055000", "122903.515000", "122903.975000", "122904.435000", "122904.895000", "122905.355000", "122905.815000", "122906.275000", "122906.735000", "122907.195000", "122907.655000", "122908.115000", "122908.575000", "122909.035000", "122909.495000", "122909.955000", "122910.415000", "122910.875000", "122911.335000", "122911.795000", "122912.255000", "122912.715000", "122913.175000", "122913.635000", "122914.095000", "122914.555000", "122915.015000", "122915.475000", "122915.935000", "122916.395000", "122916.855000", "122917.315000", "122917.775000", "122918.235000", "122918.695000", "122919.155000", "122919.615000", "122920.075000", "122920.535000", "122920.995000", "122921.455000", "122921.915000", "122922.375000", "122922.835000", "122923.295000", "122923.755000", "122924.215000", "122924.675000", "122925.135000", "122925.595000", "122926.055000", "122926.515000", "122926.975000", "122927.435000", "122927.895000", "122928.355000", "122928.815000", "122929.275000", "122929.735000", "122930.195000", "122930.655000", "122931.115000", "122931.575000", "122932.035000", "122932.495000", "122932.955000", "122933.415000", "122933.875000", "122934.335000", "122934.795000", "122935.255000", "122935.715000", "122936.175000", "122936.635000", "122937.095000", "122937.555000", "122938.015000", "122938.475000", "122938.935000", "122939.395000", "122939.855000", "122940.315000", "122940.775000", "122941.235000", "122941.695000", "122942.155000", "122942.615000", "122943.075000", "122943.535000", "122943.995000", "122944.455000", "122944.915000", "122945.375000", "122945.835000", "122946.295000", "122946.755000", "122947.215000", "122947.675000", "122948.135000", "122948.595000", "122949.055000", "122949.515000", "122949.975000", "122950.435000", "122950.895000", "122951.355000", "122951.815000", "122952.275000", "122952.735000", "122953.195000", "122953.655000", "122954.115000", "122954.575000", "122955.035000", "122955.495000", "122955.955000", "122956.415000", "122956.875000", "122957.335000", "122957.795000", "122958.255000", "122958.715000", "122959.175000", "122959.635000", "123000.095000", "123000.555000", "123001.015000", "123001.475000", "123001.935000", "123002.395000", "123002.855000", "123003.315000", "123003.775000", "123004.235000", "123004.695000", "123005.155000", "123005.615000", "123006.075000", "123006.535000", "123006.995000", "123007.455000", "123007.915000", "123008.375000", "123008.835000", "123009.295000", "123009.755000", "123010.215000", "123010.675000", "123011.135000", "123011.595000", "123012.055000", "123012.515000", "123012.975000", "123013.435000", "123013.895000", "123014.355000", "123014.815000", "123015.275000", "123015.735000", "123016.195000", "123016.655000", "123017.115000", "123017.575000", "123018.035000", "123018.495000", "123018.955000", "123019.415000", "123019.875000", "123020.335000", "123020.795000", "123021.255000", "123021.715000", "123022.175000", "123022.635000", "123023.095000", "123023.555000", "123024.015000", "123024.475000", "123024.935000", "123025.395000", "123025.855000", "123026.315000", "123026.775000", "123027.235000", "123027.695000", "123028.155000", "123028.615000", "123029.075000", "123029.535000", "123029.995000", "123030.455000", "123030.915000", "123031.375000", "123031.835000", "123032.295000", "123032.755000", "123033.215000", "123033.675000", "123034.135000", "123034.595000", "123035.055000", "123035.515000", "123035.975000", "123036.435000", "123036.895000", "123037.355000", "123037.815000", "123038.275000", "123038.735000", "123039.195000", "123039.655000", "123040.115000", "123040.575000", "123041.035000", "123041.495000", "123041.955000", "123042.415000", "123042.875000", "123043.335000", "123043.795000", "123044.255000", "123044.715000", "123045.175000", "123045.635000", "123046.095000", "123046.555000", "123047.015000", "123047.475000", "123047.935000", "123048.395000", "123048.855000", "123049.315000", "123049.775000", "123050.235000", "123050.695000", "123051.155000", "123051.615000", "123052.075000", "123052.535000", "123052.995000", "123053.455000", "123053.915000", "123054.375000", "123054.835000", "123055.295000", "123055.755000", "123056.215000", "123056.675000", "123057.135000", "123057.595000", "123058.055000", "123058.515000", "123058.975000", "123059.435000", "123059.895000", "123100.355000", "123100.815000", "123101.275000", "123101.735000", "123102.195000", "123102.655000", "123103.115000", "123103.575000", "123104.035000", "123104.495000", "123104.955000", "123105.415000", "123105.875000", "123106.335000", "123106.795000", "123107.255000", "123107.715000", "123108.175000", "123108.635000", "123109.095000", "123109.555000", "123110.015000", "123110.475000", "123110.935000", "123111.395000", "123111.855000", "123112.315000", "123112.775000", "123113.235000", "123113.695000", "123114.155000", "123114.615000", "123115.075000", "123115.535000", "123115.995000", "123116.455000", "123116.915000", "123117.375000", "123117.835000", "123118.295000", "123118.755000", "123119.215000", "123119.675000", "123120.135000", "123120.595000", "123121.055000", "123121.515000", "123121.975000", "123122.435000", "123122.895000", "123123.355000", "123123.815000", "123124.275000", "123124.735000", "123125.195000", "123125.655000", "123126.115000", "123126.575000", "123127.035000", "123127.495000", "123127.955000", "123128.415000", "123128.875000", "123129.335000", "123129.795000", "123130.255000", "123130.715000", "123131.175000", "123131.635000", "123132.095000", "123132.555000", "123133.015000", "123133.475000", "123133.935000", "123134.395000", "123134.855000", "123135.315000", "123135.775000", "123136.235000", "123136.695000", "123137.155000", "123137.615000", "123138.075000", "123138.535000", "123138.995000", "123139.455000", "123139.915000", "123140.375000", "123140.835000", "123141.295000", "123141.755000", "123142.215000", "123142.675000", "123143.135000", "123143.595000", "123144.055000", "123144.515000", "123144.975000", "123145.435000", "123145.895000", "123146.355000", "123146.815000", "123147.275000", "123147.735000", "123148.195000", "123148.655000", "123149.115000", "123149.575000", "123150.035000", "123150.495000", "123150.955000", "123151.415000", "123151.875000", "123152.335000", "123152.795000", "123153.255000", "123153.715000", "123154.175000", "123154.635000", "123155.095000", "123155.555000", "123156.015000", "123156.475000", "123156.935000", "123157.395000", "123157.855000", "123158.315000", "123158.775000", "123159.235000", "123159.695000", "123200.155000", "123200.615000", "123201.075000", "123201.535000", "123201.995000", "123202.455000", "123202.915000", "123203.375000", "123203.835000", "123204.295000", "123204.755000", "123205.215000", "123205.675000", "123206.135000", "123206.595000", "123207.055000", "123207.515000", "123207.975000", "123208.435000", "123208.895000", "123209.355000", "123209.815000", "123210.275000", "123210.735000", "123211.195000", "123211.655000", "123212.115000", "123212.575000", "123213.035000", "123213.495000", "123213.955000", "123214.415000", "123214.875000", "123215.335000", "123215.795000", "123216.255000", "123216.715000", "123217.175000", "123217.635000", "123218.095000", "123218.555000", "123219.015000", "123219.475000", "123219.935000", "123220.395000", "123220.855000", "123221.315000", "123221.775000", "123222.235000", "123222.695000", "123223.155000", "123223.615000", "123224.075000", "123224.535000", "123224.995000", "123225.455000", "123225.915000", "123226.375000", "123226.835000", "123227.295000", "123227.755000", "123228.215000", "123228.675000", "123229.135000", "123229.595000", "123230.055000", "123230.515000", "123230.975000", "123231.435000", "123231.895000", "123232.355000", "123232.815000", "123233.275000", "123233.735000", "123234.195000", "123234.655000", "123235.115000", "123235.575000", "123236.035000", "123236.495000", "123236.955000", "123237.415000", "123237.875000", "123238.335000", "123238.795000", "123239.255000", "123239.715000", "123240.175000", "123240.635000", "123241.095000", "123241.555000", "123242.015000", "123242.475000", "123242.935000", "123243.395000", "123243.855000", "123244.315000", "123244.775000", "123245.235000", "123245.695000", "123246.155000", "123246.615000", "123247.075000", "123247.535000", "123247.995000", "123248.455000", "123248.915000", "123249.375000", "123249.835000", "123250.295000", "123250.755000", "123251.215000", "123251.675000", "123252.135000", "123252.595000", "123253.055000", "123253.515000", "123253.975000", "123254.435000", "123254.895000", "123255.355000", "123255.815000", "123256.275000", "123256.735000", "123257.195000", "123257.655000", "123258.115000", "123258.575000", "123259.035000", "123259.495000", "123259.955000", "123300.415000", "123300.875000", "123301.335000", "123301.795000", "123302.255000", "123302.715000", "123303.175000", "123303.635000", "123304.095000", "123304.555000", "123305.015000", "123305.475000", "123305.935000", "123306.395000", "123306.855000", "123307.315000", "123307.775000", "123308.235000", "123308.695000", "123309.155000", "123309.615000", "123310.075000", "123310.535000", "123310.995000", "123311.455000", "123311.915000", "123312.375000", "123312.835000", "123313.295000", "123313.755000", "123314.215000", "123314.675000", "123315.135000", "123315.595000", "123316.055000", "123316.515000", "123316.975000", "123317.435000", "123317.895000", "123318.355000", "123318.815000", "123319.275000", "123319.735000", "123320.195000", "123320.655000", "123321.115000", "123321.575000", "123322.035000", "123322.495000", "123322.955000", "123323.415000", "123323.875000", "123324.335000", "123324.795000", "123325.255000", "123325.715000", "123326.175000", "123326.635000", "123327.095000", "123327.555000", "123328.015000", "123328.475000", "123328.935000", "123329.395000", "123329.855000", "123330.315000", "123330.775000", "123331.235000", "123331.695000", "123332.155000", "123332.615000", "123333.075000", "123333.535000", "123333.995000", "123334.455000", "123334.915000", "123335.375000", "123335.835000", "123336.295000", "123336.755000", "123337.215000", "123337.675000", "123338.135000", "123338.595000", "123339.055000", "123339.515000", "123339.975000", "123340.435000", "123340.895000", "123341.355000", "123341.815000", "123342.275000", "123342.735000", "123343.195000", "123343.655000", "123344.115000"],
