{
  "AcquisitionMatrixPE": 82,
  "AcquisitionNumber": 1,
  "AcquisitionTime": "11:26:46.312500",
  "BandwidthPerPixelPhaseEncode": 24.888,
  "BaseResolution": 82,
  "BodyPartExamined": "BRAIN",
  "ConsistencyInfo": "N4_VE11C_LATEST_20160120",
  "ConversionSoftware": "dcm2niix",
  "ConversionSoftwareVersion": "v1.0.20201102",
  "DerivedVendorReportedEchoSpacing": 0.00049,
  "DeviceSerialNumber": "66112",
  "DwellTime": 2e-06,
  "EchoTime": 0.0272,
  "EchoTrainLength": 82,
  "EffectiveEchoSpacing": 0.00049,
  "FlipAngle": 44,
  "ImageComments": "Unaliased MB8/PE3",
  "ImageOrientationPatientDICOM": [0.998818, 0.0175943, 0.0453215, -0.0118548, 0.99222, -0.123929],
  "ImageType": [
    "ORIGINAL",
    "PRIMARY",
    "M",
    "MB",
    "ND",
    "NORM",
    "MOSAIC"
],
  "ImagingFrequency": 123.252,
  "InPlanePhaseEncodingDirectionDICOM": "COL",
  "InstitutionAddress": "Maynard 3,Hanover,NH,US,03755",
  "InstitutionName": "Dartmouth College - PBS",
  "InstitutionalDepartmentName": "Department",
  "MRAcquisitionType": "2D",
  "MagneticFieldStrength": 3,
  "Manufacturer": "Siemens",
  "ManufacturersModelName": "Prisma",
  "Modality": "MR",
  "MultibandAccelerationFactor": 8,
  "PartialFourier": 1,
  "PatientPosition": "HFS",
  "PercentPhaseFOV": 100,
  "PercentSampling": 100,
  "PhaseEncodingDirection": "j-",
  "PhaseEncodingSteps": 82,
  "PhaseResolution": 1,
  "PixelBandwidth": 3050,
  "ProcedureStepDescription": "Wager_Wager^1076_spacetop",
  "ProtocolName": "func_run-04_task-social_acq-ap-mb8",
  "PulseSequenceDetails": "%CustomerSeq%\\cmrr_mbep2d_bold",
  "ReceiveCoilActiveElements": "HEA;HEP",
  "ReceiveCoilName": "Head_32",
  "ReconMatrixPE": 82,
  "RepetitionTime": 0.46,
  "SAR": 0.837798,
  "ScanOptions": "FS",
  "ScanningSequence": "EP",
  "SequenceName": "epfid2d1_82",
  "SequenceVariant": "SK\\SS",
  "SeriesDescription": "func_run-04_task-social_acq-ap-mb8",
  "SeriesNumber": 14,
  "ShimSetting": [4156, -7727, -7249, 401, -33, -43, -31, 99],
  "SliceThickness": 2.7,
  "SliceTiming": [0, 0.25, 0.0625, 0.315, 0.125, 0.3775, 0.1875, 0, 0.25, 0.0625, 0.315, 0.125, 0.3775, 0.1875, 0, 0.25, 0.0625, 0.315, 0.125, 0.3775, 0.1875, 0, 0.25, 0.0625, 0.315, 0.125, 0.3775, 0.1875, 0, 0.25, 0.0625, 0.315, 0.125, 0.3775, 0.1875, 0, 0.25, 0.0625, 0.315, 0.125, 0.3775, 0.1875, 0, 0.25, 0.0625, 0.315, 0.125, 0.3775, 0.1875, 0, 0.25, 0.0625, 0.315, 0.125, 0.3775, 0.1875],
  "SoftwareVersions": "syngo MR E11",
  "SpacingBetweenSlices": 2.7,
  "StationName": "AWP66112",
  "TaskName": "social",
  "TotalReadoutTime": 0.03969,
  "TxRefAmp": 287.891,
  "WipMemBlock": "c96471f5-5dd2-4a23-abce-d2e1a7c942c1||Sequence: R016 ve11c/master r/e634e98; Dec 19 2017 11:00:25 by eja",
  "dcmmeta_affine": [
    [-2.6797542572021484, -0.03180546313524246, 0.1273033618927002, 109.80828094482422],
    [-0.04720412939786911, 2.6620545387268066, -0.33276134729385376, -81.04300689697266],
    [0.1215943992137909, 0.33249181509017944, 2.6763901710510254, -82.84429168701172],
    [0.0, 0.0, 0.0, 1.0]
],
  "dcmmeta_reorient_transform": [
    [0.0, -1.0, 0.0, 81.0],
    [1.0, 0.0, 0.0, 0.0],
    [0.0, 0.0, 1.0, 0.0],
    [0.0, 0.0, 0.0, 1.0]
],
  "dcmmeta_shape": [82, 82, 56, 872],
  "dcmmeta_slice_dim": 2,
  "dcmmeta_version": 0.6,
  "global": {
    "const": {
      "AccessionNumber": "A003840",
      "AcquisitionMatrix": [82, 0, 0, 82],
      "AngioFlag": "N",
      "BitsAllocated": 16,
      "BitsStored": 16,
      "BodyPartExamined": "BRAIN",
      "Columns": 656,
      "EchoNumbers": 1,
      "EchoTime": 27.2,
      "EchoTrainLength": 82,
      "FlipAngle": 44.0,
      "HighBit": 15,
      "ImageOrientationPatient": [0.99881750046179, 0.01759426637765, 0.04532154633167, -0.0118547631698, 0.99222030077929, -0.1239287670868],
      "ImagePositionPatient": [-867.19336090144, -912.14064544538, 4.6151060358008],
      "ImageType": [
        "ORIGINAL",
        "PRIMARY",
        "M",
        "MB",
        "ND",
        "NORM",
        "MOSAIC"
],
      "ImagedNucleus": "1H",
      "ImagingFrequency": 123.252186,
      "InPlanePhaseEncodingDirection": "COL",
      "MRAcquisitionType": "2D",
      "MagneticFieldStrength": 3.0,
      "Manufacturer": "SIEMENS",
      "ManufacturerModelName": "Prisma",
      "Modality": "MR",
      "NumberOfAverages": 1.0,
      "NumberOfPhaseEncodingSteps": 82,
      "PercentPhaseFieldOfView": 100.0,
      "PercentSampling": 100.0,
      "PerformedProcedureStepStartTime": "105241.096000",
      "PhotometricInterpretation": "MONOCHROME2",
      "PixelBandwidth": 3050.0,
      "PixelRepresentation": 0,
      "PixelSpacing": [2.6829268932343, 2.6829268932343],
      "ProtocolName": "func_run-04_task-social_acq-ap-mb8",
      "RepetitionTime": 460.0,
      "Rows": 656,
      "SAR": 0.83779807595245,
      "SamplesPerPixel": 1,
      "ScanOptions": "FS",
      "ScanningSequence": "EP",
      "SequenceName": "epfid2d1_82",
      "SequenceVariant": [
        "SK",
        "SS"
],
      "SeriesDescription": "func_run-04_task-social_acq-ap-mb8",
      "SeriesNumber": 14,
      "SeriesTime": "112715.625000",
      "SliceLocation": -66.954332737986,
      "SliceThickness": 2.7000000476837,
      "SmallestImagePixelValue": 0,
      "SoftwareVersions": "syngo MR E11",
      "SpacingBetweenSlices": 2.7000000191405,
      "SpecificCharacterSet": "ISO_IR 100",
      "StudyID": "1",
      "StudyTime": "105241.022000",
      "TransmitCoilName": "Body",
      "VariableFlipAngleFlag": "N",
      "WindowCenterWidthExplanation": "Algo1",
      "dBdt": 0.0},
    "slices": {}
  },
  "time": {
    "samples": {
      "AcquisitionNumber": [1, 2, 3, 4, 5, 6, 7, 8, 9, 10, 11, 12, 13, 14, 15, 16, 17, 18, 19, 20, 21, 22, 23, 24, 25, 26, 27, 28, 29, 30, 31, 32, 33, 34, 35, 36, 37, 38, 39, 40, 41, 42, 43, 44, 45, 46, 47, 48, 49, 50, 51, 52, 53, 54, 55, 56, 57, 58, 59, 60, 61, 62, 63, 64, 65, 66, 67, 68, 69, 70, 71, 72, 73, 74, 75, 76, 77, 78, 79, 80, 81, 82, 83, 84, 85, 86, 87, 88, 89, 90, 91, 92, 93, 94, 95, 96, 97, 98, 99, 100, 101, 102, 103, 104, 105, 106, 107, 108, 109, 110, 111, 112, 113, 114, 115, 116, 117, 118, 119, 120, 121, 122, 123, 124, 125, 126, 127, 128, 129, 130, 131, 132, 133, 134, 135, 136, 137, 138, 139, 140, 141, 142, 143, 144, 145, 146, 147, 148, 149, 150, 151, 152, 153, 154, 155, 156, 157, 158, 159, 160, 161, 162, 163, 164, 165, 166, 167, 168, 169, 170, 171, 172, 173, 174, 175, 176, 177, 178, 179, 180, 181, 182, 183, 184, 185, 186, 187, 188, 189, 190, 191, 192, 193, 194, 195, 196, 197, 198, 199, 200, 201, 202, 203, 204, 205, 206, 207, 208, 209, 210, 211, 212, 213, 214, 215, 216, 217, 218, 219, 220, 221, 222, 223, 224, 225, 226, 227, 228, 229, 230, 231, 232, 233, 234, 235, 236, 237, 238, 239, 240, 241, 242, 243, 244, 245, 246, 247, 248, 249, 250, 251, 252, 253, 254, 255, 256, 257, 258, 259, 260, 261, 262, 263, 264, 265, 266, 267, 268, 269, 270, 271, 272, 273, 274, 275, 276, 277, 278, 279, 280, 281, 282, 283, 284, 285, 286, 287, 288, 289, 290, 291, 292, 293, 294, 295, 296, 297, 298, 299, 300, 301, 302, 303, 304, 305, 306, 307, 308, 309, 310, 311, 312, 313, 314, 315, 316, 317, 318, 319, 320, 321, 322, 323, 324, 325, 326, 327, 328, 329, 330, 331, 332, 333, 334, 335, 336, 337, 338, 339, 340, 341, 342, 343, 344, 345, 346, 347, 348, 349, 350, 351, 352, 353, 354, 355, 356, 357, 358, 359, 360, 361, 362, 363, 364, 365, 366, 367, 368, 369, 370, 371, 372, 373, 374, 375, 376, 377, 378, 379, 380, 381, 382, 383, 384, 385, 386, 387, 388, 389, 390, 391, 392, 393, 394, 395, 396, 397, 398, 399, 400, 401, 402, 403, 404, 405, 406, 407, 408, 409, 410, 411, 412, 413, 414, 415, 416, 417, 418, 419, 420, 421, 422, 423, 424, 425, 426, 427, 428, 429, 430, 431, 432, 433, 434, 435, 436, 437, 438, 439, 440, 441, 442, 443, 444, 445, 446, 447, 448, 449, 450, 451, 452, 453, 454, 455, 456, 457, 458, 459, 460, 461, 462, 463, 464, 465, 466, 467, 468, 469, 470, 471, 472, 473, 474, 475, 476, 477, 478, 479, 480, 481, 482, 483, 484, 485, 486, 487, 488, 489, 490, 491, 492, 493, 494, 495, 496, 497, 498, 499, 500, 501, 502, 503, 504, 505, 506, 507, 508, 509, 510, 511, 512, 513, 514, 515, 516, 517, 518, 519, 520, 521, 522, 523, 524, 525, 526, 527, 528, 529, 530, 531, 532, 533, 534, 535, 536, 537, 538, 539, 540, 541, 542, 543, 544, 545, 546, 547, 548, 549, 550, 551, 552, 553, 554, 555, 556, 557, 558, 559, 560, 561, 562, 563, 564, 565, 566, 567, 568, 569, 570, 571, 572, 573, 574, 575, 576, 577, 578, 579, 580, 581, 582, 583, 584, 585, 586, 587, 588, 589, 590, 591, 592, 593, 594, 595, 596, 597, 598, 599, 600, 601, 602, 603, 604, 605, 606, 607, 608, 609, 610, 611, 612, 613, 614, 615, 616, 617, 618, 619, 620, 621, 622, 623, 624, 625, 626, 627, 628, 629, 630, 631, 632, 633, 634, 635, 636, 637, 638, 639, 640, 641, 642, 643, 644, 645, 646, 647, 648, 649, 650, 651, 652, 653, 654, 655, 656, 657, 658, 659, 660, 661, 662, 663, 664, 665, 666, 667, 668, 669, 670, 671, 672, 673, 674, 675, 676, 677, 678, 679, 680, 681, 682, 683, 684, 685, 686, 687, 688, 689, 690, 691, 692, 693, 694, 695, 696, 697, 698, 699, 700, 701, 702, 703, 704, 705, 706, 707, 708, 709, 710, 711, 712, 713, 714, 715, 716, 717, 718, 719, 720, 721, 722, 723, 724, 725, 726, 727, 728, 729, 730, 731, 732, 733, 734, 735, 736, 737, 738, 739, 740, 741, 742, 743, 744, 745, 746, 747, 748, 749, 750, 751, 752, 753, 754, 755, 756, 757, 758, 759, 760, 761, 762, 763, 764, 765, 766, 767, 768, 769, 770, 771, 772, 773, 774, 775, 776, 777, 778, 779, 780, 781, 782, 783, 784, 785, 786, 787, 788, 789, 790, 791, 792, 793, 794, 795, 796, 797, 798, 799, 800, 801, 802, 803, 804, 805, 806, 807, 808, 809, 810, 811, 812, 813, 814, 815, 816, 817, 818, 819, 820, 821, 822, 823, 824, 825, 826, 827, 828, 829, 830, 831, 832, 833, 834, 835, 836, 837, 838, 839, 840, 841, 842, 843, 844, 845, 846, 847, 848, 849, 850, 851, 852, 853, 854, 855, 856, 857, 858, 859, 860, 861, 862, 863, 864, 865, 866, 867, 868, 869, 870, 871, 872],
      "AcquisitionTime": ["112646.312500", "112646.772500", "112647.232500", "112647.692500", "112648.152500", "112648.612500", "112649.072500", "112649.532500", "112649.992500", "112650.452500", "112650.912500", "112651.372500", "112651.832500", "112652.292500", "112652.752500", "112653.212500", "112653.672500", "112654.132500", "112654.592500", "112655.052500", "112655.512500", "112655.972500", "112656.432500", "112656.892500", "112657.352500", "112657.812500", "112658.272500", "112658.732500", "112659.192500", "112659.652500", "112700.112500", "112700.572500", "112701.032500", "112701.492500", "112701.952500", "112702.412500", "112702.872500", "112703.332500", "112703.792500", "112704.252500", "112704.712500", "112705.172500", "112705.632500", "112706.092500", "112706.552500", "112707.012500", "112707.472500", "112707.932500", "112708.392500", "112708.852500", "112709.312500", "112709.772500", "112710.232500", "112710.692500", "112711.152500", "112711.612500", "112712.072500", "112712.532500", "112712.992500", "112713.452500", "112713.912500", "112714.372500", "112714.832500", "112715.292500", "112715.752500", "112716.212500", "112716.672500", "112717.132500", "112717.592500", "112718.052500", "112718.512500", "112718.972500", "112719.432500", "112719.892500", "112720.352500", "112720.812500", "112721.272500", "112721.732500", "112722.192500", "112722.652500", "112723.112500", "112723.572500", "112724.032500", "112724.492500", "112724.952500", "112725.412500", "112725.872500", "112726.332500", "112726.792500", "112727.252500", "112727.712500", "112728.172500", "112728.632500", "112729.092500", "112729.552500", "112730.012500", "112730.472500", "112730.932500", "112731.392500", "112731.852500", "112732.312500", "112732.772500", "112733.232500", "112733.692500", "112734.152500", "112734.612500", "112735.072500", "112735.532500", "112735.992500", "112736.452500", "112736.912500", "112737.372500", "112737.832500", "112738.292500", "112738.752500", "112739.212500", "112739.672500", "112740.132500", "112740.592500", "112741.052500", "112741.512500", "112741.972500", "112742.432500", "112742.892500", "112743.352500", "112743.812500", "112744.272500", "112744.732500", "112745.192500", "112745.652500", "112746.112500", "112746.572500", "112747.032500", "112747.492500", "112747.952500", "112748.412500", "112748.872500", "112749.332500", "112749.792500", "112750.252500", "112750.712500", "112751.172500", "112751.632500", "112752.092500", "112752.552500", "112753.012500", "112753.472500", "112753.932500", "112754.392500", "112754.852500", "112755.312500", "112755.772500", "112756.232500", "112756.692500", "112757.152500", "112757.612500", "112758.072500", "112758.532500", "112758.992500", "112759.452500", "112759.912500", "112800.372500", "112800.832500", "112801.292500", "112801.752500", "112802.212500", "112802.672500", "112803.132500", "112803.592500", "112804.052500", "112804.512500", "112804.972500", "112805.432500", "112805.892500", "112806.352500", "112806.812500", "112807.272500", "112807.732500", "112808.192500", "112808.652500", "112809.112500", "112809.572500", "112810.032500", "112810.492500", "112810.952500", "112811.412500", "112811.872500", "112812.332500", "112812.792500", "112813.252500", "112813.712500", "112814.172500", "112814.632500", "112815.092500", "112815.552500", "112816.012500", "112816.472500", "112816.932500", "112817.392500", "112817.852500", "112818.312500", "112818.772500", "112819.232500", "112819.692500", "112820.152500", "112820.612500", "112821.072500", "112821.532500", "112821.992500", "112822.452500", "112822.912500", "112823.372500", "112823.832500", "112824.292500", "112824.752500", "112825.212500", "112825.672500", "112826.132500", "112826.592500", "112827.052500", "112827.512500", "112827.972500", "112828.432500", "112828.892500", "112829.352500", "112829.812500", "112830.272500", "112830.732500", "112831.192500", "112831.652500", "112832.112500", "112832.572500", "112833.032500", "112833.492500", "112833.952500", "112834.412500", "112834.872500", "112835.332500", "112835.792500", "112836.252500", "112836.712500", "112837.172500", "112837.632500", "112838.092500", "112838.552500", "112839.012500", "112839.472500", "112839.932500", "112840.392500", "112840.852500", "112841.312500", "112841.772500", "112842.232500", "112842.692500", "112843.152500", "112843.612500", "112844.072500", "112844.532500", "112844.992500", "112845.452500", "112845.912500", "112846.372500", "112846.832500", "112847.292500", "112847.752500", "112848.212500", "112848.672500", "112849.132500", "112849.592500", "112850.052500", "112850.512500", "112850.972500", "112851.432500", "112851.892500", "112852.352500", "112852.812500", "112853.272500", "112853.732500", "112854.192500", "112854.652500", "112855.112500", "112855.572500", "112856.032500", "112856.492500", "112856.952500", "112857.412500", "112857.872500", "112858.332500", "112858.792500", "112859.252500", "112859.712500", "112900.172500", "112900.632500", "112901.092500", "112901.552500", "112902.012500", "112902.472500", "112902.932500", "112903.392500", "112903.852500", "112904.312500", "112904.772500", "112905.232500", "112905.692500", "112906.152500", "112906.612500", "112907.072500", "112907.532500", "112907.992500", "112908.452500", "112908.912500", "112909.372500", "112909.832500", "112910.292500", "112910.752500", "112911.212500", "112911.672500", "112912.132500", "112912.592500", "112913.052500", "112913.512500", "112913.972500", "112914.432500", "112914.892500", "112915.352500", "112915.812500", "112916.272500", "112916.732500", "112917.192500", "112917.652500", "112918.112500", "112918.572500", "112919.032500", "112919.492500", "112919.952500", "112920.412500", "112920.872500", "112921.332500", "112921.792500", "112922.252500", "112922.712500", "112923.172500", "112923.632500", "112924.092500", "112924.552500", "112925.012500", "112925.472500", "112925.932500", "112926.392500", "112926.852500", "112927.312500", "112927.772500", "112928.232500", "112928.692500", "112929.152500", "112929.612500", "112930.072500", "112930.532500", "112930.992500", "112931.452500", "112931.912500", "112932.372500", "112932.832500", "112933.292500", "112933.752500", "112934.212500", "112934.672500", "112935.132500", "112935.592500", "112936.052500", "112936.512500", "112936.972500", "112937.432500", "112937.892500", "112938.352500", "112938.812500", "112939.272500", "112939.732500", "112940.192500", "112940.652500", "112941.112500", "112941.572500", "112942.032500", "112942.492500", "112942.952500", "112943.412500", "112943.872500", "112944.332500", "112944.792500", "112945.252500", "112945.712500", "112946.172500", "112946.632500", "112947.092500", "112947.552500", "112948.012500", "112948.472500", "112948.932500", "112949.392500", "112949.852500", "112950.312500", "112950.772500", "112951.232500", "112951.692500", "112952.152500", "112952.612500", "112953.072500", "112953.532500", "112953.992500", "112954.452500", "112954.912500", "112955.372500", "112955.832500", "112956.292500", "112956.752500", "112957.212500", "112957.672500", "112958.132500", "112958.592500", "112959.052500", "112959.512500", "112959.972500", "113000.432500", "113000.892500", "113001.352500", "113001.812500", "113002.272500", "113002.732500", "113003.192500", "113003.652500", "113004.112500", "113004.572500", "113005.032500", "113005.492500", "113005.952500", "113006.412500", "113006.872500", "113007.332500", "113007.792500", "113008.252500", "113008.712500", "113009.172500", "113009.632500", "113010.092500", "113010.552500", "113011.012500", "113011.472500", "113011.932500", "113012.392500", "113012.852500", "113013.312500", "113013.772500", "113014.232500", "113014.692500", "113015.152500", "113015.612500", "113016.072500", "113016.532500", "113016.992500", "113017.452500", "113017.912500", "113018.372500", "113018.832500", "113019.292500", "113019.752500", "113020.212500", "113020.672500", "113021.132500", "113021.592500", "113022.052500", "113022.512500", "113022.972500", "113023.432500", "113023.892500", "113024.352500", "113024.812500", "113025.272500", "113025.732500", "113026.192500", "113026.652500", "113027.112500", "113027.572500", "113028.032500", "113028.492500", "113028.952500", "113029.412500", "113029.872500", "113030.332500", "113030.792500", "113031.252500", "113031.712500", "113032.172500", "113032.632500", "113033.092500", "113033.552500", "113034.012500", "113034.472500", "113034.932500", "113035.392500", "113035.852500", "113036.312500", "113036.772500", "113037.232500", "113037.692500", "113038.152500", "113038.612500", "113039.072500", "113039.532500", "113039.992500", "113040.452500", "113040.912500", "113041.372500", "113041.832500", "113042.292500", "113042.752500", "113043.212500", "113043.672500", "113044.132500", "113044.592500", "113045.052500", "113045.512500", "113045.972500", "113046.432500", "113046.892500", "113047.352500", "113047.812500", "113048.272500", "113048.732500", "113049.192500", "113049.652500", "113050.112500", "113050.572500", "113051.032500", "113051.492500", "113051.952500", "113052.412500", "113052.872500", "113053.332500", "113053.792500", "113054.252500", "113054.712500", "113055.172500", "113055.632500", "113056.092500", "113056.552500", "113057.012500", "113057.472500", "113057.932500", "113058.392500", "113058.852500", "113059.312500", "113059.772500", "113100.232500", "113100.692500", "113101.152500", "113101.612500", "113102.072500", "113102.532500", "113102.992500", "113103.452500", "113103.912500", "113104.372500", "113104.832500", "113105.292500", "113105.752500", "113106.212500", "113106.672500", "113107.132500", "113107.592500", "113108.052500", "113108.512500", "113108.972500", "113109.432500", "113109.892500", "113110.352500", "113110.812500", "113111.272500", "113111.732500", "113112.192500", "113112.652500", "113113.112500", "113113.572500", "113114.032500", "113114.492500", "113114.952500", "113115.412500", "113115.872500", "113116.332500", "113116.792500", "113117.252500", "113117.712500", "113118.172500", "113118.632500", "113119.092500", "113119.552500", "113120.012500", "113120.472500", "113120.932500", "113121.392500", "113121.852500", "113122.312500", "113122.772500", "113123.232500", "113123.692500", "113124.152500", "113124.612500", "113125.072500", "113125.532500", "113125.992500", "113126.452500", "113126.912500", "113127.372500", "113127.832500", "113128.292500", "113128.752500", "113129.212500", "113129.672500", "113130.132500", "113130.592500", "113131.052500", "113131.512500", "113131.972500", "113132.432500", "113132.892500", "113133.352500", "113133.812500", "113134.272500", "113134.732500", "113135.192500", "113135.652500", "113136.112500", "113136.572500", "113137.032500", "113137.492500", "113137.952500", "113138.412500", "113138.872500", "113139.332500", "113139.792500", "113140.252500", "113140.712500", "113141.172500", "113141.632500", "113142.092500", "113142.552500", "113143.012500", "113143.472500", "113143.932500", "113144.392500", "113144.852500", "113145.312500", "113145.772500", "113146.232500", "113146.692500", "113147.152500", "113147.612500", "113148.072500", "113148.532500", "113148.992500", "113149.452500", "113149.912500", "113150.372500", "113150.832500", "113151.292500", "113151.752500", "113152.212500", "113152.672500", "113153.132500", "113153.592500", "113154.052500", "113154.512500", "113154.972500", "113155.432500", "113155.892500", "113156.352500", "113156.812500", "113157.272500", "113157.732500", "113158.192500", "113158.652500", "113159.112500", "113159.572500", "113200.032500", "113200.492500", "113200.952500", "113201.412500", "113201.872500", "113202.332500", "113202.792500", "113203.252500", "113203.712500", "113204.172500", "113204.632500", "113205.092500", "113205.552500", "113206.012500", "113206.472500", "113206.932500", "113207.392500", "113207.852500", "113208.312500", "113208.772500", "113209.232500", "113209.692500", "113210.152500", "113210.612500", "113211.072500", "113211.532500", "113211.992500", "113212.452500", "113212.912500", "113213.372500", "113213.832500", "113214.292500", "113214.752500", "113215.212500", "113215.672500", "113216.132500", "113216.592500", "113217.052500", "113217.512500", "113217.972500", "113218.432500", "113218.892500", "113219.352500", "113219.812500", "113220.272500", "113220.732500", "113221.192500", "113221.652500", "113222.112500", "113222.572500", "113223.032500", "113223.492500", "113223.952500", "113224.412500", "113224.872500", "113225.332500", "113225.792500", "113226.252500", "113226.712500", "113227.172500", "113227.632500", "113228.092500", "113228.552500", "113229.012500", "113229.472500", "113229.932500", "113230.392500", "113230.852500", "113231.312500", "113231.772500", "113232.232500", "113232.692500", "113233.152500", "113233.612500", "113234.072500", "113234.532500", "113234.992500", "113235.452500", "113235.912500", "113236.372500", "113236.832500", "113237.292500", "113237.752500", "113238.212500", "113238.672500", "113239.132500", "113239.592500", "113240.052500", "113240.512500", "113240.972500", "113241.432500", "113241.892500", "113242.352500", "113242.812500", "113243.272500", "113243.732500", "113244.192500", "113244.652500", "113245.112500", "113245.572500", "113246.032500", "113246.492500", "113246.952500", "113247.412500", "113247.872500", "113248.332500", "113248.792500", "113249.252500", "113249.712500", "113250.172500", "113250.632500", "113251.092500", "113251.552500", "113252.012500", "113252.472500", "113252.932500", "113253.392500", "113253.852500", "113254.312500", "113254.772500", "113255.232500", "113255.692500", "113256.152500", "113256.612500", "113257.072500", "113257.532500", "113257.992500", "113258.452500", "113258.912500", "113259.372500", "113259.832500", "113300.292500", "113300.752500", "113301.212500", "113301.672500", "113302.132500", "113302.592500", "113303.052500", "113303.512500", "113303.972500", "113304.432500", "113304.892500", "113305.352500", "113305.812500", "113306.272500", "113306.732500", "113307.192500", "113307.652500", "113308.112500", "113308.572500", "113309.032500", "113309.492500", "113309.952500", "113310.412500", "113310.872500", "113311.332500", "113311.792500", "113312.252500", "113312.712500", "113313.172500", "113313.632500", "113314.092500", "113314.552500", "113315.012500", "113315.472500", "113315.932500", "113316.392500", "113316.852500", "113317.312500", "113317.772500", "113318.232500", "113318.692500", "113319.152500", "113319.612500", "113320.072500", "113320.532500", "113320.992500", "113321.452500", "113321.912500", "113322.372500", "113322.832500", "113323.292500", "113323.752500", "113324.212500", "113324.672500", "113325.132500", "113325.592500", "113326.052500", "113326.512500", "113326.972500"],
