{
  "AcquisitionMatrixPE": 82,
  "AcquisitionNumber": 1,
  "AcquisitionTime": "11:12:45.427500",
  "BandwidthPerPixelPhaseEncode": 24.888,
  "BaseResolution": 82,
  "BodyPartExamined": "BRAIN",
  "ConsistencyInfo": "N4_VE11C_LATEST_20160120",
  "ConversionSoftware": "dcm2niix",
  "ConversionSoftwareVersion": "v1.0.20201102",
  "DerivedVendorReportedEchoSpacing": 0.00049,
  "DeviceSerialNumber": "66112",
  "DwellTime": 2e-06,
  "EchoTime": 0.0272,
  "EchoTrainLength": 82,
  "EffectiveEchoSpacing": 0.00049,
  "FlipAngle": 44,
  "ImageComments": "Unaliased MB8/PE3",
  "ImageOrientationPatientDICOM": [0.998818, 0.0175943, 0.0453215, -0.0118548, 0.99222, -0.123929],
  "ImageType": [
    "ORIGINAL",
    "PRIMARY",
    "M",
    "MB",
    "ND",
    "NORM",
    "MOSAIC"
],
  "ImagingFrequency": 123.252,
  "InPlanePhaseEncodingDirectionDICOM": "COL",
  "InstitutionAddress": "Maynard 3,Hanover,NH,US,03755",
  "InstitutionName": "Dartmouth College - PBS",
  "InstitutionalDepartmentName": "Department",
  "MRAcquisitionType": "2D",
  "MagneticFieldStrength": 3,
  "Manufacturer": "Siemens",
  "ManufacturersModelName": "Prisma",
  "Modality": "MR",
  "MultibandAccelerationFactor": 8,
  "PartialFourier": 1,
  "PatientPosition": "HFS",
  "PercentPhaseFOV": 100,
  "PercentSampling": 100,
  "PhaseEncodingDirection": "j-",
  "PhaseEncodingSteps": 82,
  "PhaseResolution": 1,
  "PixelBandwidth": 3050,
  "ProcedureStepDescription": "Wager_Wager^1076_spacetop",
  "ProtocolName": "func_run-02_task-social_acq-ap-mb8",
  "PulseSequenceDetails": "%CustomerSeq%\\cmrr_mbep2d_bold",
  "ReceiveCoilActiveElements": "HEA;HEP",
  "ReceiveCoilName": "Head_32",
  "ReconMatrixPE": 82,
  "RepetitionTime": 0.46,
  "SAR": 0.837798,
  "ScanOptions": "FS",
  "ScanningSequence": "EP",
  "SequenceName": "epfid2d1_82",
  "SequenceVariant": "SK\\SS",
  "SeriesDescription": "func_run-02_task-social_acq-ap-mb8",
  "SeriesNumber": 10,
  "ShimSetting": [4156, -7727, -7249, 401, -33, -43, -31, 99],
  "SliceThickness": 2.7,
  "SliceTiming": [0, 0.2525, 0.065, 0.315, 0.1275, 0.3775, 0.19, 0, 0.2525, 0.065, 0.315, 0.1275, 0.3775, 0.19, 0, 0.2525, 0.065, 0.315, 0.1275, 0.3775, 0.19, 0, 0.2525, 0.065, 0.315, 0.1275, 0.3775, 0.19, 0, 0.2525, 0.065, 0.315, 0.1275, 0.3775, 0.19, 0, 0.2525, 0.065, 0.315, 0.1275, 0.3775, 0.19, 0, 0.2525, 0.065, 0.315, 0.1275, 0.3775, 0.19, 0, 0.2525, 0.065, 0.315, 0.1275, 0.3775, 0.19],
  "SoftwareVersions": "syngo MR E11",
  "SpacingBetweenSlices": 2.7,
  "StationName": "AWP66112",
  "TaskName": "social",
  "TotalReadoutTime": 0.03969,
  "TxRefAmp": 287.891,
  "WipMemBlock": "d71ed1da-11d4-4ea3-a185-185f9092ab3f||Sequence: R016 ve11c/master r/e634e98; Dec 19 2017 11:00:25 by eja",
  "dcmmeta_affine": [
    [-2.6797542572021484, -0.03180546313524246, 0.1273033618927002, 109.80828094482422],
    [-0.04720412939786911, 2.6620545387268066, -0.33276134729385376, -81.04300689697266],
    [0.1215943992137909, 0.33249181509017944, 2.6763901710510254, -82.84429168701172],
    [0.0, 0.0, 0.0, 1.0]
],
  "dcmmeta_reorient_transform": [
    [0.0, -1.0, 0.0, 81.0],
    [1.0, 0.0, 0.0, 0.0],
    [0.0, 0.0, 1.0, 0.0],
    [0.0, 0.0, 0.0, 1.0]
],
  "dcmmeta_shape": [82, 82, 56, 872],
  "dcmmeta_slice_dim": 2,
  "dcmmeta_version": 0.6,
  "global": {
    "const": {
      "AccessionNumber": "A003840",
      "AcquisitionMatrix": [82, 0, 0, 82],
      "AngioFlag": "N",
      "BitsAllocated": 16,
      "BitsStored": 16,
      "BodyPartExamined": "BRAIN",
      "Columns": 656,
      "EchoNumbers": 1,
      "EchoTime": 27.2,
      "EchoTrainLength": 82,
      "FlipAngle": 44.0,
      "HighBit": 15,
      "ImageOrientationPatient": [0.99881750046179, 0.01759426637765, 0.04532154633167, -0.0118547631698, 0.99222030077929, -0.1239287670868],
      "ImagePositionPatient": [-867.19336090144, -912.14064544538, 4.6151060358008],
      "ImageType": [
        "ORIGINAL",
        "PRIMARY",
        "M",
        "MB",
        "ND",
        "NORM",
        "MOSAIC"
],
      "ImagedNucleus": "1H",
      "ImagingFrequency": 123.25218,
      "InPlanePhaseEncodingDirection": "COL",
      "MRAcquisitionType": "2D",
      "MagneticFieldStrength": 3.0,
      "Manufacturer": "SIEMENS",
      "ManufacturerModelName": "Prisma",
      "Modality": "MR",
      "NumberOfAverages": 1.0,
      "NumberOfPhaseEncodingSteps": 82,
      "PercentPhaseFieldOfView": 100.0,
      "PercentSampling": 100.0,
      "PerformedProcedureStepStartTime": "105241.096000",
      "PhotometricInterpretation": "MONOCHROME2",
      "PixelBandwidth": 3050.0,
      "PixelRepresentation": 0,
      "PixelSpacing": [2.6829268932343, 2.6829268932343],
      "ProtocolName": "func_run-02_task-social_acq-ap-mb8",
      "RepetitionTime": 460.0,
      "Rows": 656,
      "SAR": 0.83779807595245,
      "SamplesPerPixel": 1,
      "ScanOptions": "FS",
      "ScanningSequence": "EP",
      "SequenceName": "epfid2d1_82",
      "SequenceVariant": [
        "SK",
        "SS"
],
      "SeriesDescription": "func_run-02_task-social_acq-ap-mb8",
      "SeriesNumber": 10,
      "SeriesTime": "111255.705000",
      "SliceLocation": -66.954332737986,
      "SliceThickness": 2.7000000476837,
      "SmallestImagePixelValue": 0,
      "SoftwareVersions": "syngo MR E11",
      "SpacingBetweenSlices": 2.7000000191405,
      "SpecificCharacterSet": "ISO_IR 100",
      "StudyID": "1",
      "StudyTime": "105241.022000",
      "TransmitCoilName": "Body",
      "VariableFlipAngleFlag": "N",
      "WindowCenterWidthExplanation": "Algo1",
      "dBdt": 0.0},
    "slices": {}
  },
  "time": {
    "samples": {
      "AcquisitionNumber": [1, 2, 3, 4, 5, 6, 7, 8, 9, 10, 11, 12, 13, 14, 15, 16, 17, 18, 19, 20, 21, 22, 23, 24, 25, 26, 27, 28, 29, 30, 31, 32, 33, 34, 35, 36, 37, 38, 39, 40, 41, 42, 43, 44, 45, 46, 47, 48, 49, 50, 51, 52, 53, 54, 55, 56, 57, 58, 59, 60, 61, 62, 63, 64, 65, 66, 67, 68, 69, 70, 71, 72, 73, 74, 75, 76, 77, 78, 79, 80, 81, 82, 83, 84, 85, 86, 87, 88, 89, 90, 91, 92, 93, 94, 95, 96, 97, 98, 99, 100, 101, 102, 103, 104, 105, 106, 107, 108, 109, 110, 111, 112, 113, 114, 115, 116, 117, 118, 119, 120, 121, 122, 123, 124, 125, 126, 127, 128, 129, 130, 131, 132, 133, 134, 135, 136, 137, 138, 139, 140, 141, 142, 143, 144, 145, 146, 147, 148, 149, 150, 151, 152, 153, 154, 155, 156, 157, 158, 159, 160, 161, 162, 163, 164, 165, 166, 167, 168, 169, 170, 171, 172, 173, 174, 175, 176, 177, 178, 179, 180, 181, 182, 183, 184, 185, 186, 187, 188, 189, 190, 191, 192, 193, 194, 195, 196, 197, 198, 199, 200, 201, 202, 203, 204, 205, 206, 207, 208, 209, 210, 211, 212, 213, 214, 215, 216, 217, 218, 219, 220, 221, 222, 223, 224, 225, 226, 227, 228, 229, 230, 231, 232, 233, 234, 235, 236, 237, 238, 239, 240, 241, 242, 243, 244, 245, 246, 247, 248, 249, 250, 251, 252, 253, 254, 255, 256, 257, 258, 259, 260, 261, 262, 263, 264, 265, 266, 267, 268, 269, 270, 271, 272, 273, 274, 275, 276, 277, 278, 279, 280, 281, 282, 283, 284, 285, 286, 287, 288, 289, 290, 291, 292, 293, 294, 295, 296, 297, 298, 299, 300, 301, 302, 303, 304, 305, 306, 307, 308, 309, 310, 311, 312, 313, 314, 315, 316, 317, 318, 319, 320, 321, 322, 323, 324, 325, 326, 327, 328, 329, 330, 331, 332, 333, 334, 335, 336, 337, 338, 339, 340, 341, 342, 343, 344, 345, 346, 347, 348, 349, 350, 351, 352, 353, 354, 355, 356, 357, 358, 359, 360, 361, 362, 363, 364, 365, 366, 367, 368, 369, 370, 371, 372, 373, 374, 375, 376, 377, 378, 379, 380, 381, 382, 383, 384, 385, 386, 387, 388, 389, 390, 391, 392, 393, 394, 395, 396, 397, 398, 399, 400, 401, 402, 403, 404, 405, 406, 407, 408, 409, 410, 411, 412, 413, 414, 415, 416, 417, 418, 419, 420, 421, 422, 423, 424, 425, 426, 427, 428, 429, 430, 431, 432, 433, 434, 435, 436, 437, 438, 439, 440, 441, 442, 443, 444, 445, 446, 447, 448, 449, 450, 451, 452, 453, 454, 455, 456, 457, 458, 459, 460, 461, 462, 463, 464, 465, 466, 467, 468, 469, 470, 471, 472, 473, 474, 475, 476, 477, 478, 479, 480, 481, 482, 483, 484, 485, 486, 487, 488, 489, 490, 491, 492, 493, 494, 495, 496, 497, 498, 499, 500, 501, 502, 503, 504, 505, 506, 507, 508, 509, 510, 511, 512, 513, 514, 515, 516, 517, 518, 519, 520, 521, 522, 523, 524, 525, 526, 527, 528, 529, 530, 531, 532, 533, 534, 535, 536, 537, 538, 539, 540, 541, 542, 543, 544, 545, 546, 547, 548, 549, 550, 551, 552, 553, 554, 555, 556, 557, 558, 559, 560, 561, 562, 563, 564, 565, 566, 567, 568, 569, 570, 571, 572, 573, 574, 575, 576, 577, 578, 579, 580, 581, 582, 583, 584, 585, 586, 587, 588, 589, 590, 591, 592, 593, 594, 595, 596, 597, 598, 599, 600, 601, 602, 603, 604, 605, 606, 607, 608, 609, 610, 611, 612, 613, 614, 615, 616, 617, 618, 619, 620, 621, 622, 623, 624, 625, 626, 627, 628, 629, 630, 631, 632, 633, 634, 635, 636, 637, 638, 639, 640, 641, 642, 643, 644, 645, 646, 647, 648, 649, 650, 651, 652, 653, 654, 655, 656, 657, 658, 659, 660, 661, 662, 663, 664, 665, 666, 667, 668, 669, 670, 671, 672, 673, 674, 675, 676, 677, 678, 679, 680, 681, 682, 683, 684, 685, 686, 687, 688, 689, 690, 691, 692, 693, 694, 695, 696, 697, 698, 699, 700, 701, 702, 703, 704, 705, 706, 707, 708, 709, 710, 711, 712, 713, 714, 715, 716, 717, 718, 719, 720, 721, 722, 723, 724, 725, 726, 727, 728, 729, 730, 731, 732, 733, 734, 735, 736, 737, 738, 739, 740, 741, 742, 743, 744, 745, 746, 747, 748, 749, 750, 751, 752, 753, 754, 755, 756, 757, 758, 759, 760, 761, 762, 763, 764, 765, 766, 767, 768, 769, 770, 771, 772, 773, 774, 775, 776, 777, 778, 779, 780, 781, 782, 783, 784, 785, 786, 787, 788, 789, 790, 791, 792, 793, 794, 795, 796, 797, 798, 799, 800, 801, 802, 803, 804, 805, 806, 807, 808, 809, 810, 811, 812, 813, 814, 815, 816, 817, 818, 819, 820, 821, 822, 823, 824, 825, 826, 827, 828, 829, 830, 831, 832, 833, 834, 835, 836, 837, 838, 839, 840, 841, 842, 843, 844, 845, 846, 847, 848, 849, 850, 851, 852, 853, 854, 855, 856, 857, 858, 859, 860, 861, 862, 863, 864, 865, 866, 867, 868, 869, 870, 871, 872],
      "AcquisitionTime": ["111245.427500", "111245.887500", "111246.347500", "111246.807500", "111247.267500", "111247.727500", "111248.187500", "111248.647500", "111249.107500", "111249.567500", "111250.027500", "111250.487500", "111250.947500", "111251.407500", "111251.867500", "111252.327500", "111252.787500", "111253.247500", "111253.707500", "111254.167500", "111254.627500", "111255.087500", "111255.547500", "111256.007500", "111256.467500", "111256.927500", "111257.387500", "111257.847500", "111258.307500", "111258.767500", "111259.227500", "111259.687500", "111300.147500", "111300.607500", "111301.067500", "111301.527500", "111301.987500", "111302.447500", "111302.907500", "111303.367500", "111303.827500", "111304.287500", "111304.747500", "111305.207500", "111305.667500", "111306.127500", "111306.587500", "111307.047500", "111307.507500", "111307.967500", "111308.427500", "111308.887500", "111309.347500", "111309.807500", "111310.267500", "111310.727500", "111311.187500", "111311.647500", "111312.107500", "111312.567500", "111313.027500", "111313.487500", "111313.947500", "111314.407500", "111314.867500", "111315.327500", "111315.787500", "111316.247500", "111316.707500", "111317.167500", "111317.627500", "111318.087500", "111318.547500", "111319.007500", "111319.467500", "111319.927500", "111320.387500", "111320.847500", "111321.307500", "111321.767500", "111322.227500", "111322.687500", "111323.147500", "111323.607500", "111324.067500", "111324.527500", "111324.987500", "111325.447500", "111325.907500", "111326.367500", "111326.827500", "111327.287500", "111327.747500", "111328.207500", "111328.667500", "111329.127500", "111329.587500", "111330.047500", "111330.507500", "111330.967500", "111331.427500", "111331.887500", "111332.347500", "111332.807500", "111333.267500", "111333.727500", "111334.187500", "111334.647500", "111335.107500", "111335.567500", "111336.027500", "111336.487500", "111336.947500", "111337.407500", "111337.867500", "111338.327500", "111338.787500", "111339.247500", "111339.707500", "111340.167500", "111340.627500", "111341.087500", "111341.547500", "111342.007500", "111342.467500", "111342.927500", "111343.387500", "111343.847500", "111344.307500", "111344.767500", "111345.227500", "111345.687500", "111346.147500", "111346.607500", "111347.067500", "111347.527500", "111347.987500", "111348.447500", "111348.907500", "111349.367500", "111349.827500", "111350.287500", "111350.747500", "111351.207500", "111351.667500", "111352.127500", "111352.587500", "111353.047500", "111353.507500", "111353.967500", "111354.427500", "111354.887500", "111355.347500", "111355.807500", "111356.267500", "111356.727500", "111357.187500", "111357.647500", "111358.107500", "111358.567500", "111359.027500", "111359.487500", "111359.947500", "111400.407500", "111400.867500", "111401.327500", "111401.787500", "111402.247500", "111402.707500", "111403.167500", "111403.627500", "111404.087500", "111404.547500", "111405.007500", "111405.467500", "111405.927500", "111406.387500", "111406.847500", "111407.307500", "111407.767500", "111408.227500", "111408.687500", "111409.147500", "111409.607500", "111410.067500", "111410.527500", "111410.987500", "111411.447500", "111411.907500", "111412.367500", "111412.827500", "111413.287500", "111413.747500", "111414.207500", "111414.667500", "111415.127500", "111415.587500", "111416.047500", "111416.507500", "111416.967500", "111417.427500", "111417.887500", "111418.347500", "111418.807500", "111419.267500", "111419.727500", "111420.187500", "111420.647500", "111421.107500", "111421.567500", "111422.027500", "111422.487500", "111422.947500", "111423.407500", "111423.867500", "111424.327500", "111424.787500", "111425.247500", "111425.707500", "111426.167500", "111426.627500", "111427.087500", "111427.547500", "111428.007500", "111428.467500", "111428.927500", "111429.387500", "111429.847500", "111430.307500", "111430.767500", "111431.227500", "111431.687500", "111432.147500", "111432.607500", "111433.067500", "111433.527500", "111433.987500", "111434.447500", "111434.907500", "111435.367500", "111435.827500", "111436.287500", "111436.747500", "111437.207500", "111437.667500", "111438.127500", "111438.587500", "111439.047500", "111439.507500", "111439.967500", "111440.427500", "111440.887500", "111441.347500", "111441.807500", "111442.267500", "111442.727500", "111443.187500", "111443.647500", "111444.107500", "111444.567500", "111445.027500", "111445.487500", "111445.947500", "111446.407500", "111446.867500", "111447.327500", "111447.787500", "111448.247500", "111448.707500", "111449.167500", "111449.627500", "111450.087500", "111450.547500", "111451.007500", "111451.467500", "111451.927500", "111452.387500", "111452.847500", "111453.307500", "111453.767500", "111454.227500", "111454.687500", "111455.147500", "111455.607500", "111456.067500", "111456.527500", "111456.987500", "111457.447500", "111457.907500", "111458.367500", "111458.827500", "111459.287500", "111459.747500", "111500.207500", "111500.667500", "111501.127500", "111501.587500", "111502.047500", "111502.507500", "111502.967500", "111503.427500", "111503.887500", "111504.347500", "111504.807500", "111505.267500", "111505.727500", "111506.187500", "111506.647500", "111507.107500", "111507.567500", "111508.027500", "111508.487500", "111508.947500", "111509.407500", "111509.867500", "111510.327500", "111510.787500", "111511.247500", "111511.707500", "111512.167500", "111512.627500", "111513.087500", "111513.547500", "111514.007500", "111514.467500", "111514.927500", "111515.387500", "111515.847500", "111516.307500", "111516.767500", "111517.227500", "111517.687500", "111518.147500", "111518.607500", "111519.067500", "111519.527500", "111519.987500", "111520.447500", "111520.907500", "111521.367500", "111521.827500", "111522.287500", "111522.747500", "111523.207500", "111523.667500", "111524.127500", "111524.587500", "111525.047500", "111525.507500", "111525.967500", "111526.427500", "111526.887500", "111527.347500", "111527.807500", "111528.267500", "111528.727500", "111529.187500", "111529.647500", "111530.107500", "111530.567500", "111531.027500", "111531.487500", "111531.947500", "111532.407500", "111532.867500", "111533.327500", "111533.787500", "111534.247500", "111534.707500", "111535.167500", "111535.627500", "111536.087500", "111536.547500", "111537.007500", "111537.467500", "111537.927500", "111538.387500", "111538.847500", "111539.307500", "111539.767500", "111540.227500", "111540.687500", "111541.147500", "111541.607500", "111542.067500", "111542.527500", "111542.987500", "111543.447500", "111543.907500", "111544.367500", "111544.827500", "111545.287500", "111545.747500", "111546.207500", "111546.667500", "111547.127500", "111547.587500", "111548.047500", "111548.507500", "111548.967500", "111549.427500", "111549.887500", "111550.347500", "111550.807500", "111551.267500", "111551.727500", "111552.187500", "111552.647500", "111553.107500", "111553.567500", "111554.027500", "111554.487500", "111554.947500", "111555.407500", "111555.867500", "111556.327500", "111556.787500", "111557.247500", "111557.707500", "111558.167500", "111558.627500", "111559.087500", "111559.547500", "111600.007500", "111600.467500", "111600.927500", "111601.387500", "111601.847500", "111602.307500", "111602.767500", "111603.227500", "111603.687500", "111604.147500", "111604.607500", "111605.067500", "111605.527500", "111605.987500", "111606.447500", "111606.907500", "111607.367500", "111607.827500", "111608.287500", "111608.747500", "111609.207500", "111609.667500", "111610.127500", "111610.587500", "111611.047500", "111611.507500", "111611.967500", "111612.427500", "111612.887500", "111613.347500", "111613.807500", "111614.267500", "111614.727500", "111615.187500", "111615.647500", "111616.107500", "111616.567500", "111617.027500", "111617.487500", "111617.947500", "111618.407500", "111618.867500", "111619.327500", "111619.787500", "111620.247500", "111620.707500", "111621.167500", "111621.627500", "111622.087500", "111622.547500", "111623.007500", "111623.467500", "111623.927500", "111624.387500", "111624.847500", "111625.307500", "111625.767500", "111626.227500", "111626.687500", "111627.147500", "111627.607500", "111628.067500", "111628.527500", "111628.987500", "111629.447500", "111629.907500", "111630.367500", "111630.827500", "111631.287500", "111631.747500", "111632.207500", "111632.667500", "111633.127500", "111633.587500", "111634.047500", "111634.507500", "111634.967500", "111635.427500", "111635.887500", "111636.347500", "111636.807500", "111637.267500", "111637.727500", "111638.187500", "111638.647500", "111639.107500", "111639.567500", "111640.027500", "111640.487500", "111640.947500", "111641.407500", "111641.867500", "111642.327500", "111642.787500", "111643.247500", "111643.707500", "111644.167500", "111644.627500", "111645.087500", "111645.547500", "111646.007500", "111646.467500", "111646.927500", "111647.387500", "111647.847500", "111648.307500", "111648.767500", "111649.227500", "111649.687500", "111650.147500", "111650.607500", "111651.067500", "111651.527500", "111651.987500", "111652.447500", "111652.907500", "111653.367500", "111653.827500", "111654.287500", "111654.747500", "111655.207500", "111655.667500", "111656.127500", "111656.587500", "111657.047500", "111657.507500", "111657.967500", "111658.427500", "111658.887500", "111659.347500", "111659.807500", "111700.267500", "111700.727500", "111701.187500", "111701.647500", "111702.107500", "111702.567500", "111703.027500", "111703.487500", "111703.947500", "111704.407500", "111704.867500", "111705.327500", "111705.787500", "111706.247500", "111706.707500", "111707.167500", "111707.627500", "111708.087500", "111708.547500", "111709.007500", "111709.467500", "111709.927500", "111710.387500", "111710.847500", "111711.307500", "111711.767500", "111712.227500", "111712.687500", "111713.147500", "111713.607500", "111714.067500", "111714.527500", "111714.987500", "111715.447500", "111715.907500", "111716.367500", "111716.827500", "111717.287500", "111717.747500", "111718.207500", "111718.667500", "111719.127500", "111719.587500", "111720.047500", "111720.507500", "111720.967500", "111721.427500", "111721.887500", "111722.347500", "111722.807500", "111723.267500", "111723.727500", "111724.187500", "111724.647500", "111725.107500", "111725.567500", "111726.027500", "111726.487500", "111726.947500", "111727.407500", "111727.867500", "111728.327500", "111728.787500", "111729.247500", "111729.707500", "111730.167500", "111730.627500", "111731.087500", "111731.547500", "111732.007500", "111732.467500", "111732.927500", "111733.387500", "111733.847500", "111734.307500", "111734.767500", "111735.227500", "111735.687500", "111736.147500", "111736.607500", "111737.067500", "111737.527500", "111737.987500", "111738.447500", "111738.907500", "111739.367500", "111739.827500", "111740.287500", "111740.747500", "111741.207500", "111741.667500", "111742.127500", "111742.587500", "111743.047500", "111743.507500", "111743.967500", "111744.427500", "111744.887500", "111745.347500", "111745.807500", "111746.267500", "111746.727500", "111747.187500", "111747.647500", "111748.107500", "111748.567500", "111749.027500", "111749.487500", "111749.947500", "111750.407500", "111750.867500", "111751.327500", "111751.787500", "111752.247500", "111752.707500", "111753.167500", "111753.627500", "111754.087500", "111754.547500", "111755.007500", "111755.467500", "111755.927500", "111756.387500", "111756.847500", "111757.307500", "111757.767500", "111758.227500", "111758.687500", "111759.147500", "111759.607500", "111800.067500", "111800.527500", "111800.987500", "111801.447500", "111801.907500", "111802.367500", "111802.827500", "111803.287500", "111803.747500", "111804.207500", "111804.667500", "111805.127500", "111805.587500", "111806.047500", "111806.507500", "111806.967500", "111807.427500", "111807.887500", "111808.347500", "111808.807500", "111809.267500", "111809.727500", "111810.187500", "111810.647500", "111811.107500", "111811.567500", "111812.027500", "111812.487500", "111812.947500", "111813.407500", "111813.867500", "111814.327500", "111814.787500", "111815.247500", "111815.707500", "111816.167500", "111816.627500", "111817.087500", "111817.547500", "111818.007500", "111818.467500", "111818.927500", "111819.387500", "111819.847500", "111820.307500", "111820.767500", "111821.227500", "111821.687500", "111822.147500", "111822.607500", "111823.067500", "111823.527500", "111823.987500", "111824.447500", "111824.907500", "111825.367500", "111825.827500", "111826.287500", "111826.747500", "111827.207500", "111827.667500", "111828.127500", "111828.587500", "111829.047500", "111829.507500", "111829.967500", "111830.427500", "111830.887500", "111831.347500", "111831.807500", "111832.267500", "111832.727500", "111833.187500", "111833.647500", "111834.107500", "111834.567500", "111835.027500", "111835.487500", "111835.947500", "111836.407500", "111836.867500", "111837.327500", "111837.787500", "111838.247500", "111838.707500", "111839.167500", "111839.627500", "111840.087500", "111840.547500", "111841.007500", "111841.467500", "111841.927500", "111842.387500", "111842.847500", "111843.307500", "111843.767500", "111844.227500", "111844.687500", "111845.147500", "111845.607500", "111846.067500", "111846.527500", "111846.987500", "111847.447500", "111847.907500", "111848.367500", "111848.827500", "111849.287500", "111849.747500", "111850.207500", "111850.667500", "111851.127500", "111851.587500", "111852.047500", "111852.507500", "111852.967500", "111853.427500", "111853.887500", "111854.347500", "111854.807500", "111855.267500", "111855.727500", "111856.187500", "111856.647500", "111857.107500", "111857.567500", "111858.027500", "111858.487500", "111858.947500", "111859.407500", "111859.867500", "111900.327500", "111900.787500", "111901.247500", "111901.707500", "111902.167500", "111902.627500", "111903.087500", "111903.547500", "111904.007500", "111904.467500", "111904.927500", "111905.387500", "111905.847500", "111906.307500", "111906.767500", "111907.227500", "111907.687500", "111908.147500", "111908.607500", "111909.067500", "111909.527500", "111909.987500", "111910.447500", "111910.907500", "111911.367500", "111911.827500", "111912.287500", "111912.747500", "111913.207500", "111913.667500", "111914.127500", "111914.587500", "111915.047500", "111915.507500", "111915.967500", "111916.427500", "111916.887500", "111917.347500", "111917.807500", "111918.267500", "111918.727500", "111919.187500", "111919.647500", "111920.107500", "111920.567500", "111921.027500", "111921.487500", "111921.947500", "111922.407500", "111922.867500", "111923.327500", "111923.787500", "111924.247500", "111924.707500", "111925.167500", "111925.627500", "111926.087500"],
