{
  "AcquisitionMatrixPE": 82,
  "AcquisitionNumber": 1,
  "AcquisitionTime": "11:05:12.490000",
  "BandwidthPerPixelPhaseEncode": 24.888,
  "BaseResolution": 82,
  "BodyPartExamined": "BRAIN",
  "ConsistencyInfo": "N4_VE11C_LATEST_20160120",
  "ConversionSoftware": "dcm2niix",
  "ConversionSoftwareVersion": "v1.0.20201102",
  "DerivedVendorReportedEchoSpacing": 0.00049,
  "DeviceSerialNumber": "66112",
  "DwellTime": 2e-06,
  "EchoTime": 0.0272,
  "EchoTrainLength": 82,
  "EffectiveEchoSpacing": 0.00049,
  "FlipAngle": 44,
  "ImageComments": "Unaliased MB8/PE3",
  "ImageOrientationPatientDICOM": [0.998818, 0.0175943, 0.0453215, -0.0118548, 0.99222, -0.123929],
  "ImageType": [
    "ORIGINAL",
    "PRIMARY",
    "M",
    "MB",
    "ND",
    "NORM",
    "MOSAIC"
],
  "ImagingFrequency": 123.252,
  "InPlanePhaseEncodingDirectionDICOM": "COL",
  "InstitutionAddress": "Maynard 3,Hanover,NH,US,03755",
  "InstitutionName": "Dartmouth College - PBS",
  "InstitutionalDepartmentName": "Department",
  "MRAcquisitionType": "2D",
  "MagneticFieldStrength": 3,
  "Manufacturer": "Siemens",
  "ManufacturersModelName": "Prisma",
  "Modality": "MR",
  "MultibandAccelerationFactor": 8,
  "PartialFourier": 1,
  "PatientPosition": "HFS",
  "PercentPhaseFOV": 100,
  "PercentSampling": 100,
  "PhaseEncodingDirection": "j-",
  "PhaseEncodingSteps": 82,
  "PhaseResolution": 1,
  "PixelBandwidth": 3050,
  "ProcedureStepDescription": "Wager_Wager^1076_spacetop",
  "ProtocolName": "func_run-01_task-social_acq-ap-mb8",
  "PulseSequenceDetails": "%CustomerSeq%\\cmrr_mbep2d_bold",
  "ReceiveCoilActiveElements": "HEA;HEP",
  "ReceiveCoilName": "Head_32",
  "ReconMatrixPE": 82,
  "RepetitionTime": 0.46,
  "SAR": 0.837798,
  "ScanOptions": "FS",
  "ScanningSequence": "EP",
  "SequenceName": "epfid2d1_82",
  "SequenceVariant": "SK\\SS",
  "SeriesDescription": "func_run-01_task-social_acq-ap-mb8",
  "SeriesNumber": 8,
  "ShimSetting": [4156, -7727, -7249, 401, -33, -43, -31, 99],
  "SliceThickness": 2.7,
  "SliceTiming": [0, 0.25, 0.0625, 0.3125, 0.125, 0.3775, 0.1875, 0, 0.25, 0.0625, 0.3125, 0.125, 0.3775, 0.1875, 0, 0.25, 0.0625, 0.3125, 0.125, 0.3775, 0.1875, 0, 0.25, 0.0625, 0.3125, 0.125, 0.3775, 0.1875, 0, 0.25, 0.0625, 0.3125, 0.125, 0.3775, 0.1875, 0, 0.25, 0.0625, 0.3125, 0.125, 0.3775, 0.1875, 0, 0.25, 0.0625, 0.3125, 0.125, 0.3775, 0.1875, 0, 0.25, 0.0625, 0.3125, 0.125, 0.3775, 0.1875],
  "SoftwareVersions": "syngo MR E11",
  "SpacingBetweenSlices": 2.7,
  "StationName": "AWP66112",
  "TaskName": "social",
  "TotalReadoutTime": 0.03969,
  "TxRefAmp": 287.891,
  "WipMemBlock": "27041956-39bc-4d8d-bd62-341b5da4eab9||Sequence: R016 ve11c/master r/e634e98; Dec 19 2017 11:00:25 by eja",
  "dcmmeta_affine": [
    [-2.6797542572021484, -0.03180546313524246, 0.1273033618927002, 109.80828094482422],
    [-0.04720412939786911, 2.6620545387268066, -0.33276134729385376, -81.04300689697266],
    [0.1215943992137909, 0.33249181509017944, 2.6763901710510254, -82.84429168701172],
    [0.0, 0.0, 0.0, 1.0]
],
  "dcmmeta_reorient_transform": [
    [0.0, -1.0, 0.0, 81.0],
    [1.0, 0.0, 0.0, 0.0],
    [0.0, 0.0, 1.0, 0.0],
    [0.0, 0.0, 0.0, 1.0]
],
  "dcmmeta_shape": [82, 82, 56, 872],
  "dcmmeta_slice_dim": 2,
  "dcmmeta_version": 0.6,
  "global": {
    "const": {
      "AccessionNumber": "A003840",
      "AcquisitionMatrix": [82, 0, 0, 82],
      "AngioFlag": "N",
      "BitsAllocated": 16,
      "BitsStored": 16,
      "BodyPartExamined": "BRAIN",
      "Columns": 656,
      "EchoNumbers": 1,
      "EchoTime": 27.2,
      "EchoTrainLength": 82,
      "FlipAngle": 44.0,
      "HighBit": 15,
      "ImageOrientationPatient": [0.99881750046179, 0.01759426637765, 0.04532154633167, -0.0118547631698, 0.99222030077929, -0.1239287670868],
      "ImagePositionPatient": [-867.19336090144, -912.14064544538, 4.6151060358008],
      "ImageType": [
        "ORIGINAL",
        "PRIMARY",
        "M",
        "MB",
        "ND",
        "NORM",
        "MOSAIC"
],
      "ImagedNucleus": "1H",
      "ImagingFrequency": 123.252176,
      "InPlanePhaseEncodingDirection": "COL",
      "MRAcquisitionType": "2D",
      "MagneticFieldStrength": 3.0,
      "Manufacturer": "SIEMENS",
      "ManufacturerModelName": "Prisma",
      "Modality": "MR",
      "NumberOfAverages": 1.0,
      "NumberOfPhaseEncodingSteps": 82,
      "PercentPhaseFieldOfView": 100.0,
      "PercentSampling": 100.0,
      "PerformedProcedureStepStartTime": "105241.096000",
      "PhotometricInterpretation": "MONOCHROME2",
      "PixelBandwidth": 3050.0,
      "PixelRepresentation": 0,
      "PixelSpacing": [2.6829268932343, 2.6829268932343],
      "ProtocolName": "func_run-01_task-social_acq-ap-mb8",
      "RepetitionTime": 460.0,
      "Rows": 656,
      "SAR": 0.83779807595245,
      "SamplesPerPixel": 1,
      "ScanOptions": "FS",
      "ScanningSequence": "EP",
      "SequenceName": "epfid2d1_82",
      "SequenceVariant": [
        "SK",
        "SS"
],
      "SeriesDescription": "func_run-01_task-social_acq-ap-mb8",
      "SeriesNumber": 8,
      "SeriesTime": "110535.638000",
      "SliceLocation": -66.954332737986,
      "SliceThickness": 2.7000000476837,
      "SmallestImagePixelValue": 0,
      "SoftwareVersions": "syngo MR E11",
      "SpacingBetweenSlices": 2.7000000191405,
      "SpecificCharacterSet": "ISO_IR 100",
      "StudyID": "1",
      "StudyTime": "105241.022000",
      "TransmitCoilName": "Body",
      "VariableFlipAngleFlag": "N",
      "WindowCenterWidthExplanation": "Algo1",
      "dBdt": 0.0},
    "slices": {}
  },
  "time": {
    "samples": {
      "AcquisitionNumber": [1, 2, 3, 4, 5, 6, 7, 8, 9, 10, 11, 12, 13, 14, 15, 16, 17, 18, 19, 20, 21, 22, 23, 24, 25, 26, 27, 28, 29, 30, 31, 32, 33, 34, 35, 36, 37, 38, 39, 40, 41, 42, 43, 44, 45, 46, 47, 48, 49, 50, 51, 52, 53, 54, 55, 56, 57, 58, 59, 60, 61, 62, 63, 64, 65, 66, 67, 68, 69, 70, 71, 72, 73, 74, 75, 76, 77, 78, 79, 80, 81, 82, 83, 84, 85, 86, 87, 88, 89, 90, 91, 92, 93, 94, 95, 96, 97, 98, 99, 100, 101, 102, 103, 104, 105, 106, 107, 108, 109, 110, 111, 112, 113, 114, 115, 116, 117, 118, 119, 120, 121, 122, 123, 124, 125, 126, 127, 128, 129, 130, 131, 132, 133, 134, 135, 136, 137, 138, 139, 140, 141, 142, 143, 144, 145, 146, 147, 148, 149, 150, 151, 152, 153, 154, 155, 156, 157, 158, 159, 160, 161, 162, 163, 164, 165, 166, 167, 168, 169, 170, 171, 172, 173, 174, 175, 176, 177, 178, 179, 180, 181, 182, 183, 184, 185, 186, 187, 188, 189, 190, 191, 192, 193, 194, 195, 196, 197, 198, 199, 200, 201, 202, 203, 204, 205, 206, 207, 208, 209, 210, 211, 212, 213, 214, 215, 216, 217, 218, 219, 220, 221, 222, 223, 224, 225, 226, 227, 228, 229, 230, 231, 232, 233, 234, 235, 236, 237, 238, 239, 240, 241, 242, 243, 244, 245, 246, 247, 248, 249, 250, 251, 252, 253, 254, 255, 256, 257, 258, 259, 260, 261, 262, 263, 264, 265, 266, 267, 268, 269, 270, 271, 272, 273, 274, 275, 276, 277, 278, 279, 280, 281, 282, 283, 284, 285, 286, 287, 288, 289, 290, 291, 292, 293, 294, 295, 296, 297, 298, 299, 300, 301, 302, 303, 304, 305, 306, 307, 308, 309, 310, 311, 312, 313, 314, 315, 316, 317, 318, 319, 320, 321, 322, 323, 324, 325, 326, 327, 328, 329, 330, 331, 332, 333, 334, 335, 336, 337, 338, 339, 340, 341, 342, 343, 344, 345, 346, 347, 348, 349, 350, 351, 352, 353, 354, 355, 356, 357, 358, 359, 360, 361, 362, 363, 364, 365, 366, 367, 368, 369, 370, 371, 372, 373, 374, 375, 376, 377, 378, 379, 380, 381, 382, 383, 384, 385, 386, 387, 388, 389, 390, 391, 392, 393, 394, 395, 396, 397, 398, 399, 400, 401, 402, 403, 404, 405, 406, 407, 408, 409, 410, 411, 412, 413, 414, 415, 416, 417, 418, 419, 420, 421, 422, 423, 424, 425, 426, 427, 428, 429, 430, 431, 432, 433, 434, 435, 436, 437, 438, 439, 440, 441, 442, 443, 444, 445, 446, 447, 448, 449, 450, 451, 452, 453, 454, 455, 456, 457, 458, 459, 460, 461, 462, 463, 464, 465, 466, 467, 468, 469, 470, 471, 472, 473, 474, 475, 476, 477, 478, 479, 480, 481, 482, 483, 484, 485, 486, 487, 488, 489, 490, 491, 492, 493, 494, 495, 496, 497, 498, 499, 500, 501, 502, 503, 504, 505, 506, 507, 508, 509, 510, 511, 512, 513, 514, 515, 516, 517, 518, 519, 520, 521, 522, 523, 524, 525, 526, 527, 528, 529, 530, 531, 532, 533, 534, 535, 536, 537, 538, 539, 540, 541, 542, 543, 544, 545, 546, 547, 548, 549, 550, 551, 552, 553, 554, 555, 556, 557, 558, 559, 560, 561, 562, 563, 564, 565, 566, 567, 568, 569, 570, 571, 572, 573, 574, 575, 576, 577, 578, 579, 580, 581, 582, 583, 584, 585, 586, 587, 588, 589, 590, 591, 592, 593, 594, 595, 596, 597, 598, 599, 600, 601, 602, 603, 604, 605, 606, 607, 608, 609, 610, 611, 612, 613, 614, 615, 616, 617, 618, 619, 620, 621, 622, 623, 624, 625, 626, 627, 628, 629, 630, 631, 632, 633, 634, 635, 636, 637, 638, 639, 640, 641, 642, 643, 644, 645, 646, 647, 648, 649, 650, 651, 652, 653, 654, 655, 656, 657, 658, 659, 660, 661, 662, 663, 664, 665, 666, 667, 668, 669, 670, 671, 672, 673, 674, 675, 676, 677, 678, 679, 680, 681, 682, 683, 684, 685, 686, 687, 688, 689, 690, 691, 692, 693, 694, 695, 696, 697, 698, 699, 700, 701, 702, 703, 704, 705, 706, 707, 708, 709, 710, 711, 712, 713, 714, 715, 716, 717, 718, 719, 720, 721, 722, 723, 724, 725, 726, 727, 728, 729, 730, 731, 732, 733, 734, 735, 736, 737, 738, 739, 740, 741, 742, 743, 744, 745, 746, 747, 748, 749, 750, 751, 752, 753, 754, 755, 756, 757, 758, 759, 760, 761, 762, 763, 764, 765, 766, 767, 768, 769, 770, 771, 772, 773, 774, 775, 776, 777, 778, 779, 780, 781, 782, 783, 784, 785, 786, 787, 788, 789, 790, 791, 792, 793, 794, 795, 796, 797, 798, 799, 800, 801, 802, 803, 804, 805, 806, 807, 808, 809, 810, 811, 812, 813, 814, 815, 816, 817, 818, 819, 820, 821, 822, 823, 824, 825, 826, 827, 828, 829, 830, 831, 832, 833, 834, 835, 836, 837, 838, 839, 840, 841, 842, 843, 844, 845, 846, 847, 848, 849, 850, 851, 852, 853, 854, 855, 856, 857, 858, 859, 860, 861, 862, 863, 864, 865, 866, 867, 868, 869, 870, 871, 872],
      "AcquisitionTime": ["110512.490000", "110512.950000", "110513.410000", "110513.870000", "110514.330000", "110514.790000", "110515.250000", "110515.710000", "110516.170000", "110516.630000", "110517.090000", "110517.550000", "110518.010000", "110518.470000", "110518.930000", "110519.390000", "110519.850000", "110520.310000", "110520.770000", "110521.230000", "110521.690000", "110522.150000", "110522.610000", "110523.070000", "110523.530000", "110523.990000", "110524.450000", "110524.910000", "110525.370000", "110525.830000", "110526.290000", "110526.750000", "110527.210000", "110527.670000", "110528.130000", "110528.590000", "110529.050000", "110529.510000", "110529.970000", "110530.430000", "110530.890000", "110531.350000", "110531.810000", "110532.270000", "110532.730000", "110533.190000", "110533.650000", "110534.110000", "110534.570000", "110535.030000", "110535.490000", "110535.950000", "110536.410000", "110536.870000", "110537.330000", "110537.790000", "110538.250000", "110538.710000", "110539.170000", "110539.630000", "110540.090000", "110540.550000", "110541.010000", "110541.470000", "110541.930000", "110542.390000", "110542.850000", "110543.310000", "110543.770000", "110544.230000", "110544.690000", "110545.150000", "110545.610000", "110546.070000", "110546.530000", "110546.990000", "110547.450000", "110547.910000", "110548.370000", "110548.830000", "110549.290000", "110549.750000", "110550.210000", "110550.670000", "110551.130000", "110551.590000", "110552.050000", "110552.510000", "110552.970000", "110553.430000", "110553.890000", "110554.350000", "110554.810000", "110555.270000", "110555.730000", "110556.190000", "110556.650000", "110557.110000", "110557.570000", "110558.030000", "110558.490000", "110558.950000", "110559.410000", "110559.870000", "110600.330000", "110600.790000", "110601.250000", "110601.710000", "110602.170000", "110602.630000", "110603.090000", "110603.550000", "110604.010000", "110604.470000", "110604.930000", "110605.390000", "110605.850000", "110606.310000", "110606.770000", "110607.230000", "110607.690000", "110608.150000", "110608.610000", "110609.070000", "110609.530000", "110609.990000", "110610.450000", "110610.910000", "110611.370000", "110611.830000", "110612.290000", "110612.750000", "110613.210000", "110613.670000", "110614.130000", "110614.590000", "110615.050000", "110615.510000", "110615.970000", "110616.430000", "110616.890000", "110617.350000", "110617.810000", "110618.270000", "110618.730000", "110619.190000", "110619.650000", "110620.110000", "110620.570000", "110621.030000", "110621.490000", "110621.950000", "110622.410000", "110622.870000", "110623.330000", "110623.790000", "110624.250000", "110624.710000", "110625.170000", "110625.630000", "110626.090000", "110626.550000", "110627.010000", "110627.470000", "110627.930000", "110628.390000", "110628.850000", "110629.310000", "110629.770000", "110630.230000", "110630.690000", "110631.150000", "110631.610000", "110632.070000", "110632.530000", "110632.990000", "110633.450000", "110633.910000", "110634.370000", "110634.830000", "110635.290000", "110635.750000", "110636.210000", "110636.670000", "110637.130000", "110637.590000", "110638.050000", "110638.510000", "110638.970000", "110639.430000", "110639.890000", "110640.350000", "110640.810000", "110641.270000", "110641.730000", "110642.190000", "110642.650000", "110643.110000", "110643.570000", "110644.030000", "110644.490000", "110644.950000", "110645.410000", "110645.870000", "110646.330000", "110646.790000", "110647.250000", "110647.710000", "110648.170000", "110648.630000", "110649.090000", "110649.550000", "110650.010000", "110650.470000", "110650.930000", "110651.390000", "110651.850000", "110652.310000", "110652.770000", "110653.230000", "110653.690000", "110654.150000", "110654.610000", "110655.070000", "110655.530000", "110655.990000", "110656.450000", "110656.910000", "110657.370000", "110657.830000", "110658.290000", "110658.750000", "110659.210000", "110659.670000", "110700.130000", "110700.590000", "110701.050000", "110701.510000", "110701.970000", "110702.430000", "110702.890000", "110703.350000", "110703.810000", "110704.270000", "110704.730000", "110705.190000", "110705.650000", "110706.110000", "110706.570000", "110707.030000", "110707.490000", "110707.950000", "110708.410000", "110708.870000", "110709.330000", "110709.790000", "110710.250000", "110710.710000", "110711.170000", "110711.630000", "110712.090000", "110712.550000", "110713.010000", "110713.470000", "110713.930000", "110714.390000", "110714.850000", "110715.310000", "110715.770000", "110716.230000", "110716.690000", "110717.150000", "110717.610000", "110718.070000", "110718.530000", "110718.990000", "110719.450000", "110719.910000", "110720.370000", "110720.830000", "110721.290000", "110721.750000", "110722.210000", "110722.670000", "110723.130000", "110723.590000", "110724.050000", "110724.510000", "110724.970000", "110725.430000", "110725.890000", "110726.350000", "110726.810000", "110727.270000", "110727.730000", "110728.190000", "110728.650000", "110729.110000", "110729.570000", "110730.030000", "110730.490000", "110730.950000", "110731.410000", "110731.870000", "110732.330000", "110732.790000", "110733.250000", "110733.710000", "110734.170000", "110734.630000", "110735.090000", "110735.550000", "110736.010000", "110736.470000", "110736.930000", "110737.390000", "110737.850000", "110738.310000", "110738.770000", "110739.230000", "110739.690000", "110740.150000", "110740.610000", "110741.070000", "110741.530000", "110741.990000", "110742.450000", "110742.910000", "110743.370000", "110743.830000", "110744.290000", "110744.750000", "110745.210000", "110745.670000", "110746.130000", "110746.590000", "110747.050000", "110747.510000", "110747.970000", "110748.430000", "110748.890000", "110749.350000", "110749.810000", "110750.270000", "110750.730000", "110751.190000", "110751.650000", "110752.110000", "110752.570000", "110753.030000", "110753.490000", "110753.950000", "110754.410000", "110754.870000", "110755.330000", "110755.790000", "110756.250000", "110756.710000", "110757.170000", "110757.630000", "110758.090000", "110758.550000", "110759.010000", "110759.470000", "110759.930000", "110800.390000", "110800.850000", "110801.310000", "110801.770000", "110802.230000", "110802.690000", "110803.150000", "110803.610000", "110804.070000", "110804.530000", "110804.990000", "110805.450000", "110805.910000", "110806.370000", "110806.830000", "110807.290000", "110807.750000", "110808.210000", "110808.670000", "110809.130000", "110809.590000", "110810.050000", "110810.510000", "110810.970000", "110811.430000", "110811.890000", "110812.350000", "110812.810000", "110813.270000", "110813.730000", "110814.190000", "110814.650000", "110815.110000", "110815.570000", "110816.030000", "110816.490000", "110816.950000", "110817.410000", "110817.870000", "110818.330000", "110818.790000", "110819.250000", "110819.710000", "110820.170000", "110820.630000", "110821.090000", "110821.550000", "110822.010000", "110822.470000", "110822.930000", "110823.390000", "110823.850000", "110824.310000", "110824.770000", "110825.230000", "110825.690000", "110826.150000", "110826.610000", "110827.070000", "110827.530000", "110827.990000", "110828.450000", "110828.910000", "110829.370000", "110829.830000", "110830.290000", "110830.750000", "110831.210000", "110831.670000", "110832.130000", "110832.590000", "110833.050000", "110833.510000", "110833.970000", "110834.430000", "110834.890000", "110835.350000", "110835.810000", "110836.270000", "110836.730000", "110837.190000", "110837.650000", "110838.110000", "110838.570000", "110839.030000", "110839.490000", "110839.950000", "110840.410000", "110840.870000", "110841.330000", "110841.790000", "110842.250000", "110842.710000", "110843.170000", "110843.630000", "110844.090000", "110844.550000", "110845.010000", "110845.470000", "110845.930000", "110846.390000", "110846.850000", "110847.310000", "110847.770000", "110848.230000", "110848.690000", "110849.150000", "110849.610000", "110850.070000", "110850.530000", "110850.990000", "110851.450000", "110851.910000", "110852.370000", "110852.830000", "110853.290000", "110853.750000", "110854.210000", "110854.670000", "110855.130000", "110855.590000", "110856.050000", "110856.510000", "110856.970000", "110857.430000", "110857.890000", "110858.350000", "110858.810000", "110859.270000", "110859.730000", "110900.190000", "110900.650000", "110901.110000", "110901.570000", "110902.030000", "110902.490000", "110902.950000", "110903.410000", "110903.870000", "110904.330000", "110904.790000", "110905.250000", "110905.710000", "110906.170000", "110906.630000", "110907.090000", "110907.550000", "110908.010000", "110908.470000", "110908.930000", "110909.390000", "110909.850000", "110910.310000", "110910.770000", "110911.230000", "110911.690000", "110912.150000", "110912.610000", "110913.070000", "110913.530000", "110913.990000", "110914.450000", "110914.910000", "110915.370000", "110915.830000", "110916.290000", "110916.750000", "110917.210000", "110917.670000", "110918.130000", "110918.590000", "110919.050000", "110919.510000", "110919.970000", "110920.430000", "110920.890000", "110921.350000", "110921.810000", "110922.270000", "110922.730000", "110923.190000", "110923.650000", "110924.110000", "110924.570000", "110925.030000", "110925.490000", "110925.950000", "110926.410000", "110926.870000", "110927.330000", "110927.790000", "110928.250000", "110928.710000", "110929.170000", "110929.630000", "110930.090000", "110930.550000", "110931.010000", "110931.470000", "110931.930000", "110932.390000", "110932.850000", "110933.310000", "110933.770000", "110934.230000", "110934.690000", "110935.150000", "110935.610000", "110936.070000", "110936.530000", "110936.990000", "110937.450000", "110937.910000", "110938.370000", "110938.830000", "110939.290000", "110939.750000", "110940.210000", "110940.670000", "110941.130000", "110941.590000", "110942.050000", "110942.510000", "110942.970000", "110943.430000", "110943.890000", "110944.350000", "110944.810000", "110945.270000", "110945.730000", "110946.190000", "110946.650000", "110947.110000", "110947.570000", "110948.030000", "110948.490000", "110948.950000", "110949.410000", "110949.870000", "110950.330000", "110950.790000", "110951.250000", "110951.710000", "110952.170000", "110952.630000", "110953.090000", "110953.550000", "110954.010000", "110954.470000", "110954.930000", "110955.390000", "110955.850000", "110956.310000", "110956.770000", "110957.230000", "110957.690000", "110958.150000", "110958.610000", "110959.070000", "110959.530000", "110959.990000", "111000.450000", "111000.910000", "111001.370000", "111001.830000", "111002.290000", "111002.750000", "111003.210000", "111003.670000", "111004.130000", "111004.590000", "111005.050000", "111005.510000", "111005.970000", "111006.430000", "111006.890000", "111007.350000", "111007.810000", "111008.270000", "111008.730000", "111009.190000", "111009.650000", "111010.110000", "111010.570000", "111011.030000", "111011.490000", "111011.950000", "111012.410000", "111012.870000", "111013.330000", "111013.790000", "111014.250000", "111014.710000", "111015.170000", "111015.630000", "111016.090000", "111016.550000", "111017.010000", "111017.470000", "111017.930000", "111018.390000", "111018.850000", "111019.310000", "111019.770000", "111020.230000", "111020.690000", "111021.150000", "111021.610000", "111022.070000", "111022.530000", "111022.990000", "111023.450000", "111023.910000", "111024.370000", "111024.830000", "111025.290000", "111025.750000", "111026.210000", "111026.670000", "111027.130000", "111027.590000", "111028.050000", "111028.510000", "111028.970000", "111029.430000", "111029.890000", "111030.350000", "111030.810000", "111031.270000", "111031.730000", "111032.190000", "111032.650000", "111033.110000", "111033.570000", "111034.030000", "111034.490000", "111034.950000", "111035.410000", "111035.870000", "111036.330000", "111036.790000", "111037.250000", "111037.710000", "111038.170000", "111038.630000", "111039.090000", "111039.550000", "111040.010000", "111040.470000", "111040.930000", "111041.390000", "111041.850000", "111042.310000", "111042.770000", "111043.230000", "111043.690000", "111044.150000", "111044.610000", "111045.070000", "111045.530000", "111045.990000", "111046.450000", "111046.910000", "111047.370000", "111047.830000", "111048.290000", "111048.750000", "111049.210000", "111049.670000", "111050.130000", "111050.590000", "111051.050000", "111051.510000", "111051.970000", "111052.430000", "111052.890000", "111053.350000", "111053.810000", "111054.270000", "111054.730000", "111055.190000", "111055.650000", "111056.110000", "111056.570000", "111057.030000", "111057.490000", "111057.950000", "111058.410000", "111058.870000", "111059.330000", "111059.790000", "111100.250000", "111100.710000", "111101.170000", "111101.630000", "111102.090000", "111102.550000", "111103.010000", "111103.470000", "111103.930000", "111104.390000", "111104.850000", "111105.310000", "111105.770000", "111106.230000", "111106.690000", "111107.150000", "111107.610000", "111108.070000", "111108.530000", "111108.990000", "111109.450000", "111109.910000", "111110.370000", "111110.830000", "111111.290000", "111111.750000", "111112.210000", "111112.670000", "111113.130000", "111113.590000", "111114.050000", "111114.510000", "111114.970000", "111115.430000", "111115.890000", "111116.350000", "111116.810000", "111117.270000", "111117.730000", "111118.190000", "111118.650000", "111119.110000", "111119.570000", "111120.030000", "111120.490000", "111120.950000", "111121.410000", "111121.870000", "111122.330000", "111122.790000", "111123.250000", "111123.710000", "111124.170000", "111124.630000", "111125.090000", "111125.550000", "111126.010000", "111126.470000", "111126.930000", "111127.390000", "111127.850000", "111128.310000", "111128.770000", "111129.230000", "111129.690000", "111130.150000", "111130.610000", "111131.070000", "111131.530000", "111131.990000", "111132.450000", "111132.910000", "111133.370000", "111133.830000", "111134.290000", "111134.750000", "111135.210000", "111135.670000", "111136.130000", "111136.590000", "111137.050000", "111137.510000", "111137.970000", "111138.430000", "111138.890000", "111139.350000", "111139.810000", "111140.270000", "111140.730000", "111141.190000", "111141.650000", "111142.110000", "111142.570000", "111143.030000", "111143.490000", "111143.950000", "111144.410000", "111144.870000", "111145.330000", "111145.790000", "111146.250000", "111146.710000", "111147.170000", "111147.630000", "111148.090000", "111148.550000", "111149.010000", "111149.470000", "111149.930000", "111150.390000", "111150.850000", "111151.310000", "111151.770000", "111152.230000", "111152.690000", "111153.150000"],
