{
  "AcquisitionMatrixPE": 82,
  "AcquisitionNumber": 1,
  "AcquisitionTime": "11:19:44.670000",
  "BandwidthPerPixelPhaseEncode": 24.888,
  "BaseResolution": 82,
  "BodyPartExamined": "BRAIN",
  "ConsistencyInfo": "N4_VE11C_LATEST_20160120",
  "ConversionSoftware": "dcm2niix",
  "ConversionSoftwareVersion": "v1.0.20201102",
  "DerivedVendorReportedEchoSpacing": 0.00049,
  "DeviceSerialNumber": "66112",
  "DwellTime": 2e-06,
  "EchoTime": 0.0272,
  "EchoTrainLength": 82,
  "EffectiveEchoSpacing": 0.00049,
  "FlipAngle": 44,
  "ImageComments": "Unaliased MB8/PE3",
  "ImageOrientationPatientDICOM": [0.998818, 0.0175943, 0.0453215, -0.0118548, 0.99222, -0.123929],
  "ImageType": [
    "ORIGINAL",
    "PRIMARY",
    "M",
    "MB",
    "ND",
    "NORM",
    "MOSAIC"
],
  "ImagingFrequency": 123.252,
  "InPlanePhaseEncodingDirectionDICOM": "COL",
  "InstitutionAddress": "Maynard 3,Hanover,NH,US,03755",
  "InstitutionName": "Dartmouth College - PBS",
  "InstitutionalDepartmentName": "Department",
  "MRAcquisitionType": "2D",
  "MagneticFieldStrength": 3,
  "Manufacturer": "Siemens",
  "ManufacturersModelName": "Prisma",
  "Modality": "MR",
  "MultibandAccelerationFactor": 8,
  "PartialFourier": 1,
  "PatientPosition": "HFS",
  "PercentPhaseFOV": 100,
  "PercentSampling": 100,
  "PhaseEncodingDirection": "j-",
  "PhaseEncodingSteps": 82,
  "PhaseResolution": 1,
  "PixelBandwidth": 3050,
  "ProcedureStepDescription": "Wager_Wager^1076_spacetop",
  "ProtocolName": "func_run-03_task-social_acq-ap-mb8",
  "PulseSequenceDetails": "%CustomerSeq%\\cmrr_mbep2d_bold",
  "ReceiveCoilActiveElements": "HEA;HEP",
  "ReceiveCoilName": "Head_32",
  "ReconMatrixPE": 82,
  "RepetitionTime": 0.46,
  "SAR": 0.837798,
  "ScanOptions": "FS",
  "ScanningSequence": "EP",
  "SequenceName": "epfid2d1_82",
  "SequenceVariant": "SK\\SS",
  "SeriesDescription": "func_run-03_task-social_acq-ap-mb8",
  "SeriesNumber": 12,
  "ShimSetting": [4156, -7727, -7249, 401, -33, -43, -31, 99],
  "SliceThickness": 2.7,
  "SliceTiming": [0, 0.2525, 0.0625, 0.315, 0.1275, 0.3775, 0.19, 0, 0.2525, 0.0625, 0.315, 0.1275, 0.3775, 0.19, 0, 0.2525, 0.0625, 0.315, 0.1275, 0.3775, 0.19, 0, 0.2525, 0.0625, 0.315, 0.1275, 0.3775, 0.19, 0, 0.2525, 0.0625, 0.315, 0.1275, 0.3775, 0.19, 0, 0.2525, 0.0625, 0.315, 0.1275, 0.3775, 0.19, 0, 0.2525, 0.0625, 0.315, 0.1275, 0.3775, 0.19, 0, 0.2525, 0.0625, 0.315, 0.1275, 0.3775, 0.19],
  "SoftwareVersions": "syngo MR E11",
  "SpacingBetweenSlices": 2.7,
  "StationName": "AWP66112",
  "TaskName": "social",
  "TotalReadoutTime": 0.03969,
  "TxRefAmp": 287.891,
  "WipMemBlock": "971dedf6-e91c-4d33-8068-a155af16a657||Sequence: R016 ve11c/master r/e634e98; Dec 19 2017 11:00:25 by eja",
  "dcmmeta_affine": [
    [-2.6797542572021484, -0.03180546313524246, 0.1273033618927002, 109.80828094482422],
    [-0.04720412939786911, 2.6620545387268066, -0.33276134729385376, -81.04300689697266],
    [0.1215943992137909, 0.33249181509017944, 2.6763901710510254, -82.84429168701172],
    [0.0, 0.0, 0.0, 1.0]
],
  "dcmmeta_reorient_transform": [
    [0.0, -1.0, 0.0, 81.0],
    [1.0, 0.0, 0.0, 0.0],
    [0.0, 0.0, 1.0, 0.0],
    [0.0, 0.0, 0.0, 1.0]
],
  "dcmmeta_shape": [82, 82, 56, 872],
  "dcmmeta_slice_dim": 2,
  "dcmmeta_version": 0.6,
  "global": {
    "const": {
      "AccessionNumber": "A003840",
      "AcquisitionMatrix": [82, 0, 0, 82],
      "AngioFlag": "N",
      "BitsAllocated": 16,
      "BitsStored": 16,
      "BodyPartExamined": "BRAIN",
      "Columns": 656,
      "EchoNumbers": 1,
      "EchoTime": 27.2,
      "EchoTrainLength": 82,
      "FlipAngle": 44.0,
      "HighBit": 15,
      "ImageOrientationPatient": [0.99881750046179, 0.01759426637765, 0.04532154633167, -0.0118547631698, 0.99222030077929, -0.1239287670868],
      "ImagePositionPatient": [-867.19336090144, -912.14064544538, 4.6151060358008],
      "ImageType": [
        "ORIGINAL",
        "PRIMARY",
        "M",
        "MB",
        "ND",
        "NORM",
        "MOSAIC"
],
      "ImagedNucleus": "1H",
      "ImagingFrequency": 123.252183,
      "InPlanePhaseEncodingDirection": "COL",
      "MRAcquisitionType": "2D",
      "MagneticFieldStrength": 3.0,
      "Manufacturer": "SIEMENS",
      "ManufacturerModelName": "Prisma",
      "Modality": "MR",
      "NumberOfAverages": 1.0,
      "NumberOfPhaseEncodingSteps": 82,
      "PercentPhaseFieldOfView": 100.0,
      "PercentSampling": 100.0,
      "PerformedProcedureStepStartTime": "105241.096000",
      "PhotometricInterpretation": "MONOCHROME2",
      "PixelBandwidth": 3050.0,
      "PixelRepresentation": 0,
      "PixelSpacing": [2.6829268932343, 2.6829268932343],
      "ProtocolName": "func_run-03_task-social_acq-ap-mb8",
      "RepetitionTime": 460.0,
      "Rows": 656,
      "SAR": 0.83779807595245,
      "SamplesPerPixel": 1,
      "ScanOptions": "FS",
      "ScanningSequence": "EP",
      "SequenceName": "epfid2d1_82",
      "SequenceVariant": [
        "SK",
        "SS"
],
      "SeriesDescription": "func_run-03_task-social_acq-ap-mb8",
      "SeriesNumber": 12,
      "SeriesTime": "111955.776000",
      "SliceLocation": -66.954332737986,
      "SliceThickness": 2.7000000476837,
      "SmallestImagePixelValue": 0,
      "SoftwareVersions": "syngo MR E11",
      "SpacingBetweenSlices": 2.7000000191405,
      "SpecificCharacterSet": "ISO_IR 100",
      "StudyID": "1",
      "StudyTime": "105241.022000",
      "TransmitCoilName": "Body",
      "VariableFlipAngleFlag": "N",
      "WindowCenterWidthExplanation": "Algo1",
      "dBdt": 0.0},
    "slices": {}
  },
  "time": {
    "samples": {
      "AcquisitionNumber": [1, 2, 3, 4, 5, 6, 7, 8, 9, 10, 11, 12, 13, 14, 15, 16, 17, 18, 19, 20, 21, 22, 23, 24, 25, 26, 27, 28, 29, 30, 31, 32, 33, 34, 35, 36, 37, 38, 39, 40, 41, 42, 43, 44, 45, 46, 47, 48, 49, 50, 51, 52, 53, 54, 55, 56, 57, 58, 59, 60, 61, 62, 63, 64, 65, 66, 67, 68, 69, 70, 71, 72, 73, 74, 75, 76, 77, 78, 79, 80, 81, 82, 83, 84, 85, 86, 87, 88, 89, 90, 91, 92, 93, 94, 95, 96, 97, 98, 99, 100, 101, 102, 103, 104, 105, 106, 107, 108, 109, 110, 111, 112, 113, 114, 115, 116, 117, 118, 119, 120, 121, 122, 123, 124, 125, 126, 127, 128, 129, 130, 131, 132, 133, 134, 135, 136, 137, 138, 139, 140, 141, 142, 143, 144, 145, 146, 147, 148, 149, 150, 151, 152, 153, 154, 155, 156, 157, 158, 159, 160, 161, 162, 163, 164, 165, 166, 167, 168, 169, 170, 171, 172, 173, 174, 175, 176, 177, 178, 179, 180, 181, 182, 183, 184, 185, 186, 187, 188, 189, 190, 191, 192, 193, 194, 195, 196, 197, 198, 199, 200, 201, 202, 203, 204, 205, 206, 207, 208, 209, 210, 211, 212, 213, 214, 215, 216, 217, 218, 219, 220, 221, 222, 223, 224, 225, 226, 227, 228, 229, 230, 231, 232, 233, 234, 235, 236, 237, 238, 239, 240, 241, 242, 243, 244, 245, 246, 247, 248, 249, 250, 251, 252, 253, 254, 255, 256, 257, 258, 259, 260, 261, 262, 263, 264, 265, 266, 267, 268, 269, 270, 271, 272, 273, 274, 275, 276, 277, 278, 279, 280, 281, 282, 283, 284, 285, 286, 287, 288, 289, 290, 291, 292, 293, 294, 295, 296, 297, 298, 299, 300, 301, 302, 303, 304, 305, 306, 307, 308, 309, 310, 311, 312, 313, 314, 315, 316, 317, 318, 319, 320, 321, 322, 323, 324, 325, 326, 327, 328, 329, 330, 331, 332, 333, 334, 335, 336, 337, 338, 339, 340, 341, 342, 343, 344, 345, 346, 347, 348, 349, 350, 351, 352, 353, 354, 355, 356, 357, 358, 359, 360, 361, 362, 363, 364, 365, 366, 367, 368, 369, 370, 371, 372, 373, 374, 375, 376, 377, 378, 379, 380, 381, 382, 383, 384, 385, 386, 387, 388, 389, 390, 391, 392, 393, 394, 395, 396, 397, 398, 399, 400, 401, 402, 403, 404, 405, 406, 407, 408, 409, 410, 411, 412, 413, 414, 415, 416, 417, 418, 419, 420, 421, 422, 423, 424, 425, 426, 427, 428, 429, 430, 431, 432, 433, 434, 435, 436, 437, 438, 439, 440, 441, 442, 443, 444, 445, 446, 447, 448, 449, 450, 451, 452, 453, 454, 455, 456, 457, 458, 459, 460, 461, 462, 463, 464, 465, 466, 467, 468, 469, 470, 471, 472, 473, 474, 475, 476, 477, 478, 479, 480, 481, 482, 483, 484, 485, 486, 487, 488, 489, 490, 491, 492, 493, 494, 495, 496, 497, 498, 499, 500, 501, 502, 503, 504, 505, 506, 507, 508, 509, 510, 511, 512, 513, 514, 515, 516, 517, 518, 519, 520, 521, 522, 523, 524, 525, 526, 527, 528, 529, 530, 531, 532, 533, 534, 535, 536, 537, 538, 539, 540, 541, 542, 543, 544, 545, 546, 547, 548, 549, 550, 551, 552, 553, 554, 555, 556, 557, 558, 559, 560, 561, 562, 563, 564, 565, 566, 567, 568, 569, 570, 571, 572, 573, 574, 575, 576, 577, 578, 579, 580, 581, 582, 583, 584, 585, 586, 587, 588, 589, 590, 591, 592, 593, 594, 595, 596, 597, 598, 599, 600, 601, 602, 603, 604, 605, 606, 607, 608, 609, 610, 611, 612, 613, 614, 615, 616, 617, 618, 619, 620, 621, 622, 623, 624, 625, 626, 627, 628, 629, 630, 631, 632, 633, 634, 635, 636, 637, 638, 639, 640, 641, 642, 643, 644, 645, 646, 647, 648, 649, 650, 651, 652, 653, 654, 655, 656, 657, 658, 659, 660, 661, 662, 663, 664, 665, 666, 667, 668, 669, 670, 671, 672, 673, 674, 675, 676, 677, 678, 679, 680, 681, 682, 683, 684, 685, 686, 687, 688, 689, 690, 691, 692, 693, 694, 695, 696, 697, 698, 699, 700, 701, 702, 703, 704, 705, 706, 707, 708, 709, 710, 711, 712, 713, 714, 715, 716, 717, 718, 719, 720, 721, 722, 723, 724, 725, 726, 727, 728, 729, 730, 731, 732, 733, 734, 735, 736, 737, 738, 739, 740, 741, 742, 743, 744, 745, 746, 747, 748, 749, 750, 751, 752, 753, 754, 755, 756, 757, 758, 759, 760, 761, 762, 763, 764, 765, 766, 767, 768, 769, 770, 771, 772, 773, 774, 775, 776, 777, 778, 779, 780, 781, 782, 783, 784, 785, 786, 787, 788, 789, 790, 791, 792, 793, 794, 795, 796, 797, 798, 799, 800, 801, 802, 803, 804, 805, 806, 807, 808, 809, 810, 811, 812, 813, 814, 815, 816, 817, 818, 819, 820, 821, 822, 823, 824, 825, 826, 827, 828, 829, 830, 831, 832, 833, 834, 835, 836, 837, 838, 839, 840, 841, 842, 843, 844, 845, 846, 847, 848, 849, 850, 851, 852, 853, 854, 855, 856, 857, 858, 859, 860, 861, 862, 863, 864, 865, 866, 867, 868, 869, 870, 871, 872],
      "AcquisitionTime": ["111944.670000", "111945.130000", "111945.590000", "111946.050000", "111946.510000", "111946.970000", "111947.430000", "111947.890000", "111948.350000", "111948.810000", "111949.270000", "111949.730000", "111950.190000", "111950.650000", "111951.110000", "111951.570000", "111952.030000", "111952.490000", "111952.950000", "111953.410000", "111953.870000", "111954.330000", "111954.790000", "111955.250000", "111955.710000", "111956.170000", "111956.630000", "111957.090000", "111957.550000", "111958.010000", "111958.470000", "111958.930000", "111959.390000", "111959.850000", "112000.310000", "112000.770000", "112001.230000", "112001.690000", "112002.150000", "112002.610000", "112003.070000", "112003.530000", "112003.990000", "112004.450000", "112004.910000", "112005.370000", "112005.830000", "112006.290000", "112006.750000", "112007.210000", "112007.670000", "112008.130000", "112008.590000", "112009.050000", "112009.510000", "112009.970000", "112010.430000", "112010.890000", "112011.350000", "112011.810000", "112012.270000", "112012.730000", "112013.190000", "112013.650000", "112014.110000", "112014.570000", "112015.030000", "112015.490000", "112015.950000", "112016.410000", "112016.870000", "112017.330000", "112017.790000", "112018.250000", "112018.710000", "112019.170000", "112019.630000", "112020.090000", "112020.550000", "112021.010000", "112021.470000", "112021.930000", "112022.390000", "112022.850000", "112023.310000", "112023.770000", "112024.230000", "112024.690000", "112025.150000", "112025.610000", "112026.070000", "112026.530000", "112026.990000", "112027.450000", "112027.910000", "112028.370000", "112028.830000", "112029.290000", "112029.750000", "112030.210000", "112030.670000", "112031.130000", "112031.590000", "112032.050000", "112032.510000", "112032.970000", "112033.430000", "112033.890000", "112034.350000", "112034.810000", "112035.270000", "112035.730000", "112036.190000", "112036.650000", "112037.110000", "112037.570000", "112038.030000", "112038.490000", "112038.950000", "112039.410000", "112039.870000", "112040.330000", "112040.790000", "112041.250000", "112041.710000", "112042.170000", "112042.630000", "112043.090000", "112043.550000", "112044.010000", "112044.470000", "112044.930000", "112045.390000", "112045.850000", "112046.310000", "112046.770000", "112047.230000", "112047.690000", "112048.150000", "112048.610000", "112049.070000", "112049.530000", "112049.990000", "112050.450000", "112050.910000", "112051.370000", "112051.830000", "112052.290000", "112052.750000", "112053.210000", "112053.670000", "112054.130000", "112054.590000", "112055.050000", "112055.510000", "112055.970000", "112056.430000", "112056.890000", "112057.350000", "112057.810000", "112058.270000", "112058.730000", "112059.190000", "112059.650000", "112100.110000", "112100.570000", "112101.030000", "112101.490000", "112101.950000", "112102.410000", "112102.870000", "112103.330000", "112103.790000", "112104.250000", "112104.710000", "112105.170000", "112105.630000", "112106.090000", "112106.550000", "112107.010000", "112107.470000", "112107.930000", "112108.390000", "112108.850000", "112109.310000", "112109.770000", "112110.230000", "112110.690000", "112111.150000", "112111.610000", "112112.070000", "112112.530000", "112112.990000", "112113.450000", "112113.910000", "112114.370000", "112114.830000", "112115.290000", "112115.750000", "112116.210000", "112116.670000", "112117.130000", "112117.590000", "112118.050000", "112118.510000", "112118.970000", "112119.430000", "112119.890000", "112120.350000", "112120.810000", "112121.270000", "112121.730000", "112122.190000", "112122.650000", "112123.110000", "112123.570000", "112124.030000", "112124.490000", "112124.950000", "112125.410000", "112125.870000", "112126.330000", "112126.790000", "112127.250000", "112127.710000", "112128.170000", "112128.630000", "112129.090000", "112129.550000", "112130.010000", "112130.470000", "112130.930000", "112131.390000", "112131.850000", "112132.310000", "112132.770000", "112133.230000", "112133.690000", "112134.150000", "112134.610000", "112135.070000", "112135.530000", "112135.990000", "112136.450000", "112136.910000", "112137.370000", "112137.830000", "112138.290000", "112138.750000", "112139.210000", "112139.670000", "112140.130000", "112140.590000", "112141.050000", "112141.510000", "112141.970000", "112142.430000", "112142.890000", "112143.350000", "112143.810000", "112144.270000", "112144.730000", "112145.190000", "112145.650000", "112146.110000", "112146.570000", "112147.030000", "112147.490000", "112147.950000", "112148.410000", "112148.870000", "112149.330000", "112149.790000", "112150.250000", "112150.710000", "112151.170000", "112151.630000", "112152.090000", "112152.550000", "112153.010000", "112153.470000", "112153.930000", "112154.390000", "112154.850000", "112155.310000", "112155.770000", "112156.230000", "112156.690000", "112157.150000", "112157.610000", "112158.070000", "112158.530000", "112158.990000", "112159.450000", "112159.910000", "112200.370000", "112200.830000", "112201.290000", "112201.750000", "112202.210000", "112202.670000", "112203.130000", "112203.590000", "112204.050000", "112204.510000", "112204.970000", "112205.430000", "112205.890000", "112206.350000", "112206.810000", "112207.270000", "112207.730000", "112208.190000", "112208.650000", "112209.110000", "112209.570000", "112210.030000", "112210.490000", "112210.950000", "112211.410000", "112211.870000", "112212.330000", "112212.790000", "112213.250000", "112213.710000", "112214.170000", "112214.630000", "112215.090000", "112215.550000", "112216.010000", "112216.470000", "112216.930000", "112217.390000", "112217.850000", "112218.310000", "112218.770000", "112219.230000", "112219.690000", "112220.150000", "112220.610000", "112221.070000", "112221.530000", "112221.990000", "112222.450000", "112222.910000", "112223.370000", "112223.830000", "112224.290000", "112224.750000", "112225.210000", "112225.670000", "112226.130000", "112226.590000", "112227.050000", "112227.510000", "112227.970000", "112228.430000", "112228.890000", "112229.350000", "112229.810000", "112230.270000", "112230.730000", "112231.190000", "112231.650000", "112232.110000", "112232.570000", "112233.030000", "112233.490000", "112233.950000", "112234.410000", "112234.870000", "112235.330000", "112235.790000", "112236.250000", "112236.710000", "112237.170000", "112237.630000", "112238.090000", "112238.550000", "112239.010000", "112239.470000", "112239.930000", "112240.390000", "112240.850000", "112241.310000", "112241.770000", "112242.230000", "112242.690000", "112243.150000", "112243.610000", "112244.070000", "112244.530000", "112244.990000", "112245.450000", "112245.910000", "112246.370000", "112246.830000", "112247.290000", "112247.750000", "112248.210000", "112248.670000", "112249.130000", "112249.590000", "112250.050000", "112250.510000", "112250.970000", "112251.430000", "112251.890000", "112252.350000", "112252.810000", "112253.270000", "112253.730000", "112254.190000", "112254.650000", "112255.110000", "112255.570000", "112256.030000", "112256.490000", "112256.950000", "112257.410000", "112257.870000", "112258.330000", "112258.790000", "112259.250000", "112259.710000", "112300.170000", "112300.630000", "112301.090000", "112301.550000", "112302.010000", "112302.470000", "112302.930000", "112303.390000", "112303.850000", "112304.310000", "112304.770000", "112305.230000", "112305.690000", "112306.150000", "112306.610000", "112307.070000", "112307.530000", "112307.990000", "112308.450000", "112308.910000", "112309.370000", "112309.830000", "112310.290000", "112310.750000", "112311.210000", "112311.670000", "112312.130000", "112312.590000", "112313.050000", "112313.510000", "112313.970000", "112314.430000", "112314.890000", "112315.350000", "112315.810000", "112316.270000", "112316.730000", "112317.190000", "112317.650000", "112318.110000", "112318.570000", "112319.030000", "112319.490000", "112319.950000", "112320.410000", "112320.870000", "112321.330000", "112321.790000", "112322.250000", "112322.710000", "112323.170000", "112323.630000", "112324.090000", "112324.550000", "112325.010000", "112325.470000", "112325.930000", "112326.390000", "112326.850000", "112327.310000", "112327.770000", "112328.230000", "112328.690000", "112329.150000", "112329.610000", "112330.070000", "112330.530000", "112330.990000", "112331.450000", "112331.910000", "112332.370000", "112332.830000", "112333.290000", "112333.750000", "112334.210000", "112334.670000", "112335.130000", "112335.590000", "112336.050000", "112336.510000", "112336.970000", "112337.430000", "112337.890000", "112338.350000", "112338.810000", "112339.270000", "112339.730000", "112340.190000", "112340.650000", "112341.110000", "112341.570000", "112342.030000", "112342.490000", "112342.950000", "112343.410000", "112343.870000", "112344.330000", "112344.790000", "112345.250000", "112345.710000", "112346.170000", "112346.630000", "112347.090000", "112347.550000", "112348.010000", "112348.470000", "112348.930000", "112349.390000", "112349.850000", "112350.310000", "112350.770000", "112351.230000", "112351.690000", "112352.150000", "112352.610000", "112353.070000", "112353.530000", "112353.990000", "112354.450000", "112354.910000", "112355.370000", "112355.830000", "112356.290000", "112356.750000", "112357.210000", "112357.670000", "112358.130000", "112358.590000", "112359.050000", "112359.510000", "112359.970000", "112400.430000", "112400.890000", "112401.350000", "112401.810000", "112402.270000", "112402.730000", "112403.190000", "112403.650000", "112404.110000", "112404.570000", "112405.030000", "112405.490000", "112405.950000", "112406.410000", "112406.870000", "112407.330000", "112407.790000", "112408.250000", "112408.710000", "112409.170000", "112409.630000", "112410.090000", "112410.550000", "112411.010000", "112411.470000", "112411.930000", "112412.390000", "112412.850000", "112413.310000", "112413.770000", "112414.230000", "112414.690000", "112415.150000", "112415.610000", "112416.070000", "112416.530000", "112416.990000", "112417.450000", "112417.910000", "112418.370000", "112418.830000", "112419.290000", "112419.750000", "112420.210000", "112420.670000", "112421.130000", "112421.590000", "112422.050000", "112422.510000", "112422.970000", "112423.430000", "112423.890000", "112424.350000", "112424.810000", "112425.270000", "112425.730000", "112426.190000", "112426.650000", "112427.110000", "112427.570000", "112428.030000", "112428.490000", "112428.950000", "112429.410000", "112429.870000", "112430.330000", "112430.790000", "112431.250000", "112431.710000", "112432.170000", "112432.630000", "112433.090000", "112433.550000", "112434.010000", "112434.470000", "112434.930000", "112435.390000", "112435.850000", "112436.310000", "112436.770000", "112437.230000", "112437.690000", "112438.150000", "112438.610000", "112439.070000", "112439.530000", "112439.990000", "112440.450000", "112440.910000", "112441.370000", "112441.830000", "112442.290000", "112442.750000", "112443.210000", "112443.670000", "112444.130000", "112444.590000", "112445.050000", "112445.510000", "112445.970000", "112446.430000", "112446.890000", "112447.350000", "112447.810000", "112448.270000", "112448.730000", "112449.190000", "112449.650000", "112450.110000", "112450.570000", "112451.030000", "112451.490000", "112451.950000", "112452.410000", "112452.870000", "112453.330000", "112453.790000", "112454.250000", "112454.710000", "112455.170000", "112455.630000", "112456.090000", "112456.550000", "112457.010000", "112457.470000", "112457.930000", "112458.390000", "112458.850000", "112459.310000", "112459.770000", "112500.230000", "112500.690000", "112501.150000", "112501.610000", "112502.070000", "112502.530000", "112502.990000", "112503.450000", "112503.910000", "112504.370000", "112504.830000", "112505.290000", "112505.750000", "112506.210000", "112506.670000", "112507.130000", "112507.590000", "112508.050000", "112508.510000", "112508.970000", "112509.430000", "112509.890000", "112510.350000", "112510.810000", "112511.270000", "112511.730000", "112512.190000", "112512.650000", "112513.110000", "112513.570000", "112514.030000", "112514.490000", "112514.950000", "112515.410000", "112515.870000", "112516.330000", "112516.790000", "112517.250000", "112517.710000", "112518.170000", "112518.630000", "112519.090000", "112519.550000", "112520.010000", "112520.470000", "112520.930000", "112521.390000", "112521.850000", "112522.310000", "112522.770000", "112523.230000", "112523.690000", "112524.150000", "112524.610000", "112525.070000", "112525.530000", "112525.990000", "112526.450000", "112526.910000", "112527.370000", "112527.830000", "112528.290000", "112528.750000", "112529.210000", "112529.670000", "112530.130000", "112530.590000", "112531.050000", "112531.510000", "112531.970000", "112532.430000", "112532.890000", "112533.350000", "112533.810000", "112534.270000", "112534.730000", "112535.190000", "112535.650000", "112536.110000", "112536.570000", "112537.030000", "112537.490000", "112537.950000", "112538.410000", "112538.870000", "112539.330000", "112539.790000", "112540.250000", "112540.710000", "112541.170000", "112541.630000", "112542.090000", "112542.550000", "112543.010000", "112543.470000", "112543.930000", "112544.390000", "112544.850000", "112545.310000", "112545.770000", "112546.230000", "112546.690000", "112547.150000", "112547.610000", "112548.070000", "112548.530000", "112548.990000", "112549.450000", "112549.910000", "112550.370000", "112550.830000", "112551.290000", "112551.750000", "112552.210000", "112552.670000", "112553.130000", "112553.590000", "112554.050000", "112554.510000", "112554.970000", "112555.430000", "112555.890000", "112556.350000", "112556.810000", "112557.270000", "112557.730000", "112558.190000", "112558.650000", "112559.110000", "112559.570000", "112600.030000", "112600.490000", "112600.950000", "112601.410000", "112601.870000", "112602.330000", "112602.790000", "112603.250000", "112603.710000", "112604.170000", "112604.630000", "112605.090000", "112605.550000", "112606.010000", "112606.470000", "112606.930000", "112607.390000", "112607.850000", "112608.310000", "112608.770000", "112609.230000", "112609.690000", "112610.150000", "112610.610000", "112611.070000", "112611.530000", "112611.990000", "112612.450000", "112612.910000", "112613.370000", "112613.830000", "112614.290000", "112614.750000", "112615.210000", "112615.670000", "112616.130000", "112616.590000", "112617.050000", "112617.510000", "112617.970000", "112618.430000", "112618.890000", "112619.350000", "112619.810000", "112620.270000", "112620.730000", "112621.190000", "112621.650000", "112622.110000", "112622.570000", "112623.030000", "112623.490000", "112623.950000", "112624.410000", "112624.870000", "112625.330000"],
