{
  "AcquisitionMatrixPE": 82,
  "AcquisitionNumber": 1,
  "AcquisitionTime": "17:15:33.617500",
  "BandwidthPerPixelPhaseEncode": 24.888,
  "BaseResolution": 82,
  "BodyPartExamined": "BRAIN",
  "ConsistencyInfo": "N4_VE11E_LATEST_20181129",
  "ConversionSoftware": "dcm2niix",
  "ConversionSoftwareVersion": "v1.0.20201102",
  "DerivedVendorReportedEchoSpacing": 0.00049,
  "DeviceSerialNumber": "66112",
  "DwellTime": 2e-06,
  "EchoTime": 0.0272,
  "EchoTrainLength": 82,
  "EffectiveEchoSpacing": 0.00049,
  "FlipAngle": 44,
  "ImageComments": "Unaliased MB8/PE3",
  "ImageOrientationPatientDICOM": [0.996525, -0.0408717, -0.0725763, 0.0503074, 0.989791, 0.133351],
  "ImageType": [
    "ORIGINAL",
    "PRIMARY",
    "M",
    "MB",
    "ND",
    "NORM",
    "MOSAIC"
],
  "ImagingFrequency": 123.259,
  "InPlanePhaseEncodingDirectionDICOM": "COL",
  "InstitutionAddress": "Maynard 3,Hanover,NH,US,03755",
  "InstitutionName": "Dartmouth College - PBS",
  "InstitutionalDepartmentName": "Department",
  "MRAcquisitionType": "2D",
  "MagneticFieldStrength": 3,
  "Manufacturer": "Siemens",
  "ManufacturersModelName": "Prisma",
  "Modality": "MR",
  "MultibandAccelerationFactor": 8,
  "PartialFourier": 1,
  "PatientPosition": "HFS",
  "PercentPhaseFOV": 100,
  "PercentSampling": 100,
  "PhaseEncodingDirection": "j-",
  "PhaseEncodingSteps": 82,
  "PhaseResolution": 1,
  "PixelBandwidth": 3050,
  "ProcedureStepDescription": "Wager_Wager^1076_spacetop",
  "ProtocolName": "func_run-04_task-social_acq-ap-mb8",
  "PulseSequenceDetails": "%CustomerSeq%\\cmrr_mbep2d_bold",
  "ReceiveCoilActiveElements": "HEA;HEP",
  "ReceiveCoilName": "Head_32",
  "ReconMatrixPE": 82,
  "RepetitionTime": 0.46,
  "SAR": 0.115212,
  "ScanOptions": "FS",
  "ScanningSequence": "EP",
  "SequenceName": "epfid2d1_82",
  "SequenceVariant": "SK\\SS",
  "SeriesDescription": "func_run-04_task-social_acq-ap-mb8",
  "SeriesNumber": 18,
  "ShimSetting": [4206, -7806, -7202, 342, -101, -158, -2, 119],
  "SliceThickness": 2.7,
  "SliceTiming": [0, 0.2525, 0.0625, 0.315, 0.1275, 0.3775, 0.19, 0, 0.2525, 0.0625, 0.315, 0.1275, 0.3775, 0.19, 0, 0.2525, 0.0625, 0.315, 0.1275, 0.3775, 0.19, 0, 0.2525, 0.0625, 0.315, 0.1275, 0.3775, 0.19, 0, 0.2525, 0.0625, 0.315, 0.1275, 0.3775, 0.19, 0, 0.2525, 0.0625, 0.315, 0.1275, 0.3775, 0.19, 0, 0.2525, 0.0625, 0.315, 0.1275, 0.3775, 0.19, 0, 0.2525, 0.0625, 0.315, 0.1275, 0.3775, 0.19],
  "SoftwareVersions": "syngo MR E11",
  "SpacingBetweenSlices": 2.7,
  "StationName": "AWP66112",
  "TaskName": "social",
  "TotalReadoutTime": 0.03969,
  "TxRefAmp": 266.038,
  "WipMemBlock": "2435c757-4fa7-41e4-acd8-eeed9434d694||Sequence: R016 ve11e/master r/434b28f1; Aug  7 2019 18:53:46 by eja",
  "dcmmeta_affine": [
    [-2.6736037731170654, 0.13497112691402435, -0.17923983931541443, 113.60630798339844],
    [0.10965587943792343, 2.6555376052856445, 0.3686542212963104, -106.09335327148438],
    [-0.19471697509288788, -0.3577706217765808, 2.668701410293579, -42.06920623779297],
    [0.0, 0.0, 0.0, 1.0]
],
  "dcmmeta_reorient_transform": [
    [0.0, -1.0, 0.0, 81.0],
    [1.0, 0.0, 0.0, 0.0],
    [0.0, 0.0, 1.0, 0.0],
    [0.0, 0.0, 0.0, 1.0]
],
  "dcmmeta_shape": [82, 82, 56, 872],
  "dcmmeta_slice_dim": 2,
  "dcmmeta_version": 0.6,
  "global": {
    "const": {
      "AccessionNumber": "A004367",
      "AcquisitionMatrix": [82, 0, 0, 82],
      "AngioFlag": "N",
      "BitsAllocated": 16,
      "BitsStored": 16,
      "BodyPartExamined": "BRAIN",
      "Columns": 656,
      "EchoNumbers": 1,
      "EchoTime": 27.2,
      "EchoTrainLength": 82,
      "FlipAngle": 44.0,
      "HighBit": 15,
      "ImageOrientationPatient": [0.99652505160363, -0.0408717361003, -0.0725763233744, 0.05030741811105, 0.98979124524781, 0.13335086994017],
      "ImagePositionPatient": [-930.59999307845, -839.67322427106, -117.84502846149],
      "ImageType": [
        "ORIGINAL",
        "PRIMARY",
        "M",
        "MB",
        "ND",
        "NORM",
        "MOSAIC"
],
      "ImagedNucleus": "1H",
      "ImagingFrequency": 123.259082,
      "InPlanePhaseEncodingDirection": "COL",
      "MRAcquisitionType": "2D",
      "MagneticFieldStrength": 3.0,
      "Manufacturer": "SIEMENS",
      "ManufacturerModelName": "Prisma",
      "Modality": "MR",
      "NumberOfAverages": 1.0,
      "NumberOfPhaseEncodingSteps": 82,
      "PercentPhaseFieldOfView": 100.0,
      "PercentSampling": 100.0,
      "PerformedProcedureStepStartTime": "162534.667000",
      "PhotometricInterpretation": "MONOCHROME2",
      "PixelBandwidth": 3050.0,
      "PixelRepresentation": 0,
      "PixelSpacing": [2.6829268932343, 2.6829268932343],
      "ProtocolName": "func_run-04_task-social_acq-ap-mb8",
      "RepetitionTime": 460.0,
      "Rows": 656,
      "SAR": 0.1152117844682,
      "SamplesPerPixel": 1,
      "ScanOptions": "FS",
      "ScanningSequence": "EP",
      "SequenceName": "epfid2d1_82",
      "SequenceVariant": [
        "SK",
        "SS"
],
      "SeriesDescription": "func_run-04_task-social_acq-ap-mb8",
      "SeriesNumber": 18,
      "SeriesTime": "171553.150000",
      "SliceLocation": -63.609144543871,
      "SliceThickness": 2.7000000476837,
      "SmallestImagePixelValue": 0,
      "SoftwareVersions": "syngo MR E11",
      "SpacingBetweenSlices": 2.6999999198573,
      "SpecificCharacterSet": "ISO_IR 100",
      "StudyID": "1",
      "StudyTime": "162534.600000",
      "TransmitCoilName": "Body",
      "VariableFlipAngleFlag": "N",
      "WindowCenterWidthExplanation": "Algo1"
    },
    "slices": {}
  },
  "time": {
    "samples": {
      "AcquisitionNumber": [1, 2, 3, 4, 5, 6, 7, 8, 9, 10, 11, 12, 13, 14, 15, 16, 17, 18, 19, 20, 21, 22, 23, 24, 25, 26, 27, 28, 29, 30, 31, 32, 33, 34, 35, 36, 37, 38, 39, 40, 41, 42, 43, 44, 45, 46, 47, 48, 49, 50, 51, 52, 53, 54, 55, 56, 57, 58, 59, 60, 61, 62, 63, 64, 65, 66, 67, 68, 69, 70, 71, 72, 73, 74, 75, 76, 77, 78, 79, 80, 81, 82, 83, 84, 85, 86, 87, 88, 89, 90, 91, 92, 93, 94, 95, 96, 97, 98, 99, 100, 101, 102, 103, 104, 105, 106, 107, 108, 109, 110, 111, 112, 113, 114, 115, 116, 117, 118, 119, 120, 121, 122, 123, 124, 125, 126, 127, 128, 129, 130, 131, 132, 133, 134, 135, 136, 137, 138, 139, 140, 141, 142, 143, 144, 145, 146, 147, 148, 149, 150, 151, 152, 153, 154, 155, 156, 157, 158, 159, 160, 161, 162, 163, 164, 165, 166, 167, 168, 169, 170, 171, 172, 173, 174, 175, 176, 177, 178, 179, 180, 181, 182, 183, 184, 185, 186, 187, 188, 189, 190, 191, 192, 193, 194, 195, 196, 197, 198, 199, 200, 201, 202, 203, 204, 205, 206, 207, 208, 209, 210, 211, 212, 213, 214, 215, 216, 217, 218, 219, 220, 221, 222, 223, 224, 225, 226, 227, 228, 229, 230, 231, 232, 233, 234, 235, 236, 237, 238, 239, 240, 241, 242, 243, 244, 245, 246, 247, 248, 249, 250, 251, 252, 253, 254, 255, 256, 257, 258, 259, 260, 261, 262, 263, 264, 265, 266, 267, 268, 269, 270, 271, 272, 273, 274, 275, 276, 277, 278, 279, 280, 281, 282, 283, 284, 285, 286, 287, 288, 289, 290, 291, 292, 293, 294, 295, 296, 297, 298, 299, 300, 301, 302, 303, 304, 305, 306, 307, 308, 309, 310, 311, 312, 313, 314, 315, 316, 317, 318, 319, 320, 321, 322, 323, 324, 325, 326, 327, 328, 329, 330, 331, 332, 333, 334, 335, 336, 337, 338, 339, 340, 341, 342, 343, 344, 345, 346, 347, 348, 349, 350, 351, 352, 353, 354, 355, 356, 357, 358, 359, 360, 361, 362, 363, 364, 365, 366, 367, 368, 369, 370, 371, 372, 373, 374, 375, 376, 377, 378, 379, 380, 381, 382, 383, 384, 385, 386, 387, 388, 389, 390, 391, 392, 393, 394, 395, 396, 397, 398, 399, 400, 401, 402, 403, 404, 405, 406, 407, 408, 409, 410, 411, 412, 413, 414, 415, 416, 417, 418, 419, 420, 421, 422, 423, 424, 425, 426, 427, 428, 429, 430, 431, 432, 433, 434, 435, 436, 437, 438, 439, 440, 441, 442, 443, 444, 445, 446, 447, 448, 449, 450, 451, 452, 453, 454, 455, 456, 457, 458, 459, 460, 461, 462, 463, 464, 465, 466, 467, 468, 469, 470, 471, 472, 473, 474, 475, 476, 477, 478, 479, 480, 481, 482, 483, 484, 485, 486, 487, 488, 489, 490, 491, 492, 493, 494, 495, 496, 497, 498, 499, 500, 501, 502, 503, 504, 505, 506, 507, 508, 509, 510, 511, 512, 513, 514, 515, 516, 517, 518, 519, 520, 521, 522, 523, 524, 525, 526, 527, 528, 529, 530, 531, 532, 533, 534, 535, 536, 537, 538, 539, 540, 541, 542, 543, 544, 545, 546, 547, 548, 549, 550, 551, 552, 553, 554, 555, 556, 557, 558, 559, 560, 561, 562, 563, 564, 565, 566, 567, 568, 569, 570, 571, 572, 573, 574, 575, 576, 577, 578, 579, 580, 581, 582, 583, 584, 585, 586, 587, 588, 589, 590, 591, 592, 593, 594, 595, 596, 597, 598, 599, 600, 601, 602, 603, 604, 605, 606, 607, 608, 609, 610, 611, 612, 613, 614, 615, 616, 617, 618, 619, 620, 621, 622, 623, 624, 625, 626, 627, 628, 629, 630, 631, 632, 633, 634, 635, 636, 637, 638, 639, 640, 641, 642, 643, 644, 645, 646, 647, 648, 649, 650, 651, 652, 653, 654, 655, 656, 657, 658, 659, 660, 661, 662, 663, 664, 665, 666, 667, 668, 669, 670, 671, 672, 673, 674, 675, 676, 677, 678, 679, 680, 681, 682, 683, 684, 685, 686, 687, 688, 689, 690, 691, 692, 693, 694, 695, 696, 697, 698, 699, 700, 701, 702, 703, 704, 705, 706, 707, 708, 709, 710, 711, 712, 713, 714, 715, 716, 717, 718, 719, 720, 721, 722, 723, 724, 725, 726, 727, 728, 729, 730, 731, 732, 733, 734, 735, 736, 737, 738, 739, 740, 741, 742, 743, 744, 745, 746, 747, 748, 749, 750, 751, 752, 753, 754, 755, 756, 757, 758, 759, 760, 761, 762, 763, 764, 765, 766, 767, 768, 769, 770, 771, 772, 773, 774, 775, 776, 777, 778, 779, 780, 781, 782, 783, 784, 785, 786, 787, 788, 789, 790, 791, 792, 793, 794, 795, 796, 797, 798, 799, 800, 801, 802, 803, 804, 805, 806, 807, 808, 809, 810, 811, 812, 813, 814, 815, 816, 817, 818, 819, 820, 821, 822, 823, 824, 825, 826, 827, 828, 829, 830, 831, 832, 833, 834, 835, 836, 837, 838, 839, 840, 841, 842, 843, 844, 845, 846, 847, 848, 849, 850, 851, 852, 853, 854, 855, 856, 857, 858, 859, 860, 861, 862, 863, 864, 865, 866, 867, 868, 869, 870, 871, 872],
      "AcquisitionTime": ["171533.617500", "171534.077500", "171534.537500", "171534.997500", "171535.457500", "171535.917500", "171536.377500", "171536.837500", "171537.297500", "171537.757500", "171538.217500", "171538.677500", "171539.137500", "171539.597500", "171540.057500", "171540.517500", "171540.977500", "171541.437500", "171541.897500", "171542.357500", "171542.817500", "171543.277500", "171543.737500", "171544.197500", "171544.657500", "171545.117500", "171545.577500", "171546.037500", "171546.497500", "171546.957500", "171547.417500", "171547.877500", "171548.337500", "171548.797500", "171549.257500", "171549.717500", "171550.177500", "171550.637500", "171551.097500", "171551.557500", "171552.017500", "171552.477500", "171552.937500", "171553.397500", "171553.857500", "171554.317500", "171554.777500", "171555.237500", "171555.697500", "171556.157500", "171556.617500", "171557.077500", "171557.537500", "171557.997500", "171558.457500", "171558.917500", "171559.377500", "171559.837500", "171600.297500", "171600.757500", "171601.217500", "171601.677500", "171602.137500", "171602.597500", "171603.057500", "171603.517500", "171603.977500", "171604.437500", "171604.897500", "171605.357500", "171605.817500", "171606.277500", "171606.737500", "171607.197500", "171607.657500", "171608.117500", "171608.577500", "171609.037500", "171609.497500", "171609.957500", "171610.417500", "171610.877500", "171611.337500", "171611.797500", "171612.257500", "171612.717500", "171613.177500", "171613.637500", "171614.097500", "171614.557500", "171615.017500", "171615.477500", "171615.937500", "171616.397500", "171616.857500", "171617.317500", "171617.777500", "171618.237500", "171618.697500", "171619.157500", "171619.617500", "171620.077500", "171620.537500", "171620.997500", "171621.457500", "171621.917500", "171622.377500", "171622.837500", "171623.297500", "171623.757500", "171624.217500", "171624.677500", "171625.137500", "171625.597500", "171626.057500", "171626.517500", "171626.977500", "171627.437500", "171627.897500", "171628.357500", "171628.817500", "171629.277500", "171629.737500", "171630.197500", "171630.657500", "171631.117500", "171631.577500", "171632.037500", "171632.497500", "171632.957500", "171633.417500", "171633.877500", "171634.337500", "171634.797500", "171635.257500", "171635.717500", "171636.177500", "171636.637500", "171637.097500", "171637.557500", "171638.017500", "171638.477500", "171638.937500", "171639.397500", "171639.857500", "171640.317500", "171640.777500", "171641.237500", "171641.697500", "171642.157500", "171642.617500", "171643.077500", "171643.537500", "171643.997500", "171644.457500", "171644.917500", "171645.377500", "171645.837500", "171646.297500", "171646.757500", "171647.217500", "171647.677500", "171648.137500", "171648.597500", "171649.057500", "171649.517500", "171649.977500", "171650.437500", "171650.897500", "171651.357500", "171651.817500", "171652.277500", "171652.737500", "171653.197500", "171653.657500", "171654.117500", "171654.577500", "171655.037500", "171655.497500", "171655.957500", "171656.417500", "171656.877500", "171657.337500", "171657.797500", "171658.257500", "171658.717500", "171659.177500", "171659.637500", "171700.097500", "171700.557500", "171701.017500", "171701.477500", "171701.937500", "171702.397500", "171702.857500", "171703.317500", "171703.777500", "171704.237500", "171704.697500", "171705.157500", "171705.617500", "171706.077500", "171706.537500", "171706.997500", "171707.457500", "171707.917500", "171708.377500", "171708.837500", "171709.297500", "171709.757500", "171710.217500", "171710.677500", "171711.137500", "171711.597500", "171712.057500", "171712.517500", "171712.977500", "171713.437500", "171713.897500", "171714.357500", "171714.817500", "171715.277500", "171715.737500", "171716.197500", "171716.657500", "171717.117500", "171717.577500", "171718.037500", "171718.497500", "171718.957500", "171719.417500", "171719.877500", "171720.337500", "171720.797500", "171721.257500", "171721.717500", "171722.177500", "171722.637500", "171723.097500", "171723.557500", "171724.017500", "171724.477500", "171724.937500", "171725.397500", "171725.857500", "171726.317500", "171726.777500", "171727.237500", "171727.697500", "171728.157500", "171728.617500", "171729.077500", "171729.537500", "171729.997500", "171730.457500", "171730.917500", "171731.377500", "171731.837500", "171732.297500", "171732.757500", "171733.217500", "171733.677500", "171734.137500", "171734.597500", "171735.057500", "171735.517500", "171735.977500", "171736.437500", "171736.897500", "171737.357500", "171737.817500", "171738.277500", "171738.737500", "171739.197500", "171739.657500", "171740.117500", "171740.577500", "171741.037500", "171741.497500", "171741.957500", "171742.417500", "171742.877500", "171743.337500", "171743.797500", "171744.257500", "171744.717500", "171745.177500", "171745.637500", "171746.097500", "171746.557500", "171747.017500", "171747.477500", "171747.937500", "171748.397500", "171748.857500", "171749.317500", "171749.777500", "171750.237500", "171750.697500", "171751.157500", "171751.617500", "171752.077500", "171752.537500", "171752.997500", "171753.457500", "171753.917500", "171754.377500", "171754.837500", "171755.297500", "171755.757500", "171756.217500", "171756.677500", "171757.137500", "171757.597500", "171758.057500", "171758.517500", "171758.977500", "171759.437500", "171759.897500", "171800.357500", "171800.817500", "171801.277500", "171801.737500", "171802.197500", "171802.657500", "171803.117500", "171803.577500", "171804.037500", "171804.497500", "171804.957500", "171805.417500", "171805.877500", "171806.337500", "171806.797500", "171807.257500", "171807.717500", "171808.177500", "171808.637500", "171809.097500", "171809.557500", "171810.017500", "171810.477500", "171810.937500", "171811.397500", "171811.857500", "171812.317500", "171812.777500", "171813.237500", "171813.697500", "171814.157500", "171814.617500", "171815.077500", "171815.537500", "171815.997500", "171816.457500", "171816.917500", "171817.377500", "171817.837500", "171818.297500", "171818.757500", "171819.217500", "171819.677500", "171820.137500", "171820.597500", "171821.057500", "171821.517500", "171821.977500", "171822.437500", "171822.897500", "171823.357500", "171823.817500", "171824.277500", "171824.737500", "171825.197500", "171825.657500", "171826.117500", "171826.577500", "171827.037500", "171827.497500", "171827.957500", "171828.417500", "171828.877500", "171829.337500", "171829.797500", "171830.257500", "171830.717500", "171831.177500", "171831.637500", "171832.097500", "171832.557500", "171833.017500", "171833.477500", "171833.937500", "171834.397500", "171834.857500", "171835.317500", "171835.777500", "171836.237500", "171836.697500", "171837.157500", "171837.617500", "171838.077500", "171838.537500", "171838.997500", "171839.457500", "171839.917500", "171840.377500", "171840.837500", "171841.297500", "171841.757500", "171842.217500", "171842.677500", "171843.137500", "171843.597500", "171844.057500", "171844.517500", "171844.977500", "171845.437500", "171845.897500", "171846.357500", "171846.817500", "171847.277500", "171847.737500", "171848.197500", "171848.657500", "171849.117500", "171849.577500", "171850.037500", "171850.497500", "171850.957500", "171851.417500", "171851.877500", "171852.337500", "171852.797500", "171853.257500", "171853.717500", "171854.177500", "171854.637500", "171855.097500", "171855.557500", "171856.017500", "171856.477500", "171856.937500", "171857.397500", "171857.857500", "171858.317500", "171858.777500", "171859.237500", "171859.697500", "171900.157500", "171900.617500", "171901.077500", "171901.537500", "171901.997500", "171902.457500", "171902.917500", "171903.377500", "171903.837500", "171904.297500", "171904.757500", "171905.217500", "171905.677500", "171906.137500", "171906.597500", "171907.057500", "171907.517500", "171907.977500", "171908.437500", "171908.897500", "171909.357500", "171909.817500", "171910.277500", "171910.737500", "171911.197500", "171911.657500", "171912.117500", "171912.577500", "171913.037500", "171913.497500", "171913.957500", "171914.417500", "171914.877500", "171915.337500", "171915.797500", "171916.257500", "171916.717500", "171917.177500", "171917.637500", "171918.097500", "171918.557500", "171919.017500", "171919.477500", "171919.937500", "171920.397500", "171920.857500", "171921.317500", "171921.777500", "171922.237500", "171922.697500", "171923.157500", "171923.617500", "171924.077500", "171924.537500", "171924.997500", "171925.457500", "171925.917500", "171926.377500", "171926.837500", "171927.297500", "171927.757500", "171928.217500", "171928.677500", "171929.137500", "171929.597500", "171930.057500", "171930.517500", "171930.977500", "171931.437500", "171931.897500", "171932.357500", "171932.817500", "171933.277500", "171933.737500", "171934.197500", "171934.657500", "171935.117500", "171935.577500", "171936.037500", "171936.497500", "171936.957500", "171937.417500", "171937.877500", "171938.337500", "171938.797500", "171939.257500", "171939.717500", "171940.177500", "171940.637500", "171941.097500", "171941.557500", "171942.017500", "171942.477500", "171942.937500", "171943.397500", "171943.857500", "171944.317500", "171944.777500", "171945.237500", "171945.697500", "171946.157500", "171946.617500", "171947.077500", "171947.537500", "171947.997500", "171948.457500", "171948.917500", "171949.377500", "171949.837500", "171950.297500", "171950.757500", "171951.217500", "171951.677500", "171952.137500", "171952.597500", "171953.057500", "171953.517500", "171953.977500", "171954.437500", "171954.897500", "171955.357500", "171955.817500", "171956.277500", "171956.737500", "171957.197500", "171957.657500", "171958.117500", "171958.577500", "171959.037500", "171959.497500", "171959.957500", "172000.417500", "172000.877500", "172001.337500", "172001.797500", "172002.257500", "172002.717500", "172003.177500", "172003.637500", "172004.097500", "172004.557500", "172005.017500", "172005.477500", "172005.937500", "172006.397500", "172006.857500", "172007.317500", "172007.777500", "172008.237500", "172008.697500", "172009.157500", "172009.617500", "172010.077500", "172010.537500", "172010.997500", "172011.457500", "172011.917500", "172012.377500", "172012.837500", "172013.297500", "172013.757500", "172014.217500", "172014.677500", "172015.137500", "172015.597500", "172016.057500", "172016.517500", "172016.977500", "172017.437500", "172017.897500", "172018.357500", "172018.817500", "172019.277500", "172019.737500", "172020.197500", "172020.657500", "172021.117500", "172021.577500", "172022.037500", "172022.497500", "172022.957500", "172023.417500", "172023.877500", "172024.337500", "172024.797500", "172025.257500", "172025.717500", "172026.177500", "172026.637500", "172027.097500", "172027.557500", "172028.017500", "172028.477500", "172028.937500", "172029.397500", "172029.857500", "172030.317500", "172030.777500", "172031.237500", "172031.697500", "172032.157500", "172032.617500", "172033.077500", "172033.537500", "172033.997500", "172034.457500", "172034.917500", "172035.377500", "172035.837500", "172036.297500", "172036.757500", "172037.217500", "172037.677500", "172038.137500", "172038.597500", "172039.057500", "172039.517500", "172039.977500", "172040.437500", "172040.897500", "172041.357500", "172041.817500", "172042.277500", "172042.737500", "172043.197500", "172043.657500", "172044.117500", "172044.577500", "172045.037500", "172045.497500", "172045.957500", "172046.417500", "172046.877500", "172047.337500", "172047.797500", "172048.257500", "172048.717500", "172049.177500", "172049.637500", "172050.097500", "172050.557500", "172051.017500", "172051.477500", "172051.937500", "172052.397500", "172052.857500", "172053.317500", "172053.777500", "172054.237500", "172054.697500", "172055.157500", "172055.617500", "172056.077500", "172056.537500", "172056.997500", "172057.457500", "172057.917500", "172058.377500", "172058.837500", "172059.297500", "172059.757500", "172100.217500", "172100.677500", "172101.137500", "172101.597500", "172102.057500", "172102.517500", "172102.977500", "172103.437500", "172103.897500", "172104.357500", "172104.817500", "172105.277500", "172105.737500", "172106.197500", "172106.657500", "172107.117500", "172107.577500", "172108.037500", "172108.497500", "172108.957500", "172109.417500", "172109.877500", "172110.337500", "172110.797500", "172111.257500", "172111.717500", "172112.177500", "172112.637500", "172113.097500", "172113.557500", "172114.017500", "172114.477500", "172114.937500", "172115.397500", "172115.857500", "172116.317500", "172116.777500", "172117.237500", "172117.697500", "172118.157500", "172118.617500", "172119.077500", "172119.537500", "172119.997500", "172120.457500", "172120.917500", "172121.377500", "172121.837500", "172122.297500", "172122.757500", "172123.217500", "172123.677500", "172124.137500", "172124.597500", "172125.057500", "172125.517500", "172125.977500", "172126.437500", "172126.897500", "172127.357500", "172127.817500", "172128.277500", "172128.737500", "172129.197500", "172129.657500", "172130.117500", "172130.577500", "172131.037500", "172131.497500", "172131.957500", "172132.417500", "172132.877500", "172133.337500", "172133.797500", "172134.257500", "172134.717500", "172135.177500", "172135.637500", "172136.097500", "172136.557500", "172137.017500", "172137.477500", "172137.937500", "172138.397500", "172138.857500", "172139.317500", "172139.777500", "172140.237500", "172140.697500", "172141.157500", "172141.617500", "172142.077500", "172142.537500", "172142.997500", "172143.457500", "172143.917500", "172144.377500", "172144.837500", "172145.297500", "172145.757500", "172146.217500", "172146.677500", "172147.137500", "172147.597500", "172148.057500", "172148.517500", "172148.977500", "172149.437500", "172149.897500", "172150.357500", "172150.817500", "172151.277500", "172151.737500", "172152.197500", "172152.657500", "172153.117500", "172153.577500", "172154.037500", "172154.497500", "172154.957500", "172155.417500", "172155.877500", "172156.337500", "172156.797500", "172157.257500", "172157.717500", "172158.177500", "172158.637500", "172159.097500", "172159.557500", "172200.017500", "172200.477500", "172200.937500", "172201.397500", "172201.857500", "172202.317500", "172202.777500", "172203.237500", "172203.697500", "172204.157500", "172204.617500", "172205.077500", "172205.537500", "172205.997500", "172206.457500", "172206.917500", "172207.377500", "172207.837500", "172208.297500", "172208.757500", "172209.217500", "172209.677500", "172210.137500", "172210.597500", "172211.057500", "172211.517500", "172211.977500", "172212.437500", "172212.897500", "172213.357500", "172213.817500", "172214.277500"],
