{
  "AcquisitionMatrixPE": 82,
  "AcquisitionNumber": 1,
  "AcquisitionTime": "16:01:28.450000",
  "BandwidthPerPixelPhaseEncode": 24.888,
  "BaseResolution": 82,
  "BodyPartExamined": "BRAIN",
  "ConsistencyInfo": "N4_VE11E_LATEST_20181129",
  "ConversionSoftware": "dcm2niix",
  "ConversionSoftwareVersion": "v1.0.20201102",
  "DerivedVendorReportedEchoSpacing": 0.00049,
  "DeviceSerialNumber": "66112",
  "DwellTime": 2e-06,
  "EchoTime": 0.0272,
  "EchoTrainLength": 82,
  "EffectiveEchoSpacing": 0.00049,
  "FlipAngle": 44,
  "ImageComments": "Unaliased MB8/PE3",
  "ImageOrientationPatientDICOM": [0.998207, 0.0546309, 0.0244415, -0.0516151, 0.992536, -0.110489],
  "ImageType": [
    "ORIGINAL",
    "PRIMARY",
    "M",
    "MB",
    "ND",
    "NORM",
    "MOSAIC"
],
  "ImagingFrequency": 123.259,
  "InPlanePhaseEncodingDirectionDICOM": "COL",
  "InstitutionAddress": "Maynard 3,Hanover,NH,US,03755",
  "InstitutionName": "Dartmouth College - PBS",
  "InstitutionalDepartmentName": "Department",
  "MRAcquisitionType": "2D",
  "MagneticFieldStrength": 3,
  "Manufacturer": "Siemens",
  "ManufacturersModelName": "Prisma",
  "Modality": "MR",
  "MultibandAccelerationFactor": 8,
  "PartialFourier": 1,
  "PatientPosition": "HFS",
  "PercentPhaseFOV": 100,
  "PercentSampling": 100,
  "PhaseEncodingDirection": "j-",
  "PhaseEncodingSteps": 82,
  "PhaseResolution": 1,
  "PixelBandwidth": 3050,
  "ProcedureStepDescription": "Wager_Wager^1076_spacetop",
  "ProtocolName": "func_run-01_task-alignvideo_acq-ap-mb8",
  "PulseSequenceDetails": "%CustomerSeq%\\cmrr_mbep2d_bold",
  "ReceiveCoilActiveElements": "HEA;HEP",
  "ReceiveCoilName": "Head_32",
  "ReconMatrixPE": 82,
  "RepetitionTime": 0.46,
  "SAR": 0.0893955,
  "ScanOptions": "FS",
  "ScanningSequence": "EP",
  "SequenceName": "epfid2d1_82",
  "SequenceVariant": "SK\\SS",
  "SeriesDescription": "func_run-01_task-alignvideo_acq-ap-mb8",
  "SeriesNumber": 28,
  "ShimSetting": [4238, -7793, -7221, 192, -127, -199, -79, 64],
  "SliceThickness": 2.7,
  "SliceTiming": [0, 0.25, 0.0625, 0.315, 0.125, 0.3775, 0.1875, 0, 0.25, 0.0625, 0.315, 0.125, 0.3775, 0.1875, 0, 0.25, 0.0625, 0.315, 0.125, 0.3775, 0.1875, 0, 0.25, 0.0625, 0.315, 0.125, 0.3775, 0.1875, 0, 0.25, 0.0625, 0.315, 0.125, 0.3775, 0.1875, 0, 0.25, 0.0625, 0.315, 0.125, 0.3775, 0.1875, 0, 0.25, 0.0625, 0.315, 0.125, 0.3775, 0.1875, 0, 0.25, 0.0625, 0.315, 0.125, 0.3775, 0.1875],
  "SoftwareVersions": "syngo MR E11",
  "SpacingBetweenSlices": 2.7,
  "StationName": "AWP66112",
  "TaskName": "alignvideo",
  "TotalReadoutTime": 0.03969,
  "TxRefAmp": 249.17,
  "WipMemBlock": "069af1d5-ddb7-4290-92f3-a66f3f9eaaaa||Sequence: R016 ve11e/master r/434b28f1; Aug  7 2019 18:53:46 by eja",
  "dcmmeta_affine": [
    [-2.678117513656616, -0.13847962021827698, 0.08179696649312973, 117.13427734375],
    [-0.14657062292099, 2.6629021167755127, -0.2943784296512604, -86.28829193115234],
    [0.0655747801065445, 0.2964330017566681, 2.682657241821289, -92.55357360839844],
    [0.0, 0.0, 0.0, 1.0]
],
  "dcmmeta_reorient_transform": [
    [0.0, -1.0, 0.0, 81.0],
    [1.0, 0.0, 0.0, 0.0],
    [0.0, 0.0, 1.0, 0.0],
    [0.0, 0.0, 0.0, 1.0]
],
  "dcmmeta_shape": [82, 82, 56, 839],
  "dcmmeta_slice_dim": 2,
  "dcmmeta_version": 0.6,
  "global": {
    "const": {
      "AccessionNumber": "A004302",
      "AcquisitionMatrix": [82, 0, 0, 82],
      "AngioFlag": "N",
      "BitsAllocated": 16,
      "BitsStored": 16,
      "BodyPartExamined": "BRAIN",
      "Columns": 656,
      "EchoNumbers": 1,
      "EchoTime": 27.2,
      "EchoTrainLength": 82,
      "FlipAngle": 44.0,
      "HighBit": 15,
      "ImageOrientationPatient": [0.99820743377859, 0.05463086812431, 0.02444150971506, -0.0516151287257, 0.99253621273538, -0.1104886641042],
      "ImagePositionPatient": [-834.79352266272, -935.72545122114, -2.2861927618996],
      "ImageType": [
        "ORIGINAL",
        "PRIMARY",
        "M",
        "MB",
        "ND",
        "NORM",
        "MOSAIC"
],
      "ImagedNucleus": "1H",
      "ImagingFrequency": 123.259176,
      "InPlanePhaseEncodingDirection": "COL",
      "MRAcquisitionType": "2D",
      "MagneticFieldStrength": 3.0,
      "Manufacturer": "SIEMENS",
      "ManufacturerModelName": "Prisma",
      "Modality": "MR",
      "NumberOfAverages": 1.0,
      "NumberOfPhaseEncodingSteps": 82,
      "PercentPhaseFieldOfView": 100.0,
      "PercentSampling": 100.0,
      "PerformedProcedureStepStartTime": "145045.116000",
      "PhotometricInterpretation": "MONOCHROME2",
      "PixelBandwidth": 3050.0,
      "PixelRepresentation": 0,
      "PixelSpacing": [2.6829268932343, 2.6829268932343],
      "ProtocolName": "func_run-01_task-alignvideo_acq-ap-mb8",
      "RepetitionTime": 460.0,
      "Rows": 656,
      "SAR": 0.08939547359903,
      "SamplesPerPixel": 1,
      "ScanOptions": "FS",
      "ScanningSequence": "EP",
      "SequenceName": "epfid2d1_82",
      "SequenceVariant": [
        "SK",
        "SS"
],
      "SeriesDescription": "func_run-01_task-alignvideo_acq-ap-mb8",
      "SeriesNumber": 28,
      "SeriesTime": "160142.566000",
      "SliceLocation": -79.002553064066,
      "SliceThickness": 2.7000000476837,
      "SmallestImagePixelValue": 0,
      "SoftwareVersions": "syngo MR E11",
      "SpacingBetweenSlices": 2.6999999030115,
      "SpecificCharacterSet": "ISO_IR 100",
      "StudyID": "1",
      "StudyTime": "145045.060000",
      "TransmitCoilName": "Body",
      "VariableFlipAngleFlag": "N",
      "WindowCenterWidthExplanation": "Algo1"
    },
    "slices": {}
  },
  "time": {
    "samples": {
      "AcquisitionNumber": [1, 2, 3, 4, 5, 6, 7, 8, 9, 10, 11, 12, 13, 14, 15, 16, 17, 18, 19, 20, 21, 22, 23, 24, 25, 26, 27, 28, 29, 30, 31, 32, 33, 34, 35, 36, 37, 38, 39, 40, 41, 42, 43, 44, 45, 46, 47, 48, 49, 50, 51, 52, 53, 54, 55, 56, 57, 58, 59, 60, 61, 62, 63, 64, 65, 66, 67, 68, 69, 70, 71, 72, 73, 74, 75, 76, 77, 78, 79, 80, 81, 82, 83, 84, 85, 86, 87, 88, 89, 90, 91, 92, 93, 94, 95, 96, 97, 98, 99, 100, 101, 102, 103, 104, 105, 106, 107, 108, 109, 110, 111, 112, 113, 114, 115, 116, 117, 118, 119, 120, 121, 122, 123, 124, 125, 126, 127, 128, 129, 130, 131, 132, 133, 134, 135, 136, 137, 138, 139, 140, 141, 142, 143, 144, 145, 146, 147, 148, 149, 150, 151, 152, 153, 154, 155, 156, 157, 158, 159, 160, 161, 162, 163, 164, 165, 166, 167, 168, 169, 170, 171, 172, 173, 174, 175, 176, 177, 178, 179, 180, 181, 182, 183, 184, 185, 186, 187, 188, 189, 190, 191, 192, 193, 194, 195, 196, 197, 198, 199, 200, 201, 202, 203, 204, 205, 206, 207, 208, 209, 210, 211, 212, 213, 214, 215, 216, 217, 218, 219, 220, 221, 222, 223, 224, 225, 226, 227, 228, 229, 230, 231, 232, 233, 234, 235, 236, 237, 238, 239, 240, 241, 242, 243, 244, 245, 246, 247, 248, 249, 250, 251, 252, 253, 254, 255, 256, 257, 258, 259, 260, 261, 262, 263, 264, 265, 266, 267, 268, 269, 270, 271, 272, 273, 274, 275, 276, 277, 278, 279, 280, 281, 282, 283, 284, 285, 286, 287, 288, 289, 290, 291, 292, 293, 294, 295, 296, 297, 298, 299, 300, 301, 302, 303, 304, 305, 306, 307, 308, 309, 310, 311, 312, 313, 314, 315, 316, 317, 318, 319, 320, 321, 322, 323, 324, 325, 326, 327, 328, 329, 330, 331, 332, 333, 334, 335, 336, 337, 338, 339, 340, 341, 342, 343, 344, 345, 346, 347, 348, 349, 350, 351, 352, 353, 354, 355, 356, 357, 358, 359, 360, 361, 362, 363, 364, 365, 366, 367, 368, 369, 370, 371, 372, 373, 374, 375, 376, 377, 378, 379, 380, 381, 382, 383, 384, 385, 386, 387, 388, 389, 390, 391, 392, 393, 394, 395, 396, 397, 398, 399, 400, 401, 402, 403, 404, 405, 406, 407, 408, 409, 410, 411, 412, 413, 414, 415, 416, 417, 418, 419, 420, 421, 422, 423, 424, 425, 426, 427, 428, 429, 430, 431, 432, 433, 434, 435, 436, 437, 438, 439, 440, 441, 442, 443, 444, 445, 446, 447, 448, 449, 450, 451, 452, 453, 454, 455, 456, 457, 458, 459, 460, 461, 462, 463, 464, 465, 466, 467, 468, 469, 470, 471, 472, 473, 474, 475, 476, 477, 478, 479, 480, 481, 482, 483, 484, 485, 486, 487, 488, 489, 490, 491, 492, 493, 494, 495, 496, 497, 498, 499, 500, 501, 502, 503, 504, 505, 506, 507, 508, 509, 510, 511, 512, 513, 514, 515, 516, 517, 518, 519, 520, 521, 522, 523, 524, 525, 526, 527, 528, 529, 530, 531, 532, 533, 534, 535, 536, 537, 538, 539, 540, 541, 542, 543, 544, 545, 546, 547, 548, 549, 550, 551, 552, 553, 554, 555, 556, 557, 558, 559, 560, 561, 562, 563, 564, 565, 566, 567, 568, 569, 570, 571, 572, 573, 574, 575, 576, 577, 578, 579, 580, 581, 582, 583, 584, 585, 586, 587, 588, 589, 590, 591, 592, 593, 594, 595, 596, 597, 598, 599, 600, 601, 602, 603, 604, 605, 606, 607, 608, 609, 610, 611, 612, 613, 614, 615, 616, 617, 618, 619, 620, 621, 622, 623, 624, 625, 626, 627, 628, 629, 630, 631, 632, 633, 634, 635, 636, 637, 638, 639, 640, 641, 642, 643, 644, 645, 646, 647, 648, 649, 650, 651, 652, 653, 654, 655, 656, 657, 658, 659, 660, 661, 662, 663, 664, 665, 666, 667, 668, 669, 670, 671, 672, 673, 674, 675, 676, 677, 678, 679, 680, 681, 682, 683, 684, 685, 686, 687, 688, 689, 690, 691, 692, 693, 694, 695, 696, 697, 698, 699, 700, 701, 702, 703, 704, 705, 706, 707, 708, 709, 710, 711, 712, 713, 714, 715, 716, 717, 718, 719, 720, 721, 722, 723, 724, 725, 726, 727, 728, 729, 730, 731, 732, 733, 734, 735, 736, 737, 738, 739, 740, 741, 742, 743, 744, 745, 746, 747, 748, 749, 750, 751, 752, 753, 754, 755, 756, 757, 758, 759, 760, 761, 762, 763, 764, 765, 766, 767, 768, 769, 770, 771, 772, 773, 774, 775, 776, 777, 778, 779, 780, 781, 782, 783, 784, 785, 786, 787, 788, 789, 790, 791, 792, 793, 794, 795, 796, 797, 798, 799, 800, 801, 802, 803, 804, 805, 806, 807, 808, 809, 810, 811, 812, 813, 814, 815, 816, 817, 818, 819, 820, 821, 822, 823, 824, 825, 826, 827, 828, 829, 830, 831, 832, 833, 834, 835, 836, 837, 838, 839],
      "AcquisitionTime": ["160128.450000", "160128.910000", "160129.370000", "160129.830000", "160130.290000", "160130.750000", "160131.210000", "160131.670000", "160132.130000", "160132.590000", "160133.050000", "160133.510000", "160133.970000", "160134.430000", "160134.890000", "160135.350000", "160135.810000", "160136.270000", "160136.730000", "160137.190000", "160137.650000", "160138.110000", "160138.570000", "160139.030000", "160139.490000", "160139.950000", "160140.410000", "160140.870000", "160141.330000", "160141.790000", "160142.250000", "160142.710000", "160143.170000", "160143.630000", "160144.090000", "160144.550000", "160145.010000", "160145.470000", "160145.930000", "160146.390000", "160146.850000", "160147.310000", "160147.770000", "160148.230000", "160148.690000", "160149.150000", "160149.610000", "160150.070000", "160150.530000", "160150.990000", "160151.450000", "160151.910000", "160152.370000", "160152.830000", "160153.290000", "160153.750000", "160154.210000", "160154.670000", "160155.130000", "160155.590000", "160156.050000", "160156.510000", "160156.970000", "160157.430000", "160157.890000", "160158.350000", "160158.810000", "160159.270000", "160159.730000", "160200.190000", "160200.650000", "160201.110000", "160201.570000", "160202.030000", "160202.490000", "160202.950000", "160203.410000", "160203.870000", "160204.330000", "160204.790000", "160205.250000", "160205.710000", "160206.170000", "160206.630000", "160207.090000", "160207.550000", "160208.010000", "160208.470000", "160208.930000", "160209.390000", "160209.850000", "160210.310000", "160210.770000", "160211.230000", "160211.690000", "160212.150000", "160212.610000", "160213.070000", "160213.530000", "160213.990000", "160214.450000", "160214.910000", "160215.370000", "160215.830000", "160216.290000", "160216.750000", "160217.210000", "160217.670000", "160218.130000", "160218.590000", "160219.050000", "160219.510000", "160219.970000", "160220.430000", "160220.890000", "160221.350000", "160221.810000", "160222.270000", "160222.730000", "160223.190000", "160223.650000", "160224.110000", "160224.570000", "160225.030000", "160225.490000", "160225.950000", "160226.410000", "160226.870000", "160227.330000", "160227.790000", "160228.250000", "160228.710000", "160229.170000", "160229.630000", "160230.090000", "160230.550000", "160231.010000", "160231.470000", "160231.930000", "160232.390000", "160232.850000", "160233.310000", "160233.770000", "160234.230000", "160234.690000", "160235.150000", "160235.610000", "160236.070000", "160236.530000", "160236.990000", "160237.450000", "160237.910000", "160238.370000", "160238.830000", "160239.290000", "160239.750000", "160240.210000", "160240.670000", "160241.130000", "160241.590000", "160242.050000", "160242.510000", "160242.970000", "160243.430000", "160243.890000", "160244.350000", "160244.810000", "160245.270000", "160245.730000", "160246.190000", "160246.650000", "160247.110000", "160247.570000", "160248.030000", "160248.490000", "160248.950000", "160249.410000", "160249.870000", "160250.330000", "160250.790000", "160251.250000", "160251.710000", "160252.170000", "160252.630000", "160253.090000", "160253.550000", "160254.010000", "160254.470000", "160254.930000", "160255.390000", "160255.850000", "160256.310000", "160256.770000", "160257.230000", "160257.690000", "160258.150000", "160258.610000", "160259.070000", "160259.530000", "160259.990000", "160300.450000", "160300.910000", "160301.370000", "160301.830000", "160302.290000", "160302.750000", "160303.210000", "160303.670000", "160304.130000", "160304.590000", "160305.050000", "160305.510000", "160305.970000", "160306.430000", "160306.890000", "160307.350000", "160307.810000", "160308.270000", "160308.730000", "160309.190000", "160309.650000", "160310.110000", "160310.570000", "160311.030000", "160311.490000", "160311.950000", "160312.410000", "160312.870000", "160313.330000", "160313.790000", "160314.250000", "160314.710000", "160315.170000", "160315.630000", "160316.090000", "160316.550000", "160317.010000", "160317.470000", "160317.930000", "160318.390000", "160318.850000", "160319.310000", "160319.770000", "160320.230000", "160320.690000", "160321.150000", "160321.610000", "160322.070000", "160322.530000", "160322.990000", "160323.450000", "160323.910000", "160324.370000", "160324.830000", "160325.290000", "160325.750000", "160326.210000", "160326.670000", "160327.130000", "160327.590000", "160328.050000", "160328.510000", "160328.970000", "160329.430000", "160329.890000", "160330.350000", "160330.810000", "160331.270000", "160331.730000", "160332.190000", "160332.650000", "160333.110000", "160333.570000", "160334.030000", "160334.490000", "160334.950000", "160335.410000", "160335.870000", "160336.330000", "160336.790000", "160337.250000", "160337.710000", "160338.170000", "160338.630000", "160339.090000", "160339.550000", "160340.010000", "160340.470000", "160340.930000", "160341.390000", "160341.850000", "160342.310000", "160342.770000", "160343.230000", "160343.690000", "160344.150000", "160344.610000", "160345.070000", "160345.530000", "160345.990000", "160346.450000", "160346.910000", "160347.370000", "160347.830000", "160348.290000", "160348.750000", "160349.210000", "160349.670000", "160350.130000", "160350.590000", "160351.050000", "160351.510000", "160351.970000", "160352.430000", "160352.890000", "160353.350000", "160353.810000", "160354.270000", "160354.730000", "160355.190000", "160355.650000", "160356.110000", "160356.570000", "160357.030000", "160357.490000", "160357.950000", "160358.410000", "160358.870000", "160359.330000", "160359.790000", "160400.250000", "160400.710000", "160401.170000", "160401.630000", "160402.090000", "160402.550000", "160403.010000", "160403.470000", "160403.930000", "160404.390000", "160404.850000", "160405.310000", "160405.770000", "160406.230000", "160406.690000", "160407.150000", "160407.610000", "160408.070000", "160408.530000", "160408.990000", "160409.450000", "160409.910000", "160410.370000", "160410.830000", "160411.290000", "160411.750000", "160412.210000", "160412.670000", "160413.130000", "160413.590000", "160414.050000", "160414.510000", "160414.970000", "160415.430000", "160415.890000", "160416.350000", "160416.810000", "160417.270000", "160417.730000", "160418.190000", "160418.650000", "160419.110000", "160419.570000", "160420.030000", "160420.490000", "160420.950000", "160421.410000", "160421.870000", "160422.330000", "160422.790000", "160423.250000", "160423.710000", "160424.170000", "160424.630000", "160425.090000", "160425.550000", "160426.010000", "160426.470000", "160426.930000", "160427.390000", "160427.850000", "160428.310000", "160428.770000", "160429.230000", "160429.690000", "160430.150000", "160430.610000", "160431.070000", "160431.530000", "160431.990000", "160432.450000", "160432.910000", "160433.370000", "160433.830000", "160434.290000", "160434.750000", "160435.210000", "160435.670000", "160436.130000", "160436.590000", "160437.050000", "160437.510000", "160437.970000", "160438.430000", "160438.890000", "160439.350000", "160439.810000", "160440.270000", "160440.730000", "160441.190000", "160441.650000", "160442.110000", "160442.570000", "160443.030000", "160443.490000", "160443.950000", "160444.410000", "160444.870000", "160445.330000", "160445.790000", "160446.250000", "160446.710000", "160447.170000", "160447.630000", "160448.090000", "160448.550000", "160449.010000", "160449.470000", "160449.930000", "160450.390000", "160450.850000", "160451.310000", "160451.770000", "160452.230000", "160452.690000", "160453.150000", "160453.610000", "160454.070000", "160454.530000", "160454.990000", "160455.450000", "160455.910000", "160456.370000", "160456.830000", "160457.290000", "160457.750000", "160458.210000", "160458.670000", "160459.130000", "160459.590000", "160500.050000", "160500.510000", "160500.970000", "160501.430000", "160501.890000", "160502.350000", "160502.810000", "160503.270000", "160503.730000", "160504.190000", "160504.650000", "160505.110000", "160505.570000", "160506.030000", "160506.490000", "160506.950000", "160507.410000", "160507.870000", "160508.330000", "160508.790000", "160509.250000", "160509.710000", "160510.170000", "160510.630000", "160511.090000", "160511.550000", "160512.010000", "160512.470000", "160512.930000", "160513.390000", "160513.850000", "160514.310000", "160514.770000", "160515.230000", "160515.690000", "160516.150000", "160516.610000", "160517.070000", "160517.530000", "160517.990000", "160518.450000", "160518.910000", "160519.370000", "160519.830000", "160520.290000", "160520.750000", "160521.210000", "160521.670000", "160522.130000", "160522.590000", "160523.050000", "160523.510000", "160523.970000", "160524.430000", "160524.890000", "160525.350000", "160525.810000", "160526.270000", "160526.730000", "160527.190000", "160527.650000", "160528.110000", "160528.570000", "160529.030000", "160529.490000", "160529.950000", "160530.410000", "160530.870000", "160531.330000", "160531.790000", "160532.250000", "160532.710000", "160533.170000", "160533.630000", "160534.090000", "160534.550000", "160535.010000", "160535.470000", "160535.930000", "160536.390000", "160536.850000", "160537.310000", "160537.770000", "160538.230000", "160538.690000", "160539.150000", "160539.610000", "160540.070000", "160540.530000", "160540.990000", "160541.450000", "160541.910000", "160542.370000", "160542.830000", "160543.290000", "160543.750000", "160544.210000", "160544.670000", "160545.130000", "160545.590000", "160546.050000", "160546.510000", "160546.970000", "160547.430000", "160547.890000", "160548.350000", "160548.810000", "160549.270000", "160549.730000", "160550.190000", "160550.650000", "160551.110000", "160551.570000", "160552.030000", "160552.490000", "160552.950000", "160553.410000", "160553.870000", "160554.330000", "160554.790000", "160555.250000", "160555.710000", "160556.170000", "160556.630000", "160557.090000", "160557.550000", "160558.010000", "160558.470000", "160558.930000", "160559.390000", "160559.850000", "160600.310000", "160600.770000", "160601.230000", "160601.690000", "160602.150000", "160602.610000", "160603.070000", "160603.530000", "160603.990000", "160604.450000", "160604.910000", "160605.370000", "160605.830000", "160606.290000", "160606.750000", "160607.210000", "160607.670000", "160608.130000", "160608.590000", "160609.050000", "160609.510000", "160609.970000", "160610.430000", "160610.890000", "160611.350000", "160611.810000", "160612.270000", "160612.730000", "160613.190000", "160613.650000", "160614.110000", "160614.570000", "160615.030000", "160615.490000", "160615.950000", "160616.410000", "160616.870000", "160617.330000", "160617.790000", "160618.250000", "160618.710000", "160619.170000", "160619.630000", "160620.090000", "160620.550000", "160621.010000", "160621.470000", "160621.930000", "160622.390000", "160622.850000", "160623.310000", "160623.770000", "160624.230000", "160624.690000", "160625.150000", "160625.610000", "160626.070000", "160626.530000", "160626.990000", "160627.450000", "160627.910000", "160628.370000", "160628.830000", "160629.290000", "160629.750000", "160630.210000", "160630.670000", "160631.130000", "160631.590000", "160632.050000", "160632.510000", "160632.970000", "160633.430000", "160633.890000", "160634.350000", "160634.810000", "160635.270000", "160635.730000", "160636.190000", "160636.650000", "160637.110000", "160637.570000", "160638.030000", "160638.490000", "160638.950000", "160639.410000", "160639.870000", "160640.330000", "160640.790000", "160641.250000", "160641.710000", "160642.170000", "160642.630000", "160643.090000", "160643.550000", "160644.010000", "160644.470000", "160644.930000", "160645.390000", "160645.850000", "160646.310000", "160646.770000", "160647.230000", "160647.690000", "160648.150000", "160648.610000", "160649.070000", "160649.530000", "160649.990000", "160650.450000", "160650.910000", "160651.370000", "160651.830000", "160652.290000", "160652.750000", "160653.210000", "160653.670000", "160654.130000", "160654.590000", "160655.050000", "160655.510000", "160655.970000", "160656.430000", "160656.890000", "160657.350000", "160657.810000", "160658.270000", "160658.730000", "160659.190000", "160659.650000", "160700.110000", "160700.570000", "160701.030000", "160701.490000", "160701.950000", "160702.410000", "160702.870000", "160703.330000", "160703.790000", "160704.250000", "160704.710000", "160705.170000", "160705.630000", "160706.090000", "160706.550000", "160707.010000", "160707.470000", "160707.930000", "160708.390000", "160708.850000", "160709.310000", "160709.770000", "160710.230000", "160710.690000", "160711.150000", "160711.610000", "160712.070000", "160712.530000", "160712.990000", "160713.450000", "160713.910000", "160714.370000", "160714.830000", "160715.290000", "160715.750000", "160716.210000", "160716.670000", "160717.130000", "160717.590000", "160718.050000", "160718.510000", "160718.970000", "160719.430000", "160719.890000", "160720.350000", "160720.810000", "160721.270000", "160721.730000", "160722.190000", "160722.650000", "160723.110000", "160723.570000", "160724.030000", "160724.490000", "160724.950000", "160725.410000", "160725.870000", "160726.330000", "160726.790000", "160727.250000", "160727.710000", "160728.170000", "160728.630000", "160729.090000", "160729.550000", "160730.010000", "160730.470000", "160730.930000", "160731.390000", "160731.850000", "160732.310000", "160732.770000", "160733.230000", "160733.690000", "160734.150000", "160734.610000", "160735.070000", "160735.530000", "160735.990000", "160736.450000", "160736.910000", "160737.370000", "160737.830000", "160738.290000", "160738.750000", "160739.210000", "160739.670000", "160740.130000", "160740.590000", "160741.050000", "160741.510000", "160741.970000", "160742.430000", "160742.890000", "160743.350000", "160743.810000", "160744.270000", "160744.730000", "160745.190000", "160745.650000", "160746.110000", "160746.570000", "160747.030000", "160747.490000", "160747.950000", "160748.410000", "160748.870000", "160749.330000", "160749.790000", "160750.250000", "160750.710000", "160751.170000", "160751.630000", "160752.090000", "160752.550000", "160753.010000", "160753.470000", "160753.930000"],
