{
  "AcquisitionMatrixPE": 82,
  "AcquisitionNumber": 1,
  "AcquisitionTime": "14:59:19.780000",
  "BandwidthPerPixelPhaseEncode": 24.888,
  "BaseResolution": 82,
  "BodyPartExamined": "BRAIN",
  "ConsistencyInfo": "N4_VE11E_LATEST_20181129",
  "ConversionSoftware": "dcm2niix",
  "ConversionSoftwareVersion": "v1.0.20201102",
  "DerivedVendorReportedEchoSpacing": 0.00049,
  "DeviceSerialNumber": "66112",
  "DwellTime": 2e-06,
  "EchoTime": 0.0272,
  "EchoTrainLength": 82,
  "EffectiveEchoSpacing": 0.00049,
  "FlipAngle": 44,
  "ImageComments": "Unaliased MB8/PE3",
  "ImageOrientationPatientDICOM": [0.996341, 0.0671637, 0.052858, -0.0607643, 0.991558, -0.114548],
  "ImageType": [
    "ORIGINAL",
    "PRIMARY",
    "M",
    "MB",
    "ND",
    "NORM",
    "MOSAIC"
],
  "ImagingFrequency": 123.259,
  "InPlanePhaseEncodingDirectionDICOM": "COL",
  "InstitutionAddress": "Maynard 3,Hanover,NH,US,03755",
  "InstitutionName": "Dartmouth College - PBS",
  "InstitutionalDepartmentName": "Department",
  "MRAcquisitionType": "2D",
  "MagneticFieldStrength": 3,
  "Manufacturer": "Siemens",
  "ManufacturersModelName": "Prisma",
  "Modality": "MR",
  "MultibandAccelerationFactor": 8,
  "PartialFourier": 1,
  "PatientPosition": "HFS",
  "PercentPhaseFOV": 100,
  "PercentSampling": 100,
  "PhaseEncodingDirection": "j-",
  "PhaseEncodingSteps": 82,
  "PhaseResolution": 1,
  "PixelBandwidth": 3050,
  "ProcedureStepDescription": "Wager_Wager^1076_spacetop",
  "ProtocolName": "func_run-01_task-narratives_acq-ap-mb8",
  "PulseSequenceDetails": "%CustomerSeq%\\cmrr_mbep2d_bold",
  "ReceiveCoilActiveElements": "HEA;HEP",
  "ReceiveCoilName": "Head_32",
  "ReconMatrixPE": 82,
  "RepetitionTime": 0.46,
  "SAR": 0.0894719,
  "ScanOptions": "FS",
  "ScanningSequence": "EP",
  "SequenceName": "epfid2d1_82",
  "SequenceVariant": "SK\\SS",
  "SeriesDescription": "func_run-01_task-narratives_acq-ap-mb8",
  "SeriesNumber": 8,
  "ShimSetting": [4238, -7792, -7219, 205, -129, -180, -85, 65],
  "SliceThickness": 2.7,
  "SliceTiming": [0, 0.2525, 0.065, 0.315, 0.1275, 0.3775, 0.19, 0, 0.2525, 0.065, 0.315, 0.1275, 0.3775, 0.19, 0, 0.2525, 0.065, 0.315, 0.1275, 0.3775, 0.19, 0, 0.2525, 0.065, 0.315, 0.1275, 0.3775, 0.19, 0, 0.2525, 0.065, 0.315, 0.1275, 0.3775, 0.19, 0, 0.2525, 0.065, 0.315, 0.1275, 0.3775, 0.19, 0, 0.2525, 0.065, 0.315, 0.1275, 0.3775, 0.19, 0, 0.2525, 0.065, 0.315, 0.1275, 0.3775, 0.19],
  "SoftwareVersions": "syngo MR E11",
  "SpacingBetweenSlices": 2.7,
  "StationName": "AWP66112",
  "TaskName": "narratives",
  "TotalReadoutTime": 0.03969,
  "TxRefAmp": 249.17,
  "WipMemBlock": "577a3ef9-fe45-4387-b146-cf7edd1beefc||Sequence: R016 ve11e/master r/434b28f1; Aug  7 2019 18:53:46 by eja",
  "dcmmeta_affine": [
    [-2.673109531402588, -0.16302607953548431, 0.16228428483009338, 116.10147094726562],
    [-0.1801954209804535, 2.660276412963867, -0.29947662353515625, -84.20118713378906],
    [0.14181427657604218, 0.30732470750808716, 2.6784281730651855, -91.3040542602539],
    [0.0, 0.0, 0.0, 1.0]
],
  "dcmmeta_reorient_transform": [
    [0.0, -1.0, 0.0, 81.0],
    [1.0, 0.0, 0.0, 0.0],
    [0.0, 0.0, 1.0, 0.0],
    [0.0, 0.0, 0.0, 1.0]
],
  "dcmmeta_shape": [82, 82, 56, 967],
  "dcmmeta_slice_dim": 2,
  "dcmmeta_version": 0.6,
  "global": {
    "const": {
      "AccessionNumber": "A004302",
      "AcquisitionMatrix": [82, 0, 0, 82],
      "AngioFlag": "N",
      "BitsAllocated": 16,
      "BitsStored": 16,
      "BodyPartExamined": "BRAIN",
      "Columns": 656,
      "EchoNumbers": 1,
      "EchoTime": 27.2,
      "EchoTrainLength": 82,
      "FlipAngle": 44.0,
      "HighBit": 15,
      "ImageOrientationPatient": [0.99634083438701, 0.06716374417436, 0.05285804765101, -0.06076426564, 0.99155755896426, -0.1145482923578],
      "ImagePositionPatient": [-823.29033218567, -946.49662547356, -18.909261525369],
      "ImageType": [
        "ORIGINAL",
        "PRIMARY",
        "M",
        "MB",
        "ND",
        "NORM",
        "MOSAIC"
],
      "ImagedNucleus": "1H",
      "ImagingFrequency": 123.259162,
      "InPlanePhaseEncodingDirection": "COL",
      "MRAcquisitionType": "2D",
      "MagneticFieldStrength": 3.0,
      "Manufacturer": "SIEMENS",
      "ManufacturerModelName": "Prisma",
      "Modality": "MR",
      "NumberOfAverages": 1.0,
      "NumberOfPhaseEncodingSteps": 82,
      "PercentPhaseFieldOfView": 100.0,
      "PercentSampling": 100.0,
      "PerformedProcedureStepStartTime": "145045.116000",
      "PhotometricInterpretation": "MONOCHROME2",
      "PixelBandwidth": 3050.0,
      "PixelRepresentation": 0,
      "PixelSpacing": [2.6829268932343, 2.6829268932343],
      "ProtocolName": "func_run-01_task-narratives_acq-ap-mb8",
      "RepetitionTime": 460.0,
      "Rows": 656,
      "SAR": 0.08947188534271,
      "SamplesPerPixel": 1,
      "ScanOptions": "FS",
      "ScanningSequence": "EP",
      "SequenceName": "epfid2d1_82",
      "SequenceVariant": [
        "SK",
        "SS"
],
      "SeriesDescription": "func_run-01_task-narratives_acq-ap-mb8",
      "SeriesNumber": 8,
      "SeriesTime": "145942.729000",
      "SliceLocation": -74.256894595331,
      "SliceThickness": 2.7000000476837,
      "SmallestImagePixelValue": 0,
      "SoftwareVersions": "syngo MR E11",
      "SpacingBetweenSlices": 2.7000000420525,
      "SpecificCharacterSet": "ISO_IR 100",
      "StudyID": "1",
      "StudyTime": "145045.060000",
      "TransmitCoilName": "Body",
      "VariableFlipAngleFlag": "N",
      "WindowCenterWidthExplanation": "Algo1"
    },
    "slices": {}
  },
  "time": {
    "samples": {
      "AcquisitionNumber": [1, 2, 3, 4, 5, 6, 7, 8, 9, 10, 11, 12, 13, 14, 15, 16, 17, 18, 19, 20, 21, 22, 23, 24, 25, 26, 27, 28, 29, 30, 31, 32, 33, 34, 35, 36, 37, 38, 39, 40, 41, 42, 43, 44, 45, 46, 47, 48, 49, 50, 51, 52, 53, 54, 55, 56, 57, 58, 59, 60, 61, 62, 63, 64, 65, 66, 67, 68, 69, 70, 71, 72, 73, 74, 75, 76, 77, 78, 79, 80, 81, 82, 83, 84, 85, 86, 87, 88, 89, 90, 91, 92, 93, 94, 95, 96, 97, 98, 99, 100, 101, 102, 103, 104, 105, 106, 107, 108, 109, 110, 111, 112, 113, 114, 115, 116, 117, 118, 119, 120, 121, 122, 123, 124, 125, 126, 127, 128, 129, 130, 131, 132, 133, 134, 135, 136, 137, 138, 139, 140, 141, 142, 143, 144, 145, 146, 147, 148, 149, 150, 151, 152, 153, 154, 155, 156, 157, 158, 159, 160, 161, 162, 163, 164, 165, 166, 167, 168, 169, 170, 171, 172, 173, 174, 175, 176, 177, 178, 179, 180, 181, 182, 183, 184, 185, 186, 187, 188, 189, 190, 191, 192, 193, 194, 195, 196, 197, 198, 199, 200, 201, 202, 203, 204, 205, 206, 207, 208, 209, 210, 211, 212, 213, 214, 215, 216, 217, 218, 219, 220, 221, 222, 223, 224, 225, 226, 227, 228, 229, 230, 231, 232, 233, 234, 235, 236, 237, 238, 239, 240, 241, 242, 243, 244, 245, 246, 247, 248, 249, 250, 251, 252, 253, 254, 255, 256, 257, 258, 259, 260, 261, 262, 263, 264, 265, 266, 267, 268, 269, 270, 271, 272, 273, 274, 275, 276, 277, 278, 279, 280, 281, 282, 283, 284, 285, 286, 287, 288, 289, 290, 291, 292, 293, 294, 295, 296, 297, 298, 299, 300, 301, 302, 303, 304, 305, 306, 307, 308, 309, 310, 311, 312, 313, 314, 315, 316, 317, 318, 319, 320, 321, 322, 323, 324, 325, 326, 327, 328, 329, 330, 331, 332, 333, 334, 335, 336, 337, 338, 339, 340, 341, 342, 343, 344, 345, 346, 347, 348, 349, 350, 351, 352, 353, 354, 355, 356, 357, 358, 359, 360, 361, 362, 363, 364, 365, 366, 367, 368, 369, 370, 371, 372, 373, 374, 375, 376, 377, 378, 379, 380, 381, 382, 383, 384, 385, 386, 387, 388, 389, 390, 391, 392, 393, 394, 395, 396, 397, 398, 399, 400, 401, 402, 403, 404, 405, 406, 407, 408, 409, 410, 411, 412, 413, 414, 415, 416, 417, 418, 419, 420, 421, 422, 423, 424, 425, 426, 427, 428, 429, 430, 431, 432, 433, 434, 435, 436, 437, 438, 439, 440, 441, 442, 443, 444, 445, 446, 447, 448, 449, 450, 451, 452, 453, 454, 455, 456, 457, 458, 459, 460, 461, 462, 463, 464, 465, 466, 467, 468, 469, 470, 471, 472, 473, 474, 475, 476, 477, 478, 479, 480, 481, 482, 483, 484, 485, 486, 487, 488, 489, 490, 491, 492, 493, 494, 495, 496, 497, 498, 499, 500, 501, 502, 503, 504, 505, 506, 507, 508, 509, 510, 511, 512, 513, 514, 515, 516, 517, 518, 519, 520, 521, 522, 523, 524, 525, 526, 527, 528, 529, 530, 531, 532, 533, 534, 535, 536, 537, 538, 539, 540, 541, 542, 543, 544, 545, 546, 547, 548, 549, 550, 551, 552, 553, 554, 555, 556, 557, 558, 559, 560, 561, 562, 563, 564, 565, 566, 567, 568, 569, 570, 571, 572, 573, 574, 575, 576, 577, 578, 579, 580, 581, 582, 583, 584, 585, 586, 587, 588, 589, 590, 591, 592, 593, 594, 595, 596, 597, 598, 599, 600, 601, 602, 603, 604, 605, 606, 607, 608, 609, 610, 611, 612, 613, 614, 615, 616, 617, 618, 619, 620, 621, 622, 623, 624, 625, 626, 627, 628, 629, 630, 631, 632, 633, 634, 635, 636, 637, 638, 639, 640, 641, 642, 643, 644, 645, 646, 647, 648, 649, 650, 651, 652, 653, 654, 655, 656, 657, 658, 659, 660, 661, 662, 663, 664, 665, 666, 667, 668, 669, 670, 671, 672, 673, 674, 675, 676, 677, 678, 679, 680, 681, 682, 683, 684, 685, 686, 687, 688, 689, 690, 691, 692, 693, 694, 695, 696, 697, 698, 699, 700, 701, 702, 703, 704, 705, 706, 707, 708, 709, 710, 711, 712, 713, 714, 715, 716, 717, 718, 719, 720, 721, 722, 723, 724, 725, 726, 727, 728, 729, 730, 731, 732, 733, 734, 735, 736, 737, 738, 739, 740, 741, 742, 743, 744, 745, 746, 747, 748, 749, 750, 751, 752, 753, 754, 755, 756, 757, 758, 759, 760, 761, 762, 763, 764, 765, 766, 767, 768, 769, 770, 771, 772, 773, 774, 775, 776, 777, 778, 779, 780, 781, 782, 783, 784, 785, 786, 787, 788, 789, 790, 791, 792, 793, 794, 795, 796, 797, 798, 799, 800, 801, 802, 803, 804, 805, 806, 807, 808, 809, 810, 811, 812, 813, 814, 815, 816, 817, 818, 819, 820, 821, 822, 823, 824, 825, 826, 827, 828, 829, 830, 831, 832, 833, 834, 835, 836, 837, 838, 839, 840, 841, 842, 843, 844, 845, 846, 847, 848, 849, 850, 851, 852, 853, 854, 855, 856, 857, 858, 859, 860, 861, 862, 863, 864, 865, 866, 867, 868, 869, 870, 871, 872, 873, 874, 875, 876, 877, 878, 879, 880, 881, 882, 883, 884, 885, 886, 887, 888, 889, 890, 891, 892, 893, 894, 895, 896, 897, 898, 899, 900, 901, 902, 903, 904, 905, 906, 907, 908, 909, 910, 911, 912, 913, 914, 915, 916, 917, 918, 919, 920, 921, 922, 923, 924, 925, 926, 927, 928, 929, 930, 931, 932, 933, 934, 935, 936, 937, 938, 939, 940, 941, 942, 943, 944, 945, 946, 947, 948, 949, 950, 951, 952, 953, 954, 955, 956, 957, 958, 959, 960, 961, 962, 963, 964, 965, 966, 967],
      "AcquisitionTime": ["145919.780000", "145920.240000", "145920.700000", "145921.160000", "145921.620000", "145922.080000", "145922.540000", "145923.000000", "145923.460000", "145923.920000", "145924.380000", "145924.840000", "145925.300000", "145925.760000", "145926.220000", "145926.680000", "145927.140000", "145927.600000", "145928.060000", "145928.520000", "145928.980000", "145929.440000", "145929.900000", "145930.360000", "145930.820000", "145931.280000", "145931.740000", "145932.200000", "145932.660000", "145933.120000", "145933.580000", "145934.040000", "145934.500000", "145934.960000", "145935.420000", "145935.880000", "145936.340000", "145936.800000", "145937.260000", "145937.720000", "145938.180000", "145938.640000", "145939.100000", "145939.560000", "145940.020000", "145940.480000", "145940.940000", "145941.400000", "145941.860000", "145942.320000", "145942.780000", "145943.240000", "145943.700000", "145944.160000", "145944.620000", "145945.080000", "145945.540000", "145946.000000", "145946.460000", "145946.920000", "145947.380000", "145947.840000", "145948.300000", "145948.760000", "145949.220000", "145949.680000", "145950.140000", "145950.600000", "145951.060000", "145951.520000", "145951.980000", "145952.440000", "145952.900000", "145953.360000", "145953.820000", "145954.280000", "145954.740000", "145955.200000", "145955.660000", "145956.120000", "145956.580000", "145957.040000", "145957.500000", "145957.960000", "145958.420000", "145958.880000", "145959.340000", "145959.800000", "150000.260000", "150000.720000", "150001.180000", "150001.640000", "150002.100000", "150002.560000", "150003.020000", "150003.480000", "150003.940000", "150004.400000", "150004.860000", "150005.320000", "150005.780000", "150006.240000", "150006.700000", "150007.160000", "150007.620000", "150008.080000", "150008.540000", "150009.000000", "150009.460000", "150009.920000", "150010.380000", "150010.840000", "150011.300000", "150011.760000", "150012.220000", "150012.680000", "150013.140000", "150013.600000", "150014.060000", "150014.520000", "150014.980000", "150015.440000", "150015.900000", "150016.360000", "150016.820000", "150017.280000", "150017.740000", "150018.200000", "150018.660000", "150019.120000", "150019.580000", "150020.040000", "150020.500000", "150020.960000", "150021.420000", "150021.880000", "150022.340000", "150022.800000", "150023.260000", "150023.720000", "150024.180000", "150024.640000", "150025.100000", "150025.560000", "150026.020000", "150026.480000", "150026.940000", "150027.400000", "150027.860000", "150028.320000", "150028.780000", "150029.240000", "150029.700000", "150030.160000", "150030.620000", "150031.080000", "150031.540000", "150032.000000", "150032.460000", "150032.920000", "150033.380000", "150033.840000", "150034.300000", "150034.760000", "150035.220000", "150035.680000", "150036.140000", "150036.600000", "150037.060000", "150037.520000", "150037.980000", "150038.440000", "150038.900000", "150039.360000", "150039.820000", "150040.280000", "150040.740000", "150041.200000", "150041.660000", "150042.120000", "150042.580000", "150043.040000", "150043.500000", "150043.960000", "150044.420000", "150044.880000", "150045.340000", "150045.800000", "150046.260000", "150046.720000", "150047.180000", "150047.640000", "150048.100000", "150048.560000", "150049.020000", "150049.480000", "150049.940000", "150050.400000", "150050.860000", "150051.320000", "150051.780000", "150052.240000", "150052.700000", "150053.160000", "150053.620000", "150054.080000", "150054.540000", "150055.000000", "150055.460000", "150055.920000", "150056.380000", "150056.840000", "150057.300000", "150057.760000", "150058.220000", "150058.680000", "150059.140000", "150059.600000", "150100.060000", "150100.520000", "150100.980000", "150101.440000", "150101.900000", "150102.360000", "150102.820000", "150103.280000", "150103.740000", "150104.200000", "150104.660000", "150105.120000", "150105.580000", "150106.040000", "150106.500000", "150106.960000", "150107.420000", "150107.880000", "150108.340000", "150108.800000", "150109.260000", "150109.720000", "150110.180000", "150110.640000", "150111.100000", "150111.560000", "150112.020000", "150112.480000", "150112.940000", "150113.400000", "150113.860000", "150114.320000", "150114.780000", "150115.240000", "150115.700000", "150116.160000", "150116.620000", "150117.080000", "150117.540000", "150118.000000", "150118.460000", "150118.920000", "150119.380000", "150119.840000", "150120.300000", "150120.760000", "150121.220000", "150121.680000", "150122.140000", "150122.600000", "150123.060000", "150123.520000", "150123.980000", "150124.440000", "150124.900000", "150125.360000", "150125.820000", "150126.280000", "150126.740000", "150127.200000", "150127.660000", "150128.120000", "150128.580000", "150129.040000", "150129.500000", "150129.960000", "150130.420000", "150130.880000", "150131.340000", "150131.800000", "150132.260000", "150132.720000", "150133.180000", "150133.640000", "150134.100000", "150134.560000", "150135.020000", "150135.480000", "150135.940000", "150136.400000", "150136.860000", "150137.320000", "150137.780000", "150138.240000", "150138.700000", "150139.160000", "150139.620000", "150140.080000", "150140.540000", "150141.000000", "150141.460000", "150141.920000", "150142.380000", "150142.840000", "150143.300000", "150143.760000", "150144.220000", "150144.680000", "150145.140000", "150145.600000", "150146.060000", "150146.520000", "150146.980000", "150147.440000", "150147.900000", "150148.360000", "150148.820000", "150149.280000", "150149.740000", "150150.200000", "150150.660000", "150151.120000", "150151.580000", "150152.040000", "150152.500000", "150152.960000", "150153.420000", "150153.880000", "150154.340000", "150154.800000", "150155.260000", "150155.720000", "150156.180000", "150156.640000", "150157.100000", "150157.560000", "150158.020000", "150158.480000", "150158.940000", "150159.400000", "150159.860000", "150200.320000", "150200.780000", "150201.240000", "150201.700000", "150202.160000", "150202.620000", "150203.080000", "150203.540000", "150204.000000", "150204.460000", "150204.920000", "150205.380000", "150205.840000", "150206.300000", "150206.760000", "150207.220000", "150207.680000", "150208.140000", "150208.600000", "150209.060000", "150209.520000", "150209.980000", "150210.440000", "150210.900000", "150211.360000", "150211.820000", "150212.280000", "150212.740000", "150213.200000", "150213.660000", "150214.120000", "150214.580000", "150215.040000", "150215.500000", "150215.960000", "150216.420000", "150216.880000", "150217.340000", "150217.800000", "150218.260000", "150218.720000", "150219.180000", "150219.640000", "150220.100000", "150220.560000", "150221.020000", "150221.480000", "150221.940000", "150222.400000", "150222.860000", "150223.320000", "150223.780000", "150224.240000", "150224.700000", "150225.160000", "150225.620000", "150226.080000", "150226.540000", "150227.000000", "150227.460000", "150227.920000", "150228.380000", "150228.840000", "150229.300000", "150229.760000", "150230.220000", "150230.680000", "150231.140000", "150231.600000", "150232.060000", "150232.520000", "150232.980000", "150233.440000", "150233.900000", "150234.360000", "150234.820000", "150235.280000", "150235.740000", "150236.200000", "150236.660000", "150237.120000", "150237.580000", "150238.040000", "150238.500000", "150238.960000", "150239.420000", "150239.880000", "150240.340000", "150240.800000", "150241.260000", "150241.720000", "150242.180000", "150242.640000", "150243.100000", "150243.560000", "150244.020000", "150244.480000", "150244.940000", "150245.400000", "150245.860000", "150246.320000", "150246.780000", "150247.240000", "150247.700000", "150248.160000", "150248.620000", "150249.080000", "150249.540000", "150250.000000", "150250.460000", "150250.920000", "150251.380000", "150251.840000", "150252.300000", "150252.760000", "150253.220000", "150253.680000", "150254.140000", "150254.600000", "150255.060000", "150255.520000", "150255.980000", "150256.440000", "150256.900000", "150257.360000", "150257.820000", "150258.280000", "150258.740000", "150259.200000", "150259.660000", "150300.120000", "150300.580000", "150301.040000", "150301.500000", "150301.960000", "150302.420000", "150302.880000", "150303.340000", "150303.800000", "150304.260000", "150304.720000", "150305.180000", "150305.640000", "150306.100000", "150306.560000", "150307.020000", "150307.480000", "150307.940000", "150308.400000", "150308.860000", "150309.320000", "150309.780000", "150310.240000", "150310.700000", "150311.160000", "150311.620000", "150312.080000", "150312.540000", "150313.000000", "150313.460000", "150313.920000", "150314.380000", "150314.840000", "150315.300000", "150315.760000", "150316.220000", "150316.680000", "150317.140000", "150317.600000", "150318.060000", "150318.520000", "150318.980000", "150319.440000", "150319.900000", "150320.360000", "150320.820000", "150321.280000", "150321.740000", "150322.200000", "150322.660000", "150323.120000", "150323.580000", "150324.040000", "150324.500000", "150324.960000", "150325.420000", "150325.880000", "150326.340000", "150326.800000", "150327.260000", "150327.720000", "150328.180000", "150328.640000", "150329.100000", "150329.560000", "150330.020000", "150330.480000", "150330.940000", "150331.400000", "150331.860000", "150332.320000", "150332.780000", "150333.240000", "150333.700000", "150334.160000", "150334.620000", "150335.080000", "150335.540000", "150336.000000", "150336.460000", "150336.920000", "150337.380000", "150337.840000", "150338.300000", "150338.760000", "150339.220000", "150339.680000", "150340.140000", "150340.600000", "150341.060000", "150341.520000", "150341.980000", "150342.440000", "150342.900000", "150343.360000", "150343.820000", "150344.280000", "150344.740000", "150345.200000", "150345.660000", "150346.120000", "150346.580000", "150347.040000", "150347.500000", "150347.960000", "150348.420000", "150348.880000", "150349.340000", "150349.800000", "150350.260000", "150350.720000", "150351.180000", "150351.640000", "150352.100000", "150352.560000", "150353.020000", "150353.480000", "150353.940000", "150354.400000", "150354.860000", "150355.320000", "150355.780000", "150356.240000", "150356.700000", "150357.160000", "150357.620000", "150358.080000", "150358.540000", "150359.000000", "150359.460000", "150359.920000", "150400.380000", "150400.840000", "150401.300000", "150401.760000", "150402.220000", "150402.680000", "150403.140000", "150403.600000", "150404.060000", "150404.520000", "150404.980000", "150405.440000", "150405.900000", "150406.360000", "150406.820000", "150407.280000", "150407.740000", "150408.200000", "150408.660000", "150409.120000", "150409.580000", "150410.040000", "150410.500000", "150410.960000", "150411.420000", "150411.880000", "150412.340000", "150412.800000", "150413.260000", "150413.720000", "150414.180000", "150414.640000", "150415.100000", "150415.560000", "150416.020000", "150416.480000", "150416.940000", "150417.400000", "150417.860000", "150418.320000", "150418.780000", "150419.240000", "150419.700000", "150420.160000", "150420.620000", "150421.080000", "150421.540000", "150422.000000", "150422.460000", "150422.920000", "150423.380000", "150423.840000", "150424.300000", "150424.760000", "150425.220000", "150425.680000", "150426.140000", "150426.600000", "150427.060000", "150427.520000", "150427.980000", "150428.440000", "150428.900000", "150429.360000", "150429.820000", "150430.280000", "150430.740000", "150431.200000", "150431.660000", "150432.120000", "150432.580000", "150433.040000", "150433.500000", "150433.960000", "150434.420000", "150434.880000", "150435.340000", "150435.800000", "150436.260000", "150436.720000", "150437.180000", "150437.640000", "150438.100000", "150438.560000", "150439.020000", "150439.480000", "150439.940000", "150440.400000", "150440.860000", "150441.320000", "150441.780000", "150442.240000", "150442.700000", "150443.160000", "150443.620000", "150444.080000", "150444.540000", "150445.000000", "150445.460000", "150445.920000", "150446.380000", "150446.840000", "150447.300000", "150447.760000", "150448.220000", "150448.680000", "150449.140000", "150449.600000", "150450.060000", "150450.520000", "150450.980000", "150451.440000", "150451.900000", "150452.360000", "150452.820000", "150453.280000", "150453.740000", "150454.200000", "150454.660000", "150455.120000", "150455.580000", "150456.040000", "150456.500000", "150456.960000", "150457.420000", "150457.880000", "150458.340000", "150458.800000", "150459.260000", "150459.720000", "150500.180000", "150500.640000", "150501.100000", "150501.560000", "150502.020000", "150502.480000", "150502.940000", "150503.400000", "150503.860000", "150504.320000", "150504.780000", "150505.240000", "150505.700000", "150506.160000", "150506.620000", "150507.080000", "150507.540000", "150508.000000", "150508.460000", "150508.920000", "150509.380000", "150509.840000", "150510.300000", "150510.760000", "150511.220000", "150511.680000", "150512.140000", "150512.600000", "150513.060000", "150513.520000", "150513.980000", "150514.440000", "150514.900000", "150515.360000", "150515.820000", "150516.280000", "150516.740000", "150517.200000", "150517.660000", "150518.120000", "150518.580000", "150519.040000", "150519.500000", "150519.960000", "150520.420000", "150520.880000", "150521.340000", "150521.800000", "150522.260000", "150522.720000", "150523.180000", "150523.640000", "150524.100000", "150524.560000", "150525.020000", "150525.480000", "150525.940000", "150526.400000", "150526.860000", "150527.320000", "150527.780000", "150528.240000", "150528.700000", "150529.160000", "150529.620000", "150530.080000", "150530.540000", "150531.000000", "150531.460000", "150531.920000", "150532.380000", "150532.840000", "150533.300000", "150533.760000", "150534.220000", "150534.680000", "150535.140000", "150535.600000", "150536.060000", "150536.520000", "150536.980000", "150537.440000", "150537.900000", "150538.360000", "150538.820000", "150539.280000", "150539.740000", "150540.200000", "150540.660000", "150541.120000", "150541.580000", "150542.040000", "150542.500000", "150542.960000", "150543.420000", "150543.880000", "150544.340000", "150544.800000", "150545.260000", "150545.720000", "150546.180000", "150546.640000", "150547.100000", "150547.560000", "150548.020000", "150548.480000", "150548.940000", "150549.400000", "150549.860000", "150550.320000", "150550.780000", "150551.240000", "150551.700000", "150552.160000", "150552.620000", "150553.080000", "150553.540000", "150554.000000", "150554.460000", "150554.920000", "150555.380000", "150555.840000", "150556.300000", "150556.760000", "150557.220000", "150557.680000", "150558.140000", "150558.600000", "150559.060000", "150559.520000", "150559.980000", "150600.440000", "150600.900000", "150601.360000", "150601.820000", "150602.280000", "150602.740000", "150603.200000", "150603.660000", "150604.120000", "150604.580000", "150605.040000", "150605.500000", "150605.960000", "150606.420000", "150606.880000", "150607.340000", "150607.800000", "150608.260000", "150608.720000", "150609.180000", "150609.640000", "150610.100000", "150610.560000", "150611.020000", "150611.480000", "150611.940000", "150612.400000", "150612.860000", "150613.320000", "150613.780000", "150614.240000", "150614.700000", "150615.160000", "150615.620000", "150616.080000", "150616.540000", "150617.000000", "150617.460000", "150617.920000", "150618.380000", "150618.840000", "150619.300000", "150619.760000", "150620.220000", "150620.680000", "150621.140000", "150621.600000", "150622.060000", "150622.520000", "150622.980000", "150623.440000", "150623.900000", "150624.360000", "150624.820000", "150625.280000", "150625.740000", "150626.200000", "150626.660000", "150627.120000", "150627.580000", "150628.040000", "150628.500000", "150628.960000", "150629.420000", "150629.880000", "150630.340000", "150630.800000", "150631.260000", "150631.720000", "150632.180000", "150632.640000", "150633.100000", "150633.560000", "150634.020000", "150634.480000", "150634.940000", "150635.400000", "150635.860000", "150636.320000", "150636.780000", "150637.240000", "150637.700000", "150638.160000", "150638.620000", "150639.080000", "150639.540000", "150640.000000", "150640.460000", "150640.920000", "150641.380000", "150641.840000", "150642.300000", "150642.760000", "150643.220000", "150643.680000", "150644.140000"],
