{
  "AcquisitionMatrixPE": 82,
  "AcquisitionNumber": 1,
  "AcquisitionTime": "15:07:21.920000",
  "BandwidthPerPixelPhaseEncode": 24.888,
  "BaseResolution": 82,
  "BodyPartExamined": "BRAIN",
  "ConsistencyInfo": "N4_VE11E_LATEST_20181129",
  "ConversionSoftware": "dcm2niix",
  "ConversionSoftwareVersion": "v1.0.20201102",
  "DerivedVendorReportedEchoSpacing": 0.00049,
  "DeviceSerialNumber": "66112",
  "DwellTime": 2e-06,
  "EchoTime": 0.0272,
  "EchoTrainLength": 82,
  "EffectiveEchoSpacing": 0.00049,
  "FlipAngle": 44,
  "ImageComments": "Unaliased MB8/PE3",
  "ImageOrientationPatientDICOM": [0.996341, 0.0671637, 0.052858, -0.0607643, 0.991558, -0.114548],
  "ImageType": [
    "ORIGINAL",
    "PRIMARY",
    "M",
    "MB",
    "ND",
    "NORM",
    "MOSAIC"
],
  "ImagingFrequency": 123.259,
  "InPlanePhaseEncodingDirectionDICOM": "COL",
  "InstitutionAddress": "Maynard 3,Hanover,NH,US,03755",
  "InstitutionName": "Dartmouth College - PBS",
  "InstitutionalDepartmentName": "Department",
  "MRAcquisitionType": "2D",
  "MagneticFieldStrength": 3,
  "Manufacturer": "Siemens",
  "ManufacturersModelName": "Prisma",
  "Modality": "MR",
  "MultibandAccelerationFactor": 8,
  "PartialFourier": 1,
  "PatientPosition": "HFS",
  "PercentPhaseFOV": 100,
  "PercentSampling": 100,
  "PhaseEncodingDirection": "j-",
  "PhaseEncodingSteps": 82,
  "PhaseResolution": 1,
  "PixelBandwidth": 3050,
  "ProcedureStepDescription": "Wager_Wager^1076_spacetop",
  "ProtocolName": "func_run-02_task-narratives_acq-ap-mb8",
  "PulseSequenceDetails": "%CustomerSeq%\\cmrr_mbep2d_bold",
  "ReceiveCoilActiveElements": "HEA;HEP",
  "ReceiveCoilName": "Head_32",
  "ReconMatrixPE": 82,
  "RepetitionTime": 0.46,
  "SAR": 0.0895319,
  "ScanOptions": "FS",
  "ScanningSequence": "EP",
  "SequenceName": "epfid2d1_82",
  "SequenceVariant": "SK\\SS",
  "SeriesDescription": "func_run-02_task-narratives_acq-ap-mb8",
  "SeriesNumber": 10,
  "ShimSetting": [4238, -7792, -7219, 205, -129, -180, -85, 65],
  "SliceThickness": 2.7,
  "SliceTiming": [0, 0.2525, 0.0625, 0.315, 0.125, 0.3775, 0.19, 0, 0.2525, 0.0625, 0.315, 0.125, 0.3775, 0.19, 0, 0.2525, 0.0625, 0.315, 0.125, 0.3775, 0.19, 0, 0.2525, 0.0625, 0.315, 0.125, 0.3775, 0.19, 0, 0.2525, 0.0625, 0.315, 0.125, 0.3775, 0.19, 0, 0.2525, 0.0625, 0.315, 0.125, 0.3775, 0.19, 0, 0.2525, 0.0625, 0.315, 0.125, 0.3775, 0.19, 0, 0.2525, 0.0625, 0.315, 0.125, 0.3775, 0.19],
  "SoftwareVersions": "syngo MR E11",
  "SpacingBetweenSlices": 2.7,
  "StationName": "AWP66112",
  "TaskName": "narratives",
  "TotalReadoutTime": 0.03969,
  "TxRefAmp": 249.17,
  "WipMemBlock": "50278e9c-8324-4387-b84e-8048eda75ce3||Sequence: R016 ve11e/master r/434b28f1; Aug  7 2019 18:53:46 by eja",
  "dcmmeta_affine": [
    [-2.673109531402588, -0.16302607953548431, 0.16228428483009338, 116.10147094726562],
    [-0.1801954209804535, 2.660276412963867, -0.29947662353515625, -84.20118713378906],
    [0.14181427657604218, 0.30732470750808716, 2.6784281730651855, -91.3040542602539],
    [0.0, 0.0, 0.0, 1.0]
],
  "dcmmeta_reorient_transform": [
    [0.0, -1.0, 0.0, 81.0],
    [1.0, 0.0, 0.0, 0.0],
    [0.0, 0.0, 1.0, 0.0],
    [0.0, 0.0, 0.0, 1.0]
],
  "dcmmeta_shape": [82, 82, 56, 1098],
  "dcmmeta_slice_dim": 2,
  "dcmmeta_version": 0.6,
  "global": {
    "const": {
      "AccessionNumber": "A004302",
      "AcquisitionMatrix": [82, 0, 0, 82],
      "AngioFlag": "N",
      "BitsAllocated": 16,
      "BitsStored": 16,
      "BodyPartExamined": "BRAIN",
      "Columns": 656,
      "EchoNumbers": 1,
      "EchoTime": 27.2,
      "EchoTrainLength": 82,
      "FlipAngle": 44.0,
      "HighBit": 15,
      "ImageOrientationPatient": [0.99634083438701, 0.06716374417436, 0.05285804765101, -0.06076426564, 0.99155755896426, -0.1145482923578],
      "ImagePositionPatient": [-823.29033218567, -946.49662547356, -18.909261525369],
      "ImageType": [
        "ORIGINAL",
        "PRIMARY",
        "M",
        "MB",
        "ND",
        "NORM",
        "MOSAIC"
],
      "ImagedNucleus": "1H",
      "ImagingFrequency": 123.259169,
      "InPlanePhaseEncodingDirection": "COL",
      "MRAcquisitionType": "2D",
      "MagneticFieldStrength": 3.0,
      "Manufacturer": "SIEMENS",
      "ManufacturerModelName": "Prisma",
      "Modality": "MR",
      "NumberOfAverages": 1.0,
      "NumberOfPhaseEncodingSteps": 82,
      "PercentPhaseFieldOfView": 100.0,
      "PercentSampling": 100.0,
      "PerformedProcedureStepStartTime": "145045.116000",
      "PhotometricInterpretation": "MONOCHROME2",
      "PixelBandwidth": 3050.0,
      "PixelRepresentation": 0,
      "PixelSpacing": [2.6829268932343, 2.6829268932343],
      "ProtocolName": "func_run-02_task-narratives_acq-ap-mb8",
      "RepetitionTime": 460.0,
      "Rows": 656,
      "SAR": 0.08953189644591,
      "SamplesPerPixel": 1,
      "ScanOptions": "FS",
      "ScanningSequence": "EP",
      "SequenceName": "epfid2d1_82",
      "SequenceVariant": [
        "SK",
        "SS"
],
      "SeriesDescription": "func_run-02_task-narratives_acq-ap-mb8",
      "SeriesNumber": 10,
      "SeriesTime": "150742.555000",
      "SliceLocation": -74.256894595331,
      "SliceThickness": 2.7000000476837,
      "SmallestImagePixelValue": 0,
      "SoftwareVersions": "syngo MR E11",
      "SpacingBetweenSlices": 2.7000000420525,
      "SpecificCharacterSet": "ISO_IR 100",
      "StudyID": "1",
      "StudyTime": "145045.060000",
      "TransmitCoilName": "Body",
      "VariableFlipAngleFlag": "N",
      "WindowCenterWidthExplanation": "Algo1"
    },
    "slices": {}
  },
  "time": {
    "samples": {
      "AcquisitionNumber": [1, 2, 3, 4, 5, 6, 7, 8, 9, 10, 11, 12, 13, 14, 15, 16, 17, 18, 19, 20, 21, 22, 23, 24, 25, 26, 27, 28, 29, 30, 31, 32, 33, 34, 35, 36, 37, 38, 39, 40, 41, 42, 43, 44, 45, 46, 47, 48, 49, 50, 51, 52, 53, 54, 55, 56, 57, 58, 59, 60, 61, 62, 63, 64, 65, 66, 67, 68, 69, 70, 71, 72, 73, 74, 75, 76, 77, 78, 79, 80, 81, 82, 83, 84, 85, 86, 87, 88, 89, 90, 91, 92, 93, 94, 95, 96, 97, 98, 99, 100, 101, 102, 103, 104, 105, 106, 107, 108, 109, 110, 111, 112, 113, 114, 115, 116, 117, 118, 119, 120, 121, 122, 123, 124, 125, 126, 127, 128, 129, 130, 131, 132, 133, 134, 135, 136, 137, 138, 139, 140, 141, 142, 143, 144, 145, 146, 147, 148, 149, 150, 151, 152, 153, 154, 155, 156, 157, 158, 159, 160, 161, 162, 163, 164, 165, 166, 167, 168, 169, 170, 171, 172, 173, 174, 175, 176, 177, 178, 179, 180, 181, 182, 183, 184, 185, 186, 187, 188, 189, 190, 191, 192, 193, 194, 195, 196, 197, 198, 199, 200, 201, 202, 203, 204, 205, 206, 207, 208, 209, 210, 211, 212, 213, 214, 215, 216, 217, 218, 219, 220, 221, 222, 223, 224, 225, 226, 227, 228, 229, 230, 231, 232, 233, 234, 235, 236, 237, 238, 239, 240, 241, 242, 243, 244, 245, 246, 247, 248, 249, 250, 251, 252, 253, 254, 255, 256, 257, 258, 259, 260, 261, 262, 263, 264, 265, 266, 267, 268, 269, 270, 271, 272, 273, 274, 275, 276, 277, 278, 279, 280, 281, 282, 283, 284, 285, 286, 287, 288, 289, 290, 291, 292, 293, 294, 295, 296, 297, 298, 299, 300, 301, 302, 303, 304, 305, 306, 307, 308, 309, 310, 311, 312, 313, 314, 315, 316, 317, 318, 319, 320, 321, 322, 323, 324, 325, 326, 327, 328, 329, 330, 331, 332, 333, 334, 335, 336, 337, 338, 339, 340, 341, 342, 343, 344, 345, 346, 347, 348, 349, 350, 351, 352, 353, 354, 355, 356, 357, 358, 359, 360, 361, 362, 363, 364, 365, 366, 367, 368, 369, 370, 371, 372, 373, 374, 375, 376, 377, 378, 379, 380, 381, 382, 383, 384, 385, 386, 387, 388, 389, 390, 391, 392, 393, 394, 395, 396, 397, 398, 399, 400, 401, 402, 403, 404, 405, 406, 407, 408, 409, 410, 411, 412, 413, 414, 415, 416, 417, 418, 419, 420, 421, 422, 423, 424, 425, 426, 427, 428, 429, 430, 431, 432, 433, 434, 435, 436, 437, 438, 439, 440, 441, 442, 443, 444, 445, 446, 447, 448, 449, 450, 451, 452, 453, 454, 455, 456, 457, 458, 459, 460, 461, 462, 463, 464, 465, 466, 467, 468, 469, 470, 471, 472, 473, 474, 475, 476, 477, 478, 479, 480, 481, 482, 483, 484, 485, 486, 487, 488, 489, 490, 491, 492, 493, 494, 495, 496, 497, 498, 499, 500, 501, 502, 503, 504, 505, 506, 507, 508, 509, 510, 511, 512, 513, 514, 515, 516, 517, 518, 519, 520, 521, 522, 523, 524, 525, 526, 527, 528, 529, 530, 531, 532, 533, 534, 535, 536, 537, 538, 539, 540, 541, 542, 543, 544, 545, 546, 547, 548, 549, 550, 551, 552, 553, 554, 555, 556, 557, 558, 559, 560, 561, 562, 563, 564, 565, 566, 567, 568, 569, 570, 571, 572, 573, 574, 575, 576, 577, 578, 579, 580, 581, 582, 583, 584, 585, 586, 587, 588, 589, 590, 591, 592, 593, 594, 595, 596, 597, 598, 599, 600, 601, 602, 603, 604, 605, 606, 607, 608, 609, 610, 611, 612, 613, 614, 615, 616, 617, 618, 619, 620, 621, 622, 623, 624, 625, 626, 627, 628, 629, 630, 631, 632, 633, 634, 635, 636, 637, 638, 639, 640, 641, 642, 643, 644, 645, 646, 647, 648, 649, 650, 651, 652, 653, 654, 655, 656, 657, 658, 659, 660, 661, 662, 663, 664, 665, 666, 667, 668, 669, 670, 671, 672, 673, 674, 675, 676, 677, 678, 679, 680, 681, 682, 683, 684, 685, 686, 687, 688, 689, 690, 691, 692, 693, 694, 695, 696, 697, 698, 699, 700, 701, 702, 703, 704, 705, 706, 707, 708, 709, 710, 711, 712, 713, 714, 715, 716, 717, 718, 719, 720, 721, 722, 723, 724, 725, 726, 727, 728, 729, 730, 731, 732, 733, 734, 735, 736, 737, 738, 739, 740, 741, 742, 743, 744, 745, 746, 747, 748, 749, 750, 751, 752, 753, 754, 755, 756, 757, 758, 759, 760, 761, 762, 763, 764, 765, 766, 767, 768, 769, 770, 771, 772, 773, 774, 775, 776, 777, 778, 779, 780, 781, 782, 783, 784, 785, 786, 787, 788, 789, 790, 791, 792, 793, 794, 795, 796, 797, 798, 799, 800, 801, 802, 803, 804, 805, 806, 807, 808, 809, 810, 811, 812, 813, 814, 815, 816, 817, 818, 819, 820, 821, 822, 823, 824, 825, 826, 827, 828, 829, 830, 831, 832, 833, 834, 835, 836, 837, 838, 839, 840, 841, 842, 843, 844, 845, 846, 847, 848, 849, 850, 851, 852, 853, 854, 855, 856, 857, 858, 859, 860, 861, 862, 863, 864, 865, 866, 867, 868, 869, 870, 871, 872, 873, 874, 875, 876, 877, 878, 879, 880, 881, 882, 883, 884, 885, 886, 887, 888, 889, 890, 891, 892, 893, 894, 895, 896, 897, 898, 899, 900, 901, 902, 903, 904, 905, 906, 907, 908, 909, 910, 911, 912, 913, 914, 915, 916, 917, 918, 919, 920, 921, 922, 923, 924, 925, 926, 927, 928, 929, 930, 931, 932, 933, 934, 935, 936, 937, 938, 939, 940, 941, 942, 943, 944, 945, 946, 947, 948, 949, 950, 951, 952, 953, 954, 955, 956, 957, 958, 959, 960, 961, 962, 963, 964, 965, 966, 967, 968, 969, 970, 971, 972, 973, 974, 975, 976, 977, 978, 979, 980, 981, 982, 983, 984, 985, 986, 987, 988, 989, 990, 991, 992, 993, 994, 995, 996, 997, 998, 999, 1000, 1001, 1002, 1003, 1004, 1005, 1006, 1007, 1008, 1009, 1010, 1011, 1012, 1013, 1014, 1015, 1016, 1017, 1018, 1019, 1020, 1021, 1022, 1023, 1024, 1025, 1026, 1027, 1028, 1029, 1030, 1031, 1032, 1033, 1034, 1035, 1036, 1037, 1038, 1039, 1040, 1041, 1042, 1043, 1044, 1045, 1046, 1047, 1048, 1049, 1050, 1051, 1052, 1053, 1054, 1055, 1056, 1057, 1058, 1059, 1060, 1061, 1062, 1063, 1064, 1065, 1066, 1067, 1068, 1069, 1070, 1071, 1072, 1073, 1074, 1075, 1076, 1077, 1078, 1079, 1080, 1081, 1082, 1083, 1084, 1085, 1086, 1087, 1088, 1089, 1090, 1091, 1092, 1093, 1094, 1095, 1096, 1097, 1098],
      "AcquisitionTime": ["150721.920000", "150722.380000", "150722.840000", "150723.300000", "150723.760000", "150724.220000", "150724.680000", "150725.140000", "150725.600000", "150726.060000", "150726.520000", "150726.980000", "150727.440000", "150727.900000", "150728.360000", "150728.820000", "150729.280000", "150729.740000", "150730.200000", "150730.660000", "150731.120000", "150731.580000", "150732.040000", "150732.500000", "150732.960000", "150733.420000", "150733.880000", "150734.340000", "150734.800000", "150735.260000", "150735.720000", "150736.180000", "150736.640000", "150737.100000", "150737.560000", "150738.020000", "150738.480000", "150738.940000", "150739.400000", "150739.860000", "150740.320000", "150740.780000", "150741.240000", "150741.700000", "150742.160000", "150742.620000", "150743.080000", "150743.540000", "150744.000000", "150744.460000", "150744.920000", "150745.380000", "150745.840000", "150746.300000", "150746.760000", "150747.220000", "150747.680000", "150748.140000", "150748.600000", "150749.060000", "150749.520000", "150749.980000", "150750.440000", "150750.900000", "150751.360000", "150751.820000", "150752.280000", "150752.740000", "150753.200000", "150753.660000", "150754.120000", "150754.580000", "150755.040000", "150755.500000", "150755.960000", "150756.420000", "150756.880000", "150757.340000", "150757.800000", "150758.260000", "150758.720000", "150759.180000", "150759.640000", "150800.100000", "150800.560000", "150801.020000", "150801.480000", "150801.940000", "150802.400000", "150802.860000", "150803.320000", "150803.780000", "150804.240000", "150804.700000", "150805.160000", "150805.620000", "150806.080000", "150806.540000", "150807.000000", "150807.460000", "150807.920000", "150808.380000", "150808.840000", "150809.300000", "150809.760000", "150810.220000", "150810.680000", "150811.140000", "150811.600000", "150812.060000", "150812.520000", "150812.980000", "150813.440000", "150813.900000", "150814.360000", "150814.820000", "150815.280000", "150815.740000", "150816.200000", "150816.660000", "150817.120000", "150817.580000", "150818.040000", "150818.500000", "150818.960000", "150819.420000", "150819.880000", "150820.340000", "150820.800000", "150821.260000", "150821.720000", "150822.180000", "150822.640000", "150823.100000", "150823.560000", "150824.020000", "150824.480000", "150824.940000", "150825.400000", "150825.860000", "150826.320000", "150826.780000", "150827.240000", "150827.700000", "150828.160000", "150828.620000", "150829.080000", "150829.540000", "150830.000000", "150830.460000", "150830.920000", "150831.380000", "150831.840000", "150832.300000", "150832.760000", "150833.220000", "150833.680000", "150834.140000", "150834.600000", "150835.060000", "150835.520000", "150835.980000", "150836.440000", "150836.900000", "150837.360000", "150837.820000", "150838.280000", "150838.740000", "150839.200000", "150839.660000", "150840.120000", "150840.580000", "150841.040000", "150841.500000", "150841.960000", "150842.420000", "150842.880000", "150843.340000", "150843.800000", "150844.260000", "150844.720000", "150845.180000", "150845.640000", "150846.100000", "150846.560000", "150847.020000", "150847.480000", "150847.940000", "150848.400000", "150848.860000", "150849.320000", "150849.780000", "150850.240000", "150850.700000", "150851.160000", "150851.620000", "150852.080000", "150852.540000", "150853.000000", "150853.460000", "150853.920000", "150854.380000", "150854.840000", "150855.300000", "150855.760000", "150856.220000", "150856.680000", "150857.140000", "150857.600000", "150858.060000", "150858.520000", "150858.980000", "150859.440000", "150859.900000", "150900.360000", "150900.820000", "150901.280000", "150901.740000", "150902.200000", "150902.660000", "150903.120000", "150903.580000", "150904.040000", "150904.500000", "150904.960000", "150905.420000", "150905.880000", "150906.340000", "150906.800000", "150907.260000", "150907.720000", "150908.180000", "150908.640000", "150909.100000", "150909.560000", "150910.020000", "150910.480000", "150910.940000", "150911.400000", "150911.860000", "150912.320000", "150912.780000", "150913.240000", "150913.700000", "150914.160000", "150914.620000", "150915.080000", "150915.540000", "150916.000000", "150916.460000", "150916.920000", "150917.380000", "150917.840000", "150918.300000", "150918.760000", "150919.220000", "150919.680000", "150920.140000", "150920.600000", "150921.060000", "150921.520000", "150921.980000", "150922.440000", "150922.900000", "150923.360000", "150923.820000", "150924.280000", "150924.740000", "150925.200000", "150925.660000", "150926.120000", "150926.580000", "150927.040000", "150927.500000", "150927.960000", "150928.420000", "150928.880000", "150929.340000", "150929.800000", "150930.260000", "150930.720000", "150931.180000", "150931.640000", "150932.100000", "150932.560000", "150933.020000", "150933.480000", "150933.940000", "150934.400000", "150934.860000", "150935.320000", "150935.780000", "150936.240000", "150936.700000", "150937.160000", "150937.620000", "150938.080000", "150938.540000", "150939.000000", "150939.460000", "150939.920000", "150940.380000", "150940.840000", "150941.300000", "150941.760000", "150942.220000", "150942.680000", "150943.140000", "150943.600000", "150944.060000", "150944.520000", "150944.980000", "150945.440000", "150945.900000", "150946.360000", "150946.820000", "150947.280000", "150947.740000", "150948.200000", "150948.660000", "150949.120000", "150949.580000", "150950.040000", "150950.500000", "150950.960000", "150951.420000", "150951.880000", "150952.340000", "150952.800000", "150953.260000", "150953.720000", "150954.180000", "150954.640000", "150955.100000", "150955.560000", "150956.020000", "150956.480000", "150956.940000", "150957.400000", "150957.860000", "150958.320000", "150958.780000", "150959.240000", "150959.700000", "151000.160000", "151000.620000", "151001.080000", "151001.540000", "151002.000000", "151002.460000", "151002.920000", "151003.380000", "151003.840000", "151004.300000", "151004.760000", "151005.220000", "151005.680000", "151006.140000", "151006.600000", "151007.060000", "151007.520000", "151007.980000", "151008.440000", "151008.900000", "151009.360000", "151009.820000", "151010.280000", "151010.740000", "151011.200000", "151011.660000", "151012.120000", "151012.580000", "151013.040000", "151013.500000", "151013.960000", "151014.420000", "151014.880000", "151015.340000", "151015.800000", "151016.260000", "151016.720000", "151017.180000", "151017.640000", "151018.100000", "151018.560000", "151019.020000", "151019.480000", "151019.940000", "151020.400000", "151020.860000", "151021.320000", "151021.780000", "151022.240000", "151022.700000", "151023.160000", "151023.620000", "151024.080000", "151024.540000", "151025.000000", "151025.460000", "151025.920000", "151026.380000", "151026.840000", "151027.300000", "151027.760000", "151028.220000", "151028.680000", "151029.140000", "151029.600000", "151030.060000", "151030.520000", "151030.980000", "151031.440000", "151031.900000", "151032.360000", "151032.820000", "151033.280000", "151033.740000", "151034.200000", "151034.660000", "151035.120000", "151035.580000", "151036.040000", "151036.500000", "151036.960000", "151037.420000", "151037.880000", "151038.340000", "151038.800000", "151039.260000", "151039.720000", "151040.180000", "151040.640000", "151041.100000", "151041.560000", "151042.020000", "151042.480000", "151042.940000", "151043.400000", "151043.860000", "151044.320000", "151044.780000", "151045.240000", "151045.700000", "151046.160000", "151046.620000", "151047.080000", "151047.540000", "151048.000000", "151048.460000", "151048.920000", "151049.380000", "151049.840000", "151050.300000", "151050.760000", "151051.220000", "151051.680000", "151052.140000", "151052.600000", "151053.060000", "151053.520000", "151053.980000", "151054.440000", "151054.900000", "151055.360000", "151055.820000", "151056.280000", "151056.740000", "151057.200000", "151057.660000", "151058.120000", "151058.580000", "151059.040000", "151059.500000", "151059.960000", "151100.420000", "151100.880000", "151101.340000", "151101.800000", "151102.260000", "151102.720000", "151103.180000", "151103.640000", "151104.100000", "151104.560000", "151105.020000", "151105.480000", "151105.940000", "151106.400000", "151106.860000", "151107.320000", "151107.780000", "151108.240000", "151108.700000", "151109.160000", "151109.620000", "151110.080000", "151110.540000", "151111.000000", "151111.460000", "151111.920000", "151112.380000", "151112.840000", "151113.300000", "151113.760000", "151114.220000", "151114.680000", "151115.140000", "151115.600000", "151116.060000", "151116.520000", "151116.980000", "151117.440000", "151117.900000", "151118.360000", "151118.820000", "151119.280000", "151119.740000", "151120.200000", "151120.660000", "151121.120000", "151121.580000", "151122.040000", "151122.500000", "151122.960000", "151123.420000", "151123.880000", "151124.340000", "151124.800000", "151125.260000", "151125.720000", "151126.180000", "151126.640000", "151127.100000", "151127.560000", "151128.020000", "151128.480000", "151128.940000", "151129.400000", "151129.860000", "151130.320000", "151130.780000", "151131.240000", "151131.700000", "151132.160000", "151132.620000", "151133.080000", "151133.540000", "151134.000000", "151134.460000", "151134.920000", "151135.380000", "151135.840000", "151136.300000", "151136.760000", "151137.220000", "151137.680000", "151138.140000", "151138.600000", "151139.060000", "151139.520000", "151139.980000", "151140.440000", "151140.900000", "151141.360000", "151141.820000", "151142.280000", "151142.740000", "151143.200000", "151143.660000", "151144.120000", "151144.580000", "151145.040000", "151145.500000", "151145.960000", "151146.420000", "151146.880000", "151147.340000", "151147.800000", "151148.260000", "151148.720000", "151149.180000", "151149.640000", "151150.100000", "151150.560000", "151151.020000", "151151.480000", "151151.940000", "151152.400000", "151152.860000", "151153.320000", "151153.780000", "151154.240000", "151154.700000", "151155.160000", "151155.620000", "151156.080000", "151156.540000", "151157.000000", "151157.460000", "151157.920000", "151158.380000", "151158.840000", "151159.300000", "151159.760000", "151200.220000", "151200.680000", "151201.140000", "151201.600000", "151202.060000", "151202.520000", "151202.980000", "151203.440000", "151203.900000", "151204.360000", "151204.820000", "151205.280000", "151205.740000", "151206.200000", "151206.660000", "151207.120000", "151207.580000", "151208.040000", "151208.500000", "151208.960000", "151209.420000", "151209.880000", "151210.340000", "151210.800000", "151211.260000", "151211.720000", "151212.180000", "151212.640000", "151213.100000", "151213.560000", "151214.020000", "151214.480000", "151214.940000", "151215.400000", "151215.860000", "151216.320000", "151216.780000", "151217.240000", "151217.700000", "151218.160000", "151218.620000", "151219.080000", "151219.540000", "151220.000000", "151220.460000", "151220.920000", "151221.380000", "151221.840000", "151222.300000", "151222.760000", "151223.220000", "151223.680000", "151224.140000", "151224.600000", "151225.060000", "151225.520000", "151225.980000", "151226.440000", "151226.900000", "151227.360000", "151227.820000", "151228.280000", "151228.740000", "151229.200000", "151229.660000", "151230.120000", "151230.580000", "151231.040000", "151231.500000", "151231.960000", "151232.420000", "151232.880000", "151233.340000", "151233.800000", "151234.260000", "151234.720000", "151235.180000", "151235.640000", "151236.100000", "151236.560000", "151237.020000", "151237.480000", "151237.940000", "151238.400000", "151238.860000", "151239.320000", "151239.780000", "151240.240000", "151240.700000", "151241.160000", "151241.620000", "151242.080000", "151242.540000", "151243.000000", "151243.460000", "151243.920000", "151244.380000", "151244.840000", "151245.300000", "151245.760000", "151246.220000", "151246.680000", "151247.140000", "151247.600000", "151248.060000", "151248.520000", "151248.980000", "151249.440000", "151249.900000", "151250.360000", "151250.820000", "151251.280000", "151251.740000", "151252.200000", "151252.660000", "151253.120000", "151253.580000", "151254.040000", "151254.500000", "151254.960000", "151255.420000", "151255.880000", "151256.340000", "151256.800000", "151257.260000", "151257.720000", "151258.180000", "151258.640000", "151259.100000", "151259.560000", "151300.020000", "151300.480000", "151300.940000", "151301.400000", "151301.860000", "151302.320000", "151302.780000", "151303.240000", "151303.700000", "151304.160000", "151304.620000", "151305.080000", "151305.540000", "151306.000000", "151306.460000", "151306.920000", "151307.380000", "151307.840000", "151308.300000", "151308.760000", "151309.220000", "151309.680000", "151310.140000", "151310.600000", "151311.060000", "151311.520000", "151311.980000", "151312.440000", "151312.900000", "151313.360000", "151313.820000", "151314.280000", "151314.740000", "151315.200000", "151315.660000", "151316.120000", "151316.580000", "151317.040000", "151317.500000", "151317.960000", "151318.420000", "151318.880000", "151319.340000", "151319.800000", "151320.260000", "151320.720000", "151321.180000", "151321.640000", "151322.100000", "151322.560000", "151323.020000", "151323.480000", "151323.940000", "151324.400000", "151324.860000", "151325.320000", "151325.780000", "151326.240000", "151326.700000", "151327.160000", "151327.620000", "151328.080000", "151328.540000", "151329.000000", "151329.460000", "151329.920000", "151330.380000", "151330.840000", "151331.300000", "151331.760000", "151332.220000", "151332.680000", "151333.140000", "151333.600000", "151334.060000", "151334.520000", "151334.980000", "151335.440000", "151335.900000", "151336.360000", "151336.820000", "151337.280000", "151337.740000", "151338.200000", "151338.660000", "151339.120000", "151339.580000", "151340.040000", "151340.500000", "151340.960000", "151341.420000", "151341.880000", "151342.340000", "151342.800000", "151343.260000", "151343.720000", "151344.180000", "151344.640000", "151345.100000", "151345.560000", "151346.020000", "151346.480000", "151346.940000", "151347.400000", "151347.860000", "151348.320000", "151348.780000", "151349.240000", "151349.700000", "151350.160000", "151350.620000", "151351.080000", "151351.540000", "151352.000000", "151352.460000", "151352.920000", "151353.380000", "151353.840000", "151354.300000", "151354.760000", "151355.220000", "151355.680000", "151356.140000", "151356.600000", "151357.060000", "151357.520000", "151357.980000", "151358.440000", "151358.900000", "151359.360000", "151359.820000", "151400.280000", "151400.740000", "151401.200000", "151401.660000", "151402.120000", "151402.580000", "151403.040000", "151403.500000", "151403.960000", "151404.420000", "151404.880000", "151405.340000", "151405.800000", "151406.260000", "151406.720000", "151407.180000", "151407.640000", "151408.100000", "151408.560000", "151409.020000", "151409.480000", "151409.940000", "151410.400000", "151410.860000", "151411.320000", "151411.780000", "151412.240000", "151412.700000", "151413.160000", "151413.620000", "151414.080000", "151414.540000", "151415.000000", "151415.460000", "151415.920000", "151416.380000", "151416.840000", "151417.300000", "151417.760000", "151418.220000", "151418.680000", "151419.140000", "151419.600000", "151420.060000", "151420.520000", "151420.980000", "151421.440000", "151421.900000", "151422.360000", "151422.820000", "151423.280000", "151423.740000", "151424.200000", "151424.660000", "151425.120000", "151425.580000", "151426.040000", "151426.500000", "151426.960000", "151427.420000", "151427.880000", "151428.340000", "151428.800000", "151429.260000", "151429.720000", "151430.180000", "151430.640000", "151431.100000", "151431.560000", "151432.020000", "151432.480000", "151432.940000", "151433.400000", "151433.860000", "151434.320000", "151434.780000", "151435.240000", "151435.700000", "151436.160000", "151436.620000", "151437.080000", "151437.540000", "151438.000000", "151438.460000", "151438.920000", "151439.380000", "151439.840000", "151440.300000", "151440.760000", "151441.220000", "151441.680000", "151442.140000", "151442.600000", "151443.060000", "151443.520000", "151443.980000", "151444.440000", "151444.900000", "151445.360000", "151445.820000", "151446.280000", "151446.740000", "151447.200000", "151447.660000", "151448.120000", "151448.580000", "151449.040000", "151449.500000", "151449.960000", "151450.420000", "151450.880000", "151451.340000", "151451.800000", "151452.260000", "151452.720000", "151453.180000", "151453.640000", "151454.100000", "151454.560000", "151455.020000", "151455.480000", "151455.940000", "151456.400000", "151456.860000", "151457.320000", "151457.780000", "151458.240000", "151458.700000", "151459.160000", "151459.620000", "151500.080000", "151500.540000", "151501.000000", "151501.460000", "151501.920000", "151502.380000", "151502.840000", "151503.300000", "151503.760000", "151504.220000", "151504.680000", "151505.140000", "151505.600000", "151506.060000", "151506.520000", "151506.980000", "151507.440000", "151507.900000", "151508.360000", "151508.820000", "151509.280000", "151509.740000", "151510.200000", "151510.660000", "151511.120000", "151511.580000", "151512.040000", "151512.500000", "151512.960000", "151513.420000", "151513.880000", "151514.340000", "151514.800000", "151515.260000", "151515.720000", "151516.180000", "151516.640000", "151517.100000", "151517.560000", "151518.020000", "151518.480000", "151518.940000", "151519.400000", "151519.860000", "151520.320000", "151520.780000", "151521.240000", "151521.700000", "151522.160000", "151522.620000", "151523.080000", "151523.540000", "151524.000000", "151524.460000", "151524.920000", "151525.380000", "151525.840000", "151526.300000", "151526.760000", "151527.220000", "151527.680000", "151528.140000", "151528.600000", "151529.060000", "151529.520000", "151529.980000", "151530.440000", "151530.900000", "151531.360000", "151531.820000", "151532.280000", "151532.740000", "151533.200000", "151533.660000", "151534.120000", "151534.580000", "151535.040000", "151535.500000", "151535.960000", "151536.420000", "151536.880000", "151537.340000", "151537.800000", "151538.260000", "151538.720000", "151539.180000", "151539.640000", "151540.100000", "151540.560000", "151541.020000", "151541.480000", "151541.940000", "151542.400000", "151542.860000", "151543.320000", "151543.780000", "151544.240000", "151544.700000", "151545.160000", "151545.620000", "151546.080000", "151546.540000"],
