{
  "AcquisitionMatrixPE": 82,
  "AcquisitionNumber": 1,
  "AcquisitionTime": "16:32:16.772500",
  "BandwidthPerPixelPhaseEncode": 24.888,
  "BaseResolution": 82,
  "BodyPartExamined": "BRAIN",
  "ConsistencyInfo": "N4_VE11E_LATEST_20181129",
  "ConversionSoftware": "dcm2niix",
  "ConversionSoftwareVersion": "v1.0.20201102",
  "DerivedVendorReportedEchoSpacing": 0.00049,
  "DeviceSerialNumber": "66112",
  "DwellTime": 2e-06,
  "EchoTime": 0.0272,
  "EchoTrainLength": 82,
  "EffectiveEchoSpacing": 0.00049,
  "FlipAngle": 44,
  "ImageComments": "Unaliased MB8/PE3",
  "ImageOrientationPatientDICOM": [0.998207, 0.0546309, 0.0244415, -0.0516151, 0.992536, -0.110489],
  "ImageType": [
    "ORIGINAL",
    "PRIMARY",
    "M",
    "MB",
    "ND",
    "NORM",
    "MOSAIC"
],
  "ImagingFrequency": 123.259,
  "InPlanePhaseEncodingDirectionDICOM": "COL",
  "InstitutionAddress": "Maynard 3,Hanover,NH,US,03755",
  "InstitutionName": "Dartmouth College - PBS",
  "InstitutionalDepartmentName": "Department",
  "MRAcquisitionType": "2D",
  "MagneticFieldStrength": 3,
  "Manufacturer": "Siemens",
  "ManufacturersModelName": "Prisma",
  "Modality": "MR",
  "MultibandAccelerationFactor": 8,
  "PartialFourier": 1,
  "PatientPosition": "HFS",
  "PercentPhaseFOV": 100,
  "PercentSampling": 100,
  "PhaseEncodingDirection": "j-",
  "PhaseEncodingSteps": 82,
  "PhaseResolution": 1,
  "PixelBandwidth": 3050,
  "ProcedureStepDescription": "Wager_Wager^1076_spacetop",
  "ProtocolName": "func_run-04_task-alignvideo_acq-ap-mb8",
  "PulseSequenceDetails": "%CustomerSeq%\\cmrr_mbep2d_bold",
  "ReceiveCoilActiveElements": "HEA;HEP",
  "ReceiveCoilName": "Head_32",
  "ReconMatrixPE": 82,
  "RepetitionTime": 0.46,
  "SAR": 0.0894428,
  "ScanOptions": "FS",
  "ScanningSequence": "EP",
  "SequenceName": "epfid2d1_82",
  "SequenceVariant": "SK\\SS",
  "SeriesDescription": "func_run-04_task-alignvideo_acq-ap-mb8",
  "SeriesNumber": 34,
  "ShimSetting": [4238, -7793, -7221, 192, -127, -199, -79, 64],
  "SliceThickness": 2.7,
  "SliceTiming": [0, 0.2525, 0.0625, 0.315, 0.125, 0.3775, 0.1875, 0, 0.2525, 0.0625, 0.315, 0.125, 0.3775, 0.1875, 0, 0.2525, 0.0625, 0.315, 0.125, 0.3775, 0.1875, 0, 0.2525, 0.0625, 0.315, 0.125, 0.3775, 0.1875, 0, 0.2525, 0.0625, 0.315, 0.125, 0.3775, 0.1875, 0, 0.2525, 0.0625, 0.315, 0.125, 0.3775, 0.1875, 0, 0.2525, 0.0625, 0.315, 0.125, 0.3775, 0.1875, 0, 0.2525, 0.0625, 0.315, 0.125, 0.3775, 0.1875],
  "SoftwareVersions": "syngo MR E11",
  "SpacingBetweenSlices": 2.7,
  "StationName": "AWP66112",
  "TaskName": "alignvideo",
  "TotalReadoutTime": 0.03969,
  "TxRefAmp": 249.17,
  "WipMemBlock": "9b61325d-a2c7-4029-9d36-6647d2525524||Sequence: R016 ve11e/master r/434b28f1; Aug  7 2019 18:53:46 by eja",
  "dcmmeta_affine": [
    [-2.678117513656616, -0.13847962021827698, 0.08179696649312973, 117.13427734375],
    [-0.14657062292099, 2.6629021167755127, -0.2943784296512604, -86.28829193115234],
    [0.0655747801065445, 0.2964330017566681, 2.682657241821289, -92.55357360839844],
    [0.0, 0.0, 0.0, 1.0]
],
  "dcmmeta_reorient_transform": [
    [0.0, -1.0, 0.0, 81.0],
    [1.0, 0.0, 0.0, 0.0],
    [0.0, 0.0, 1.0, 0.0],
    [0.0, 0.0, 0.0, 1.0]
],
  "dcmmeta_shape": [82, 82, 56, 914],
  "dcmmeta_slice_dim": 2,
  "dcmmeta_version": 0.6,
  "global": {
    "const": {
      "AccessionNumber": "A004302",
      "AcquisitionMatrix": [82, 0, 0, 82],
      "AngioFlag": "N",
      "BitsAllocated": 16,
      "BitsStored": 16,
      "BodyPartExamined": "BRAIN",
      "Columns": 656,
      "EchoNumbers": 1,
      "EchoTime": 27.2,
      "EchoTrainLength": 82,
      "FlipAngle": 44.0,
      "HighBit": 15,
      "ImageOrientationPatient": [0.99820743377859, 0.05463086812431, 0.02444150971506, -0.0516151287257, 0.99253621273538, -0.1104886641042],
      "ImagePositionPatient": [-834.79352266272, -935.72545122114, -2.2861927618996],
      "ImageType": [
        "ORIGINAL",
        "PRIMARY",
        "M",
        "MB",
        "ND",
        "NORM",
        "MOSAIC"
],
      "ImagedNucleus": "1H",
      "ImagingFrequency": 123.259185,
      "InPlanePhaseEncodingDirection": "COL",
      "MRAcquisitionType": "2D",
      "MagneticFieldStrength": 3.0,
      "Manufacturer": "SIEMENS",
      "ManufacturerModelName": "Prisma",
      "Modality": "MR",
      "NumberOfAverages": 1.0,
      "NumberOfPhaseEncodingSteps": 82,
      "PercentPhaseFieldOfView": 100.0,
      "PercentSampling": 100.0,
      "PerformedProcedureStepStartTime": "145045.116000",
      "PhotometricInterpretation": "MONOCHROME2",
      "PixelBandwidth": 3050.0,
      "PixelRepresentation": 0,
      "PixelSpacing": [2.6829268932343, 2.6829268932343],
      "ProtocolName": "func_run-04_task-alignvideo_acq-ap-mb8",
      "RepetitionTime": 460.0,
      "Rows": 656,
      "SAR": 0.08944280204977,
      "SamplesPerPixel": 1,
      "ScanOptions": "FS",
      "ScanningSequence": "EP",
      "SequenceName": "epfid2d1_82",
      "SequenceVariant": [
        "SK",
        "SS"
],
      "SeriesDescription": "func_run-04_task-alignvideo_acq-ap-mb8",
      "SeriesNumber": 34,
      "SeriesTime": "163242.566000",
      "SliceLocation": -79.002553064066,
      "SliceThickness": 2.7000000476837,
      "SmallestImagePixelValue": 0,
      "SoftwareVersions": "syngo MR E11",
      "SpacingBetweenSlices": 2.6999999030115,
      "SpecificCharacterSet": "ISO_IR 100",
      "StudyID": "1",
      "StudyTime": "145045.060000",
      "TransmitCoilName": "Body",
      "VariableFlipAngleFlag": "N",
      "WindowCenterWidthExplanation": "Algo1"
    },
    "slices": {}
  },
  "time": {
    "samples": {
      "AcquisitionNumber": [1, 2, 3, 4, 5, 6, 7, 8, 9, 10, 11, 12, 13, 14, 15, 16, 17, 18, 19, 20, 21, 22, 23, 24, 25, 26, 27, 28, 29, 30, 31, 32, 33, 34, 35, 36, 37, 38, 39, 40, 41, 42, 43, 44, 45, 46, 47, 48, 49, 50, 51, 52, 53, 54, 55, 56, 57, 58, 59, 60, 61, 62, 63, 64, 65, 66, 67, 68, 69, 70, 71, 72, 73, 74, 75, 76, 77, 78, 79, 80, 81, 82, 83, 84, 85, 86, 87, 88, 89, 90, 91, 92, 93, 94, 95, 96, 97, 98, 99, 100, 101, 102, 103, 104, 105, 106, 107, 108, 109, 110, 111, 112, 113, 114, 115, 116, 117, 118, 119, 120, 121, 122, 123, 124, 125, 126, 127, 128, 129, 130, 131, 132, 133, 134, 135, 136, 137, 138, 139, 140, 141, 142, 143, 144, 145, 146, 147, 148, 149, 150, 151, 152, 153, 154, 155, 156, 157, 158, 159, 160, 161, 162, 163, 164, 165, 166, 167, 168, 169, 170, 171, 172, 173, 174, 175, 176, 177, 178, 179, 180, 181, 182, 183, 184, 185, 186, 187, 188, 189, 190, 191, 192, 193, 194, 195, 196, 197, 198, 199, 200, 201, 202, 203, 204, 205, 206, 207, 208, 209, 210, 211, 212, 213, 214, 215, 216, 217, 218, 219, 220, 221, 222, 223, 224, 225, 226, 227, 228, 229, 230, 231, 232, 233, 234, 235, 236, 237, 238, 239, 240, 241, 242, 243, 244, 245, 246, 247, 248, 249, 250, 251, 252, 253, 254, 255, 256, 257, 258, 259, 260, 261, 262, 263, 264, 265, 266, 267, 268, 269, 270, 271, 272, 273, 274, 275, 276, 277, 278, 279, 280, 281, 282, 283, 284, 285, 286, 287, 288, 289, 290, 291, 292, 293, 294, 295, 296, 297, 298, 299, 300, 301, 302, 303, 304, 305, 306, 307, 308, 309, 310, 311, 312, 313, 314, 315, 316, 317, 318, 319, 320, 321, 322, 323, 324, 325, 326, 327, 328, 329, 330, 331, 332, 333, 334, 335, 336, 337, 338, 339, 340, 341, 342, 343, 344, 345, 346, 347, 348, 349, 350, 351, 352, 353, 354, 355, 356, 357, 358, 359, 360, 361, 362, 363, 364, 365, 366, 367, 368, 369, 370, 371, 372, 373, 374, 375, 376, 377, 378, 379, 380, 381, 382, 383, 384, 385, 386, 387, 388, 389, 390, 391, 392, 393, 394, 395, 396, 397, 398, 399, 400, 401, 402, 403, 404, 405, 406, 407, 408, 409, 410, 411, 412, 413, 414, 415, 416, 417, 418, 419, 420, 421, 422, 423, 424, 425, 426, 427, 428, 429, 430, 431, 432, 433, 434, 435, 436, 437, 438, 439, 440, 441, 442, 443, 444, 445, 446, 447, 448, 449, 450, 451, 452, 453, 454, 455, 456, 457, 458, 459, 460, 461, 462, 463, 464, 465, 466, 467, 468, 469, 470, 471, 472, 473, 474, 475, 476, 477, 478, 479, 480, 481, 482, 483, 484, 485, 486, 487, 488, 489, 490, 491, 492, 493, 494, 495, 496, 497, 498, 499, 500, 501, 502, 503, 504, 505, 506, 507, 508, 509, 510, 511, 512, 513, 514, 515, 516, 517, 518, 519, 520, 521, 522, 523, 524, 525, 526, 527, 528, 529, 530, 531, 532, 533, 534, 535, 536, 537, 538, 539, 540, 541, 542, 543, 544, 545, 546, 547, 548, 549, 550, 551, 552, 553, 554, 555, 556, 557, 558, 559, 560, 561, 562, 563, 564, 565, 566, 567, 568, 569, 570, 571, 572, 573, 574, 575, 576, 577, 578, 579, 580, 581, 582, 583, 584, 585, 586, 587, 588, 589, 590, 591, 592, 593, 594, 595, 596, 597, 598, 599, 600, 601, 602, 603, 604, 605, 606, 607, 608, 609, 610, 611, 612, 613, 614, 615, 616, 617, 618, 619, 620, 621, 622, 623, 624, 625, 626, 627, 628, 629, 630, 631, 632, 633, 634, 635, 636, 637, 638, 639, 640, 641, 642, 643, 644, 645, 646, 647, 648, 649, 650, 651, 652, 653, 654, 655, 656, 657, 658, 659, 660, 661, 662, 663, 664, 665, 666, 667, 668, 669, 670, 671, 672, 673, 674, 675, 676, 677, 678, 679, 680, 681, 682, 683, 684, 685, 686, 687, 688, 689, 690, 691, 692, 693, 694, 695, 696, 697, 698, 699, 700, 701, 702, 703, 704, 705, 706, 707, 708, 709, 710, 711, 712, 713, 714, 715, 716, 717, 718, 719, 720, 721, 722, 723, 724, 725, 726, 727, 728, 729, 730, 731, 732, 733, 734, 735, 736, 737, 738, 739, 740, 741, 742, 743, 744, 745, 746, 747, 748, 749, 750, 751, 752, 753, 754, 755, 756, 757, 758, 759, 760, 761, 762, 763, 764, 765, 766, 767, 768, 769, 770, 771, 772, 773, 774, 775, 776, 777, 778, 779, 780, 781, 782, 783, 784, 785, 786, 787, 788, 789, 790, 791, 792, 793, 794, 795, 796, 797, 798, 799, 800, 801, 802, 803, 804, 805, 806, 807, 808, 809, 810, 811, 812, 813, 814, 815, 816, 817, 818, 819, 820, 821, 822, 823, 824, 825, 826, 827, 828, 829, 830, 831, 832, 833, 834, 835, 836, 837, 838, 839, 840, 841, 842, 843, 844, 845, 846, 847, 848, 849, 850, 851, 852, 853, 854, 855, 856, 857, 858, 859, 860, 861, 862, 863, 864, 865, 866, 867, 868, 869, 870, 871, 872, 873, 874, 875, 876, 877, 878, 879, 880, 881, 882, 883, 884, 885, 886, 887, 888, 889, 890, 891, 892, 893, 894, 895, 896, 897, 898, 899, 900, 901, 902, 903, 904, 905, 906, 907, 908, 909, 910, 911, 912, 913, 914],
      "AcquisitionTime": ["163216.772500", "163217.232500", "163217.692500", "163218.152500", "163218.612500", "163219.072500", "163219.532500", "163219.992500", "163220.452500", "163220.912500", "163221.372500", "163221.832500", "163222.292500", "163222.752500", "163223.212500", "163223.672500", "163224.132500", "163224.592500", "163225.052500", "163225.512500", "163225.972500", "163226.432500", "163226.892500", "163227.352500", "163227.812500", "163228.272500", "163228.732500", "163229.192500", "163229.652500", "163230.112500", "163230.572500", "163231.032500", "163231.492500", "163231.952500", "163232.412500", "163232.872500", "163233.332500", "163233.792500", "163234.252500", "163234.712500", "163235.172500", "163235.632500", "163236.092500", "163236.552500", "163237.012500", "163237.472500", "163237.932500", "163238.392500", "163238.852500", "163239.312500", "163239.772500", "163240.232500", "163240.692500", "163241.152500", "163241.612500", "163242.072500", "163242.532500", "163242.992500", "163243.452500", "163243.912500", "163244.372500", "163244.832500", "163245.292500", "163245.752500", "163246.212500", "163246.672500", "163247.132500", "163247.592500", "163248.052500", "163248.512500", "163248.972500", "163249.432500", "163249.892500", "163250.352500", "163250.812500", "163251.272500", "163251.732500", "163252.192500", "163252.652500", "163253.112500", "163253.572500", "163254.032500", "163254.492500", "163254.952500", "163255.412500", "163255.872500", "163256.332500", "163256.792500", "163257.252500", "163257.712500", "163258.172500", "163258.632500", "163259.092500", "163259.552500", "163300.012500", "163300.472500", "163300.932500", "163301.392500", "163301.852500", "163302.312500", "163302.772500", "163303.232500", "163303.692500", "163304.152500", "163304.612500", "163305.072500", "163305.532500", "163305.992500", "163306.452500", "163306.912500", "163307.372500", "163307.832500", "163308.292500", "163308.752500", "163309.212500", "163309.672500", "163310.132500", "163310.592500", "163311.052500", "163311.512500", "163311.972500", "163312.432500", "163312.892500", "163313.352500", "163313.812500", "163314.272500", "163314.732500", "163315.192500", "163315.652500", "163316.112500", "163316.572500", "163317.032500", "163317.492500", "163317.952500", "163318.412500", "163318.872500", "163319.332500", "163319.792500", "163320.252500", "163320.712500", "163321.172500", "163321.632500", "163322.092500", "163322.552500", "163323.012500", "163323.472500", "163323.932500", "163324.392500", "163324.852500", "163325.312500", "163325.772500", "163326.232500", "163326.692500", "163327.152500", "163327.612500", "163328.072500", "163328.532500", "163328.992500", "163329.452500", "163329.912500", "163330.372500", "163330.832500", "163331.292500", "163331.752500", "163332.212500", "163332.672500", "163333.132500", "163333.592500", "163334.052500", "163334.512500", "163334.972500", "163335.432500", "163335.892500", "163336.352500", "163336.812500", "163337.272500", "163337.732500", "163338.192500", "163338.652500", "163339.112500", "163339.572500", "163340.032500", "163340.492500", "163340.952500", "163341.412500", "163341.872500", "163342.332500", "163342.792500", "163343.252500", "163343.712500", "163344.172500", "163344.632500", "163345.092500", "163345.552500", "163346.012500", "163346.472500", "163346.932500", "163347.392500", "163347.852500", "163348.312500", "163348.772500", "163349.232500", "163349.692500", "163350.152500", "163350.612500", "163351.072500", "163351.532500", "163351.992500", "163352.452500", "163352.912500", "163353.372500", "163353.832500", "163354.292500", "163354.752500", "163355.212500", "163355.672500", "163356.132500", "163356.592500", "163357.052500", "163357.512500", "163357.972500", "163358.432500", "163358.892500", "163359.352500", "163359.812500", "163400.272500", "163400.732500", "163401.192500", "163401.652500", "163402.112500", "163402.572500", "163403.032500", "163403.492500", "163403.952500", "163404.412500", "163404.872500", "163405.332500", "163405.792500", "163406.252500", "163406.712500", "163407.172500", "163407.632500", "163408.092500", "163408.552500", "163409.012500", "163409.472500", "163409.932500", "163410.392500", "163410.852500", "163411.312500", "163411.772500", "163412.232500", "163412.692500", "163413.152500", "163413.612500", "163414.072500", "163414.532500", "163414.992500", "163415.452500", "163415.912500", "163416.372500", "163416.832500", "163417.292500", "163417.752500", "163418.212500", "163418.672500", "163419.132500", "163419.592500", "163420.052500", "163420.512500", "163420.972500", "163421.432500", "163421.892500", "163422.352500", "163422.812500", "163423.272500", "163423.732500", "163424.192500", "163424.652500", "163425.112500", "163425.572500", "163426.032500", "163426.492500", "163426.952500", "163427.412500", "163427.872500", "163428.332500", "163428.792500", "163429.252500", "163429.712500", "163430.172500", "163430.632500", "163431.092500", "163431.552500", "163432.012500", "163432.472500", "163432.932500", "163433.392500", "163433.852500", "163434.312500", "163434.772500", "163435.232500", "163435.692500", "163436.152500", "163436.612500", "163437.072500", "163437.532500", "163437.992500", "163438.452500", "163438.912500", "163439.372500", "163439.832500", "163440.292500", "163440.752500", "163441.212500", "163441.672500", "163442.132500", "163442.592500", "163443.052500", "163443.512500", "163443.972500", "163444.432500", "163444.892500", "163445.352500", "163445.812500", "163446.272500", "163446.732500", "163447.192500", "163447.652500", "163448.112500", "163448.572500", "163449.032500", "163449.492500", "163449.952500", "163450.412500", "163450.872500", "163451.332500", "163451.792500", "163452.252500", "163452.712500", "163453.172500", "163453.632500", "163454.092500", "163454.552500", "163455.012500", "163455.472500", "163455.932500", "163456.392500", "163456.852500", "163457.312500", "163457.772500", "163458.232500", "163458.692500", "163459.152500", "163459.612500", "163500.072500", "163500.532500", "163500.992500", "163501.452500", "163501.912500", "163502.372500", "163502.832500", "163503.292500", "163503.752500", "163504.212500", "163504.672500", "163505.132500", "163505.592500", "163506.052500", "163506.512500", "163506.972500", "163507.432500", "163507.892500", "163508.352500", "163508.812500", "163509.272500", "163509.732500", "163510.192500", "163510.652500", "163511.112500", "163511.572500", "163512.032500", "163512.492500", "163512.952500", "163513.412500", "163513.872500", "163514.332500", "163514.792500", "163515.252500", "163515.712500", "163516.172500", "163516.632500", "163517.092500", "163517.552500", "163518.012500", "163518.472500", "163518.932500", "163519.392500", "163519.852500", "163520.312500", "163520.772500", "163521.232500", "163521.692500", "163522.152500", "163522.612500", "163523.072500", "163523.532500", "163523.992500", "163524.452500", "163524.912500", "163525.372500", "163525.832500", "163526.292500", "163526.752500", "163527.212500", "163527.672500", "163528.132500", "163528.592500", "163529.052500", "163529.512500", "163529.972500", "163530.432500", "163530.892500", "163531.352500", "163531.812500", "163532.272500", "163532.732500", "163533.192500", "163533.652500", "163534.112500", "163534.572500", "163535.032500", "163535.492500", "163535.952500", "163536.412500", "163536.872500", "163537.332500", "163537.792500", "163538.252500", "163538.712500", "163539.172500", "163539.632500", "163540.092500", "163540.552500", "163541.012500", "163541.472500", "163541.932500", "163542.392500", "163542.852500", "163543.312500", "163543.772500", "163544.232500", "163544.692500", "163545.152500", "163545.612500", "163546.072500", "163546.532500", "163546.992500", "163547.452500", "163547.912500", "163548.372500", "163548.832500", "163549.292500", "163549.752500", "163550.212500", "163550.672500", "163551.132500", "163551.592500", "163552.052500", "163552.512500", "163552.972500", "163553.432500", "163553.892500", "163554.352500", "163554.812500", "163555.272500", "163555.732500", "163556.192500", "163556.652500", "163557.112500", "163557.572500", "163558.032500", "163558.492500", "163558.952500", "163559.412500", "163559.872500", "163600.332500", "163600.792500", "163601.252500", "163601.712500", "163602.172500", "163602.632500", "163603.092500", "163603.552500", "163604.012500", "163604.472500", "163604.932500", "163605.392500", "163605.852500", "163606.312500", "163606.772500", "163607.232500", "163607.692500", "163608.152500", "163608.612500", "163609.072500", "163609.532500", "163609.992500", "163610.452500", "163610.912500", "163611.372500", "163611.832500", "163612.292500", "163612.752500", "163613.212500", "163613.672500", "163614.132500", "163614.592500", "163615.052500", "163615.512500", "163615.972500", "163616.432500", "163616.892500", "163617.352500", "163617.812500", "163618.272500", "163618.732500", "163619.192500", "163619.652500", "163620.112500", "163620.572500", "163621.032500", "163621.492500", "163621.952500", "163622.412500", "163622.872500", "163623.332500", "163623.792500", "163624.252500", "163624.712500", "163625.172500", "163625.632500", "163626.092500", "163626.552500", "163627.012500", "163627.472500", "163627.932500", "163628.392500", "163628.852500", "163629.312500", "163629.772500", "163630.232500", "163630.692500", "163631.152500", "163631.612500", "163632.072500", "163632.532500", "163632.992500", "163633.452500", "163633.912500", "163634.372500", "163634.832500", "163635.292500", "163635.752500", "163636.212500", "163636.672500", "163637.132500", "163637.592500", "163638.052500", "163638.512500", "163638.972500", "163639.432500", "163639.892500", "163640.352500", "163640.812500", "163641.272500", "163641.732500", "163642.192500", "163642.652500", "163643.112500", "163643.572500", "163644.032500", "163644.492500", "163644.952500", "163645.412500", "163645.872500", "163646.332500", "163646.792500", "163647.252500", "163647.712500", "163648.172500", "163648.632500", "163649.092500", "163649.552500", "163650.012500", "163650.472500", "163650.932500", "163651.392500", "163651.852500", "163652.312500", "163652.772500", "163653.232500", "163653.692500", "163654.152500", "163654.612500", "163655.072500", "163655.532500", "163655.992500", "163656.452500", "163656.912500", "163657.372500", "163657.832500", "163658.292500", "163658.752500", "163659.212500", "163659.672500", "163700.132500", "163700.592500", "163701.052500", "163701.512500", "163701.972500", "163702.432500", "163702.892500", "163703.352500", "163703.812500", "163704.272500", "163704.732500", "163705.192500", "163705.652500", "163706.112500", "163706.572500", "163707.032500", "163707.492500", "163707.952500", "163708.412500", "163708.872500", "163709.332500", "163709.792500", "163710.252500", "163710.712500", "163711.172500", "163711.632500", "163712.092500", "163712.552500", "163713.012500", "163713.472500", "163713.932500", "163714.392500", "163714.852500", "163715.312500", "163715.772500", "163716.232500", "163716.692500", "163717.152500", "163717.612500", "163718.072500", "163718.532500", "163718.992500", "163719.452500", "163719.912500", "163720.372500", "163720.832500", "163721.292500", "163721.752500", "163722.212500", "163722.672500", "163723.132500", "163723.592500", "163724.052500", "163724.512500", "163724.972500", "163725.432500", "163725.892500", "163726.352500", "163726.812500", "163727.272500", "163727.732500", "163728.192500", "163728.652500", "163729.112500", "163729.572500", "163730.032500", "163730.492500", "163730.952500", "163731.412500", "163731.872500", "163732.332500", "163732.792500", "163733.252500", "163733.712500", "163734.172500", "163734.632500", "163735.092500", "163735.552500", "163736.012500", "163736.472500", "163736.932500", "163737.392500", "163737.852500", "163738.312500", "163738.772500", "163739.232500", "163739.692500", "163740.152500", "163740.612500", "163741.072500", "163741.532500", "163741.992500", "163742.452500", "163742.912500", "163743.372500", "163743.832500", "163744.292500", "163744.752500", "163745.212500", "163745.672500", "163746.132500", "163746.592500", "163747.052500", "163747.512500", "163747.972500", "163748.432500", "163748.892500", "163749.352500", "163749.812500", "163750.272500", "163750.732500", "163751.192500", "163751.652500", "163752.112500", "163752.572500", "163753.032500", "163753.492500", "163753.952500", "163754.412500", "163754.872500", "163755.332500", "163755.792500", "163756.252500", "163756.712500", "163757.172500", "163757.632500", "163758.092500", "163758.552500", "163759.012500", "163759.472500", "163759.932500", "163800.392500", "163800.852500", "163801.312500", "163801.772500", "163802.232500", "163802.692500", "163803.152500", "163803.612500", "163804.072500", "163804.532500", "163804.992500", "163805.452500", "163805.912500", "163806.372500", "163806.832500", "163807.292500", "163807.752500", "163808.212500", "163808.672500", "163809.132500", "163809.592500", "163810.052500", "163810.512500", "163810.972500", "163811.432500", "163811.892500", "163812.352500", "163812.812500", "163813.272500", "163813.732500", "163814.192500", "163814.652500", "163815.112500", "163815.572500", "163816.032500", "163816.492500", "163816.952500", "163817.412500", "163817.872500", "163818.332500", "163818.792500", "163819.252500", "163819.712500", "163820.172500", "163820.632500", "163821.092500", "163821.552500", "163822.012500", "163822.472500", "163822.932500", "163823.392500", "163823.852500", "163824.312500", "163824.772500", "163825.232500", "163825.692500", "163826.152500", "163826.612500", "163827.072500", "163827.532500", "163827.992500", "163828.452500", "163828.912500", "163829.372500", "163829.832500", "163830.292500", "163830.752500", "163831.212500", "163831.672500", "163832.132500", "163832.592500", "163833.052500", "163833.512500", "163833.972500", "163834.432500", "163834.892500", "163835.352500", "163835.812500", "163836.272500", "163836.732500", "163837.192500", "163837.652500", "163838.112500", "163838.572500", "163839.032500", "163839.492500", "163839.952500", "163840.412500", "163840.872500", "163841.332500", "163841.792500", "163842.252500", "163842.712500", "163843.172500", "163843.632500", "163844.092500", "163844.552500", "163845.012500", "163845.472500", "163845.932500", "163846.392500", "163846.852500", "163847.312500", "163847.772500", "163848.232500", "163848.692500", "163849.152500", "163849.612500", "163850.072500", "163850.532500", "163850.992500", "163851.452500", "163851.912500", "163852.372500", "163852.832500", "163853.292500", "163853.752500", "163854.212500", "163854.672500", "163855.132500", "163855.592500", "163856.052500", "163856.512500", "163856.972500", "163857.432500", "163857.892500", "163858.352500", "163858.812500", "163859.272500", "163859.732500", "163900.192500", "163900.652500", "163901.112500", "163901.572500", "163902.032500", "163902.492500", "163902.952500", "163903.412500", "163903.872500", "163904.332500", "163904.792500", "163905.252500", "163905.712500", "163906.172500", "163906.632500", "163907.092500", "163907.552500", "163908.012500", "163908.472500", "163908.932500", "163909.392500", "163909.852500", "163910.312500", "163910.772500", "163911.232500", "163911.692500", "163912.152500", "163912.612500", "163913.072500", "163913.532500", "163913.992500", "163914.452500", "163914.912500", "163915.372500", "163915.832500", "163916.292500", "163916.752500"],
