{
  "AcquisitionMatrixPE": 82,
  "AcquisitionNumber": 1,
  "AcquisitionTime": "15:43:59.817500",
  "BandwidthPerPixelPhaseEncode": 24.888,
  "BaseResolution": 82,
  "BodyPartExamined": "BRAIN",
  "ConsistencyInfo": "N4_VE11E_LATEST_20181129",
  "ConversionSoftware": "dcm2niix",
  "ConversionSoftwareVersion": "v1.0.20201102",
  "DerivedVendorReportedEchoSpacing": 0.00049,
  "DeviceSerialNumber": "66112",
  "DwellTime": 2e-06,
  "EchoTime": 0.0272,
  "EchoTrainLength": 82,
  "EffectiveEchoSpacing": 0.00049,
  "FlipAngle": 44,
  "ImageComments": "Unaliased MB8/PE3",
  "ImageOrientationPatientDICOM": [0.996341, 0.0671637, 0.052858, -0.0607643, 0.991558, -0.114548],
  "ImageType": [
    "ORIGINAL",
    "PRIMARY",
    "M",
    "MB",
    "ND",
    "NORM",
    "MOSAIC"
],
  "ImagingFrequency": 123.259,
  "InPlanePhaseEncodingDirectionDICOM": "COL",
  "InstitutionAddress": "Maynard 3,Hanover,NH,US,03755",
  "InstitutionName": "Dartmouth College - PBS",
  "InstitutionalDepartmentName": "Department",
  "MRAcquisitionType": "2D",
  "MagneticFieldStrength": 3,
  "Manufacturer": "Siemens",
  "ManufacturersModelName": "Prisma",
  "Modality": "MR",
  "MultibandAccelerationFactor": 8,
  "PartialFourier": 1,
  "PatientPosition": "HFS",
  "PercentPhaseFOV": 100,
  "PercentSampling": 100,
  "PhaseEncodingDirection": "j-",
  "PhaseEncodingSteps": 82,
  "PhaseResolution": 1,
  "PixelBandwidth": 3050,
  "ProcedureStepDescription": "Wager_Wager^1076_spacetop",
  "ProtocolName": "func_run-02_task-faces_acq-ap-mb8",
  "PulseSequenceDetails": "%CustomerSeq%\\cmrr_mbep2d_bold",
  "ReceiveCoilActiveElements": "HEA;HEP",
  "ReceiveCoilName": "Head_32",
  "ReconMatrixPE": 82,
  "RepetitionTime": 0.46,
  "SAR": 0.0894428,
  "ScanOptions": "FS",
  "ScanningSequence": "EP",
  "SequenceName": "epfid2d1_82",
  "SequenceVariant": "SK\\SS",
  "SeriesDescription": "func_run-02_task-faces_acq-ap-mb8",
  "SeriesNumber": 18,
  "ShimSetting": [4238, -7792, -7219, 205, -129, -180, -85, 65],
  "SliceThickness": 2.7,
  "SliceTiming": [0, 0.25, 0.0625, 0.315, 0.125, 0.3775, 0.1875, 0, 0.25, 0.0625, 0.315, 0.125, 0.3775, 0.1875, 0, 0.25, 0.0625, 0.315, 0.125, 0.3775, 0.1875, 0, 0.25, 0.0625, 0.315, 0.125, 0.3775, 0.1875, 0, 0.25, 0.0625, 0.315, 0.125, 0.3775, 0.1875, 0, 0.25, 0.0625, 0.315, 0.125, 0.3775, 0.1875, 0, 0.25, 0.0625, 0.315, 0.125, 0.3775, 0.1875, 0, 0.25, 0.0625, 0.315, 0.125, 0.3775, 0.1875],
  "SoftwareVersions": "syngo MR E11",
  "SpacingBetweenSlices": 2.7,
  "StationName": "AWP66112",
  "TaskName": "faces",
  "TotalReadoutTime": 0.03969,
  "TxRefAmp": 249.17,
  "WipMemBlock": "bd5de754-952b-4d45-aa07-f63388b11676||Sequence: R016 ve11e/master r/434b28f1; Aug  7 2019 18:53:46 by eja",
  "dcmmeta_affine": [
    [-2.673109531402588, -0.16302607953548431, 0.16228428483009338, 116.10147094726562],
    [-0.1801954209804535, 2.660276412963867, -0.29947662353515625, -84.20118713378906],
    [0.14181427657604218, 0.30732470750808716, 2.6784281730651855, -91.3040542602539],
    [0.0, 0.0, 0.0, 1.0]
],
  "dcmmeta_reorient_transform": [
    [0.0, -1.0, 0.0, 81.0],
    [1.0, 0.0, 0.0, 0.0],
    [0.0, 0.0, 1.0, 0.0],
    [0.0, 0.0, 0.0, 1.0]
],
  "dcmmeta_shape": [82, 82, 56, 914],
  "dcmmeta_slice_dim": 2,
  "dcmmeta_version": 0.6,
  "global": {
    "const": {
      "AccessionNumber": "A004302",
      "AcquisitionMatrix": [82, 0, 0, 82],
      "AngioFlag": "N",
      "BitsAllocated": 16,
      "BitsStored": 16,
      "BodyPartExamined": "BRAIN",
      "Columns": 656,
      "EchoNumbers": 1,
      "EchoTime": 27.2,
      "EchoTrainLength": 82,
      "FlipAngle": 44.0,
      "HighBit": 15,
      "ImageOrientationPatient": [0.99634083438701, 0.06716374417436, 0.05285804765101, -0.06076426564, 0.99155755896426, -0.1145482923578],
      "ImagePositionPatient": [-823.29033218567, -946.49662547356, -18.909261525369],
      "ImageType": [
        "ORIGINAL",
        "PRIMARY",
        "M",
        "MB",
        "ND",
        "NORM",
        "MOSAIC"
],
      "ImagedNucleus": "1H",
      "ImagingFrequency": 123.25918,
      "InPlanePhaseEncodingDirection": "COL",
      "MRAcquisitionType": "2D",
      "MagneticFieldStrength": 3.0,
      "Manufacturer": "SIEMENS",
      "ManufacturerModelName": "Prisma",
      "Modality": "MR",
      "NumberOfAverages": 1.0,
      "NumberOfPhaseEncodingSteps": 82,
      "PercentPhaseFieldOfView": 100.0,
      "PercentSampling": 100.0,
      "PerformedProcedureStepStartTime": "145045.116000",
      "PhotometricInterpretation": "MONOCHROME2",
      "PixelBandwidth": 3050.0,
      "PixelRepresentation": 0,
      "PixelSpacing": [2.6829268932343, 2.6829268932343],
      "ProtocolName": "func_run-02_task-faces_acq-ap-mb8",
      "RepetitionTime": 460.0,
      "Rows": 656,
      "SAR": 0.08944280204977,
      "SamplesPerPixel": 1,
      "ScanOptions": "FS",
      "ScanningSequence": "EP",
      "SequenceName": "epfid2d1_82",
      "SequenceVariant": [
        "SK",
        "SS"
],
      "SeriesDescription": "func_run-02_task-faces_acq-ap-mb8",
      "SeriesNumber": 18,
      "SeriesTime": "154422.672000",
      "SliceLocation": -74.256894595331,
      "SliceThickness": 2.7000000476837,
      "SmallestImagePixelValue": 0,
      "SoftwareVersions": "syngo MR E11",
      "SpacingBetweenSlices": 2.7000000420525,
      "SpecificCharacterSet": "ISO_IR 100",
      "StudyID": "1",
      "StudyTime": "145045.060000",
      "TransmitCoilName": "Body",
      "VariableFlipAngleFlag": "N",
      "WindowCenterWidthExplanation": "Algo1"
    },
    "slices": {}
  },
  "time": {
    "samples": {
      "AcquisitionNumber": [1, 2, 3, 4, 5, 6, 7, 8, 9, 10, 11, 12, 13, 14, 15, 16, 17, 18, 19, 20, 21, 22, 23, 24, 25, 26, 27, 28, 29, 30, 31, 32, 33, 34, 35, 36, 37, 38, 39, 40, 41, 42, 43, 44, 45, 46, 47, 48, 49, 50, 51, 52, 53, 54, 55, 56, 57, 58, 59, 60, 61, 62, 63, 64, 65, 66, 67, 68, 69, 70, 71, 72, 73, 74, 75, 76, 77, 78, 79, 80, 81, 82, 83, 84, 85, 86, 87, 88, 89, 90, 91, 92, 93, 94, 95, 96, 97, 98, 99, 100, 101, 102, 103, 104, 105, 106, 107, 108, 109, 110, 111, 112, 113, 114, 115, 116, 117, 118, 119, 120, 121, 122, 123, 124, 125, 126, 127, 128, 129, 130, 131, 132, 133, 134, 135, 136, 137, 138, 139, 140, 141, 142, 143, 144, 145, 146, 147, 148, 149, 150, 151, 152, 153, 154, 155, 156, 157, 158, 159, 160, 161, 162, 163, 164, 165, 166, 167, 168, 169, 170, 171, 172, 173, 174, 175, 176, 177, 178, 179, 180, 181, 182, 183, 184, 185, 186, 187, 188, 189, 190, 191, 192, 193, 194, 195, 196, 197, 198, 199, 200, 201, 202, 203, 204, 205, 206, 207, 208, 209, 210, 211, 212, 213, 214, 215, 216, 217, 218, 219, 220, 221, 222, 223, 224, 225, 226, 227, 228, 229, 230, 231, 232, 233, 234, 235, 236, 237, 238, 239, 240, 241, 242, 243, 244, 245, 246, 247, 248, 249, 250, 251, 252, 253, 254, 255, 256, 257, 258, 259, 260, 261, 262, 263, 264, 265, 266, 267, 268, 269, 270, 271, 272, 273, 274, 275, 276, 277, 278, 279, 280, 281, 282, 283, 284, 285, 286, 287, 288, 289, 290, 291, 292, 293, 294, 295, 296, 297, 298, 299, 300, 301, 302, 303, 304, 305, 306, 307, 308, 309, 310, 311, 312, 313, 314, 315, 316, 317, 318, 319, 320, 321, 322, 323, 324, 325, 326, 327, 328, 329, 330, 331, 332, 333, 334, 335, 336, 337, 338, 339, 340, 341, 342, 343, 344, 345, 346, 347, 348, 349, 350, 351, 352, 353, 354, 355, 356, 357, 358, 359, 360, 361, 362, 363, 364, 365, 366, 367, 368, 369, 370, 371, 372, 373, 374, 375, 376, 377, 378, 379, 380, 381, 382, 383, 384, 385, 386, 387, 388, 389, 390, 391, 392, 393, 394, 395, 396, 397, 398, 399, 400, 401, 402, 403, 404, 405, 406, 407, 408, 409, 410, 411, 412, 413, 414, 415, 416, 417, 418, 419, 420, 421, 422, 423, 424, 425, 426, 427, 428, 429, 430, 431, 432, 433, 434, 435, 436, 437, 438, 439, 440, 441, 442, 443, 444, 445, 446, 447, 448, 449, 450, 451, 452, 453, 454, 455, 456, 457, 458, 459, 460, 461, 462, 463, 464, 465, 466, 467, 468, 469, 470, 471, 472, 473, 474, 475, 476, 477, 478, 479, 480, 481, 482, 483, 484, 485, 486, 487, 488, 489, 490, 491, 492, 493, 494, 495, 496, 497, 498, 499, 500, 501, 502, 503, 504, 505, 506, 507, 508, 509, 510, 511, 512, 513, 514, 515, 516, 517, 518, 519, 520, 521, 522, 523, 524, 525, 526, 527, 528, 529, 530, 531, 532, 533, 534, 535, 536, 537, 538, 539, 540, 541, 542, 543, 544, 545, 546, 547, 548, 549, 550, 551, 552, 553, 554, 555, 556, 557, 558, 559, 560, 561, 562, 563, 564, 565, 566, 567, 568, 569, 570, 571, 572, 573, 574, 575, 576, 577, 578, 579, 580, 581, 582, 583, 584, 585, 586, 587, 588, 589, 590, 591, 592, 593, 594, 595, 596, 597, 598, 599, 600, 601, 602, 603, 604, 605, 606, 607, 608, 609, 610, 611, 612, 613, 614, 615, 616, 617, 618, 619, 620, 621, 622, 623, 624, 625, 626, 627, 628, 629, 630, 631, 632, 633, 634, 635, 636, 637, 638, 639, 640, 641, 642, 643, 644, 645, 646, 647, 648, 649, 650, 651, 652, 653, 654, 655, 656, 657, 658, 659, 660, 661, 662, 663, 664, 665, 666, 667, 668, 669, 670, 671, 672, 673, 674, 675, 676, 677, 678, 679, 680, 681, 682, 683, 684, 685, 686, 687, 688, 689, 690, 691, 692, 693, 694, 695, 696, 697, 698, 699, 700, 701, 702, 703, 704, 705, 706, 707, 708, 709, 710, 711, 712, 713, 714, 715, 716, 717, 718, 719, 720, 721, 722, 723, 724, 725, 726, 727, 728, 729, 730, 731, 732, 733, 734, 735, 736, 737, 738, 739, 740, 741, 742, 743, 744, 745, 746, 747, 748, 749, 750, 751, 752, 753, 754, 755, 756, 757, 758, 759, 760, 761, 762, 763, 764, 765, 766, 767, 768, 769, 770, 771, 772, 773, 774, 775, 776, 777, 778, 779, 780, 781, 782, 783, 784, 785, 786, 787, 788, 789, 790, 791, 792, 793, 794, 795, 796, 797, 798, 799, 800, 801, 802, 803, 804, 805, 806, 807, 808, 809, 810, 811, 812, 813, 814, 815, 816, 817, 818, 819, 820, 821, 822, 823, 824, 825, 826, 827, 828, 829, 830, 831, 832, 833, 834, 835, 836, 837, 838, 839, 840, 841, 842, 843, 844, 845, 846, 847, 848, 849, 850, 851, 852, 853, 854, 855, 856, 857, 858, 859, 860, 861, 862, 863, 864, 865, 866, 867, 868, 869, 870, 871, 872, 873, 874, 875, 876, 877, 878, 879, 880, 881, 882, 883, 884, 885, 886, 887, 888, 889, 890, 891, 892, 893, 894, 895, 896, 897, 898, 899, 900, 901, 902, 903, 904, 905, 906, 907, 908, 909, 910, 911, 912, 913, 914],
      "AcquisitionTime": ["154359.817500", "154400.277500", "154400.737500", "154401.197500", "154401.657500", "154402.117500", "154402.577500", "154403.037500", "154403.497500", "154403.957500", "154404.417500", "154404.877500", "154405.337500", "154405.797500", "154406.257500", "154406.717500", "154407.177500", "154407.637500", "154408.097500", "154408.557500", "154409.017500", "154409.477500", "154409.937500", "154410.397500", "154410.857500", "154411.317500", "154411.777500", "154412.237500", "154412.697500", "154413.157500", "154413.617500", "154414.077500", "154414.537500", "154414.997500", "154415.457500", "154415.917500", "154416.377500", "154416.837500", "154417.297500", "154417.757500", "154418.217500", "154418.677500", "154419.137500", "154419.597500", "154420.057500", "154420.517500", "154420.977500", "154421.437500", "154421.897500", "154422.357500", "154422.817500", "154423.277500", "154423.737500", "154424.197500", "154424.657500", "154425.117500", "154425.577500", "154426.037500", "154426.497500", "154426.957500", "154427.417500", "154427.877500", "154428.337500", "154428.797500", "154429.257500", "154429.717500", "154430.177500", "154430.637500", "154431.097500", "154431.557500", "154432.017500", "154432.477500", "154432.937500", "154433.397500", "154433.857500", "154434.317500", "154434.777500", "154435.237500", "154435.697500", "154436.157500", "154436.617500", "154437.077500", "154437.537500", "154437.997500", "154438.457500", "154438.917500", "154439.377500", "154439.837500", "154440.297500", "154440.757500", "154441.217500", "154441.677500", "154442.137500", "154442.597500", "154443.057500", "154443.517500", "154443.977500", "154444.437500", "154444.897500", "154445.357500", "154445.817500", "154446.277500", "154446.737500", "154447.197500", "154447.657500", "154448.117500", "154448.577500", "154449.037500", "154449.497500", "154449.957500", "154450.417500", "154450.877500", "154451.337500", "154451.797500", "154452.257500", "154452.717500", "154453.177500", "154453.637500", "154454.097500", "154454.557500", "154455.017500", "154455.477500", "154455.937500", "154456.397500", "154456.857500", "154457.317500", "154457.777500", "154458.237500", "154458.697500", "154459.157500", "154459.617500", "154500.077500", "154500.537500", "154500.997500", "154501.457500", "154501.917500", "154502.377500", "154502.837500", "154503.297500", "154503.757500", "154504.217500", "154504.677500", "154505.137500", "154505.597500", "154506.057500", "154506.517500", "154506.977500", "154507.437500", "154507.897500", "154508.357500", "154508.817500", "154509.277500", "154509.737500", "154510.197500", "154510.657500", "154511.117500", "154511.577500", "154512.037500", "154512.497500", "154512.957500", "154513.417500", "154513.877500", "154514.337500", "154514.797500", "154515.257500", "154515.717500", "154516.177500", "154516.637500", "154517.097500", "154517.557500", "154518.017500", "154518.477500", "154518.937500", "154519.397500", "154519.857500", "154520.317500", "154520.777500", "154521.237500", "154521.697500", "154522.157500", "154522.617500", "154523.077500", "154523.537500", "154523.997500", "154524.457500", "154524.917500", "154525.377500", "154525.837500", "154526.297500", "154526.757500", "154527.217500", "154527.677500", "154528.137500", "154528.597500", "154529.057500", "154529.517500", "154529.977500", "154530.437500", "154530.897500", "154531.357500", "154531.817500", "154532.277500", "154532.737500", "154533.197500", "154533.657500", "154534.117500", "154534.577500", "154535.037500", "154535.497500", "154535.957500", "154536.417500", "154536.877500", "154537.337500", "154537.797500", "154538.257500", "154538.717500", "154539.177500", "154539.637500", "154540.097500", "154540.557500", "154541.017500", "154541.477500", "154541.937500", "154542.397500", "154542.857500", "154543.317500", "154543.777500", "154544.237500", "154544.697500", "154545.157500", "154545.617500", "154546.077500", "154546.537500", "154546.997500", "154547.457500", "154547.917500", "154548.377500", "154548.837500", "154549.297500", "154549.757500", "154550.217500", "154550.677500", "154551.137500", "154551.597500", "154552.057500", "154552.517500", "154552.977500", "154553.437500", "154553.897500", "154554.357500", "154554.817500", "154555.277500", "154555.737500", "154556.197500", "154556.657500", "154557.117500", "154557.577500", "154558.037500", "154558.497500", "154558.957500", "154559.417500", "154559.877500", "154600.337500", "154600.797500", "154601.257500", "154601.717500", "154602.177500", "154602.637500", "154603.097500", "154603.557500", "154604.017500", "154604.477500", "154604.937500", "154605.397500", "154605.857500", "154606.317500", "154606.777500", "154607.237500", "154607.697500", "154608.157500", "154608.617500", "154609.077500", "154609.537500", "154609.997500", "154610.457500", "154610.917500", "154611.377500", "154611.837500", "154612.297500", "154612.757500", "154613.217500", "154613.677500", "154614.137500", "154614.597500", "154615.057500", "154615.517500", "154615.977500", "154616.437500", "154616.897500", "154617.357500", "154617.817500", "154618.277500", "154618.737500", "154619.197500", "154619.657500", "154620.117500", "154620.577500", "154621.037500", "154621.497500", "154621.957500", "154622.417500", "154622.877500", "154623.337500", "154623.797500", "154624.257500", "154624.717500", "154625.177500", "154625.637500", "154626.097500", "154626.557500", "154627.017500", "154627.477500", "154627.937500", "154628.397500", "154628.857500", "154629.317500", "154629.777500", "154630.237500", "154630.697500", "154631.157500", "154631.617500", "154632.077500", "154632.537500", "154632.997500", "154633.457500", "154633.917500", "154634.377500", "154634.837500", "154635.297500", "154635.757500", "154636.217500", "154636.677500", "154637.137500", "154637.597500", "154638.057500", "154638.517500", "154638.977500", "154639.437500", "154639.897500", "154640.357500", "154640.817500", "154641.277500", "154641.737500", "154642.197500", "154642.657500", "154643.117500", "154643.577500", "154644.037500", "154644.497500", "154644.957500", "154645.417500", "154645.877500", "154646.337500", "154646.797500", "154647.257500", "154647.717500", "154648.177500", "154648.637500", "154649.097500", "154649.557500", "154650.017500", "154650.477500", "154650.937500", "154651.397500", "154651.857500", "154652.317500", "154652.777500", "154653.237500", "154653.697500", "154654.157500", "154654.617500", "154655.077500", "154655.537500", "154655.997500", "154656.457500", "154656.917500", "154657.377500", "154657.837500", "154658.297500", "154658.757500", "154659.217500", "154659.677500", "154700.137500", "154700.597500", "154701.057500", "154701.517500", "154701.977500", "154702.437500", "154702.897500", "154703.357500", "154703.817500", "154704.277500", "154704.737500", "154705.197500", "154705.657500", "154706.117500", "154706.577500", "154707.037500", "154707.497500", "154707.957500", "154708.417500", "154708.877500", "154709.337500", "154709.797500", "154710.257500", "154710.717500", "154711.177500", "154711.637500", "154712.097500", "154712.557500", "154713.017500", "154713.477500", "154713.937500", "154714.397500", "154714.857500", "154715.317500", "154715.777500", "154716.237500", "154716.697500", "154717.157500", "154717.617500", "154718.077500", "154718.537500", "154718.997500", "154719.457500", "154719.917500", "154720.377500", "154720.837500", "154721.297500", "154721.757500", "154722.217500", "154722.677500", "154723.137500", "154723.597500", "154724.057500", "154724.517500", "154724.977500", "154725.437500", "154725.897500", "154726.357500", "154726.817500", "154727.277500", "154727.737500", "154728.197500", "154728.657500", "154729.117500", "154729.577500", "154730.037500", "154730.497500", "154730.957500", "154731.417500", "154731.877500", "154732.337500", "154732.797500", "154733.257500", "154733.717500", "154734.177500", "154734.637500", "154735.097500", "154735.557500", "154736.017500", "154736.477500", "154736.937500", "154737.397500", "154737.857500", "154738.317500", "154738.777500", "154739.237500", "154739.697500", "154740.157500", "154740.617500", "154741.077500", "154741.537500", "154741.997500", "154742.457500", "154742.917500", "154743.377500", "154743.837500", "154744.297500", "154744.757500", "154745.217500", "154745.677500", "154746.137500", "154746.597500", "154747.057500", "154747.517500", "154747.977500", "154748.437500", "154748.897500", "154749.357500", "154749.817500", "154750.277500", "154750.737500", "154751.197500", "154751.657500", "154752.117500", "154752.577500", "154753.037500", "154753.497500", "154753.957500", "154754.417500", "154754.877500", "154755.337500", "154755.797500", "154756.257500", "154756.717500", "154757.177500", "154757.637500", "154758.097500", "154758.557500", "154759.017500", "154759.477500", "154759.937500", "154800.397500", "154800.857500", "154801.317500", "154801.777500", "154802.237500", "154802.697500", "154803.157500", "154803.617500", "154804.077500", "154804.537500", "154804.997500", "154805.457500", "154805.917500", "154806.377500", "154806.837500", "154807.297500", "154807.757500", "154808.217500", "154808.677500", "154809.137500", "154809.597500", "154810.057500", "154810.517500", "154810.977500", "154811.437500", "154811.897500", "154812.357500", "154812.817500", "154813.277500", "154813.737500", "154814.197500", "154814.657500", "154815.117500", "154815.577500", "154816.037500", "154816.497500", "154816.957500", "154817.417500", "154817.877500", "154818.337500", "154818.797500", "154819.257500", "154819.717500", "154820.177500", "154820.637500", "154821.097500", "154821.557500", "154822.017500", "154822.477500", "154822.937500", "154823.397500", "154823.857500", "154824.317500", "154824.777500", "154825.237500", "154825.697500", "154826.157500", "154826.617500", "154827.077500", "154827.537500", "154827.997500", "154828.457500", "154828.917500", "154829.377500", "154829.837500", "154830.297500", "154830.757500", "154831.217500", "154831.677500", "154832.137500", "154832.597500", "154833.057500", "154833.517500", "154833.977500", "154834.437500", "154834.897500", "154835.357500", "154835.817500", "154836.277500", "154836.737500", "154837.197500", "154837.657500", "154838.117500", "154838.577500", "154839.037500", "154839.497500", "154839.957500", "154840.417500", "154840.877500", "154841.337500", "154841.797500", "154842.257500", "154842.717500", "154843.177500", "154843.637500", "154844.097500", "154844.557500", "154845.017500", "154845.477500", "154845.937500", "154846.397500", "154846.857500", "154847.317500", "154847.777500", "154848.237500", "154848.697500", "154849.157500", "154849.617500", "154850.077500", "154850.537500", "154850.997500", "154851.457500", "154851.917500", "154852.377500", "154852.837500", "154853.297500", "154853.757500", "154854.217500", "154854.677500", "154855.137500", "154855.597500", "154856.057500", "154856.517500", "154856.977500", "154857.437500", "154857.897500", "154858.357500", "154858.817500", "154859.277500", "154859.737500", "154900.197500", "154900.657500", "154901.117500", "154901.577500", "154902.037500", "154902.497500", "154902.957500", "154903.417500", "154903.877500", "154904.337500", "154904.797500", "154905.257500", "154905.717500", "154906.177500", "154906.637500", "154907.097500", "154907.557500", "154908.017500", "154908.477500", "154908.937500", "154909.397500", "154909.857500", "154910.317500", "154910.777500", "154911.237500", "154911.697500", "154912.157500", "154912.617500", "154913.077500", "154913.537500", "154913.997500", "154914.457500", "154914.917500", "154915.377500", "154915.837500", "154916.297500", "154916.757500", "154917.217500", "154917.677500", "154918.137500", "154918.597500", "154919.057500", "154919.517500", "154919.977500", "154920.437500", "154920.897500", "154921.357500", "154921.817500", "154922.277500", "154922.737500", "154923.197500", "154923.657500", "154924.117500", "154924.577500", "154925.037500", "154925.497500", "154925.957500", "154926.417500", "154926.877500", "154927.337500", "154927.797500", "154928.257500", "154928.717500", "154929.177500", "154929.637500", "154930.097500", "154930.557500", "154931.017500", "154931.477500", "154931.937500", "154932.397500", "154932.857500", "154933.317500", "154933.777500", "154934.237500", "154934.697500", "154935.157500", "154935.617500", "154936.077500", "154936.537500", "154936.997500", "154937.457500", "154937.917500", "154938.377500", "154938.837500", "154939.297500", "154939.757500", "154940.217500", "154940.677500", "154941.137500", "154941.597500", "154942.057500", "154942.517500", "154942.977500", "154943.437500", "154943.897500", "154944.357500", "154944.817500", "154945.277500", "154945.737500", "154946.197500", "154946.657500", "154947.117500", "154947.577500", "154948.037500", "154948.497500", "154948.957500", "154949.417500", "154949.877500", "154950.337500", "154950.797500", "154951.257500", "154951.717500", "154952.177500", "154952.637500", "154953.097500", "154953.557500", "154954.017500", "154954.477500", "154954.937500", "154955.397500", "154955.857500", "154956.317500", "154956.777500", "154957.237500", "154957.697500", "154958.157500", "154958.617500", "154959.077500", "154959.537500", "154959.997500", "155000.457500", "155000.917500", "155001.377500", "155001.837500", "155002.297500", "155002.757500", "155003.217500", "155003.677500", "155004.137500", "155004.597500", "155005.057500", "155005.517500", "155005.977500", "155006.437500", "155006.897500", "155007.357500", "155007.817500", "155008.277500", "155008.737500", "155009.197500", "155009.657500", "155010.117500", "155010.577500", "155011.037500", "155011.497500", "155011.957500", "155012.417500", "155012.877500", "155013.337500", "155013.797500", "155014.257500", "155014.717500", "155015.177500", "155015.637500", "155016.097500", "155016.557500", "155017.017500", "155017.477500", "155017.937500", "155018.397500", "155018.857500", "155019.317500", "155019.777500", "155020.237500", "155020.697500", "155021.157500", "155021.617500", "155022.077500", "155022.537500", "155022.997500", "155023.457500", "155023.917500", "155024.377500", "155024.837500", "155025.297500", "155025.757500", "155026.217500", "155026.677500", "155027.137500", "155027.597500", "155028.057500", "155028.517500", "155028.977500", "155029.437500", "155029.897500", "155030.357500", "155030.817500", "155031.277500", "155031.737500", "155032.197500", "155032.657500", "155033.117500", "155033.577500", "155034.037500", "155034.497500", "155034.957500", "155035.417500", "155035.877500", "155036.337500", "155036.797500", "155037.257500", "155037.717500", "155038.177500", "155038.637500", "155039.097500", "155039.557500", "155040.017500", "155040.477500", "155040.937500", "155041.397500", "155041.857500", "155042.317500", "155042.777500", "155043.237500", "155043.697500", "155044.157500", "155044.617500", "155045.077500", "155045.537500", "155045.997500", "155046.457500", "155046.917500", "155047.377500", "155047.837500", "155048.297500", "155048.757500", "155049.217500", "155049.677500", "155050.137500", "155050.597500", "155051.057500", "155051.517500", "155051.977500", "155052.437500", "155052.897500", "155053.357500", "155053.817500", "155054.277500", "155054.737500", "155055.197500", "155055.657500", "155056.117500", "155056.577500", "155057.037500", "155057.497500", "155057.957500", "155058.417500", "155058.877500", "155059.337500", "155059.797500"],
