{
  "AcquisitionMatrixPE": 82,
  "AcquisitionNumber": 1,
  "AcquisitionTime": "19:15:25.192500",
  "BandwidthPerPixelPhaseEncode": 24.888,
  "BaseResolution": 82,
  "BodyPartExamined": "BRAIN",
  "ConsistencyInfo": "N4_VE11E_LATEST_20181129",
  "ConversionSoftware": "dcm2niix",
  "ConversionSoftwareVersion": "v1.0.20201102",
  "DerivedVendorReportedEchoSpacing": 0.00049,
  "DeviceSerialNumber": "66112",
  "DwellTime": 2e-06,
  "EchoTime": 0.0272,
  "EchoTrainLength": 82,
  "EffectiveEchoSpacing": 0.00049,
  "FlipAngle": 44,
  "ImageComments": "Unaliased MB8/PE3",
  "ImageOrientationPatientDICOM": [0.998631, -0.0081217, 0.0516788, 0.0118526, 0.997312, -0.0723015],
  "ImageType": [
    "ORIGINAL",
    "PRIMARY",
    "M",
    "MB",
    "ND",
    "NORM",
    "MOSAIC"
],
  "ImagingFrequency": 123.259,
  "InPlanePhaseEncodingDirectionDICOM": "COL",
  "InstitutionAddress": "Maynard 3,Hanover,NH,US,03755",
  "InstitutionName": "Dartmouth College - PBS",
  "InstitutionalDepartmentName": "Department",
  "MRAcquisitionType": "2D",
  "MagneticFieldStrength": 3,
  "Manufacturer": "Siemens",
  "ManufacturersModelName": "Prisma",
  "Modality": "MR",
  "MultibandAccelerationFactor": 8,
  "PartialFourier": 1,
  "PatientPosition": "HFS",
  "PercentPhaseFOV": 100,
  "PercentSampling": 100,
  "PhaseEncodingDirection": "j-",
  "PhaseEncodingSteps": 82,
  "PhaseResolution": 1,
  "PixelBandwidth": 3050,
  "ProcedureStepDescription": "Wager_Wager^1076_spacetop",
  "ProtocolName": "func_run-04_task-social_acq-ap-mb8",
  "PulseSequenceDetails": "%CustomerSeq%\\cmrr_mbep2d_bold",
  "ReceiveCoilActiveElements": "HEA;HEP",
  "ReceiveCoilName": "Head_32",
  "ReconMatrixPE": 82,
  "RepetitionTime": 0.46,
  "SAR": 0.106691,
  "ScanOptions": "FS",
  "ScanningSequence": "EP",
  "SequenceName": "epfid2d1_82",
  "SequenceVariant": "SK\\SS",
  "SeriesDescription": "func_run-04_task-social_acq-ap-mb8",
  "SeriesNumber": 18,
  "ShimSetting": [4252, -7862, -7212, 636, -41, -268, 293, 84],
  "SliceThickness": 2.7,
  "SliceTiming": [0, 0.25, 0.0625, 0.3125, 0.125, 0.3775, 0.1875, 0, 0.25, 0.0625, 0.3125, 0.125, 0.3775, 0.1875, 0, 0.25, 0.0625, 0.3125, 0.125, 0.3775, 0.1875, 0, 0.25, 0.0625, 0.3125, 0.125, 0.3775, 0.1875, 0, 0.25, 0.0625, 0.3125, 0.125, 0.3775, 0.1875, 0, 0.25, 0.0625, 0.3125, 0.125, 0.3775, 0.1875, 0, 0.25, 0.0625, 0.3125, 0.125, 0.3775, 0.1875, 0, 0.25, 0.0625, 0.3125, 0.125, 0.3775, 0.1875],
  "SoftwareVersions": "syngo MR E11",
  "SpacingBetweenSlices": 2.7,
  "StationName": "AWP66112",
  "TaskName": "social",
  "TotalReadoutTime": 0.03969,
  "TxRefAmp": 231.029,
  "WipMemBlock": "286013c3-5759-4fe7-a22d-ab547f5654b3||Sequence: R016 ve11e/master r/434b28f1; Aug  7 2019 18:53:46 by eja",
  "dcmmeta_affine": [
    [-2.679253339767456, 0.031799543648958206, 0.1375722587108612, 106.48217010498047],
    [0.021789928898215294, 2.6757161617279053, -0.19660061597824097, -99.373779296875],
    [0.13865041732788086, 0.1939796805381775, 2.6893162727355957, -77.31224822998047],
    [0.0, 0.0, 0.0, 1.0]
],
  "dcmmeta_reorient_transform": [
    [0.0, -1.0, 0.0, 81.0],
    [1.0, 0.0, 0.0, 0.0],
    [0.0, 0.0, 1.0, 0.0],
    [0.0, 0.0, 0.0, 1.0]
],
  "dcmmeta_shape": [82, 82, 56, 872],
  "dcmmeta_slice_dim": 2,
  "dcmmeta_version": 0.6,
  "global": {
    "const": {
      "AccessionNumber": "A004688",
      "AcquisitionMatrix": [82, 0, 0, 82],
      "AngioFlag": "N",
      "BitsAllocated": 16,
      "BitsStored": 16,
      "BodyPartExamined": "BRAIN",
      "Columns": 656,
      "EchoNumbers": 1,
      "EchoTime": 27.2,
      "EchoTrainLength": 82,
      "FlipAngle": 44.0,
      "HighBit": 15,
      "ImageOrientationPatient": [0.99863073281818, -0.0081217005611, 0.05167879111419, 0.0118525569174, 0.99731239216177, -0.0723015168243],
      "ImagePositionPatient": [-887.13008678081, -879.03609005144, -45.720393886757],
      "ImageType": [
        "ORIGINAL",
        "PRIMARY",
        "M",
        "MB",
        "ND",
        "NORM",
        "MOSAIC"
],
      "ImagedNucleus": "1H",
      "ImagingFrequency": 123.259127,
      "InPlanePhaseEncodingDirection": "COL",
      "MRAcquisitionType": "2D",
      "MagneticFieldStrength": 3.0,
      "Manufacturer": "SIEMENS",
      "ManufacturerModelName": "Prisma",
      "Modality": "MR",
      "NumberOfAverages": 1.0,
      "NumberOfPhaseEncodingSteps": 82,
      "PercentPhaseFieldOfView": 100.0,
      "PercentSampling": 100.0,
      "PerformedProcedureStepStartTime": "181820.319000",
      "PhotometricInterpretation": "MONOCHROME2",
      "PixelBandwidth": 3050.0,
      "PixelRepresentation": 0,
      "PixelSpacing": [2.6829268932343, 2.6829268932343],
      "ProtocolName": "func_run-04_task-social_acq-ap-mb8",
      "RepetitionTime": 460.0,
      "Rows": 656,
      "SAR": 0.10669074816839,
      "SamplesPerPixel": 1,
      "ScanOptions": "FS",
      "ScanningSequence": "EP",
      "SequenceName": "epfid2d1_82",
      "SequenceVariant": [
        "SK",
        "SS"
],
      "SeriesDescription": "func_run-04_task-social_acq-ap-mb8",
      "SeriesNumber": 18,
      "SeriesTime": "191547.852000",
      "SliceLocation": -64.344869587375,
      "SliceThickness": 2.7000000476837,
      "SmallestImagePixelValue": 0,
      "SoftwareVersions": "syngo MR E11",
      "SpacingBetweenSlices": 2.7000000671256,
      "SpecificCharacterSet": "ISO_IR 100",
      "StudyID": "2",
      "StudyTime": "181820.257000",
      "TransmitCoilName": "Body",
      "VariableFlipAngleFlag": "N",
      "WindowCenterWidthExplanation": "Algo1"
    },
    "slices": {}
  },
  "time": {
    "samples": {
      "AcquisitionNumber": [1, 2, 3, 4, 5, 6, 7, 8, 9, 10, 11, 12, 13, 14, 15, 16, 17, 18, 19, 20, 21, 22, 23, 24, 25, 26, 27, 28, 29, 30, 31, 32, 33, 34, 35, 36, 37, 38, 39, 40, 41, 42, 43, 44, 45, 46, 47, 48, 49, 50, 51, 52, 53, 54, 55, 56, 57, 58, 59, 60, 61, 62, 63, 64, 65, 66, 67, 68, 69, 70, 71, 72, 73, 74, 75, 76, 77, 78, 79, 80, 81, 82, 83, 84, 85, 86, 87, 88, 89, 90, 91, 92, 93, 94, 95, 96, 97, 98, 99, 100, 101, 102, 103, 104, 105, 106, 107, 108, 109, 110, 111, 112, 113, 114, 115, 116, 117, 118, 119, 120, 121, 122, 123, 124, 125, 126, 127, 128, 129, 130, 131, 132, 133, 134, 135, 136, 137, 138, 139, 140, 141, 142, 143, 144, 145, 146, 147, 148, 149, 150, 151, 152, 153, 154, 155, 156, 157, 158, 159, 160, 161, 162, 163, 164, 165, 166, 167, 168, 169, 170, 171, 172, 173, 174, 175, 176, 177, 178, 179, 180, 181, 182, 183, 184, 185, 186, 187, 188, 189, 190, 191, 192, 193, 194, 195, 196, 197, 198, 199, 200, 201, 202, 203, 204, 205, 206, 207, 208, 209, 210, 211, 212, 213, 214, 215, 216, 217, 218, 219, 220, 221, 222, 223, 224, 225, 226, 227, 228, 229, 230, 231, 232, 233, 234, 235, 236, 237, 238, 239, 240, 241, 242, 243, 244, 245, 246, 247, 248, 249, 250, 251, 252, 253, 254, 255, 256, 257, 258, 259, 260, 261, 262, 263, 264, 265, 266, 267, 268, 269, 270, 271, 272, 273, 274, 275, 276, 277, 278, 279, 280, 281, 282, 283, 284, 285, 286, 287, 288, 289, 290, 291, 292, 293, 294, 295, 296, 297, 298, 299, 300, 301, 302, 303, 304, 305, 306, 307, 308, 309, 310, 311, 312, 313, 314, 315, 316, 317, 318, 319, 320, 321, 322, 323, 324, 325, 326, 327, 328, 329, 330, 331, 332, 333, 334, 335, 336, 337, 338, 339, 340, 341, 342, 343, 344, 345, 346, 347, 348, 349, 350, 351, 352, 353, 354, 355, 356, 357, 358, 359, 360, 361, 362, 363, 364, 365, 366, 367, 368, 369, 370, 371, 372, 373, 374, 375, 376, 377, 378, 379, 380, 381, 382, 383, 384, 385, 386, 387, 388, 389, 390, 391, 392, 393, 394, 395, 396, 397, 398, 399, 400, 401, 402, 403, 404, 405, 406, 407, 408, 409, 410, 411, 412, 413, 414, 415, 416, 417, 418, 419, 420, 421, 422, 423, 424, 425, 426, 427, 428, 429, 430, 431, 432, 433, 434, 435, 436, 437, 438, 439, 440, 441, 442, 443, 444, 445, 446, 447, 448, 449, 450, 451, 452, 453, 454, 455, 456, 457, 458, 459, 460, 461, 462, 463, 464, 465, 466, 467, 468, 469, 470, 471, 472, 473, 474, 475, 476, 477, 478, 479, 480, 481, 482, 483, 484, 485, 486, 487, 488, 489, 490, 491, 492, 493, 494, 495, 496, 497, 498, 499, 500, 501, 502, 503, 504, 505, 506, 507, 508, 509, 510, 511, 512, 513, 514, 515, 516, 517, 518, 519, 520, 521, 522, 523, 524, 525, 526, 527, 528, 529, 530, 531, 532, 533, 534, 535, 536, 537, 538, 539, 540, 541, 542, 543, 544, 545, 546, 547, 548, 549, 550, 551, 552, 553, 554, 555, 556, 557, 558, 559, 560, 561, 562, 563, 564, 565, 566, 567, 568, 569, 570, 571, 572, 573, 574, 575, 576, 577, 578, 579, 580, 581, 582, 583, 584, 585, 586, 587, 588, 589, 590, 591, 592, 593, 594, 595, 596, 597, 598, 599, 600, 601, 602, 603, 604, 605, 606, 607, 608, 609, 610, 611, 612, 613, 614, 615, 616, 617, 618, 619, 620, 621, 622, 623, 624, 625, 626, 627, 628, 629, 630, 631, 632, 633, 634, 635, 636, 637, 638, 639, 640, 641, 642, 643, 644, 645, 646, 647, 648, 649, 650, 651, 652, 653, 654, 655, 656, 657, 658, 659, 660, 661, 662, 663, 664, 665, 666, 667, 668, 669, 670, 671, 672, 673, 674, 675, 676, 677, 678, 679, 680, 681, 682, 683, 684, 685, 686, 687, 688, 689, 690, 691, 692, 693, 694, 695, 696, 697, 698, 699, 700, 701, 702, 703, 704, 705, 706, 707, 708, 709, 710, 711, 712, 713, 714, 715, 716, 717, 718, 719, 720, 721, 722, 723, 724, 725, 726, 727, 728, 729, 730, 731, 732, 733, 734, 735, 736, 737, 738, 739, 740, 741, 742, 743, 744, 745, 746, 747, 748, 749, 750, 751, 752, 753, 754, 755, 756, 757, 758, 759, 760, 761, 762, 763, 764, 765, 766, 767, 768, 769, 770, 771, 772, 773, 774, 775, 776, 777, 778, 779, 780, 781, 782, 783, 784, 785, 786, 787, 788, 789, 790, 791, 792, 793, 794, 795, 796, 797, 798, 799, 800, 801, 802, 803, 804, 805, 806, 807, 808, 809, 810, 811, 812, 813, 814, 815, 816, 817, 818, 819, 820, 821, 822, 823, 824, 825, 826, 827, 828, 829, 830, 831, 832, 833, 834, 835, 836, 837, 838, 839, 840, 841, 842, 843, 844, 845, 846, 847, 848, 849, 850, 851, 852, 853, 854, 855, 856, 857, 858, 859, 860, 861, 862, 863, 864, 865, 866, 867, 868, 869, 870, 871, 872],
      "AcquisitionTime": ["191525.192500", "191525.652500", "191526.112500", "191526.572500", "191527.032500", "191527.492500", "191527.952500", "191528.412500", "191528.872500", "191529.332500", "191529.792500", "191530.252500", "191530.712500", "191531.172500", "191531.632500", "191532.092500", "191532.552500", "191533.012500", "191533.472500", "191533.932500", "191534.392500", "191534.852500", "191535.312500", "191535.772500", "191536.232500", "191536.692500", "191537.152500", "191537.612500", "191538.072500", "191538.532500", "191538.992500", "191539.452500", "191539.912500", "191540.372500", "191540.832500", "191541.292500", "191541.752500", "191542.212500", "191542.672500", "191543.132500", "191543.592500", "191544.052500", "191544.512500", "191544.972500", "191545.432500", "191545.892500", "191546.352500", "191546.812500", "191547.272500", "191547.732500", "191548.192500", "191548.652500", "191549.112500", "191549.572500", "191550.032500", "191550.492500", "191550.952500", "191551.412500", "191551.872500", "191552.332500", "191552.792500", "191553.252500", "191553.712500", "191554.172500", "191554.632500", "191555.092500", "191555.552500", "191556.012500", "191556.472500", "191556.932500", "191557.392500", "191557.852500", "191558.312500", "191558.772500", "191559.232500", "191559.692500", "191600.152500", "191600.612500", "191601.072500", "191601.532500", "191601.992500", "191602.452500", "191602.912500", "191603.372500", "191603.832500", "191604.292500", "191604.752500", "191605.212500", "191605.672500", "191606.132500", "191606.592500", "191607.052500", "191607.512500", "191607.972500", "191608.432500", "191608.892500", "191609.352500", "191609.812500", "191610.272500", "191610.732500", "191611.192500", "191611.652500", "191612.112500", "191612.572500", "191613.032500", "191613.492500", "191613.952500", "191614.412500", "191614.872500", "191615.332500", "191615.792500", "191616.252500", "191616.712500", "191617.172500", "191617.632500", "191618.092500", "191618.552500", "191619.012500", "191619.472500", "191619.932500", "191620.392500", "191620.852500", "191621.312500", "191621.772500", "191622.232500", "191622.692500", "191623.152500", "191623.612500", "191624.072500", "191624.532500", "191624.992500", "191625.452500", "191625.912500", "191626.372500", "191626.832500", "191627.292500", "191627.752500", "191628.212500", "191628.672500", "191629.132500", "191629.592500", "191630.052500", "191630.512500", "191630.972500", "191631.432500", "191631.892500", "191632.352500", "191632.812500", "191633.272500", "191633.732500", "191634.192500", "191634.652500", "191635.112500", "191635.572500", "191636.032500", "191636.492500", "191636.952500", "191637.412500", "191637.872500", "191638.332500", "191638.792500", "191639.252500", "191639.712500", "191640.172500", "191640.632500", "191641.092500", "191641.552500", "191642.012500", "191642.472500", "191642.932500", "191643.392500", "191643.852500", "191644.312500", "191644.772500", "191645.232500", "191645.692500", "191646.152500", "191646.612500", "191647.072500", "191647.532500", "191647.992500", "191648.452500", "191648.912500", "191649.372500", "191649.832500", "191650.292500", "191650.752500", "191651.212500", "191651.672500", "191652.132500", "191652.592500", "191653.052500", "191653.512500", "191653.972500", "191654.432500", "191654.892500", "191655.352500", "191655.812500", "191656.272500", "191656.732500", "191657.192500", "191657.652500", "191658.112500", "191658.572500", "191659.032500", "191659.492500", "191659.952500", "191700.412500", "191700.872500", "191701.332500", "191701.792500", "191702.252500", "191702.712500", "191703.172500", "191703.632500", "191704.092500", "191704.552500", "191705.012500", "191705.472500", "191705.932500", "191706.392500", "191706.852500", "191707.312500", "191707.772500", "191708.232500", "191708.692500", "191709.152500", "191709.612500", "191710.072500", "191710.532500", "191710.992500", "191711.452500", "191711.912500", "191712.372500", "191712.832500", "191713.292500", "191713.752500", "191714.212500", "191714.672500", "191715.132500", "191715.592500", "191716.052500", "191716.512500", "191716.972500", "191717.432500", "191717.892500", "191718.352500", "191718.812500", "191719.272500", "191719.732500", "191720.192500", "191720.652500", "191721.112500", "191721.572500", "191722.032500", "191722.492500", "191722.952500", "191723.412500", "191723.872500", "191724.332500", "191724.792500", "191725.252500", "191725.712500", "191726.172500", "191726.632500", "191727.092500", "191727.552500", "191728.012500", "191728.472500", "191728.932500", "191729.392500", "191729.852500", "191730.312500", "191730.772500", "191731.232500", "191731.692500", "191732.152500", "191732.612500", "191733.072500", "191733.532500", "191733.992500", "191734.452500", "191734.912500", "191735.372500", "191735.832500", "191736.292500", "191736.752500", "191737.212500", "191737.672500", "191738.132500", "191738.592500", "191739.052500", "191739.512500", "191739.972500", "191740.432500", "191740.892500", "191741.352500", "191741.812500", "191742.272500", "191742.732500", "191743.192500", "191743.652500", "191744.112500", "191744.572500", "191745.032500", "191745.492500", "191745.952500", "191746.412500", "191746.872500", "191747.332500", "191747.792500", "191748.252500", "191748.712500", "191749.172500", "191749.632500", "191750.092500", "191750.552500", "191751.012500", "191751.472500", "191751.932500", "191752.392500", "191752.852500", "191753.312500", "191753.772500", "191754.232500", "191754.692500", "191755.152500", "191755.612500", "191756.072500", "191756.532500", "191756.992500", "191757.452500", "191757.912500", "191758.372500", "191758.832500", "191759.292500", "191759.752500", "191800.212500", "191800.672500", "191801.132500", "191801.592500", "191802.052500", "191802.512500", "191802.972500", "191803.432500", "191803.892500", "191804.352500", "191804.812500", "191805.272500", "191805.732500", "191806.192500", "191806.652500", "191807.112500", "191807.572500", "191808.032500", "191808.492500", "191808.952500", "191809.412500", "191809.872500", "191810.332500", "191810.792500", "191811.252500", "191811.712500", "191812.172500", "191812.632500", "191813.092500", "191813.552500", "191814.012500", "191814.472500", "191814.932500", "191815.392500", "191815.852500", "191816.312500", "191816.772500", "191817.232500", "191817.692500", "191818.152500", "191818.612500", "191819.072500", "191819.532500", "191819.992500", "191820.452500", "191820.912500", "191821.372500", "191821.832500", "191822.292500", "191822.752500", "191823.212500", "191823.672500", "191824.132500", "191824.592500", "191825.052500", "191825.512500", "191825.972500", "191826.432500", "191826.892500", "191827.352500", "191827.812500", "191828.272500", "191828.732500", "191829.192500", "191829.652500", "191830.112500", "191830.572500", "191831.032500", "191831.492500", "191831.952500", "191832.412500", "191832.872500", "191833.332500", "191833.792500", "191834.252500", "191834.712500", "191835.172500", "191835.632500", "191836.092500", "191836.552500", "191837.012500", "191837.472500", "191837.932500", "191838.392500", "191838.852500", "191839.312500", "191839.772500", "191840.232500", "191840.692500", "191841.152500", "191841.612500", "191842.072500", "191842.532500", "191842.992500", "191843.452500", "191843.912500", "191844.372500", "191844.832500", "191845.292500", "191845.752500", "191846.212500", "191846.672500", "191847.132500", "191847.592500", "191848.052500", "191848.512500", "191848.972500", "191849.432500", "191849.892500", "191850.352500", "191850.812500", "191851.272500", "191851.732500", "191852.192500", "191852.652500", "191853.112500", "191853.572500", "191854.032500", "191854.492500", "191854.952500", "191855.412500", "191855.872500", "191856.332500", "191856.792500", "191857.252500", "191857.712500", "191858.172500", "191858.632500", "191859.092500", "191859.552500", "191900.012500", "191900.472500", "191900.932500", "191901.392500", "191901.852500", "191902.312500", "191902.772500", "191903.232500", "191903.692500", "191904.152500", "191904.612500", "191905.072500", "191905.532500", "191905.992500", "191906.452500", "191906.912500", "191907.372500", "191907.832500", "191908.292500", "191908.752500", "191909.212500", "191909.672500", "191910.132500", "191910.592500", "191911.052500", "191911.512500", "191911.972500", "191912.432500", "191912.892500", "191913.352500", "191913.812500", "191914.272500", "191914.732500", "191915.192500", "191915.652500", "191916.112500", "191916.572500", "191917.032500", "191917.492500", "191917.952500", "191918.412500", "191918.872500", "191919.332500", "191919.792500", "191920.252500", "191920.712500", "191921.172500", "191921.632500", "191922.092500", "191922.552500", "191923.012500", "191923.472500", "191923.932500", "191924.392500", "191924.852500", "191925.312500", "191925.772500", "191926.232500", "191926.692500", "191927.152500", "191927.612500", "191928.072500", "191928.532500", "191928.992500", "191929.452500", "191929.912500", "191930.372500", "191930.832500", "191931.292500", "191931.752500", "191932.212500", "191932.672500", "191933.132500", "191933.592500", "191934.052500", "191934.512500", "191934.972500", "191935.432500", "191935.892500", "191936.352500", "191936.812500", "191937.272500", "191937.732500", "191938.192500", "191938.652500", "191939.112500", "191939.572500", "191940.032500", "191940.492500", "191940.952500", "191941.412500", "191941.872500", "191942.332500", "191942.792500", "191943.252500", "191943.712500", "191944.172500", "191944.632500", "191945.092500", "191945.552500", "191946.012500", "191946.472500", "191946.932500", "191947.392500", "191947.852500", "191948.312500", "191948.772500", "191949.232500", "191949.692500", "191950.152500", "191950.612500", "191951.072500", "191951.532500", "191951.992500", "191952.452500", "191952.912500", "191953.372500", "191953.832500", "191954.292500", "191954.752500", "191955.212500", "191955.672500", "191956.132500", "191956.592500", "191957.052500", "191957.512500", "191957.972500", "191958.432500", "191958.892500", "191959.352500", "191959.812500", "192000.272500", "192000.732500", "192001.192500", "192001.652500", "192002.112500", "192002.572500", "192003.032500", "192003.492500", "192003.952500", "192004.412500", "192004.872500", "192005.332500", "192005.792500", "192006.252500", "192006.712500", "192007.172500", "192007.632500", "192008.092500", "192008.552500", "192009.012500", "192009.472500", "192009.932500", "192010.392500", "192010.852500", "192011.312500", "192011.772500", "192012.232500", "192012.692500", "192013.152500", "192013.612500", "192014.072500", "192014.532500", "192014.992500", "192015.452500", "192015.912500", "192016.372500", "192016.832500", "192017.292500", "192017.752500", "192018.212500", "192018.672500", "192019.132500", "192019.592500", "192020.052500", "192020.512500", "192020.972500", "192021.432500", "192021.892500", "192022.352500", "192022.812500", "192023.272500", "192023.732500", "192024.192500", "192024.652500", "192025.112500", "192025.572500", "192026.032500", "192026.492500", "192026.952500", "192027.412500", "192027.872500", "192028.332500", "192028.792500", "192029.252500", "192029.712500", "192030.172500", "192030.632500", "192031.092500", "192031.552500", "192032.012500", "192032.472500", "192032.932500", "192033.392500", "192033.852500", "192034.312500", "192034.772500", "192035.232500", "192035.692500", "192036.152500", "192036.612500", "192037.072500", "192037.532500", "192037.992500", "192038.452500", "192038.912500", "192039.372500", "192039.832500", "192040.292500", "192040.752500", "192041.212500", "192041.672500", "192042.132500", "192042.592500", "192043.052500", "192043.512500", "192043.972500", "192044.432500", "192044.892500", "192045.352500", "192045.812500", "192046.272500", "192046.732500", "192047.192500", "192047.652500", "192048.112500", "192048.572500", "192049.032500", "192049.492500", "192049.952500", "192050.412500", "192050.872500", "192051.332500", "192051.792500", "192052.252500", "192052.712500", "192053.172500", "192053.632500", "192054.092500", "192054.552500", "192055.012500", "192055.472500", "192055.932500", "192056.392500", "192056.852500", "192057.312500", "192057.772500", "192058.232500", "192058.692500", "192059.152500", "192059.612500", "192100.072500", "192100.532500", "192100.992500", "192101.452500", "192101.912500", "192102.372500", "192102.832500", "192103.292500", "192103.752500", "192104.212500", "192104.672500", "192105.132500", "192105.592500", "192106.052500", "192106.512500", "192106.972500", "192107.432500", "192107.892500", "192108.352500", "192108.812500", "192109.272500", "192109.732500", "192110.192500", "192110.652500", "192111.112500", "192111.572500", "192112.032500", "192112.492500", "192112.952500", "192113.412500", "192113.872500", "192114.332500", "192114.792500", "192115.252500", "192115.712500", "192116.172500", "192116.632500", "192117.092500", "192117.552500", "192118.012500", "192118.472500", "192118.932500", "192119.392500", "192119.852500", "192120.312500", "192120.772500", "192121.232500", "192121.692500", "192122.152500", "192122.612500", "192123.072500", "192123.532500", "192123.992500", "192124.452500", "192124.912500", "192125.372500", "192125.832500", "192126.292500", "192126.752500", "192127.212500", "192127.672500", "192128.132500", "192128.592500", "192129.052500", "192129.512500", "192129.972500", "192130.432500", "192130.892500", "192131.352500", "192131.812500", "192132.272500", "192132.732500", "192133.192500", "192133.652500", "192134.112500", "192134.572500", "192135.032500", "192135.492500", "192135.952500", "192136.412500", "192136.872500", "192137.332500", "192137.792500", "192138.252500", "192138.712500", "192139.172500", "192139.632500", "192140.092500", "192140.552500", "192141.012500", "192141.472500", "192141.932500", "192142.392500", "192142.852500", "192143.312500", "192143.772500", "192144.232500", "192144.692500", "192145.152500", "192145.612500", "192146.072500", "192146.532500", "192146.992500", "192147.452500", "192147.912500", "192148.372500", "192148.832500", "192149.292500", "192149.752500", "192150.212500", "192150.672500", "192151.132500", "192151.592500", "192152.052500", "192152.512500", "192152.972500", "192153.432500", "192153.892500", "192154.352500", "192154.812500", "192155.272500", "192155.732500", "192156.192500", "192156.652500", "192157.112500", "192157.572500", "192158.032500", "192158.492500", "192158.952500", "192159.412500", "192159.872500", "192200.332500", "192200.792500", "192201.252500", "192201.712500", "192202.172500", "192202.632500", "192203.092500", "192203.552500", "192204.012500", "192204.472500", "192204.932500", "192205.392500", "192205.852500"],
