{
  "AcquisitionMatrixPE": 82,
  "AcquisitionNumber": 1,
  "AcquisitionTime": "19:50:19.385000",
  "BandwidthPerPixelPhaseEncode": 24.888,
  "BaseResolution": 82,
  "BodyPartExamined": "BRAIN",
  "ConsistencyInfo": "N4_VE11E_LATEST_20181129",
  "ConversionSoftware": "dcm2niix",
  "ConversionSoftwareVersion": "v1.0.20201102",
  "DerivedVendorReportedEchoSpacing": 0.00049,
  "DeviceSerialNumber": "66112",
  "DwellTime": 2e-06,
  "EchoTime": 0.0272,
  "EchoTrainLength": 82,
  "EffectiveEchoSpacing": 0.00049,
  "FlipAngle": 44,
  "ImageComments": "Unaliased MB8/PE3",
  "ImageOrientationPatientDICOM": [0.999064, -0.0130932, 0.0412164, 0.0172644, 0.99458, -0.102531],
  "ImageType": [
    "ORIGINAL",
    "PRIMARY",
    "M",
    "MB",
    "ND",
    "NORM",
    "MOSAIC"
],
  "ImagingFrequency": 123.259,
  "InPlanePhaseEncodingDirectionDICOM": "COL",
  "InstitutionAddress": "Maynard 3,Hanover,NH,US,03755",
  "InstitutionName": "Dartmouth College - PBS",
  "InstitutionalDepartmentName": "Department",
  "MRAcquisitionType": "2D",
  "MagneticFieldStrength": 3,
  "Manufacturer": "Siemens",
  "ManufacturersModelName": "Prisma",
  "Modality": "MR",
  "MultibandAccelerationFactor": 8,
  "PartialFourier": 1,
  "PatientPosition": "HFS",
  "PercentPhaseFOV": 100,
  "PercentSampling": 100,
  "PhaseEncodingDirection": "j-",
  "PhaseEncodingSteps": 82,
  "PhaseResolution": 1,
  "PixelBandwidth": 3050,
  "ProcedureStepDescription": "Wager_Wager^1076_spacetop",
  "ProtocolName": "func_run-02_task-alignvideo_acq-ap-mb8",
  "PulseSequenceDetails": "%CustomerSeq%\\cmrr_mbep2d_bold",
  "ReceiveCoilActiveElements": "HEA;HEP",
  "ReceiveCoilName": "Head_32",
  "ReconMatrixPE": 82,
  "RepetitionTime": 0.46,
  "SAR": 0.106729,
  "ScanOptions": "FS",
  "ScanningSequence": "EP",
  "SequenceName": "epfid2d1_82",
  "SequenceVariant": "SK\\SS",
  "SeriesDescription": "func_run-02_task-alignvideo_acq-ap-mb8",
  "SeriesNumber": 32,
  "ShimSetting": [4251, -7862, -7213, 634, -42, -269, 295, 83],
  "SliceThickness": 2.7,
  "SliceTiming": [0, 0.25, 0.0625, 0.315, 0.125, 0.3775, 0.1875, 0, 0.25, 0.0625, 0.315, 0.125, 0.3775, 0.1875, 0, 0.25, 0.0625, 0.315, 0.125, 0.3775, 0.1875, 0, 0.25, 0.0625, 0.315, 0.125, 0.3775, 0.1875, 0, 0.25, 0.0625, 0.315, 0.125, 0.3775, 0.1875, 0, 0.25, 0.0625, 0.315, 0.125, 0.3775, 0.1875, 0, 0.25, 0.0625, 0.315, 0.125, 0.3775, 0.1875, 0, 0.25, 0.0625, 0.315, 0.125, 0.3775, 0.1875],
  "SoftwareVersions": "syngo MR E11",
  "SpacingBetweenSlices": 2.7,
  "StationName": "AWP66112",
  "TaskName": "alignvideo",
  "TotalReadoutTime": 0.03969,
  "TxRefAmp": 231.029,
  "WipMemBlock": "821d589a-c531-4cf9-b641-791eee7cf3fa||Sequence: R016 ve11e/master r/434b28f1; Aug  7 2019 18:53:46 by eja",
  "dcmmeta_affine": [
    [-2.6804168224334717, 0.046319060027599335, 0.10705658793449402, 106.29269409179688],
    [0.03512817248702049, 2.6683852672576904, -0.2784958779811859, -97.84304809570312],
    [0.11058070510625839, 0.27508309483528137, 2.6834640502929688, -78.1512222290039],
    [0.0, 0.0, 0.0, 1.0]
],
  "dcmmeta_reorient_transform": [
    [0.0, -1.0, 0.0, 81.0],
    [1.0, 0.0, 0.0, 0.0],
    [0.0, 0.0, 1.0, 0.0],
    [0.0, 0.0, 0.0, 1.0]
],
  "dcmmeta_shape": [82, 82, 56, 926],
  "dcmmeta_slice_dim": 2,
  "dcmmeta_version": 0.6,
  "global": {
    "const": {
      "AccessionNumber": "A004688",
      "AcquisitionMatrix": [82, 0, 0, 82],
      "AngioFlag": "N",
      "BitsAllocated": 16,
      "BitsStored": 16,
      "BodyPartExamined": "BRAIN",
      "Columns": 656,
      "EchoNumbers": 1,
      "EchoTime": 27.2,
      "EchoTrainLength": 82,
      "FlipAngle": 44.0,
      "HighBit": 15,
      "ImageOrientationPatient": [0.99906444840434, -0.0130932282064, 0.04121644465096, 0.0172643764146, 0.99457998253175, -0.1025309692442],
      "ImagePositionPatient": [-892.61775256632, -874.04098406575, -8.6573032226138],
      "ImageType": [
        "ORIGINAL",
        "PRIMARY",
        "M",
        "MB",
        "ND",
        "NORM",
        "MOSAIC"
],
      "ImagedNucleus": "1H",
      "ImagingFrequency": 123.259122,
      "InPlanePhaseEncodingDirection": "COL",
      "MRAcquisitionType": "2D",
      "MagneticFieldStrength": 3.0,
      "Manufacturer": "SIEMENS",
      "ManufacturerModelName": "Prisma",
      "Modality": "MR",
      "NumberOfAverages": 1.0,
      "NumberOfPhaseEncodingSteps": 82,
      "PercentPhaseFieldOfView": 100.0,
      "PercentSampling": 100.0,
      "PerformedProcedureStepStartTime": "181820.319000",
      "PhotometricInterpretation": "MONOCHROME2",
      "PixelBandwidth": 3050.0,
      "PixelRepresentation": 0,
      "PixelSpacing": [2.6829268932343, 2.6829268932343],
      "ProtocolName": "func_run-02_task-alignvideo_acq-ap-mb8",
      "RepetitionTime": 460.0,
      "Rows": 656,
      "SAR": 0.10672939716668,
      "SamplesPerPixel": 1,
      "ScanOptions": "FS",
      "ScanningSequence": "EP",
      "SequenceName": "epfid2d1_82",
      "SequenceVariant": [
        "SK",
        "SS"
],
      "SeriesDescription": "func_run-02_task-alignvideo_acq-ap-mb8",
      "SeriesNumber": 32,
      "SeriesTime": "195047.929000",
      "SliceLocation": -63.365837353812,
      "SliceThickness": 2.7000000476837,
      "SmallestImagePixelValue": 0,
      "SoftwareVersions": "syngo MR E11",
      "SpacingBetweenSlices": 2.7000000009642,
      "SpecificCharacterSet": "ISO_IR 100",
      "StudyID": "2",
      "StudyTime": "181820.257000",
      "TransmitCoilName": "Body",
      "VariableFlipAngleFlag": "N",
      "WindowCenterWidthExplanation": "Algo1"
    },
    "slices": {}
  },
  "time": {
    "samples": {
      "AcquisitionNumber": [1, 2, 3, 4, 5, 6, 7, 8, 9, 10, 11, 12, 13, 14, 15, 16, 17, 18, 19, 20, 21, 22, 23, 24, 25, 26, 27, 28, 29, 30, 31, 32, 33, 34, 35, 36, 37, 38, 39, 40, 41, 42, 43, 44, 45, 46, 47, 48, 49, 50, 51, 52, 53, 54, 55, 56, 57, 58, 59, 60, 61, 62, 63, 64, 65, 66, 67, 68, 69, 70, 71, 72, 73, 74, 75, 76, 77, 78, 79, 80, 81, 82, 83, 84, 85, 86, 87, 88, 89, 90, 91, 92, 93, 94, 95, 96, 97, 98, 99, 100, 101, 102, 103, 104, 105, 106, 107, 108, 109, 110, 111, 112, 113, 114, 115, 116, 117, 118, 119, 120, 121, 122, 123, 124, 125, 126, 127, 128, 129, 130, 131, 132, 133, 134, 135, 136, 137, 138, 139, 140, 141, 142, 143, 144, 145, 146, 147, 148, 149, 150, 151, 152, 153, 154, 155, 156, 157, 158, 159, 160, 161, 162, 163, 164, 165, 166, 167, 168, 169, 170, 171, 172, 173, 174, 175, 176, 177, 178, 179, 180, 181, 182, 183, 184, 185, 186, 187, 188, 189, 190, 191, 192, 193, 194, 195, 196, 197, 198, 199, 200, 201, 202, 203, 204, 205, 206, 207, 208, 209, 210, 211, 212, 213, 214, 215, 216, 217, 218, 219, 220, 221, 222, 223, 224, 225, 226, 227, 228, 229, 230, 231, 232, 233, 234, 235, 236, 237, 238, 239, 240, 241, 242, 243, 244, 245, 246, 247, 248, 249, 250, 251, 252, 253, 254, 255, 256, 257, 258, 259, 260, 261, 262, 263, 264, 265, 266, 267, 268, 269, 270, 271, 272, 273, 274, 275, 276, 277, 278, 279, 280, 281, 282, 283, 284, 285, 286, 287, 288, 289, 290, 291, 292, 293, 294, 295, 296, 297, 298, 299, 300, 301, 302, 303, 304, 305, 306, 307, 308, 309, 310, 311, 312, 313, 314, 315, 316, 317, 318, 319, 320, 321, 322, 323, 324, 325, 326, 327, 328, 329, 330, 331, 332, 333, 334, 335, 336, 337, 338, 339, 340, 341, 342, 343, 344, 345, 346, 347, 348, 349, 350, 351, 352, 353, 354, 355, 356, 357, 358, 359, 360, 361, 362, 363, 364, 365, 366, 367, 368, 369, 370, 371, 372, 373, 374, 375, 376, 377, 378, 379, 380, 381, 382, 383, 384, 385, 386, 387, 388, 389, 390, 391, 392, 393, 394, 395, 396, 397, 398, 399, 400, 401, 402, 403, 404, 405, 406, 407, 408, 409, 410, 411, 412, 413, 414, 415, 416, 417, 418, 419, 420, 421, 422, 423, 424, 425, 426, 427, 428, 429, 430, 431, 432, 433, 434, 435, 436, 437, 438, 439, 440, 441, 442, 443, 444, 445, 446, 447, 448, 449, 450, 451, 452, 453, 454, 455, 456, 457, 458, 459, 460, 461, 462, 463, 464, 465, 466, 467, 468, 469, 470, 471, 472, 473, 474, 475, 476, 477, 478, 479, 480, 481, 482, 483, 484, 485, 486, 487, 488, 489, 490, 491, 492, 493, 494, 495, 496, 497, 498, 499, 500, 501, 502, 503, 504, 505, 506, 507, 508, 509, 510, 511, 512, 513, 514, 515, 516, 517, 518, 519, 520, 521, 522, 523, 524, 525, 526, 527, 528, 529, 530, 531, 532, 533, 534, 535, 536, 537, 538, 539, 540, 541, 542, 543, 544, 545, 546, 547, 548, 549, 550, 551, 552, 553, 554, 555, 556, 557, 558, 559, 560, 561, 562, 563, 564, 565, 566, 567, 568, 569, 570, 571, 572, 573, 574, 575, 576, 577, 578, 579, 580, 581, 582, 583, 584, 585, 586, 587, 588, 589, 590, 591, 592, 593, 594, 595, 596, 597, 598, 599, 600, 601, 602, 603, 604, 605, 606, 607, 608, 609, 610, 611, 612, 613, 614, 615, 616, 617, 618, 619, 620, 621, 622, 623, 624, 625, 626, 627, 628, 629, 630, 631, 632, 633, 634, 635, 636, 637, 638, 639, 640, 641, 642, 643, 644, 645, 646, 647, 648, 649, 650, 651, 652, 653, 654, 655, 656, 657, 658, 659, 660, 661, 662, 663, 664, 665, 666, 667, 668, 669, 670, 671, 672, 673, 674, 675, 676, 677, 678, 679, 680, 681, 682, 683, 684, 685, 686, 687, 688, 689, 690, 691, 692, 693, 694, 695, 696, 697, 698, 699, 700, 701, 702, 703, 704, 705, 706, 707, 708, 709, 710, 711, 712, 713, 714, 715, 716, 717, 718, 719, 720, 721, 722, 723, 724, 725, 726, 727, 728, 729, 730, 731, 732, 733, 734, 735, 736, 737, 738, 739, 740, 741, 742, 743, 744, 745, 746, 747, 748, 749, 750, 751, 752, 753, 754, 755, 756, 757, 758, 759, 760, 761, 762, 763, 764, 765, 766, 767, 768, 769, 770, 771, 772, 773, 774, 775, 776, 777, 778, 779, 780, 781, 782, 783, 784, 785, 786, 787, 788, 789, 790, 791, 792, 793, 794, 795, 796, 797, 798, 799, 800, 801, 802, 803, 804, 805, 806, 807, 808, 809, 810, 811, 812, 813, 814, 815, 816, 817, 818, 819, 820, 821, 822, 823, 824, 825, 826, 827, 828, 829, 830, 831, 832, 833, 834, 835, 836, 837, 838, 839, 840, 841, 842, 843, 844, 845, 846, 847, 848, 849, 850, 851, 852, 853, 854, 855, 856, 857, 858, 859, 860, 861, 862, 863, 864, 865, 866, 867, 868, 869, 870, 871, 872, 873, 874, 875, 876, 877, 878, 879, 880, 881, 882, 883, 884, 885, 886, 887, 888, 889, 890, 891, 892, 893, 894, 895, 896, 897, 898, 899, 900, 901, 902, 903, 904, 905, 906, 907, 908, 909, 910, 911, 912, 913, 914, 915, 916, 917, 918, 919, 920, 921, 922, 923, 924, 925, 926],
      "AcquisitionTime": ["195019.385000", "195019.845000", "195020.305000", "195020.765000", "195021.225000", "195021.685000", "195022.145000", "195022.605000", "195023.065000", "195023.525000", "195023.985000", "195024.445000", "195024.905000", "195025.365000", "195025.825000", "195026.285000", "195026.745000", "195027.205000", "195027.665000", "195028.125000", "195028.585000", "195029.045000", "195029.505000", "195029.965000", "195030.425000", "195030.885000", "195031.345000", "195031.805000", "195032.265000", "195032.725000", "195033.185000", "195033.645000", "195034.105000", "195034.565000", "195035.025000", "195035.485000", "195035.945000", "195036.405000", "195036.865000", "195037.325000", "195037.785000", "195038.245000", "195038.705000", "195039.165000", "195039.625000", "195040.085000", "195040.545000", "195041.005000", "195041.465000", "195041.925000", "195042.385000", "195042.845000", "195043.305000", "195043.765000", "195044.225000", "195044.685000", "195045.145000", "195045.605000", "195046.065000", "195046.525000", "195046.985000", "195047.445000", "195047.905000", "195048.365000", "195048.825000", "195049.285000", "195049.745000", "195050.205000", "195050.665000", "195051.125000", "195051.585000", "195052.045000", "195052.505000", "195052.965000", "195053.425000", "195053.885000", "195054.345000", "195054.805000", "195055.265000", "195055.725000", "195056.185000", "195056.645000", "195057.105000", "195057.565000", "195058.025000", "195058.485000", "195058.945000", "195059.405000", "195059.865000", "195100.325000", "195100.785000", "195101.245000", "195101.705000", "195102.165000", "195102.625000", "195103.085000", "195103.545000", "195104.005000", "195104.465000", "195104.925000", "195105.385000", "195105.845000", "195106.305000", "195106.765000", "195107.225000", "195107.685000", "195108.145000", "195108.605000", "195109.065000", "195109.525000", "195109.985000", "195110.445000", "195110.905000", "195111.365000", "195111.825000", "195112.285000", "195112.745000", "195113.205000", "195113.665000", "195114.125000", "195114.585000", "195115.045000", "195115.505000", "195115.965000", "195116.425000", "195116.885000", "195117.345000", "195117.805000", "195118.265000", "195118.725000", "195119.185000", "195119.645000", "195120.105000", "195120.565000", "195121.025000", "195121.485000", "195121.945000", "195122.405000", "195122.865000", "195123.325000", "195123.785000", "195124.245000", "195124.705000", "195125.165000", "195125.625000", "195126.085000", "195126.545000", "195127.005000", "195127.465000", "195127.925000", "195128.385000", "195128.845000", "195129.305000", "195129.765000", "195130.225000", "195130.685000", "195131.145000", "195131.605000", "195132.065000", "195132.525000", "195132.985000", "195133.445000", "195133.905000", "195134.365000", "195134.825000", "195135.285000", "195135.745000", "195136.205000", "195136.665000", "195137.125000", "195137.585000", "195138.045000", "195138.505000", "195138.965000", "195139.425000", "195139.885000", "195140.345000", "195140.805000", "195141.265000", "195141.725000", "195142.185000", "195142.645000", "195143.105000", "195143.565000", "195144.025000", "195144.485000", "195144.945000", "195145.405000", "195145.865000", "195146.325000", "195146.785000", "195147.245000", "195147.705000", "195148.165000", "195148.625000", "195149.085000", "195149.545000", "195150.005000", "195150.465000", "195150.925000", "195151.385000", "195151.845000", "195152.305000", "195152.765000", "195153.225000", "195153.685000", "195154.145000", "195154.605000", "195155.065000", "195155.525000", "195155.985000", "195156.445000", "195156.905000", "195157.365000", "195157.825000", "195158.285000", "195158.745000", "195159.205000", "195159.665000", "195200.125000", "195200.585000", "195201.045000", "195201.505000", "195201.965000", "195202.425000", "195202.885000", "195203.345000", "195203.805000", "195204.265000", "195204.725000", "195205.185000", "195205.645000", "195206.105000", "195206.565000", "195207.025000", "195207.485000", "195207.945000", "195208.405000", "195208.865000", "195209.325000", "195209.785000", "195210.245000", "195210.705000", "195211.165000", "195211.625000", "195212.085000", "195212.545000", "195213.005000", "195213.465000", "195213.925000", "195214.385000", "195214.845000", "195215.305000", "195215.765000", "195216.225000", "195216.685000", "195217.145000", "195217.605000", "195218.065000", "195218.525000", "195218.985000", "195219.445000", "195219.905000", "195220.365000", "195220.825000", "195221.285000", "195221.745000", "195222.205000", "195222.665000", "195223.125000", "195223.585000", "195224.045000", "195224.505000", "195224.965000", "195225.425000", "195225.885000", "195226.345000", "195226.805000", "195227.265000", "195227.725000", "195228.185000", "195228.645000", "195229.105000", "195229.565000", "195230.025000", "195230.485000", "195230.945000", "195231.405000", "195231.865000", "195232.325000", "195232.785000", "195233.245000", "195233.705000", "195234.165000", "195234.625000", "195235.085000", "195235.545000", "195236.005000", "195236.465000", "195236.925000", "195237.385000", "195237.845000", "195238.305000", "195238.765000", "195239.225000", "195239.685000", "195240.145000", "195240.605000", "195241.065000", "195241.525000", "195241.985000", "195242.445000", "195242.905000", "195243.365000", "195243.825000", "195244.285000", "195244.745000", "195245.205000", "195245.665000", "195246.125000", "195246.585000", "195247.045000", "195247.505000", "195247.965000", "195248.425000", "195248.885000", "195249.345000", "195249.805000", "195250.265000", "195250.725000", "195251.185000", "195251.645000", "195252.105000", "195252.565000", "195253.025000", "195253.485000", "195253.945000", "195254.405000", "195254.865000", "195255.325000", "195255.785000", "195256.245000", "195256.705000", "195257.165000", "195257.625000", "195258.085000", "195258.545000", "195259.005000", "195259.465000", "195259.925000", "195300.385000", "195300.845000", "195301.305000", "195301.765000", "195302.225000", "195302.685000", "195303.145000", "195303.605000", "195304.065000", "195304.525000", "195304.985000", "195305.445000", "195305.905000", "195306.365000", "195306.825000", "195307.285000", "195307.745000", "195308.205000", "195308.665000", "195309.125000", "195309.585000", "195310.045000", "195310.505000", "195310.965000", "195311.425000", "195311.885000", "195312.345000", "195312.805000", "195313.265000", "195313.725000", "195314.185000", "195314.645000", "195315.105000", "195315.565000", "195316.025000", "195316.485000", "195316.945000", "195317.405000", "195317.865000", "195318.325000", "195318.785000", "195319.245000", "195319.705000", "195320.165000", "195320.625000", "195321.085000", "195321.545000", "195322.005000", "195322.465000", "195322.925000", "195323.385000", "195323.845000", "195324.305000", "195324.765000", "195325.225000", "195325.685000", "195326.145000", "195326.605000", "195327.065000", "195327.525000", "195327.985000", "195328.445000", "195328.905000", "195329.365000", "195329.825000", "195330.285000", "195330.745000", "195331.205000", "195331.665000", "195332.125000", "195332.585000", "195333.045000", "195333.505000", "195333.965000", "195334.425000", "195334.885000", "195335.345000", "195335.805000", "195336.265000", "195336.725000", "195337.185000", "195337.645000", "195338.105000", "195338.565000", "195339.025000", "195339.485000", "195339.945000", "195340.405000", "195340.865000", "195341.325000", "195341.785000", "195342.245000", "195342.705000", "195343.165000", "195343.625000", "195344.085000", "195344.545000", "195345.005000", "195345.465000", "195345.925000", "195346.385000", "195346.845000", "195347.305000", "195347.765000", "195348.225000", "195348.685000", "195349.145000", "195349.605000", "195350.065000", "195350.525000", "195350.985000", "195351.445000", "195351.905000", "195352.365000", "195352.825000", "195353.285000", "195353.745000", "195354.205000", "195354.665000", "195355.125000", "195355.585000", "195356.045000", "195356.505000", "195356.965000", "195357.425000", "195357.885000", "195358.345000", "195358.805000", "195359.265000", "195359.725000", "195400.185000", "195400.645000", "195401.105000", "195401.565000", "195402.025000", "195402.485000", "195402.945000", "195403.405000", "195403.865000", "195404.325000", "195404.785000", "195405.245000", "195405.705000", "195406.165000", "195406.625000", "195407.085000", "195407.545000", "195408.005000", "195408.465000", "195408.925000", "195409.385000", "195409.845000", "195410.305000", "195410.765000", "195411.225000", "195411.685000", "195412.145000", "195412.605000", "195413.065000", "195413.525000", "195413.985000", "195414.445000", "195414.905000", "195415.365000", "195415.825000", "195416.285000", "195416.745000", "195417.205000", "195417.665000", "195418.125000", "195418.585000", "195419.045000", "195419.505000", "195419.965000", "195420.425000", "195420.885000", "195421.345000", "195421.805000", "195422.265000", "195422.725000", "195423.185000", "195423.645000", "195424.105000", "195424.565000", "195425.025000", "195425.485000", "195425.945000", "195426.405000", "195426.865000", "195427.325000", "195427.785000", "195428.245000", "195428.705000", "195429.165000", "195429.625000", "195430.085000", "195430.545000", "195431.005000", "195431.465000", "195431.925000", "195432.385000", "195432.845000", "195433.305000", "195433.765000", "195434.225000", "195434.685000", "195435.145000", "195435.605000", "195436.065000", "195436.525000", "195436.985000", "195437.445000", "195437.905000", "195438.365000", "195438.825000", "195439.285000", "195439.745000", "195440.205000", "195440.665000", "195441.125000", "195441.585000", "195442.045000", "195442.505000", "195442.965000", "195443.425000", "195443.885000", "195444.345000", "195444.805000", "195445.265000", "195445.725000", "195446.185000", "195446.645000", "195447.105000", "195447.565000", "195448.025000", "195448.485000", "195448.945000", "195449.405000", "195449.865000", "195450.325000", "195450.785000", "195451.245000", "195451.705000", "195452.165000", "195452.625000", "195453.085000", "195453.545000", "195454.005000", "195454.465000", "195454.925000", "195455.385000", "195455.845000", "195456.305000", "195456.765000", "195457.225000", "195457.685000", "195458.145000", "195458.605000", "195459.065000", "195459.525000", "195459.985000", "195500.445000", "195500.905000", "195501.365000", "195501.825000", "195502.285000", "195502.745000", "195503.205000", "195503.665000", "195504.125000", "195504.585000", "195505.045000", "195505.505000", "195505.965000", "195506.425000", "195506.885000", "195507.345000", "195507.805000", "195508.265000", "195508.725000", "195509.185000", "195509.645000", "195510.105000", "195510.565000", "195511.025000", "195511.485000", "195511.945000", "195512.405000", "195512.865000", "195513.325000", "195513.785000", "195514.245000", "195514.705000", "195515.165000", "195515.625000", "195516.085000", "195516.545000", "195517.005000", "195517.465000", "195517.925000", "195518.385000", "195518.845000", "195519.305000", "195519.765000", "195520.225000", "195520.685000", "195521.145000", "195521.605000", "195522.065000", "195522.525000", "195522.985000", "195523.445000", "195523.905000", "195524.365000", "195524.825000", "195525.285000", "195525.745000", "195526.205000", "195526.665000", "195527.125000", "195527.585000", "195528.045000", "195528.505000", "195528.965000", "195529.425000", "195529.885000", "195530.345000", "195530.805000", "195531.265000", "195531.725000", "195532.185000", "195532.645000", "195533.105000", "195533.565000", "195534.025000", "195534.485000", "195534.945000", "195535.405000", "195535.865000", "195536.325000", "195536.785000", "195537.245000", "195537.705000", "195538.165000", "195538.625000", "195539.085000", "195539.545000", "195540.005000", "195540.465000", "195540.925000", "195541.385000", "195541.845000", "195542.305000", "195542.765000", "195543.225000", "195543.685000", "195544.145000", "195544.605000", "195545.065000", "195545.525000", "195545.985000", "195546.445000", "195546.905000", "195547.365000", "195547.825000", "195548.285000", "195548.745000", "195549.205000", "195549.665000", "195550.125000", "195550.585000", "195551.045000", "195551.505000", "195551.965000", "195552.425000", "195552.885000", "195553.345000", "195553.805000", "195554.265000", "195554.725000", "195555.185000", "195555.645000", "195556.105000", "195556.565000", "195557.025000", "195557.485000", "195557.945000", "195558.405000", "195558.865000", "195559.325000", "195559.785000", "195600.245000", "195600.705000", "195601.165000", "195601.625000", "195602.085000", "195602.545000", "195603.005000", "195603.465000", "195603.925000", "195604.385000", "195604.845000", "195605.305000", "195605.765000", "195606.225000", "195606.685000", "195607.145000", "195607.605000", "195608.065000", "195608.525000", "195608.985000", "195609.445000", "195609.905000", "195610.365000", "195610.825000", "195611.285000", "195611.745000", "195612.205000", "195612.665000", "195613.125000", "195613.585000", "195614.045000", "195614.505000", "195614.965000", "195615.425000", "195615.885000", "195616.345000", "195616.805000", "195617.265000", "195617.725000", "195618.185000", "195618.645000", "195619.105000", "195619.565000", "195620.025000", "195620.485000", "195620.945000", "195621.405000", "195621.865000", "195622.325000", "195622.785000", "195623.245000", "195623.705000", "195624.165000", "195624.625000", "195625.085000", "195625.545000", "195626.005000", "195626.465000", "195626.925000", "195627.385000", "195627.845000", "195628.305000", "195628.765000", "195629.225000", "195629.685000", "195630.145000", "195630.605000", "195631.065000", "195631.525000", "195631.985000", "195632.445000", "195632.905000", "195633.365000", "195633.825000", "195634.285000", "195634.745000", "195635.205000", "195635.665000", "195636.125000", "195636.585000", "195637.045000", "195637.505000", "195637.965000", "195638.425000", "195638.885000", "195639.345000", "195639.805000", "195640.265000", "195640.725000", "195641.185000", "195641.645000", "195642.105000", "195642.565000", "195643.025000", "195643.485000", "195643.945000", "195644.405000", "195644.865000", "195645.325000", "195645.785000", "195646.245000", "195646.705000", "195647.165000", "195647.625000", "195648.085000", "195648.545000", "195649.005000", "195649.465000", "195649.925000", "195650.385000", "195650.845000", "195651.305000", "195651.765000", "195652.225000", "195652.685000", "195653.145000", "195653.605000", "195654.065000", "195654.525000", "195654.985000", "195655.445000", "195655.905000", "195656.365000", "195656.825000", "195657.285000", "195657.745000", "195658.205000", "195658.665000", "195659.125000", "195659.585000", "195700.045000", "195700.505000", "195700.965000", "195701.425000", "195701.885000", "195702.345000", "195702.805000", "195703.265000", "195703.725000", "195704.185000", "195704.645000", "195705.105000", "195705.565000", "195706.025000", "195706.485000", "195706.945000", "195707.405000", "195707.865000", "195708.325000", "195708.785000", "195709.245000", "195709.705000", "195710.165000", "195710.625000", "195711.085000", "195711.545000", "195712.005000", "195712.465000", "195712.925000", "195713.385000", "195713.845000", "195714.305000", "195714.765000", "195715.225000", "195715.685000", "195716.145000", "195716.605000", "195717.065000", "195717.525000", "195717.985000", "195718.445000", "195718.905000", "195719.365000", "195719.825000", "195720.285000", "195720.745000", "195721.205000", "195721.665000", "195722.125000", "195722.585000", "195723.045000", "195723.505000", "195723.965000", "195724.425000", "195724.885000"],
