{
  "AcquisitionMatrixPE": 82,
  "AcquisitionNumber": 1,
  "AcquisitionTime": "19:07:18.520000",
  "BandwidthPerPixelPhaseEncode": 24.888,
  "BaseResolution": 82,
  "BodyPartExamined": "BRAIN",
  "ConsistencyInfo": "N4_VE11E_LATEST_20181129",
  "ConversionSoftware": "dcm2niix",
  "ConversionSoftwareVersion": "v1.0.20201102",
  "DerivedVendorReportedEchoSpacing": 0.00049,
  "DeviceSerialNumber": "66112",
  "DwellTime": 2e-06,
  "EchoTime": 0.0272,
  "EchoTrainLength": 82,
  "EffectiveEchoSpacing": 0.00049,
  "FlipAngle": 44,
  "ImageComments": "Unaliased MB8/PE3",
  "ImageOrientationPatientDICOM": [0.998631, -0.0081217, 0.0516788, 0.0118526, 0.997312, -0.0723015],
  "ImageType": [
    "ORIGINAL",
    "PRIMARY",
    "M",
    "MB",
    "ND",
    "NORM",
    "MOSAIC"
],
  "ImagingFrequency": 123.259,
  "InPlanePhaseEncodingDirectionDICOM": "COL",
  "InstitutionAddress": "Maynard 3,Hanover,NH,US,03755",
  "InstitutionName": "Dartmouth College - PBS",
  "InstitutionalDepartmentName": "Department",
  "MRAcquisitionType": "2D",
  "MagneticFieldStrength": 3,
  "Manufacturer": "Siemens",
  "ManufacturersModelName": "Prisma",
  "Modality": "MR",
  "MultibandAccelerationFactor": 8,
  "PartialFourier": 1,
  "PatientPosition": "HFS",
  "PercentPhaseFOV": 100,
  "PercentSampling": 100,
  "PhaseEncodingDirection": "j-",
  "PhaseEncodingSteps": 82,
  "PhaseResolution": 1,
  "PixelBandwidth": 3050,
  "ProcedureStepDescription": "Wager_Wager^1076_spacetop",
  "ProtocolName": "func_run-03_task-social_acq-ap-mb8",
  "PulseSequenceDetails": "%CustomerSeq%\\cmrr_mbep2d_bold",
  "ReceiveCoilActiveElements": "HEA;HEP",
  "ReceiveCoilName": "Head_32",
  "ReconMatrixPE": 82,
  "RepetitionTime": 0.46,
  "SAR": 0.106691,
  "ScanOptions": "FS",
  "ScanningSequence": "EP",
  "SequenceName": "epfid2d1_82",
  "SequenceVariant": "SK\\SS",
  "SeriesDescription": "func_run-03_task-social_acq-ap-mb8",
  "SeriesNumber": 16,
  "ShimSetting": [4252, -7862, -7212, 636, -41, -268, 293, 84],
  "SliceThickness": 2.7,
  "SliceTiming": [0, 0.2525, 0.065, 0.315, 0.1275, 0.3775, 0.19, 0, 0.2525, 0.065, 0.315, 0.1275, 0.3775, 0.19, 0, 0.2525, 0.065, 0.315, 0.1275, 0.3775, 0.19, 0, 0.2525, 0.065, 0.315, 0.1275, 0.3775, 0.19, 0, 0.2525, 0.065, 0.315, 0.1275, 0.3775, 0.19, 0, 0.2525, 0.065, 0.315, 0.1275, 0.3775, 0.19, 0, 0.2525, 0.065, 0.315, 0.1275, 0.3775, 0.19, 0, 0.2525, 0.065, 0.315, 0.1275, 0.3775, 0.19],
  "SoftwareVersions": "syngo MR E11",
  "SpacingBetweenSlices": 2.7,
  "StationName": "AWP66112",
  "TaskName": "social",
  "TotalReadoutTime": 0.03969,
  "TxRefAmp": 231.029,
  "WipMemBlock": "7cfeb4ff-f5ee-4403-8619-796cbba5c6a7||Sequence: R016 ve11e/master r/434b28f1; Aug  7 2019 18:53:46 by eja",
  "dcmmeta_affine": [
    [-2.679253339767456, 0.031799543648958206, 0.1375722587108612, 106.48217010498047],
    [0.021789928898215294, 2.6757161617279053, -0.19660061597824097, -99.373779296875],
    [0.13865041732788086, 0.1939796805381775, 2.6893162727355957, -77.31224822998047],
    [0.0, 0.0, 0.0, 1.0]
],
  "dcmmeta_reorient_transform": [
    [0.0, -1.0, 0.0, 81.0],
    [1.0, 0.0, 0.0, 0.0],
    [0.0, 0.0, 1.0, 0.0],
    [0.0, 0.0, 0.0, 1.0]
],
  "dcmmeta_shape": [82, 82, 56, 872],
  "dcmmeta_slice_dim": 2,
  "dcmmeta_version": 0.6,
  "global": {
    "const": {
      "AccessionNumber": "A004688",
      "AcquisitionMatrix": [82, 0, 0, 82],
      "AngioFlag": "N",
      "BitsAllocated": 16,
      "BitsStored": 16,
      "BodyPartExamined": "BRAIN",
      "Columns": 656,
      "EchoNumbers": 1,
      "EchoTime": 27.2,
      "EchoTrainLength": 82,
      "FlipAngle": 44.0,
      "HighBit": 15,
      "ImageOrientationPatient": [0.99863073281818, -0.0081217005611, 0.05167879111419, 0.0118525569174, 0.99731239216177, -0.0723015168243],
      "ImagePositionPatient": [-887.13008678081, -879.03609005144, -45.720393886757],
      "ImageType": [
        "ORIGINAL",
        "PRIMARY",
        "M",
        "MB",
        "ND",
        "NORM",
        "MOSAIC"
],
      "ImagedNucleus": "1H",
      "ImagingFrequency": 123.259124,
      "InPlanePhaseEncodingDirection": "COL",
      "MRAcquisitionType": "2D",
      "MagneticFieldStrength": 3.0,
      "Manufacturer": "SIEMENS",
      "ManufacturerModelName": "Prisma",
      "Modality": "MR",
      "NumberOfAverages": 1.0,
      "NumberOfPhaseEncodingSteps": 82,
      "PercentPhaseFieldOfView": 100.0,
      "PercentSampling": 100.0,
      "PerformedProcedureStepStartTime": "181820.319000",
      "PhotometricInterpretation": "MONOCHROME2",
      "PixelBandwidth": 3050.0,
      "PixelRepresentation": 0,
      "PixelSpacing": [2.6829268932343, 2.6829268932343],
      "ProtocolName": "func_run-03_task-social_acq-ap-mb8",
      "RepetitionTime": 460.0,
      "Rows": 656,
      "SAR": 0.10669074816839,
      "SamplesPerPixel": 1,
      "ScanOptions": "FS",
      "ScanningSequence": "EP",
      "SequenceName": "epfid2d1_82",
      "SequenceVariant": [
        "SK",
        "SS"
],
      "SeriesDescription": "func_run-03_task-social_acq-ap-mb8",
      "SeriesNumber": 16,
      "SeriesTime": "190748.047000",
      "SliceLocation": -64.344869587375,
      "SliceThickness": 2.7000000476837,
      "SmallestImagePixelValue": 0,
      "SoftwareVersions": "syngo MR E11",
      "SpacingBetweenSlices": 2.7000000671256,
      "SpecificCharacterSet": "ISO_IR 100",
      "StudyID": "2",
      "StudyTime": "181820.257000",
      "TransmitCoilName": "Body",
      "VariableFlipAngleFlag": "N",
      "WindowCenterWidthExplanation": "Algo1"
    },
    "slices": {}
  },
  "time": {
    "samples": {
      "AcquisitionNumber": [1, 2, 3, 4, 5, 6, 7, 8, 9, 10, 11, 12, 13, 14, 15, 16, 17, 18, 19, 20, 21, 22, 23, 24, 25, 26, 27, 28, 29, 30, 31, 32, 33, 34, 35, 36, 37, 38, 39, 40, 41, 42, 43, 44, 45, 46, 47, 48, 49, 50, 51, 52, 53, 54, 55, 56, 57, 58, 59, 60, 61, 62, 63, 64, 65, 66, 67, 68, 69, 70, 71, 72, 73, 74, 75, 76, 77, 78, 79, 80, 81, 82, 83, 84, 85, 86, 87, 88, 89, 90, 91, 92, 93, 94, 95, 96, 97, 98, 99, 100, 101, 102, 103, 104, 105, 106, 107, 108, 109, 110, 111, 112, 113, 114, 115, 116, 117, 118, 119, 120, 121, 122, 123, 124, 125, 126, 127, 128, 129, 130, 131, 132, 133, 134, 135, 136, 137, 138, 139, 140, 141, 142, 143, 144, 145, 146, 147, 148, 149, 150, 151, 152, 153, 154, 155, 156, 157, 158, 159, 160, 161, 162, 163, 164, 165, 166, 167, 168, 169, 170, 171, 172, 173, 174, 175, 176, 177, 178, 179, 180, 181, 182, 183, 184, 185, 186, 187, 188, 189, 190, 191, 192, 193, 194, 195, 196, 197, 198, 199, 200, 201, 202, 203, 204, 205, 206, 207, 208, 209, 210, 211, 212, 213, 214, 215, 216, 217, 218, 219, 220, 221, 222, 223, 224, 225, 226, 227, 228, 229, 230, 231, 232, 233, 234, 235, 236, 237, 238, 239, 240, 241, 242, 243, 244, 245, 246, 247, 248, 249, 250, 251, 252, 253, 254, 255, 256, 257, 258, 259, 260, 261, 262, 263, 264, 265, 266, 267, 268, 269, 270, 271, 272, 273, 274, 275, 276, 277, 278, 279, 280, 281, 282, 283, 284, 285, 286, 287, 288, 289, 290, 291, 292, 293, 294, 295, 296, 297, 298, 299, 300, 301, 302, 303, 304, 305, 306, 307, 308, 309, 310, 311, 312, 313, 314, 315, 316, 317, 318, 319, 320, 321, 322, 323, 324, 325, 326, 327, 328, 329, 330, 331, 332, 333, 334, 335, 336, 337, 338, 339, 340, 341, 342, 343, 344, 345, 346, 347, 348, 349, 350, 351, 352, 353, 354, 355, 356, 357, 358, 359, 360, 361, 362, 363, 364, 365, 366, 367, 368, 369, 370, 371, 372, 373, 374, 375, 376, 377, 378, 379, 380, 381, 382, 383, 384, 385, 386, 387, 388, 389, 390, 391, 392, 393, 394, 395, 396, 397, 398, 399, 400, 401, 402, 403, 404, 405, 406, 407, 408, 409, 410, 411, 412, 413, 414, 415, 416, 417, 418, 419, 420, 421, 422, 423, 424, 425, 426, 427, 428, 429, 430, 431, 432, 433, 434, 435, 436, 437, 438, 439, 440, 441, 442, 443, 444, 445, 446, 447, 448, 449, 450, 451, 452, 453, 454, 455, 456, 457, 458, 459, 460, 461, 462, 463, 464, 465, 466, 467, 468, 469, 470, 471, 472, 473, 474, 475, 476, 477, 478, 479, 480, 481, 482, 483, 484, 485, 486, 487, 488, 489, 490, 491, 492, 493, 494, 495, 496, 497, 498, 499, 500, 501, 502, 503, 504, 505, 506, 507, 508, 509, 510, 511, 512, 513, 514, 515, 516, 517, 518, 519, 520, 521, 522, 523, 524, 525, 526, 527, 528, 529, 530, 531, 532, 533, 534, 535, 536, 537, 538, 539, 540, 541, 542, 543, 544, 545, 546, 547, 548, 549, 550, 551, 552, 553, 554, 555, 556, 557, 558, 559, 560, 561, 562, 563, 564, 565, 566, 567, 568, 569, 570, 571, 572, 573, 574, 575, 576, 577, 578, 579, 580, 581, 582, 583, 584, 585, 586, 587, 588, 589, 590, 591, 592, 593, 594, 595, 596, 597, 598, 599, 600, 601, 602, 603, 604, 605, 606, 607, 608, 609, 610, 611, 612, 613, 614, 615, 616, 617, 618, 619, 620, 621, 622, 623, 624, 625, 626, 627, 628, 629, 630, 631, 632, 633, 634, 635, 636, 637, 638, 639, 640, 641, 642, 643, 644, 645, 646, 647, 648, 649, 650, 651, 652, 653, 654, 655, 656, 657, 658, 659, 660, 661, 662, 663, 664, 665, 666, 667, 668, 669, 670, 671, 672, 673, 674, 675, 676, 677, 678, 679, 680, 681, 682, 683, 684, 685, 686, 687, 688, 689, 690, 691, 692, 693, 694, 695, 696, 697, 698, 699, 700, 701, 702, 703, 704, 705, 706, 707, 708, 709, 710, 711, 712, 713, 714, 715, 716, 717, 718, 719, 720, 721, 722, 723, 724, 725, 726, 727, 728, 729, 730, 731, 732, 733, 734, 735, 736, 737, 738, 739, 740, 741, 742, 743, 744, 745, 746, 747, 748, 749, 750, 751, 752, 753, 754, 755, 756, 757, 758, 759, 760, 761, 762, 763, 764, 765, 766, 767, 768, 769, 770, 771, 772, 773, 774, 775, 776, 777, 778, 779, 780, 781, 782, 783, 784, 785, 786, 787, 788, 789, 790, 791, 792, 793, 794, 795, 796, 797, 798, 799, 800, 801, 802, 803, 804, 805, 806, 807, 808, 809, 810, 811, 812, 813, 814, 815, 816, 817, 818, 819, 820, 821, 822, 823, 824, 825, 826, 827, 828, 829, 830, 831, 832, 833, 834, 835, 836, 837, 838, 839, 840, 841, 842, 843, 844, 845, 846, 847, 848, 849, 850, 851, 852, 853, 854, 855, 856, 857, 858, 859, 860, 861, 862, 863, 864, 865, 866, 867, 868, 869, 870, 871, 872],
      "AcquisitionTime": ["190718.520000", "190718.980000", "190719.440000", "190719.900000", "190720.360000", "190720.820000", "190721.280000", "190721.740000", "190722.200000", "190722.660000", "190723.120000", "190723.580000", "190724.040000", "190724.500000", "190724.960000", "190725.420000", "190725.880000", "190726.340000", "190726.800000", "190727.260000", "190727.720000", "190728.180000", "190728.640000", "190729.100000", "190729.560000", "190730.020000", "190730.480000", "190730.940000", "190731.400000", "190731.860000", "190732.320000", "190732.780000", "190733.240000", "190733.700000", "190734.160000", "190734.620000", "190735.080000", "190735.540000", "190736.000000", "190736.460000", "190736.920000", "190737.380000", "190737.840000", "190738.300000", "190738.760000", "190739.220000", "190739.680000", "190740.140000", "190740.600000", "190741.060000", "190741.520000", "190741.980000", "190742.440000", "190742.900000", "190743.360000", "190743.820000", "190744.280000", "190744.740000", "190745.200000", "190745.660000", "190746.120000", "190746.580000", "190747.040000", "190747.500000", "190747.960000", "190748.420000", "190748.880000", "190749.340000", "190749.800000", "190750.260000", "190750.720000", "190751.180000", "190751.640000", "190752.100000", "190752.560000", "190753.020000", "190753.480000", "190753.940000", "190754.400000", "190754.860000", "190755.320000", "190755.780000", "190756.240000", "190756.700000", "190757.160000", "190757.620000", "190758.080000", "190758.540000", "190759.000000", "190759.460000", "190759.920000", "190800.380000", "190800.840000", "190801.300000", "190801.760000", "190802.220000", "190802.680000", "190803.140000", "190803.600000", "190804.060000", "190804.520000", "190804.980000", "190805.440000", "190805.900000", "190806.360000", "190806.820000", "190807.280000", "190807.740000", "190808.200000", "190808.660000", "190809.120000", "190809.580000", "190810.040000", "190810.500000", "190810.960000", "190811.420000", "190811.880000", "190812.340000", "190812.800000", "190813.260000", "190813.720000", "190814.180000", "190814.640000", "190815.100000", "190815.560000", "190816.020000", "190816.480000", "190816.940000", "190817.400000", "190817.860000", "190818.320000", "190818.780000", "190819.240000", "190819.700000", "190820.160000", "190820.620000", "190821.080000", "190821.540000", "190822.000000", "190822.460000", "190822.920000", "190823.380000", "190823.840000", "190824.300000", "190824.760000", "190825.220000", "190825.680000", "190826.140000", "190826.600000", "190827.060000", "190827.520000", "190827.980000", "190828.440000", "190828.900000", "190829.360000", "190829.820000", "190830.280000", "190830.740000", "190831.200000", "190831.660000", "190832.120000", "190832.580000", "190833.040000", "190833.500000", "190833.960000", "190834.420000", "190834.880000", "190835.340000", "190835.800000", "190836.260000", "190836.720000", "190837.180000", "190837.640000", "190838.100000", "190838.560000", "190839.020000", "190839.480000", "190839.940000", "190840.400000", "190840.860000", "190841.320000", "190841.780000", "190842.240000", "190842.700000", "190843.160000", "190843.620000", "190844.080000", "190844.540000", "190845.000000", "190845.460000", "190845.920000", "190846.380000", "190846.840000", "190847.300000", "190847.760000", "190848.220000", "190848.680000", "190849.140000", "190849.600000", "190850.060000", "190850.520000", "190850.980000", "190851.440000", "190851.900000", "190852.360000", "190852.820000", "190853.280000", "190853.740000", "190854.200000", "190854.660000", "190855.120000", "190855.580000", "190856.040000", "190856.500000", "190856.960000", "190857.420000", "190857.880000", "190858.340000", "190858.800000", "190859.260000", "190859.720000", "190900.180000", "190900.640000", "190901.100000", "190901.560000", "190902.020000", "190902.480000", "190902.940000", "190903.400000", "190903.860000", "190904.320000", "190904.780000", "190905.240000", "190905.700000", "190906.160000", "190906.620000", "190907.080000", "190907.540000", "190908.000000", "190908.460000", "190908.920000", "190909.380000", "190909.840000", "190910.300000", "190910.760000", "190911.220000", "190911.680000", "190912.140000", "190912.600000", "190913.060000", "190913.520000", "190913.980000", "190914.440000", "190914.900000", "190915.360000", "190915.820000", "190916.280000", "190916.740000", "190917.200000", "190917.660000", "190918.120000", "190918.580000", "190919.040000", "190919.500000", "190919.960000", "190920.420000", "190920.880000", "190921.340000", "190921.800000", "190922.260000", "190922.720000", "190923.180000", "190923.640000", "190924.100000", "190924.560000", "190925.020000", "190925.480000", "190925.940000", "190926.400000", "190926.860000", "190927.320000", "190927.780000", "190928.240000", "190928.700000", "190929.160000", "190929.620000", "190930.080000", "190930.540000", "190931.000000", "190931.460000", "190931.920000", "190932.380000", "190932.840000", "190933.300000", "190933.760000", "190934.220000", "190934.680000", "190935.140000", "190935.600000", "190936.060000", "190936.520000", "190936.980000", "190937.440000", "190937.900000", "190938.360000", "190938.820000", "190939.280000", "190939.740000", "190940.200000", "190940.660000", "190941.120000", "190941.580000", "190942.040000", "190942.500000", "190942.960000", "190943.420000", "190943.880000", "190944.340000", "190944.800000", "190945.260000", "190945.720000", "190946.180000", "190946.640000", "190947.100000", "190947.560000", "190948.020000", "190948.480000", "190948.940000", "190949.400000", "190949.860000", "190950.320000", "190950.780000", "190951.240000", "190951.700000", "190952.160000", "190952.620000", "190953.080000", "190953.540000", "190954.000000", "190954.460000", "190954.920000", "190955.380000", "190955.840000", "190956.300000", "190956.760000", "190957.220000", "190957.680000", "190958.140000", "190958.600000", "190959.060000", "190959.520000", "190959.980000", "191000.440000", "191000.900000", "191001.360000", "191001.820000", "191002.280000", "191002.740000", "191003.200000", "191003.660000", "191004.120000", "191004.580000", "191005.040000", "191005.500000", "191005.960000", "191006.420000", "191006.880000", "191007.340000", "191007.800000", "191008.260000", "191008.720000", "191009.180000", "191009.640000", "191010.100000", "191010.560000", "191011.020000", "191011.480000", "191011.940000", "191012.400000", "191012.860000", "191013.320000", "191013.780000", "191014.240000", "191014.700000", "191015.160000", "191015.620000", "191016.080000", "191016.540000", "191017.000000", "191017.460000", "191017.920000", "191018.380000", "191018.840000", "191019.300000", "191019.760000", "191020.220000", "191020.680000", "191021.140000", "191021.600000", "191022.060000", "191022.520000", "191022.980000", "191023.440000", "191023.900000", "191024.360000", "191024.820000", "191025.280000", "191025.740000", "191026.200000", "191026.660000", "191027.120000", "191027.580000", "191028.040000", "191028.500000", "191028.960000", "191029.420000", "191029.880000", "191030.340000", "191030.800000", "191031.260000", "191031.720000", "191032.180000", "191032.640000", "191033.100000", "191033.560000", "191034.020000", "191034.480000", "191034.940000", "191035.400000", "191035.860000", "191036.320000", "191036.780000", "191037.240000", "191037.700000", "191038.160000", "191038.620000", "191039.080000", "191039.540000", "191040.000000", "191040.460000", "191040.920000", "191041.380000", "191041.840000", "191042.300000", "191042.760000", "191043.220000", "191043.680000", "191044.140000", "191044.600000", "191045.060000", "191045.520000", "191045.980000", "191046.440000", "191046.900000", "191047.360000", "191047.820000", "191048.280000", "191048.740000", "191049.200000", "191049.660000", "191050.120000", "191050.580000", "191051.040000", "191051.500000", "191051.960000", "191052.420000", "191052.880000", "191053.340000", "191053.800000", "191054.260000", "191054.720000", "191055.180000", "191055.640000", "191056.100000", "191056.560000", "191057.020000", "191057.480000", "191057.940000", "191058.400000", "191058.860000", "191059.320000", "191059.780000", "191100.240000", "191100.700000", "191101.160000", "191101.620000", "191102.080000", "191102.540000", "191103.000000", "191103.460000", "191103.920000", "191104.380000", "191104.840000", "191105.300000", "191105.760000", "191106.220000", "191106.680000", "191107.140000", "191107.600000", "191108.060000", "191108.520000", "191108.980000", "191109.440000", "191109.900000", "191110.360000", "191110.820000", "191111.280000", "191111.740000", "191112.200000", "191112.660000", "191113.120000", "191113.580000", "191114.040000", "191114.500000", "191114.960000", "191115.420000", "191115.880000", "191116.340000", "191116.800000", "191117.260000", "191117.720000", "191118.180000", "191118.640000", "191119.100000", "191119.560000", "191120.020000", "191120.480000", "191120.940000", "191121.400000", "191121.860000", "191122.320000", "191122.780000", "191123.240000", "191123.700000", "191124.160000", "191124.620000", "191125.080000", "191125.540000", "191126.000000", "191126.460000", "191126.920000", "191127.380000", "191127.840000", "191128.300000", "191128.760000", "191129.220000", "191129.680000", "191130.140000", "191130.600000", "191131.060000", "191131.520000", "191131.980000", "191132.440000", "191132.900000", "191133.360000", "191133.820000", "191134.280000", "191134.740000", "191135.200000", "191135.660000", "191136.120000", "191136.580000", "191137.040000", "191137.500000", "191137.960000", "191138.420000", "191138.880000", "191139.340000", "191139.800000", "191140.260000", "191140.720000", "191141.180000", "191141.640000", "191142.100000", "191142.560000", "191143.020000", "191143.480000", "191143.940000", "191144.400000", "191144.860000", "191145.320000", "191145.780000", "191146.240000", "191146.700000", "191147.160000", "191147.620000", "191148.080000", "191148.540000", "191149.000000", "191149.460000", "191149.920000", "191150.380000", "191150.840000", "191151.300000", "191151.760000", "191152.220000", "191152.680000", "191153.140000", "191153.600000", "191154.060000", "191154.520000", "191154.980000", "191155.440000", "191155.900000", "191156.360000", "191156.820000", "191157.280000", "191157.740000", "191158.200000", "191158.660000", "191159.120000", "191159.580000", "191200.040000", "191200.500000", "191200.960000", "191201.420000", "191201.880000", "191202.340000", "191202.800000", "191203.260000", "191203.720000", "191204.180000", "191204.640000", "191205.100000", "191205.560000", "191206.020000", "191206.480000", "191206.940000", "191207.400000", "191207.860000", "191208.320000", "191208.780000", "191209.240000", "191209.700000", "191210.160000", "191210.620000", "191211.080000", "191211.540000", "191212.000000", "191212.460000", "191212.920000", "191213.380000", "191213.840000", "191214.300000", "191214.760000", "191215.220000", "191215.680000", "191216.140000", "191216.600000", "191217.060000", "191217.520000", "191217.980000", "191218.440000", "191218.900000", "191219.360000", "191219.820000", "191220.280000", "191220.740000", "191221.200000", "191221.660000", "191222.120000", "191222.580000", "191223.040000", "191223.500000", "191223.960000", "191224.420000", "191224.880000", "191225.340000", "191225.800000", "191226.260000", "191226.720000", "191227.180000", "191227.640000", "191228.100000", "191228.560000", "191229.020000", "191229.480000", "191229.940000", "191230.400000", "191230.860000", "191231.320000", "191231.780000", "191232.240000", "191232.700000", "191233.160000", "191233.620000", "191234.080000", "191234.540000", "191235.000000", "191235.460000", "191235.920000", "191236.380000", "191236.840000", "191237.300000", "191237.760000", "191238.220000", "191238.680000", "191239.140000", "191239.600000", "191240.060000", "191240.520000", "191240.980000", "191241.440000", "191241.900000", "191242.360000", "191242.820000", "191243.280000", "191243.740000", "191244.200000", "191244.660000", "191245.120000", "191245.580000", "191246.040000", "191246.500000", "191246.960000", "191247.420000", "191247.880000", "191248.340000", "191248.800000", "191249.260000", "191249.720000", "191250.180000", "191250.640000", "191251.100000", "191251.560000", "191252.020000", "191252.480000", "191252.940000", "191253.400000", "191253.860000", "191254.320000", "191254.780000", "191255.240000", "191255.700000", "191256.160000", "191256.620000", "191257.080000", "191257.540000", "191258.000000", "191258.460000", "191258.920000", "191259.380000", "191259.840000", "191300.300000", "191300.760000", "191301.220000", "191301.680000", "191302.140000", "191302.600000", "191303.060000", "191303.520000", "191303.980000", "191304.440000", "191304.900000", "191305.360000", "191305.820000", "191306.280000", "191306.740000", "191307.200000", "191307.660000", "191308.120000", "191308.580000", "191309.040000", "191309.500000", "191309.960000", "191310.420000", "191310.880000", "191311.340000", "191311.800000", "191312.260000", "191312.720000", "191313.180000", "191313.640000", "191314.100000", "191314.560000", "191315.020000", "191315.480000", "191315.940000", "191316.400000", "191316.860000", "191317.320000", "191317.780000", "191318.240000", "191318.700000", "191319.160000", "191319.620000", "191320.080000", "191320.540000", "191321.000000", "191321.460000", "191321.920000", "191322.380000", "191322.840000", "191323.300000", "191323.760000", "191324.220000", "191324.680000", "191325.140000", "191325.600000", "191326.060000", "191326.520000", "191326.980000", "191327.440000", "191327.900000", "191328.360000", "191328.820000", "191329.280000", "191329.740000", "191330.200000", "191330.660000", "191331.120000", "191331.580000", "191332.040000", "191332.500000", "191332.960000", "191333.420000", "191333.880000", "191334.340000", "191334.800000", "191335.260000", "191335.720000", "191336.180000", "191336.640000", "191337.100000", "191337.560000", "191338.020000", "191338.480000", "191338.940000", "191339.400000", "191339.860000", "191340.320000", "191340.780000", "191341.240000", "191341.700000", "191342.160000", "191342.620000", "191343.080000", "191343.540000", "191344.000000", "191344.460000", "191344.920000", "191345.380000", "191345.840000", "191346.300000", "191346.760000", "191347.220000", "191347.680000", "191348.140000", "191348.600000", "191349.060000", "191349.520000", "191349.980000", "191350.440000", "191350.900000", "191351.360000", "191351.820000", "191352.280000", "191352.740000", "191353.200000", "191353.660000", "191354.120000", "191354.580000", "191355.040000", "191355.500000", "191355.960000", "191356.420000", "191356.880000", "191357.340000", "191357.800000", "191358.260000", "191358.720000", "191359.180000"],
