{
  "AcquisitionMatrixPE": 82,
  "AcquisitionNumber": 1,
  "AcquisitionTime": "13:47:58.450000",
  "BandwidthPerPixelPhaseEncode": 24.888,
  "BaseResolution": 82,
  "BodyPartExamined": "BRAIN",
  "ConsistencyInfo": "N4_VE11C_LATEST_20160120",
  "ConversionSoftware": "dcm2niix",
  "ConversionSoftwareVersion": "v1.0.20201102",
  "DerivedVendorReportedEchoSpacing": 0.00049,
  "DeviceSerialNumber": "66112",
  "DwellTime": 2e-06,
  "EchoTime": 0.0272,
  "EchoTrainLength": 82,
  "EffectiveEchoSpacing": 0.00049,
  "FlipAngle": 44,
  "ImageComments": "Unaliased MB8/PE3",
  "ImageOrientationPatientDICOM": [0.999726, 0.0214213, 0.00942817, -0.0223379, 0.993543, 0.111236],
  "ImageType": [
    "ORIGINAL",
    "PRIMARY",
    "M",
    "MB",
    "ND",
    "NORM",
    "MOSAIC"
],
  "ImagingFrequency": 123.252,
  "InPlanePhaseEncodingDirectionDICOM": "COL",
  "InstitutionAddress": "Maynard 3,Hanover,NH,US,03755",
  "InstitutionName": "Dartmouth College - PBS",
  "InstitutionalDepartmentName": "Department",
  "MRAcquisitionType": "2D",
  "MagneticFieldStrength": 3,
  "Manufacturer": "Siemens",
  "ManufacturersModelName": "Prisma",
  "Modality": "MR",
  "MultibandAccelerationFactor": 8,
  "PartialFourier": 1,
  "PatientPosition": "HFS",
  "PercentPhaseFOV": 100,
  "PercentSampling": 100,
  "PhaseEncodingDirection": "j-",
  "PhaseEncodingSteps": 82,
  "PhaseResolution": 1,
  "PixelBandwidth": 3050,
  "ProcedureStepDescription": "Wager_Wager^1076_spacetop",
  "ProtocolName": "func_run-04_task-social_acq-ap-mb8",
  "PulseSequenceDetails": "%CustomerSeq%\\cmrr_mbep2d_bold",
  "ReceiveCoilActiveElements": "HEA;HEP",
  "ReceiveCoilName": "Head_32",
  "ReconMatrixPE": 82,
  "RepetitionTime": 0.46,
  "SAR": 0.112428,
  "ScanOptions": "FS",
  "ScanningSequence": "EP",
  "SequenceName": "epfid2d1_82",
  "SequenceVariant": "SK\\SS",
  "SeriesDescription": "func_run-04_task-social_acq-ap-mb8",
  "SeriesNumber": 18,
  "ShimSetting": [4148, -7766, -7203, 613, -41, -175, 43, 53],
  "SliceThickness": 2.7,
  "SliceTiming": [0, 0.25, 0.0625, 0.3125, 0.125, 0.375, 0.1875, 0, 0.25, 0.0625, 0.3125, 0.125, 0.375, 0.1875, 0, 0.25, 0.0625, 0.3125, 0.125, 0.375, 0.1875, 0, 0.25, 0.0625, 0.3125, 0.125, 0.375, 0.1875, 0, 0.25, 0.0625, 0.3125, 0.125, 0.375, 0.1875, 0, 0.25, 0.0625, 0.3125, 0.125, 0.375, 0.1875, 0, 0.25, 0.0625, 0.3125, 0.125, 0.375, 0.1875, 0, 0.25, 0.0625, 0.3125, 0.125, 0.375, 0.1875],
  "SoftwareVersions": "syngo MR E11",
  "SpacingBetweenSlices": 2.7,
  "StationName": "AWP66112",
  "TaskName": "social",
  "TotalReadoutTime": 0.03969,
  "TxRefAmp": 249.268,
  "WipMemBlock": "97f5566f-c03e-4122-9847-d2c11fb1e3e9||Sequence: R016 ve11c/master r/e634e98; Dec 19 2017 11:00:25 by eja",
  "dcmmeta_affine": [
    [-2.682192087173462, -0.05993086099624634, 0.018858062103390694, 113.81466674804688],
    [-0.05747181922197342, 2.665602922439575, 0.3008238971233368, -88.9755630493164],
    [0.025295091792941093, -0.2984384000301361, 2.6831231117248535, -26.83510971069336],
    [0.0, 0.0, 0.0, 1.0]
],
  "dcmmeta_reorient_transform": [
    [0.0, -1.0, 0.0, 81.0],
    [1.0, 0.0, 0.0, 0.0],
    [0.0, 0.0, 1.0, 0.0],
    [0.0, 0.0, 0.0, 1.0]
],
  "dcmmeta_shape": [82, 82, 56, 872],
  "dcmmeta_slice_dim": 2,
  "dcmmeta_version": 0.6,
  "global": {
    "const": {
      "AccessionNumber": "A003734",
      "AcquisitionMatrix": [82, 0, 0, 82],
      "AngioFlag": "N",
      "BitsAllocated": 16,
      "BitsStored": 16,
      "BodyPartExamined": "BRAIN",
      "Columns": 656,
      "EchoNumbers": 1,
      "EchoTime": 27.2,
      "EchoTrainLength": 82,
      "FlipAngle": 44.0,
      "HighBit": 15,
      "ImageOrientationPatient": [0.99972608095419, 0.02142131342802, 0.00942817007718, -0.0223378662715, 0.99354292529729, 0.11123612417802],
      "ImagePositionPatient": [-861.54920985678, -908.46076576669, -143.92012758827],
      "ImageType": [
        "ORIGINAL",
        "PRIMARY",
        "M",
        "MB",
        "ND",
        "NORM",
        "MOSAIC"
],
      "ImagedNucleus": "1H",
      "ImagingFrequency": 123.252127,
      "InPlanePhaseEncodingDirection": "COL",
      "MRAcquisitionType": "2D",
      "MagneticFieldStrength": 3.0,
      "Manufacturer": "SIEMENS",
      "ManufacturerModelName": "Prisma",
      "Modality": "MR",
      "NumberOfAverages": 1.0,
      "NumberOfPhaseEncodingSteps": 82,
      "PercentPhaseFieldOfView": 100.0,
      "PercentSampling": 100.0,
      "PerformedProcedureStepStartTime": "113657.376000",
      "PhotometricInterpretation": "MONOCHROME2",
      "PixelBandwidth": 3050.0,
      "PixelRepresentation": 0,
      "PixelSpacing": [2.6829268932343, 2.6829268932343],
      "ProtocolName": "func_run-04_task-social_acq-ap-mb8",
      "RepetitionTime": 460.0,
      "Rows": 656,
      "SAR": 0.11242791766607,
      "SamplesPerPixel": 1,
      "ScanOptions": "FS",
      "ScanningSequence": "EP",
      "SequenceName": "epfid2d1_82",
      "SequenceVariant": [
        "SK",
        "SS"
],
      "SeriesDescription": "func_run-04_task-social_acq-ap-mb8",
      "SeriesNumber": 18,
      "SeriesTime": "134820.055000",
      "SliceLocation": -35.785760062889,
      "SliceThickness": 2.7000000476837,
      "SmallestImagePixelValue": 0,
      "SoftwareVersions": "syngo MR E11",
      "SpacingBetweenSlices": 2.6999999554222,
      "SpecificCharacterSet": "ISO_IR 100",
      "StudyID": "1",
      "StudyTime": "113657.305000",
      "TransmitCoilName": "Body",
      "VariableFlipAngleFlag": "N",
      "WindowCenterWidthExplanation": "Algo1",
      "dBdt": 0.0},
    "slices": {}
  },
  "time": {
    "samples": {
      "AcquisitionNumber": [1, 2, 3, 4, 5, 6, 7, 8, 9, 10, 11, 12, 13, 14, 15, 16, 17, 18, 19, 20, 21, 22, 23, 24, 25, 26, 27, 28, 29, 30, 31, 32, 33, 34, 35, 36, 37, 38, 39, 40, 41, 42, 43, 44, 45, 46, 47, 48, 49, 50, 51, 52, 53, 54, 55, 56, 57, 58, 59, 60, 61, 62, 63, 64, 65, 66, 67, 68, 69, 70, 71, 72, 73, 74, 75, 76, 77, 78, 79, 80, 81, 82, 83, 84, 85, 86, 87, 88, 89, 90, 91, 92, 93, 94, 95, 96, 97, 98, 99, 100, 101, 102, 103, 104, 105, 106, 107, 108, 109, 110, 111, 112, 113, 114, 115, 116, 117, 118, 119, 120, 121, 122, 123, 124, 125, 126, 127, 128, 129, 130, 131, 132, 133, 134, 135, 136, 137, 138, 139, 140, 141, 142, 143, 144, 145, 146, 147, 148, 149, 150, 151, 152, 153, 154, 155, 156, 157, 158, 159, 160, 161, 162, 163, 164, 165, 166, 167, 168, 169, 170, 171, 172, 173, 174, 175, 176, 177, 178, 179, 180, 181, 182, 183, 184, 185, 186, 187, 188, 189, 190, 191, 192, 193, 194, 195, 196, 197, 198, 199, 200, 201, 202, 203, 204, 205, 206, 207, 208, 209, 210, 211, 212, 213, 214, 215, 216, 217, 218, 219, 220, 221, 222, 223, 224, 225, 226, 227, 228, 229, 230, 231, 232, 233, 234, 235, 236, 237, 238, 239, 240, 241, 242, 243, 244, 245, 246, 247, 248, 249, 250, 251, 252, 253, 254, 255, 256, 257, 258, 259, 260, 261, 262, 263, 264, 265, 266, 267, 268, 269, 270, 271, 272, 273, 274, 275, 276, 277, 278, 279, 280, 281, 282, 283, 284, 285, 286, 287, 288, 289, 290, 291, 292, 293, 294, 295, 296, 297, 298, 299, 300, 301, 302, 303, 304, 305, 306, 307, 308, 309, 310, 311, 312, 313, 314, 315, 316, 317, 318, 319, 320, 321, 322, 323, 324, 325, 326, 327, 328, 329, 330, 331, 332, 333, 334, 335, 336, 337, 338, 339, 340, 341, 342, 343, 344, 345, 346, 347, 348, 349, 350, 351, 352, 353, 354, 355, 356, 357, 358, 359, 360, 361, 362, 363, 364, 365, 366, 367, 368, 369, 370, 371, 372, 373, 374, 375, 376, 377, 378, 379, 380, 381, 382, 383, 384, 385, 386, 387, 388, 389, 390, 391, 392, 393, 394, 395, 396, 397, 398, 399, 400, 401, 402, 403, 404, 405, 406, 407, 408, 409, 410, 411, 412, 413, 414, 415, 416, 417, 418, 419, 420, 421, 422, 423, 424, 425, 426, 427, 428, 429, 430, 431, 432, 433, 434, 435, 436, 437, 438, 439, 440, 441, 442, 443, 444, 445, 446, 447, 448, 449, 450, 451, 452, 453, 454, 455, 456, 457, 458, 459, 460, 461, 462, 463, 464, 465, 466, 467, 468, 469, 470, 471, 472, 473, 474, 475, 476, 477, 478, 479, 480, 481, 482, 483, 484, 485, 486, 487, 488, 489, 490, 491, 492, 493, 494, 495, 496, 497, 498, 499, 500, 501, 502, 503, 504, 505, 506, 507, 508, 509, 510, 511, 512, 513, 514, 515, 516, 517, 518, 519, 520, 521, 522, 523, 524, 525, 526, 527, 528, 529, 530, 531, 532, 533, 534, 535, 536, 537, 538, 539, 540, 541, 542, 543, 544, 545, 546, 547, 548, 549, 550, 551, 552, 553, 554, 555, 556, 557, 558, 559, 560, 561, 562, 563, 564, 565, 566, 567, 568, 569, 570, 571, 572, 573, 574, 575, 576, 577, 578, 579, 580, 581, 582, 583, 584, 585, 586, 587, 588, 589, 590, 591, 592, 593, 594, 595, 596, 597, 598, 599, 600, 601, 602, 603, 604, 605, 606, 607, 608, 609, 610, 611, 612, 613, 614, 615, 616, 617, 618, 619, 620, 621, 622, 623, 624, 625, 626, 627, 628, 629, 630, 631, 632, 633, 634, 635, 636, 637, 638, 639, 640, 641, 642, 643, 644, 645, 646, 647, 648, 649, 650, 651, 652, 653, 654, 655, 656, 657, 658, 659, 660, 661, 662, 663, 664, 665, 666, 667, 668, 669, 670, 671, 672, 673, 674, 675, 676, 677, 678, 679, 680, 681, 682, 683, 684, 685, 686, 687, 688, 689, 690, 691, 692, 693, 694, 695, 696, 697, 698, 699, 700, 701, 702, 703, 704, 705, 706, 707, 708, 709, 710, 711, 712, 713, 714, 715, 716, 717, 718, 719, 720, 721, 722, 723, 724, 725, 726, 727, 728, 729, 730, 731, 732, 733, 734, 735, 736, 737, 738, 739, 740, 741, 742, 743, 744, 745, 746, 747, 748, 749, 750, 751, 752, 753, 754, 755, 756, 757, 758, 759, 760, 761, 762, 763, 764, 765, 766, 767, 768, 769, 770, 771, 772, 773, 774, 775, 776, 777, 778, 779, 780, 781, 782, 783, 784, 785, 786, 787, 788, 789, 790, 791, 792, 793, 794, 795, 796, 797, 798, 799, 800, 801, 802, 803, 804, 805, 806, 807, 808, 809, 810, 811, 812, 813, 814, 815, 816, 817, 818, 819, 820, 821, 822, 823, 824, 825, 826, 827, 828, 829, 830, 831, 832, 833, 834, 835, 836, 837, 838, 839, 840, 841, 842, 843, 844, 845, 846, 847, 848, 849, 850, 851, 852, 853, 854, 855, 856, 857, 858, 859, 860, 861, 862, 863, 864, 865, 866, 867, 868, 869, 870, 871, 872],
      "AcquisitionTime": ["134758.450000", "134758.910000", "134759.370000", "134759.830000", "134800.290000", "134800.750000", "134801.210000", "134801.670000", "134802.130000", "134802.590000", "134803.050000", "134803.510000", "134803.970000", "134804.430000", "134804.890000", "134805.350000", "134805.810000", "134806.270000", "134806.730000", "134807.190000", "134807.650000", "134808.110000", "134808.570000", "134809.030000", "134809.490000", "134809.950000", "134810.410000", "134810.870000", "134811.330000", "134811.790000", "134812.250000", "134812.710000", "134813.170000", "134813.630000", "134814.090000", "134814.550000", "134815.010000", "134815.470000", "134815.930000", "134816.390000", "134816.850000", "134817.310000", "134817.770000", "134818.230000", "134818.690000", "134819.150000", "134819.610000", "134820.070000", "134820.530000", "134820.990000", "134821.450000", "134821.910000", "134822.370000", "134822.830000", "134823.290000", "134823.750000", "134824.210000", "134824.670000", "134825.130000", "134825.590000", "134826.050000", "134826.510000", "134826.970000", "134827.430000", "134827.890000", "134828.350000", "134828.810000", "134829.270000", "134829.730000", "134830.190000", "134830.650000", "134831.110000", "134831.570000", "134832.030000", "134832.490000", "134832.950000", "134833.410000", "134833.870000", "134834.330000", "134834.790000", "134835.250000", "134835.710000", "134836.170000", "134836.630000", "134837.090000", "134837.550000", "134838.010000", "134838.470000", "134838.930000", "134839.390000", "134839.850000", "134840.310000", "134840.770000", "134841.230000", "134841.690000", "134842.150000", "134842.610000", "134843.070000", "134843.530000", "134843.990000", "134844.450000", "134844.910000", "134845.370000", "134845.830000", "134846.290000", "134846.750000", "134847.210000", "134847.670000", "134848.130000", "134848.590000", "134849.050000", "134849.510000", "134849.970000", "134850.430000", "134850.890000", "134851.350000", "134851.810000", "134852.270000", "134852.730000", "134853.190000", "134853.650000", "134854.110000", "134854.570000", "134855.030000", "134855.490000", "134855.950000", "134856.410000", "134856.870000", "134857.330000", "134857.790000", "134858.250000", "134858.710000", "134859.170000", "134859.630000", "134900.090000", "134900.550000", "134901.010000", "134901.470000", "134901.930000", "134902.390000", "134902.850000", "134903.310000", "134903.770000", "134904.230000", "134904.690000", "134905.150000", "134905.610000", "134906.070000", "134906.530000", "134906.990000", "134907.450000", "134907.910000", "134908.370000", "134908.830000", "134909.290000", "134909.750000", "134910.210000", "134910.670000", "134911.130000", "134911.590000", "134912.050000", "134912.510000", "134912.970000", "134913.430000", "134913.890000", "134914.350000", "134914.810000", "134915.270000", "134915.730000", "134916.190000", "134916.650000", "134917.110000", "134917.570000", "134918.030000", "134918.490000", "134918.950000", "134919.410000", "134919.870000", "134920.330000", "134920.790000", "134921.250000", "134921.710000", "134922.170000", "134922.630000", "134923.090000", "134923.550000", "134924.010000", "134924.470000", "134924.930000", "134925.390000", "134925.850000", "134926.310000", "134926.770000", "134927.230000", "134927.690000", "134928.150000", "134928.610000", "134929.070000", "134929.530000", "134929.990000", "134930.450000", "134930.910000", "134931.370000", "134931.830000", "134932.290000", "134932.750000", "134933.210000", "134933.670000", "134934.130000", "134934.590000", "134935.050000", "134935.510000", "134935.970000", "134936.430000", "134936.890000", "134937.350000", "134937.810000", "134938.270000", "134938.730000", "134939.190000", "134939.650000", "134940.110000", "134940.570000", "134941.030000", "134941.490000", "134941.950000", "134942.410000", "134942.870000", "134943.330000", "134943.790000", "134944.250000", "134944.710000", "134945.170000", "134945.630000", "134946.090000", "134946.550000", "134947.010000", "134947.470000", "134947.930000", "134948.390000", "134948.850000", "134949.310000", "134949.770000", "134950.230000", "134950.690000", "134951.150000", "134951.610000", "134952.070000", "134952.530000", "134952.990000", "134953.450000", "134953.910000", "134954.370000", "134954.830000", "134955.290000", "134955.750000", "134956.210000", "134956.670000", "134957.130000", "134957.590000", "134958.050000", "134958.510000", "134958.970000", "134959.430000", "134959.890000", "135000.350000", "135000.810000", "135001.270000", "135001.730000", "135002.190000", "135002.650000", "135003.110000", "135003.570000", "135004.030000", "135004.490000", "135004.950000", "135005.410000", "135005.870000", "135006.330000", "135006.790000", "135007.250000", "135007.710000", "135008.170000", "135008.630000", "135009.090000", "135009.550000", "135010.010000", "135010.470000", "135010.930000", "135011.390000", "135011.850000", "135012.310000", "135012.770000", "135013.230000", "135013.690000", "135014.150000", "135014.610000", "135015.070000", "135015.530000", "135015.990000", "135016.450000", "135016.910000", "135017.370000", "135017.830000", "135018.290000", "135018.750000", "135019.210000", "135019.670000", "135020.130000", "135020.590000", "135021.050000", "135021.510000", "135021.970000", "135022.430000", "135022.890000", "135023.350000", "135023.810000", "135024.270000", "135024.730000", "135025.190000", "135025.650000", "135026.110000", "135026.570000", "135027.030000", "135027.490000", "135027.950000", "135028.410000", "135028.870000", "135029.330000", "135029.790000", "135030.250000", "135030.710000", "135031.170000", "135031.630000", "135032.090000", "135032.550000", "135033.010000", "135033.470000", "135033.930000", "135034.390000", "135034.850000", "135035.310000", "135035.770000", "135036.230000", "135036.690000", "135037.150000", "135037.610000", "135038.070000", "135038.530000", "135038.990000", "135039.450000", "135039.910000", "135040.370000", "135040.830000", "135041.290000", "135041.750000", "135042.210000", "135042.670000", "135043.130000", "135043.590000", "135044.050000", "135044.510000", "135044.970000", "135045.430000", "135045.890000", "135046.350000", "135046.810000", "135047.270000", "135047.730000", "135048.190000", "135048.650000", "135049.110000", "135049.570000", "135050.030000", "135050.490000", "135050.950000", "135051.410000", "135051.870000", "135052.330000", "135052.790000", "135053.250000", "135053.710000", "135054.170000", "135054.630000", "135055.090000", "135055.550000", "135056.010000", "135056.470000", "135056.930000", "135057.390000", "135057.850000", "135058.310000", "135058.770000", "135059.230000", "135059.690000", "135100.150000", "135100.610000", "135101.070000", "135101.530000", "135101.990000", "135102.450000", "135102.910000", "135103.370000", "135103.830000", "135104.290000", "135104.750000", "135105.210000", "135105.670000", "135106.130000", "135106.590000", "135107.050000", "135107.510000", "135107.970000", "135108.430000", "135108.890000", "135109.350000", "135109.810000", "135110.270000", "135110.730000", "135111.190000", "135111.650000", "135112.110000", "135112.570000", "135113.030000", "135113.490000", "135113.950000", "135114.410000", "135114.870000", "135115.330000", "135115.790000", "135116.250000", "135116.710000", "135117.170000", "135117.630000", "135118.090000", "135118.550000", "135119.010000", "135119.470000", "135119.930000", "135120.390000", "135120.850000", "135121.310000", "135121.770000", "135122.230000", "135122.690000", "135123.150000", "135123.610000", "135124.070000", "135124.530000", "135124.990000", "135125.450000", "135125.910000", "135126.370000", "135126.830000", "135127.290000", "135127.750000", "135128.210000", "135128.670000", "135129.130000", "135129.590000", "135130.050000", "135130.510000", "135130.970000", "135131.430000", "135131.890000", "135132.350000", "135132.810000", "135133.270000", "135133.730000", "135134.190000", "135134.650000", "135135.110000", "135135.570000", "135136.030000", "135136.490000", "135136.950000", "135137.410000", "135137.870000", "135138.330000", "135138.790000", "135139.250000", "135139.710000", "135140.170000", "135140.630000", "135141.090000", "135141.550000", "135142.010000", "135142.470000", "135142.930000", "135143.390000", "135143.850000", "135144.310000", "135144.770000", "135145.230000", "135145.690000", "135146.150000", "135146.610000", "135147.070000", "135147.530000", "135147.990000", "135148.450000", "135148.910000", "135149.370000", "135149.830000", "135150.290000", "135150.750000", "135151.210000", "135151.670000", "135152.130000", "135152.590000", "135153.050000", "135153.510000", "135153.970000", "135154.430000", "135154.890000", "135155.350000", "135155.810000", "135156.270000", "135156.730000", "135157.190000", "135157.650000", "135158.110000", "135158.570000", "135159.030000", "135159.490000", "135159.950000", "135200.410000", "135200.870000", "135201.330000", "135201.790000", "135202.250000", "135202.710000", "135203.170000", "135203.630000", "135204.090000", "135204.550000", "135205.010000", "135205.470000", "135205.930000", "135206.390000", "135206.850000", "135207.310000", "135207.770000", "135208.230000", "135208.690000", "135209.150000", "135209.610000", "135210.070000", "135210.530000", "135210.990000", "135211.450000", "135211.910000", "135212.370000", "135212.830000", "135213.290000", "135213.750000", "135214.210000", "135214.670000", "135215.130000", "135215.590000", "135216.050000", "135216.510000", "135216.970000", "135217.430000", "135217.890000", "135218.350000", "135218.810000", "135219.270000", "135219.730000", "135220.190000", "135220.650000", "135221.110000", "135221.570000", "135222.030000", "135222.490000", "135222.950000", "135223.410000", "135223.870000", "135224.330000", "135224.790000", "135225.250000", "135225.710000", "135226.170000", "135226.630000", "135227.090000", "135227.550000", "135228.010000", "135228.470000", "135228.930000", "135229.390000", "135229.850000", "135230.310000", "135230.770000", "135231.230000", "135231.690000", "135232.150000", "135232.610000", "135233.070000", "135233.530000", "135233.990000", "135234.450000", "135234.910000", "135235.370000", "135235.830000", "135236.290000", "135236.750000", "135237.210000", "135237.670000", "135238.130000", "135238.590000", "135239.050000", "135239.510000", "135239.970000", "135240.430000", "135240.890000", "135241.350000", "135241.810000", "135242.270000", "135242.730000", "135243.190000", "135243.650000", "135244.110000", "135244.570000", "135245.030000", "135245.490000", "135245.950000", "135246.410000", "135246.870000", "135247.330000", "135247.790000", "135248.250000", "135248.710000", "135249.170000", "135249.630000", "135250.090000", "135250.550000", "135251.010000", "135251.470000", "135251.930000", "135252.390000", "135252.850000", "135253.310000", "135253.770000", "135254.230000", "135254.690000", "135255.150000", "135255.610000", "135256.070000", "135256.530000", "135256.990000", "135257.450000", "135257.910000", "135258.370000", "135258.830000", "135259.290000", "135259.750000", "135300.210000", "135300.670000", "135301.130000", "135301.590000", "135302.050000", "135302.510000", "135302.970000", "135303.430000", "135303.890000", "135304.350000", "135304.810000", "135305.270000", "135305.730000", "135306.190000", "135306.650000", "135307.110000", "135307.570000", "135308.030000", "135308.490000", "135308.950000", "135309.410000", "135309.870000", "135310.330000", "135310.790000", "135311.250000", "135311.710000", "135312.170000", "135312.630000", "135313.090000", "135313.550000", "135314.010000", "135314.470000", "135314.930000", "135315.390000", "135315.850000", "135316.310000", "135316.770000", "135317.230000", "135317.690000", "135318.150000", "135318.610000", "135319.070000", "135319.530000", "135319.990000", "135320.450000", "135320.910000", "135321.370000", "135321.830000", "135322.290000", "135322.750000", "135323.210000", "135323.670000", "135324.130000", "135324.590000", "135325.050000", "135325.510000", "135325.970000", "135326.430000", "135326.890000", "135327.350000", "135327.810000", "135328.270000", "135328.730000", "135329.190000", "135329.650000", "135330.110000", "135330.570000", "135331.030000", "135331.490000", "135331.950000", "135332.410000", "135332.870000", "135333.330000", "135333.790000", "135334.250000", "135334.710000", "135335.170000", "135335.630000", "135336.090000", "135336.550000", "135337.010000", "135337.470000", "135337.930000", "135338.390000", "135338.850000", "135339.310000", "135339.770000", "135340.230000", "135340.690000", "135341.150000", "135341.610000", "135342.070000", "135342.530000", "135342.990000", "135343.450000", "135343.910000", "135344.370000", "135344.830000", "135345.290000", "135345.750000", "135346.210000", "135346.670000", "135347.130000", "135347.590000", "135348.050000", "135348.510000", "135348.970000", "135349.430000", "135349.890000", "135350.350000", "135350.810000", "135351.270000", "135351.730000", "135352.190000", "135352.650000", "135353.110000", "135353.570000", "135354.030000", "135354.490000", "135354.950000", "135355.410000", "135355.870000", "135356.330000", "135356.790000", "135357.250000", "135357.710000", "135358.170000", "135358.630000", "135359.090000", "135359.550000", "135400.010000", "135400.470000", "135400.930000", "135401.390000", "135401.850000", "135402.310000", "135402.770000", "135403.230000", "135403.690000", "135404.150000", "135404.610000", "135405.070000", "135405.530000", "135405.990000", "135406.450000", "135406.910000", "135407.370000", "135407.830000", "135408.290000", "135408.750000", "135409.210000", "135409.670000", "135410.130000", "135410.590000", "135411.050000", "135411.510000", "135411.970000", "135412.430000", "135412.890000", "135413.350000", "135413.810000", "135414.270000", "135414.730000", "135415.190000", "135415.650000", "135416.110000", "135416.570000", "135417.030000", "135417.490000", "135417.950000", "135418.410000", "135418.870000", "135419.330000", "135419.790000", "135420.250000", "135420.710000", "135421.170000", "135421.630000", "135422.090000", "135422.550000", "135423.010000", "135423.470000", "135423.930000", "135424.390000", "135424.850000", "135425.310000", "135425.770000", "135426.230000", "135426.690000", "135427.150000", "135427.610000", "135428.070000", "135428.530000", "135428.990000", "135429.450000", "135429.910000", "135430.370000", "135430.830000", "135431.290000", "135431.750000", "135432.210000", "135432.670000", "135433.130000", "135433.590000", "135434.050000", "135434.510000", "135434.970000", "135435.430000", "135435.890000", "135436.350000", "135436.810000", "135437.270000", "135437.730000", "135438.190000", "135438.650000", "135439.110000"],
