{
  "AcquisitionMatrixPE": 82,
  "AcquisitionNumber": 1,
  "AcquisitionTime": "14:13:25.300000",
  "BandwidthPerPixelPhaseEncode": 24.888,
  "BaseResolution": 82,
  "BodyPartExamined": "BRAIN",
  "ConsistencyInfo": "N4_VE11C_LATEST_20160120",
  "ConversionSoftware": "dcm2niix",
  "ConversionSoftwareVersion": "v1.0.20201102",
  "DerivedVendorReportedEchoSpacing": 0.00049,
  "DeviceSerialNumber": "66112",
  "DwellTime": 2e-06,
  "EchoTime": 0.0272,
  "EchoTrainLength": 82,
  "EffectiveEchoSpacing": 0.00049,
  "FlipAngle": 44,
  "ImageComments": "Unaliased MB8/PE3",
  "ImageOrientationPatientDICOM": [0.999683, 0.024919, 0.0034808, -0.0251301, 0.995702, 0.0891382],
  "ImageType": [
    "ORIGINAL",
    "PRIMARY",
    "M",
    "MB",
    "ND",
    "NORM",
    "MOSAIC"
],
  "ImagingFrequency": 123.252,
  "InPlanePhaseEncodingDirectionDICOM": "COL",
  "InstitutionAddress": "Maynard 3,Hanover,NH,US,03755",
  "InstitutionName": "Dartmouth College - PBS",
  "InstitutionalDepartmentName": "Department",
  "MRAcquisitionType": "2D",
  "MagneticFieldStrength": 3,
  "Manufacturer": "Siemens",
  "ManufacturersModelName": "Prisma",
  "Modality": "MR",
  "MultibandAccelerationFactor": 8,
  "PartialFourier": 1,
  "PatientPosition": "HFS",
  "PercentPhaseFOV": 100,
  "PercentSampling": 100,
  "PhaseEncodingDirection": "j-",
  "PhaseEncodingSteps": 82,
  "PhaseResolution": 1,
  "PixelBandwidth": 3050,
  "ProcedureStepDescription": "Wager_Wager^1076_spacetop",
  "ProtocolName": "func_run-01_task-alignvideo_acq-ap-mb8",
  "PulseSequenceDetails": "%CustomerSeq%\\cmrr_mbep2d_bold",
  "ReceiveCoilActiveElements": "HEA;HEP",
  "ReceiveCoilName": "Head_32",
  "ReconMatrixPE": 82,
  "RepetitionTime": 0.46,
  "SAR": 0.112559,
  "ScanOptions": "FS",
  "ScanningSequence": "EP",
  "SequenceName": "epfid2d1_82",
  "SequenceVariant": "SK\\SS",
  "SeriesDescription": "func_run-01_task-alignvideo_acq-ap-mb8",
  "SeriesNumber": 30,
  "ShimSetting": [4148, -7764, -7199, 618, -42, -171, 36, 54],
  "SliceThickness": 2.7,
  "SliceTiming": [0, 0.25, 0.0625, 0.3125, 0.125, 0.3775, 0.1875, 0, 0.25, 0.0625, 0.3125, 0.125, 0.3775, 0.1875, 0, 0.25, 0.0625, 0.3125, 0.125, 0.3775, 0.1875, 0, 0.25, 0.0625, 0.3125, 0.125, 0.3775, 0.1875, 0, 0.25, 0.0625, 0.3125, 0.125, 0.3775, 0.1875, 0, 0.25, 0.0625, 0.3125, 0.125, 0.3775, 0.1875, 0, 0.25, 0.0625, 0.3125, 0.125, 0.3775, 0.1875, 0, 0.25, 0.0625, 0.3125, 0.125, 0.3775, 0.1875],
  "SoftwareVersions": "syngo MR E11",
  "SpacingBetweenSlices": 2.7,
  "StationName": "AWP66112",
  "TaskName": "alignvideo",
  "TotalReadoutTime": 0.03969,
  "TxRefAmp": 249.268,
  "WipMemBlock": "f294d79a-d41b-48c2-af25-b07c4ba7429d||Sequence: R016 ve11c/master r/e634e98; Dec 19 2017 11:00:25 by eja",
  "dcmmeta_affine": [
    [-2.682077407836914, -0.06742225587368011, 0.003360437462106347, 113.87952423095703],
    [-0.06685581058263779, 2.671396255493164, 0.24083302915096283, -83.49015808105469],
    [0.00933872815221548, -0.23915117979049683, 2.6892356872558594, -27.27623748779297],
    [0.0, 0.0, 0.0, 1.0]
],
  "dcmmeta_reorient_transform": [
    [0.0, -1.0, 0.0, 81.0],
    [1.0, 0.0, 0.0, 0.0],
    [0.0, 0.0, 1.0, 0.0],
    [0.0, 0.0, 0.0, 1.0]
],
  "dcmmeta_shape": [82, 82, 56, 1073],
  "dcmmeta_slice_dim": 2,
  "dcmmeta_version": 0.6,
  "global": {
    "const": {
      "AccessionNumber": "A003734",
      "AcquisitionMatrix": [82, 0, 0, 82],
      "AngioFlag": "N",
      "BitsAllocated": 16,
      "BitsStored": 16,
      "BodyPartExamined": "BRAIN",
      "Columns": 656,
      "EchoNumbers": 1,
      "EchoTime": 27.2,
      "EchoTrainLength": 82,
      "FlipAngle": 44.0,
      "HighBit": 15,
      "ImageOrientationPatient": [0.99968341405856, 0.02491898266837, 0.0034807986136, -0.0251301136284, 0.99570219698291, 0.08913816417468],
      "ImagePositionPatient": [-858.8243779476, -918.77126468544, -117.96408555921],
      "ImageType": [
        "ORIGINAL",
        "PRIMARY",
        "M",
        "MB",
        "ND",
        "NORM",
        "MOSAIC"
],
      "ImagedNucleus": "1H",
      "ImagingFrequency": 123.252128,
      "InPlanePhaseEncodingDirection": "COL",
      "MRAcquisitionType": "2D",
      "MagneticFieldStrength": 3.0,
      "Manufacturer": "SIEMENS",
      "ManufacturerModelName": "Prisma",
      "Modality": "MR",
      "NumberOfAverages": 1.0,
      "NumberOfPhaseEncodingSteps": 82,
      "PercentPhaseFieldOfView": 100.0,
      "PercentSampling": 100.0,
      "PerformedProcedureStepStartTime": "113657.376000",
      "PhotometricInterpretation": "MONOCHROME2",
      "PixelBandwidth": 3050.0,
      "PixelRepresentation": 0,
      "PixelSpacing": [2.6829268932343, 2.6829268932343],
      "ProtocolName": "func_run-01_task-alignvideo_acq-ap-mb8",
      "RepetitionTime": 460.0,
      "Rows": 656,
      "SAR": 0.11255903641053,
      "SamplesPerPixel": 1,
      "ScanOptions": "FS",
      "ScanningSequence": "EP",
      "SequenceName": "epfid2d1_82",
      "SequenceVariant": [
        "SK",
        "SS"
],
      "SeriesDescription": "func_run-01_task-alignvideo_acq-ap-mb8",
      "SeriesNumber": 30,
      "SeriesTime": "141340.051000",
      "SliceLocation": -34.472862861047,
      "SliceThickness": 2.7000000476837,
      "SmallestImagePixelValue": 0,
      "SoftwareVersions": "syngo MR E11",
      "SpacingBetweenSlices": 2.7000000100412,
      "SpecificCharacterSet": "ISO_IR 100",
      "StudyID": "1",
      "StudyTime": "113657.305000",
      "TransmitCoilName": "Body",
      "VariableFlipAngleFlag": "N",
      "WindowCenterWidthExplanation": "Algo1",
      "dBdt": 0.0},
    "slices": {}
  },
  "time": {
    "samples": {
      "AcquisitionNumber": [1, 2, 3, 4, 5, 6, 7, 8, 9, 10, 11, 12, 13, 14, 15, 16, 17, 18, 19, 20, 21, 22, 23, 24, 25, 26, 27, 28, 29, 30, 31, 32, 33, 34, 35, 36, 37, 38, 39, 40, 41, 42, 43, 44, 45, 46, 47, 48, 49, 50, 51, 52, 53, 54, 55, 56, 57, 58, 59, 60, 61, 62, 63, 64, 65, 66, 67, 68, 69, 70, 71, 72, 73, 74, 75, 76, 77, 78, 79, 80, 81, 82, 83, 84, 85, 86, 87, 88, 89, 90, 91, 92, 93, 94, 95, 96, 97, 98, 99, 100, 101, 102, 103, 104, 105, 106, 107, 108, 109, 110, 111, 112, 113, 114, 115, 116, 117, 118, 119, 120, 121, 122, 123, 124, 125, 126, 127, 128, 129, 130, 131, 132, 133, 134, 135, 136, 137, 138, 139, 140, 141, 142, 143, 144, 145, 146, 147, 148, 149, 150, 151, 152, 153, 154, 155, 156, 157, 158, 159, 160, 161, 162, 163, 164, 165, 166, 167, 168, 169, 170, 171, 172, 173, 174, 175, 176, 177, 178, 179, 180, 181, 182, 183, 184, 185, 186, 187, 188, 189, 190, 191, 192, 193, 194, 195, 196, 197, 198, 199, 200, 201, 202, 203, 204, 205, 206, 207, 208, 209, 210, 211, 212, 213, 214, 215, 216, 217, 218, 219, 220, 221, 222, 223, 224, 225, 226, 227, 228, 229, 230, 231, 232, 233, 234, 235, 236, 237, 238, 239, 240, 241, 242, 243, 244, 245, 246, 247, 248, 249, 250, 251, 252, 253, 254, 255, 256, 257, 258, 259, 260, 261, 262, 263, 264, 265, 266, 267, 268, 269, 270, 271, 272, 273, 274, 275, 276, 277, 278, 279, 280, 281, 282, 283, 284, 285, 286, 287, 288, 289, 290, 291, 292, 293, 294, 295, 296, 297, 298, 299, 300, 301, 302, 303, 304, 305, 306, 307, 308, 309, 310, 311, 312, 313, 314, 315, 316, 317, 318, 319, 320, 321, 322, 323, 324, 325, 326, 327, 328, 329, 330, 331, 332, 333, 334, 335, 336, 337, 338, 339, 340, 341, 342, 343, 344, 345, 346, 347, 348, 349, 350, 351, 352, 353, 354, 355, 356, 357, 358, 359, 360, 361, 362, 363, 364, 365, 366, 367, 368, 369, 370, 371, 372, 373, 374, 375, 376, 377, 378, 379, 380, 381, 382, 383, 384, 385, 386, 387, 388, 389, 390, 391, 392, 393, 394, 395, 396, 397, 398, 399, 400, 401, 402, 403, 404, 405, 406, 407, 408, 409, 410, 411, 412, 413, 414, 415, 416, 417, 418, 419, 420, 421, 422, 423, 424, 425, 426, 427, 428, 429, 430, 431, 432, 433, 434, 435, 436, 437, 438, 439, 440, 441, 442, 443, 444, 445, 446, 447, 448, 449, 450, 451, 452, 453, 454, 455, 456, 457, 458, 459, 460, 461, 462, 463, 464, 465, 466, 467, 468, 469, 470, 471, 472, 473, 474, 475, 476, 477, 478, 479, 480, 481, 482, 483, 484, 485, 486, 487, 488, 489, 490, 491, 492, 493, 494, 495, 496, 497, 498, 499, 500, 501, 502, 503, 504, 505, 506, 507, 508, 509, 510, 511, 512, 513, 514, 515, 516, 517, 518, 519, 520, 521, 522, 523, 524, 525, 526, 527, 528, 529, 530, 531, 532, 533, 534, 535, 536, 537, 538, 539, 540, 541, 542, 543, 544, 545, 546, 547, 548, 549, 550, 551, 552, 553, 554, 555, 556, 557, 558, 559, 560, 561, 562, 563, 564, 565, 566, 567, 568, 569, 570, 571, 572, 573, 574, 575, 576, 577, 578, 579, 580, 581, 582, 583, 584, 585, 586, 587, 588, 589, 590, 591, 592, 593, 594, 595, 596, 597, 598, 599, 600, 601, 602, 603, 604, 605, 606, 607, 608, 609, 610, 611, 612, 613, 614, 615, 616, 617, 618, 619, 620, 621, 622, 623, 624, 625, 626, 627, 628, 629, 630, 631, 632, 633, 634, 635, 636, 637, 638, 639, 640, 641, 642, 643, 644, 645, 646, 647, 648, 649, 650, 651, 652, 653, 654, 655, 656, 657, 658, 659, 660, 661, 662, 663, 664, 665, 666, 667, 668, 669, 670, 671, 672, 673, 674, 675, 676, 677, 678, 679, 680, 681, 682, 683, 684, 685, 686, 687, 688, 689, 690, 691, 692, 693, 694, 695, 696, 697, 698, 699, 700, 701, 702, 703, 704, 705, 706, 707, 708, 709, 710, 711, 712, 713, 714, 715, 716, 717, 718, 719, 720, 721, 722, 723, 724, 725, 726, 727, 728, 729, 730, 731, 732, 733, 734, 735, 736, 737, 738, 739, 740, 741, 742, 743, 744, 745, 746, 747, 748, 749, 750, 751, 752, 753, 754, 755, 756, 757, 758, 759, 760, 761, 762, 763, 764, 765, 766, 767, 768, 769, 770, 771, 772, 773, 774, 775, 776, 777, 778, 779, 780, 781, 782, 783, 784, 785, 786, 787, 788, 789, 790, 791, 792, 793, 794, 795, 796, 797, 798, 799, 800, 801, 802, 803, 804, 805, 806, 807, 808, 809, 810, 811, 812, 813, 814, 815, 816, 817, 818, 819, 820, 821, 822, 823, 824, 825, 826, 827, 828, 829, 830, 831, 832, 833, 834, 835, 836, 837, 838, 839, 840, 841, 842, 843, 844, 845, 846, 847, 848, 849, 850, 851, 852, 853, 854, 855, 856, 857, 858, 859, 860, 861, 862, 863, 864, 865, 866, 867, 868, 869, 870, 871, 872, 873, 874, 875, 876, 877, 878, 879, 880, 881, 882, 883, 884, 885, 886, 887, 888, 889, 890, 891, 892, 893, 894, 895, 896, 897, 898, 899, 900, 901, 902, 903, 904, 905, 906, 907, 908, 909, 910, 911, 912, 913, 914, 915, 916, 917, 918, 919, 920, 921, 922, 923, 924, 925, 926, 927, 928, 929, 930, 931, 932, 933, 934, 935, 936, 937, 938, 939, 940, 941, 942, 943, 944, 945, 946, 947, 948, 949, 950, 951, 952, 953, 954, 955, 956, 957, 958, 959, 960, 961, 962, 963, 964, 965, 966, 967, 968, 969, 970, 971, 972, 973, 974, 975, 976, 977, 978, 979, 980, 981, 982, 983, 984, 985, 986, 987, 988, 989, 990, 991, 992, 993, 994, 995, 996, 997, 998, 999, 1000, 1001, 1002, 1003, 1004, 1005, 1006, 1007, 1008, 1009, 1010, 1011, 1012, 1013, 1014, 1015, 1016, 1017, 1018, 1019, 1020, 1021, 1022, 1023, 1024, 1025, 1026, 1027, 1028, 1029, 1030, 1031, 1032, 1033, 1034, 1035, 1036, 1037, 1038, 1039, 1040, 1041, 1042, 1043, 1044, 1045, 1046, 1047, 1048, 1049, 1050, 1051, 1052, 1053, 1054, 1055, 1056, 1057, 1058, 1059, 1060, 1061, 1062, 1063, 1064, 1065, 1066, 1067, 1068, 1069, 1070, 1071, 1072, 1073],
      "AcquisitionTime": ["141325.300000", "141325.760000", "141326.220000", "141326.680000", "141327.140000", "141327.600000", "141328.060000", "141328.520000", "141328.980000", "141329.440000", "141329.900000", "141330.360000", "141330.820000", "141331.280000", "141331.740000", "141332.200000", "141332.660000", "141333.120000", "141333.580000", "141334.040000", "141334.500000", "141334.960000", "141335.420000", "141335.880000", "141336.340000", "141336.800000", "141337.260000", "141337.720000", "141338.180000", "141338.640000", "141339.100000", "141339.560000", "141340.020000", "141340.480000", "141340.940000", "141341.400000", "141341.860000", "141342.320000", "141342.780000", "141343.240000", "141343.700000", "141344.160000", "141344.620000", "141345.080000", "141345.540000", "141346.000000", "141346.460000", "141346.920000", "141347.380000", "141347.840000", "141348.300000", "141348.760000", "141349.220000", "141349.680000", "141350.140000", "141350.600000", "141351.060000", "141351.520000", "141351.980000", "141352.440000", "141352.900000", "141353.360000", "141353.820000", "141354.280000", "141354.740000", "141355.200000", "141355.660000", "141356.120000", "141356.580000", "141357.040000", "141357.500000", "141357.960000", "141358.420000", "141358.880000", "141359.340000", "141359.800000", "141400.260000", "141400.720000", "141401.180000", "141401.640000", "141402.100000", "141402.560000", "141403.020000", "141403.480000", "141403.940000", "141404.400000", "141404.860000", "141405.320000", "141405.780000", "141406.240000", "141406.700000", "141407.160000", "141407.620000", "141408.080000", "141408.540000", "141409.000000", "141409.460000", "141409.920000", "141410.380000", "141410.840000", "141411.300000", "141411.760000", "141412.220000", "141412.680000", "141413.140000", "141413.600000", "141414.060000", "141414.520000", "141414.980000", "141415.440000", "141415.900000", "141416.360000", "141416.820000", "141417.280000", "141417.740000", "141418.200000", "141418.660000", "141419.120000", "141419.580000", "141420.040000", "141420.500000", "141420.960000", "141421.420000", "141421.880000", "141422.340000", "141422.800000", "141423.260000", "141423.720000", "141424.180000", "141424.640000", "141425.100000", "141425.560000", "141426.020000", "141426.480000", "141426.940000", "141427.400000", "141427.860000", "141428.320000", "141428.780000", "141429.240000", "141429.700000", "141430.160000", "141430.620000", "141431.080000", "141431.540000", "141432.000000", "141432.460000", "141432.920000", "141433.380000", "141433.840000", "141434.300000", "141434.760000", "141435.220000", "141435.680000", "141436.140000", "141436.600000", "141437.060000", "141437.520000", "141437.980000", "141438.440000", "141438.900000", "141439.360000", "141439.820000", "141440.280000", "141440.740000", "141441.200000", "141441.660000", "141442.120000", "141442.580000", "141443.040000", "141443.500000", "141443.960000", "141444.420000", "141444.880000", "141445.340000", "141445.800000", "141446.260000", "141446.720000", "141447.180000", "141447.640000", "141448.100000", "141448.560000", "141449.020000", "141449.480000", "141449.940000", "141450.400000", "141450.860000", "141451.320000", "141451.780000", "141452.240000", "141452.700000", "141453.160000", "141453.620000", "141454.080000", "141454.540000", "141455.000000", "141455.460000", "141455.920000", "141456.380000", "141456.840000", "141457.300000", "141457.760000", "141458.220000", "141458.680000", "141459.140000", "141459.600000", "141500.060000", "141500.520000", "141500.980000", "141501.440000", "141501.900000", "141502.360000", "141502.820000", "141503.280000", "141503.740000", "141504.200000", "141504.660000", "141505.120000", "141505.580000", "141506.040000", "141506.500000", "141506.960000", "141507.420000", "141507.880000", "141508.340000", "141508.800000", "141509.260000", "141509.720000", "141510.180000", "141510.640000", "141511.100000", "141511.560000", "141512.020000", "141512.480000", "141512.940000", "141513.400000", "141513.860000", "141514.320000", "141514.780000", "141515.240000", "141515.700000", "141516.160000", "141516.620000", "141517.080000", "141517.540000", "141518.000000", "141518.460000", "141518.920000", "141519.380000", "141519.840000", "141520.300000", "141520.760000", "141521.220000", "141521.680000", "141522.140000", "141522.600000", "141523.060000", "141523.520000", "141523.980000", "141524.440000", "141524.900000", "141525.360000", "141525.820000", "141526.280000", "141526.740000", "141527.200000", "141527.660000", "141528.120000", "141528.580000", "141529.040000", "141529.500000", "141529.960000", "141530.420000", "141530.880000", "141531.340000", "141531.800000", "141532.260000", "141532.720000", "141533.180000", "141533.640000", "141534.100000", "141534.560000", "141535.020000", "141535.480000", "141535.940000", "141536.400000", "141536.860000", "141537.320000", "141537.780000", "141538.240000", "141538.700000", "141539.160000", "141539.620000", "141540.080000", "141540.540000", "141541.000000", "141541.460000", "141541.920000", "141542.380000", "141542.840000", "141543.300000", "141543.760000", "141544.220000", "141544.680000", "141545.140000", "141545.600000", "141546.060000", "141546.520000", "141546.980000", "141547.440000", "141547.900000", "141548.360000", "141548.820000", "141549.280000", "141549.740000", "141550.200000", "141550.660000", "141551.120000", "141551.580000", "141552.040000", "141552.500000", "141552.960000", "141553.420000", "141553.880000", "141554.340000", "141554.800000", "141555.260000", "141555.720000", "141556.180000", "141556.640000", "141557.100000", "141557.560000", "141558.020000", "141558.480000", "141558.940000", "141559.400000", "141559.860000", "141600.320000", "141600.780000", "141601.240000", "141601.700000", "141602.160000", "141602.620000", "141603.080000", "141603.540000", "141604.000000", "141604.460000", "141604.920000", "141605.380000", "141605.840000", "141606.300000", "141606.760000", "141607.220000", "141607.680000", "141608.140000", "141608.600000", "141609.060000", "141609.520000", "141609.980000", "141610.440000", "141610.900000", "141611.360000", "141611.820000", "141612.280000", "141612.740000", "141613.200000", "141613.660000", "141614.120000", "141614.580000", "141615.040000", "141615.500000", "141615.960000", "141616.420000", "141616.880000", "141617.340000", "141617.800000", "141618.260000", "141618.720000", "141619.180000", "141619.640000", "141620.100000", "141620.560000", "141621.020000", "141621.480000", "141621.940000", "141622.400000", "141622.860000", "141623.320000", "141623.780000", "141624.240000", "141624.700000", "141625.160000", "141625.620000", "141626.080000", "141626.540000", "141627.000000", "141627.460000", "141627.920000", "141628.380000", "141628.840000", "141629.300000", "141629.760000", "141630.220000", "141630.680000", "141631.140000", "141631.600000", "141632.060000", "141632.520000", "141632.980000", "141633.440000", "141633.900000", "141634.360000", "141634.820000", "141635.280000", "141635.740000", "141636.200000", "141636.660000", "141637.120000", "141637.580000", "141638.040000", "141638.500000", "141638.960000", "141639.420000", "141639.880000", "141640.340000", "141640.800000", "141641.260000", "141641.720000", "141642.180000", "141642.640000", "141643.100000", "141643.560000", "141644.020000", "141644.480000", "141644.940000", "141645.400000", "141645.860000", "141646.320000", "141646.780000", "141647.240000", "141647.700000", "141648.160000", "141648.620000", "141649.080000", "141649.540000", "141650.000000", "141650.460000", "141650.920000", "141651.380000", "141651.840000", "141652.300000", "141652.760000", "141653.220000", "141653.680000", "141654.140000", "141654.600000", "141655.060000", "141655.520000", "141655.980000", "141656.440000", "141656.900000", "141657.360000", "141657.820000", "141658.280000", "141658.740000", "141659.200000", "141659.660000", "141700.120000", "141700.580000", "141701.040000", "141701.500000", "141701.960000", "141702.420000", "141702.880000", "141703.340000", "141703.800000", "141704.260000", "141704.720000", "141705.180000", "141705.640000", "141706.100000", "141706.560000", "141707.020000", "141707.480000", "141707.940000", "141708.400000", "141708.860000", "141709.320000", "141709.780000", "141710.240000", "141710.700000", "141711.160000", "141711.620000", "141712.080000", "141712.540000", "141713.000000", "141713.460000", "141713.920000", "141714.380000", "141714.840000", "141715.300000", "141715.760000", "141716.220000", "141716.680000", "141717.140000", "141717.600000", "141718.060000", "141718.520000", "141718.980000", "141719.440000", "141719.900000", "141720.360000", "141720.820000", "141721.280000", "141721.740000", "141722.200000", "141722.660000", "141723.120000", "141723.580000", "141724.040000", "141724.500000", "141724.960000", "141725.420000", "141725.880000", "141726.340000", "141726.800000", "141727.260000", "141727.720000", "141728.180000", "141728.640000", "141729.100000", "141729.560000", "141730.020000", "141730.480000", "141730.940000", "141731.400000", "141731.860000", "141732.320000", "141732.780000", "141733.240000", "141733.700000", "141734.160000", "141734.620000", "141735.080000", "141735.540000", "141736.000000", "141736.460000", "141736.920000", "141737.380000", "141737.840000", "141738.300000", "141738.760000", "141739.220000", "141739.680000", "141740.140000", "141740.600000", "141741.060000", "141741.520000", "141741.980000", "141742.440000", "141742.900000", "141743.360000", "141743.820000", "141744.280000", "141744.740000", "141745.200000", "141745.660000", "141746.120000", "141746.580000", "141747.040000", "141747.500000", "141747.960000", "141748.420000", "141748.880000", "141749.340000", "141749.800000", "141750.260000", "141750.720000", "141751.180000", "141751.640000", "141752.100000", "141752.560000", "141753.020000", "141753.480000", "141753.940000", "141754.400000", "141754.860000", "141755.320000", "141755.780000", "141756.240000", "141756.700000", "141757.160000", "141757.620000", "141758.080000", "141758.540000", "141759.000000", "141759.460000", "141759.920000", "141800.380000", "141800.840000", "141801.300000", "141801.760000", "141802.220000", "141802.680000", "141803.140000", "141803.600000", "141804.060000", "141804.520000", "141804.980000", "141805.440000", "141805.900000", "141806.360000", "141806.820000", "141807.280000", "141807.740000", "141808.200000", "141808.660000", "141809.120000", "141809.580000", "141810.040000", "141810.500000", "141810.960000", "141811.420000", "141811.880000", "141812.340000", "141812.800000", "141813.260000", "141813.720000", "141814.180000", "141814.640000", "141815.100000", "141815.560000", "141816.020000", "141816.480000", "141816.940000", "141817.400000", "141817.860000", "141818.320000", "141818.780000", "141819.240000", "141819.700000", "141820.160000", "141820.620000", "141821.080000", "141821.540000", "141822.000000", "141822.460000", "141822.920000", "141823.380000", "141823.840000", "141824.300000", "141824.760000", "141825.220000", "141825.680000", "141826.140000", "141826.600000", "141827.060000", "141827.520000", "141827.980000", "141828.440000", "141828.900000", "141829.360000", "141829.820000", "141830.280000", "141830.740000", "141831.200000", "141831.660000", "141832.120000", "141832.580000", "141833.040000", "141833.500000", "141833.960000", "141834.420000", "141834.880000", "141835.340000", "141835.800000", "141836.260000", "141836.720000", "141837.180000", "141837.640000", "141838.100000", "141838.560000", "141839.020000", "141839.480000", "141839.940000", "141840.400000", "141840.860000", "141841.320000", "141841.780000", "141842.240000", "141842.700000", "141843.160000", "141843.620000", "141844.080000", "141844.540000", "141845.000000", "141845.460000", "141845.920000", "141846.380000", "141846.840000", "141847.300000", "141847.760000", "141848.220000", "141848.680000", "141849.140000", "141849.600000", "141850.060000", "141850.520000", "141850.980000", "141851.440000", "141851.900000", "141852.360000", "141852.820000", "141853.280000", "141853.740000", "141854.200000", "141854.660000", "141855.120000", "141855.580000", "141856.040000", "141856.500000", "141856.960000", "141857.420000", "141857.880000", "141858.340000", "141858.800000", "141859.260000", "141859.720000", "141900.180000", "141900.640000", "141901.100000", "141901.560000", "141902.020000", "141902.480000", "141902.940000", "141903.400000", "141903.860000", "141904.320000", "141904.780000", "141905.240000", "141905.700000", "141906.160000", "141906.620000", "141907.080000", "141907.540000", "141908.000000", "141908.460000", "141908.920000", "141909.380000", "141909.840000", "141910.300000", "141910.760000", "141911.220000", "141911.680000", "141912.140000", "141912.600000", "141913.060000", "141913.520000", "141913.980000", "141914.440000", "141914.900000", "141915.360000", "141915.820000", "141916.280000", "141916.740000", "141917.200000", "141917.660000", "141918.120000", "141918.580000", "141919.040000", "141919.500000", "141919.960000", "141920.420000", "141920.880000", "141921.340000", "141921.800000", "141922.260000", "141922.720000", "141923.180000", "141923.640000", "141924.100000", "141924.560000", "141925.020000", "141925.480000", "141925.940000", "141926.400000", "141926.860000", "141927.320000", "141927.780000", "141928.240000", "141928.700000", "141929.160000", "141929.620000", "141930.080000", "141930.540000", "141931.000000", "141931.460000", "141931.920000", "141932.380000", "141932.840000", "141933.300000", "141933.760000", "141934.220000", "141934.680000", "141935.140000", "141935.600000", "141936.060000", "141936.520000", "141936.980000", "141937.440000", "141937.900000", "141938.360000", "141938.820000", "141939.280000", "141939.740000", "141940.200000", "141940.660000", "141941.120000", "141941.580000", "141942.040000", "141942.500000", "141942.960000", "141943.420000", "141943.880000", "141944.340000", "141944.800000", "141945.260000", "141945.720000", "141946.180000", "141946.640000", "141947.100000", "141947.560000", "141948.020000", "141948.480000", "141948.940000", "141949.400000", "141949.860000", "141950.320000", "141950.780000", "141951.240000", "141951.700000", "141952.160000", "141952.620000", "141953.080000", "141953.540000", "141954.000000", "141954.460000", "141954.920000", "141955.380000", "141955.840000", "141956.300000", "141956.760000", "141957.220000", "141957.680000", "141958.140000", "141958.600000", "141959.060000", "141959.520000", "141959.980000", "142000.440000", "142000.900000", "142001.360000", "142001.820000", "142002.280000", "142002.740000", "142003.200000", "142003.660000", "142004.120000", "142004.580000", "142005.040000", "142005.500000", "142005.960000", "142006.420000", "142006.880000", "142007.340000", "142007.800000", "142008.260000", "142008.720000", "142009.180000", "142009.640000", "142010.100000", "142010.560000", "142011.020000", "142011.480000", "142011.940000", "142012.400000", "142012.860000", "142013.320000", "142013.780000", "142014.240000", "142014.700000", "142015.160000", "142015.620000", "142016.080000", "142016.540000", "142017.000000", "142017.460000", "142017.920000", "142018.380000", "142018.840000", "142019.300000", "142019.760000", "142020.220000", "142020.680000", "142021.140000", "142021.600000", "142022.060000", "142022.520000", "142022.980000", "142023.440000", "142023.900000", "142024.360000", "142024.820000", "142025.280000", "142025.740000", "142026.200000", "142026.660000", "142027.120000", "142027.580000", "142028.040000", "142028.500000", "142028.960000", "142029.420000", "142029.880000", "142030.340000", "142030.800000", "142031.260000", "142031.720000", "142032.180000", "142032.640000", "142033.100000", "142033.560000", "142034.020000", "142034.480000", "142034.940000", "142035.400000", "142035.860000", "142036.320000", "142036.780000", "142037.240000", "142037.700000", "142038.160000", "142038.620000", "142039.080000", "142039.540000", "142040.000000", "142040.460000", "142040.920000", "142041.380000", "142041.840000", "142042.300000", "142042.760000", "142043.220000", "142043.680000", "142044.140000", "142044.600000", "142045.060000", "142045.520000", "142045.980000", "142046.440000", "142046.900000", "142047.360000", "142047.820000", "142048.280000", "142048.740000", "142049.200000", "142049.660000", "142050.120000", "142050.580000", "142051.040000", "142051.500000", "142051.960000", "142052.420000", "142052.880000", "142053.340000", "142053.800000", "142054.260000", "142054.720000", "142055.180000", "142055.640000", "142056.100000", "142056.560000", "142057.020000", "142057.480000", "142057.940000", "142058.400000", "142058.860000", "142059.320000", "142059.780000", "142100.240000", "142100.700000", "142101.160000", "142101.620000", "142102.080000", "142102.540000", "142103.000000", "142103.460000", "142103.920000", "142104.380000", "142104.840000", "142105.300000", "142105.760000", "142106.220000", "142106.680000", "142107.140000", "142107.600000", "142108.060000", "142108.520000", "142108.980000", "142109.440000", "142109.900000", "142110.360000", "142110.820000", "142111.280000", "142111.740000", "142112.200000", "142112.660000", "142113.120000", "142113.580000", "142114.040000", "142114.500000", "142114.960000", "142115.420000", "142115.880000", "142116.340000", "142116.800000", "142117.260000", "142117.720000", "142118.180000", "142118.640000", "142119.100000", "142119.560000", "142120.020000", "142120.480000", "142120.940000", "142121.400000", "142121.860000", "142122.320000", "142122.780000", "142123.240000", "142123.700000", "142124.160000", "142124.620000", "142125.080000", "142125.540000", "142126.000000", "142126.460000", "142126.920000", "142127.380000", "142127.840000", "142128.300000", "142128.760000", "142129.220000", "142129.680000", "142130.140000", "142130.600000", "142131.060000", "142131.520000", "142131.980000", "142132.440000", "142132.900000", "142133.360000", "142133.820000", "142134.280000", "142134.740000", "142135.200000", "142135.660000", "142136.120000", "142136.580000", "142137.040000", "142137.500000", "142137.960000", "142138.420000"],
