{
  "AcquisitionMatrixPE": 82,
  "AcquisitionNumber": 1,
  "AcquisitionTime": "13:55:1.585000",
  "BandwidthPerPixelPhaseEncode": 24.888,
  "BaseResolution": 82,
  "BodyPartExamined": "BRAIN",
  "ConsistencyInfo": "N4_VE11C_LATEST_20160120",
  "ConversionSoftware": "dcm2niix",
  "ConversionSoftwareVersion": "v1.0.20201102",
  "DerivedVendorReportedEchoSpacing": 0.00049,
  "DeviceSerialNumber": "66112",
  "DwellTime": 2e-06,
  "EchoTime": 0.0272,
  "EchoTrainLength": 82,
  "EffectiveEchoSpacing": 0.00049,
  "FlipAngle": 44,
  "ImageComments": "Unaliased MB8/PE3",
  "ImageOrientationPatientDICOM": [0.999726, 0.0214213, 0.00942817, -0.0223379, 0.993543, 0.111236],
  "ImageType": [
    "ORIGINAL",
    "PRIMARY",
    "M",
    "MB",
    "ND",
    "NORM",
    "MOSAIC"
],
  "ImagingFrequency": 123.252,
  "InPlanePhaseEncodingDirectionDICOM": "COL",
  "InstitutionAddress": "Maynard 3,Hanover,NH,US,03755",
  "InstitutionName": "Dartmouth College - PBS",
  "InstitutionalDepartmentName": "Department",
  "MRAcquisitionType": "2D",
  "MagneticFieldStrength": 3,
  "Manufacturer": "Siemens",
  "ManufacturersModelName": "Prisma",
  "Modality": "MR",
  "MultibandAccelerationFactor": 8,
  "PartialFourier": 1,
  "PatientPosition": "HFS",
  "PercentPhaseFOV": 100,
  "PercentSampling": 100,
  "PhaseEncodingDirection": "j-",
  "PhaseEncodingSteps": 82,
  "PhaseResolution": 1,
  "PixelBandwidth": 3050,
  "ProcedureStepDescription": "Wager_Wager^1076_spacetop",
  "ProtocolName": "func_run-05_task-social_acq-ap-mb8",
  "PulseSequenceDetails": "%CustomerSeq%\\cmrr_mbep2d_bold",
  "ReceiveCoilActiveElements": "HEA;HEP",
  "ReceiveCoilName": "Head_32",
  "ReconMatrixPE": 82,
  "RepetitionTime": 0.46,
  "SAR": 0.112428,
  "ScanOptions": "FS",
  "ScanningSequence": "EP",
  "SequenceName": "epfid2d1_82",
  "SequenceVariant": "SK\\SS",
  "SeriesDescription": "func_run-05_task-social_acq-ap-mb8",
  "SeriesNumber": 20,
  "ShimSetting": [4148, -7766, -7203, 613, -41, -175, 43, 53],
  "SliceThickness": 2.7,
  "SliceTiming": [0, 0.2525, 0.0625, 0.315, 0.1275, 0.3775, 0.19, 0, 0.2525, 0.0625, 0.315, 0.1275, 0.3775, 0.19, 0, 0.2525, 0.0625, 0.315, 0.1275, 0.3775, 0.19, 0, 0.2525, 0.0625, 0.315, 0.1275, 0.3775, 0.19, 0, 0.2525, 0.0625, 0.315, 0.1275, 0.3775, 0.19, 0, 0.2525, 0.0625, 0.315, 0.1275, 0.3775, 0.19, 0, 0.2525, 0.0625, 0.315, 0.1275, 0.3775, 0.19, 0, 0.2525, 0.0625, 0.315, 0.1275, 0.3775, 0.19],
  "SoftwareVersions": "syngo MR E11",
  "SpacingBetweenSlices": 2.7,
  "StationName": "AWP66112",
  "TaskName": "social",
  "TotalReadoutTime": 0.03969,
  "TxRefAmp": 249.268,
  "WipMemBlock": "131721c2-546a-4ceb-b0da-2dc92beaf8b8||Sequence: R016 ve11c/master r/e634e98; Dec 19 2017 11:00:25 by eja",
  "dcmmeta_affine": [
    [-2.682192087173462, -0.05993086099624634, 0.018858062103390694, 113.81466674804688],
    [-0.05747181922197342, 2.665602922439575, 0.3008238971233368, -88.9755630493164],
    [0.025295091792941093, -0.2984384000301361, 2.6831231117248535, -26.83510971069336],
    [0.0, 0.0, 0.0, 1.0]
],
  "dcmmeta_reorient_transform": [
    [0.0, -1.0, 0.0, 81.0],
    [1.0, 0.0, 0.0, 0.0],
    [0.0, 0.0, 1.0, 0.0],
    [0.0, 0.0, 0.0, 1.0]
],
  "dcmmeta_shape": [82, 82, 56, 872],
  "dcmmeta_slice_dim": 2,
  "dcmmeta_version": 0.6,
  "global": {
    "const": {
      "AccessionNumber": "A003734",
      "AcquisitionMatrix": [82, 0, 0, 82],
      "AngioFlag": "N",
      "BitsAllocated": 16,
      "BitsStored": 16,
      "BodyPartExamined": "BRAIN",
      "Columns": 656,
      "EchoNumbers": 1,
      "EchoTime": 27.2,
      "EchoTrainLength": 82,
      "FlipAngle": 44.0,
      "HighBit": 15,
      "ImageOrientationPatient": [0.99972608095419, 0.02142131342802, 0.00942817007718, -0.0223378662715, 0.99354292529729, 0.11123612417802],
      "ImagePositionPatient": [-861.54920985678, -908.46076576669, -143.92012758827],
      "ImageType": [
        "ORIGINAL",
        "PRIMARY",
        "M",
        "MB",
        "ND",
        "NORM",
        "MOSAIC"
],
      "ImagedNucleus": "1H",
      "ImagingFrequency": 123.252127,
      "InPlanePhaseEncodingDirection": "COL",
      "MRAcquisitionType": "2D",
      "MagneticFieldStrength": 3.0,
      "Manufacturer": "SIEMENS",
      "ManufacturerModelName": "Prisma",
      "Modality": "MR",
      "NumberOfAverages": 1.0,
      "NumberOfPhaseEncodingSteps": 82,
      "PercentPhaseFieldOfView": 100.0,
      "PercentSampling": 100.0,
      "PerformedProcedureStepStartTime": "113657.376000",
      "PhotometricInterpretation": "MONOCHROME2",
      "PixelBandwidth": 3050.0,
      "PixelRepresentation": 0,
      "PixelSpacing": [2.6829268932343, 2.6829268932343],
      "ProtocolName": "func_run-05_task-social_acq-ap-mb8",
      "RepetitionTime": 460.0,
      "Rows": 656,
      "SAR": 0.11242791766607,
      "SamplesPerPixel": 1,
      "ScanOptions": "FS",
      "ScanningSequence": "EP",
      "SequenceName": "epfid2d1_82",
      "SequenceVariant": [
        "SK",
        "SS"
],
      "SeriesDescription": "func_run-05_task-social_acq-ap-mb8",
      "SeriesNumber": 20,
      "SeriesTime": "135519.912000",
      "SliceLocation": -35.785760062889,
      "SliceThickness": 2.7000000476837,
      "SmallestImagePixelValue": 0,
      "SoftwareVersions": "syngo MR E11",
      "SpacingBetweenSlices": 2.6999999554222,
      "SpecificCharacterSet": "ISO_IR 100",
      "StudyID": "1",
      "StudyTime": "113657.305000",
      "TransmitCoilName": "Body",
      "VariableFlipAngleFlag": "N",
      "WindowCenterWidthExplanation": "Algo1",
      "dBdt": 0.0},
    "slices": {}
  },
  "time": {
    "samples": {
      "AcquisitionNumber": [1, 2, 3, 4, 5, 6, 7, 8, 9, 10, 11, 12, 13, 14, 15, 16, 17, 18, 19, 20, 21, 22, 23, 24, 25, 26, 27, 28, 29, 30, 31, 32, 33, 34, 35, 36, 37, 38, 39, 40, 41, 42, 43, 44, 45, 46, 47, 48, 49, 50, 51, 52, 53, 54, 55, 56, 57, 58, 59, 60, 61, 62, 63, 64, 65, 66, 67, 68, 69, 70, 71, 72, 73, 74, 75, 76, 77, 78, 79, 80, 81, 82, 83, 84, 85, 86, 87, 88, 89, 90, 91, 92, 93, 94, 95, 96, 97, 98, 99, 100, 101, 102, 103, 104, 105, 106, 107, 108, 109, 110, 111, 112, 113, 114, 115, 116, 117, 118, 119, 120, 121, 122, 123, 124, 125, 126, 127, 128, 129, 130, 131, 132, 133, 134, 135, 136, 137, 138, 139, 140, 141, 142, 143, 144, 145, 146, 147, 148, 149, 150, 151, 152, 153, 154, 155, 156, 157, 158, 159, 160, 161, 162, 163, 164, 165, 166, 167, 168, 169, 170, 171, 172, 173, 174, 175, 176, 177, 178, 179, 180, 181, 182, 183, 184, 185, 186, 187, 188, 189, 190, 191, 192, 193, 194, 195, 196, 197, 198, 199, 200, 201, 202, 203, 204, 205, 206, 207, 208, 209, 210, 211, 212, 213, 214, 215, 216, 217, 218, 219, 220, 221, 222, 223, 224, 225, 226, 227, 228, 229, 230, 231, 232, 233, 234, 235, 236, 237, 238, 239, 240, 241, 242, 243, 244, 245, 246, 247, 248, 249, 250, 251, 252, 253, 254, 255, 256, 257, 258, 259, 260, 261, 262, 263, 264, 265, 266, 267, 268, 269, 270, 271, 272, 273, 274, 275, 276, 277, 278, 279, 280, 281, 282, 283, 284, 285, 286, 287, 288, 289, 290, 291, 292, 293, 294, 295, 296, 297, 298, 299, 300, 301, 302, 303, 304, 305, 306, 307, 308, 309, 310, 311, 312, 313, 314, 315, 316, 317, 318, 319, 320, 321, 322, 323, 324, 325, 326, 327, 328, 329, 330, 331, 332, 333, 334, 335, 336, 337, 338, 339, 340, 341, 342, 343, 344, 345, 346, 347, 348, 349, 350, 351, 352, 353, 354, 355, 356, 357, 358, 359, 360, 361, 362, 363, 364, 365, 366, 367, 368, 369, 370, 371, 372, 373, 374, 375, 376, 377, 378, 379, 380, 381, 382, 383, 384, 385, 386, 387, 388, 389, 390, 391, 392, 393, 394, 395, 396, 397, 398, 399, 400, 401, 402, 403, 404, 405, 406, 407, 408, 409, 410, 411, 412, 413, 414, 415, 416, 417, 418, 419, 420, 421, 422, 423, 424, 425, 426, 427, 428, 429, 430, 431, 432, 433, 434, 435, 436, 437, 438, 439, 440, 441, 442, 443, 444, 445, 446, 447, 448, 449, 450, 451, 452, 453, 454, 455, 456, 457, 458, 459, 460, 461, 462, 463, 464, 465, 466, 467, 468, 469, 470, 471, 472, 473, 474, 475, 476, 477, 478, 479, 480, 481, 482, 483, 484, 485, 486, 487, 488, 489, 490, 491, 492, 493, 494, 495, 496, 497, 498, 499, 500, 501, 502, 503, 504, 505, 506, 507, 508, 509, 510, 511, 512, 513, 514, 515, 516, 517, 518, 519, 520, 521, 522, 523, 524, 525, 526, 527, 528, 529, 530, 531, 532, 533, 534, 535, 536, 537, 538, 539, 540, 541, 542, 543, 544, 545, 546, 547, 548, 549, 550, 551, 552, 553, 554, 555, 556, 557, 558, 559, 560, 561, 562, 563, 564, 565, 566, 567, 568, 569, 570, 571, 572, 573, 574, 575, 576, 577, 578, 579, 580, 581, 582, 583, 584, 585, 586, 587, 588, 589, 590, 591, 592, 593, 594, 595, 596, 597, 598, 599, 600, 601, 602, 603, 604, 605, 606, 607, 608, 609, 610, 611, 612, 613, 614, 615, 616, 617, 618, 619, 620, 621, 622, 623, 624, 625, 626, 627, 628, 629, 630, 631, 632, 633, 634, 635, 636, 637, 638, 639, 640, 641, 642, 643, 644, 645, 646, 647, 648, 649, 650, 651, 652, 653, 654, 655, 656, 657, 658, 659, 660, 661, 662, 663, 664, 665, 666, 667, 668, 669, 670, 671, 672, 673, 674, 675, 676, 677, 678, 679, 680, 681, 682, 683, 684, 685, 686, 687, 688, 689, 690, 691, 692, 693, 694, 695, 696, 697, 698, 699, 700, 701, 702, 703, 704, 705, 706, 707, 708, 709, 710, 711, 712, 713, 714, 715, 716, 717, 718, 719, 720, 721, 722, 723, 724, 725, 726, 727, 728, 729, 730, 731, 732, 733, 734, 735, 736, 737, 738, 739, 740, 741, 742, 743, 744, 745, 746, 747, 748, 749, 750, 751, 752, 753, 754, 755, 756, 757, 758, 759, 760, 761, 762, 763, 764, 765, 766, 767, 768, 769, 770, 771, 772, 773, 774, 775, 776, 777, 778, 779, 780, 781, 782, 783, 784, 785, 786, 787, 788, 789, 790, 791, 792, 793, 794, 795, 796, 797, 798, 799, 800, 801, 802, 803, 804, 805, 806, 807, 808, 809, 810, 811, 812, 813, 814, 815, 816, 817, 818, 819, 820, 821, 822, 823, 824, 825, 826, 827, 828, 829, 830, 831, 832, 833, 834, 835, 836, 837, 838, 839, 840, 841, 842, 843, 844, 845, 846, 847, 848, 849, 850, 851, 852, 853, 854, 855, 856, 857, 858, 859, 860, 861, 862, 863, 864, 865, 866, 867, 868, 869, 870, 871, 872],
      "AcquisitionTime": ["135501.585000", "135502.045000", "135502.505000", "135502.965000", "135503.425000", "135503.885000", "135504.345000", "135504.805000", "135505.265000", "135505.725000", "135506.185000", "135506.645000", "135507.105000", "135507.565000", "135508.025000", "135508.485000", "135508.945000", "135509.405000", "135509.865000", "135510.325000", "135510.785000", "135511.245000", "135511.705000", "135512.165000", "135512.625000", "135513.085000", "135513.545000", "135514.005000", "135514.465000", "135514.925000", "135515.385000", "135515.845000", "135516.305000", "135516.765000", "135517.225000", "135517.685000", "135518.145000", "135518.605000", "135519.065000", "135519.525000", "135519.985000", "135520.445000", "135520.905000", "135521.365000", "135521.825000", "135522.285000", "135522.745000", "135523.205000", "135523.665000", "135524.125000", "135524.585000", "135525.045000", "135525.505000", "135525.965000", "135526.425000", "135526.885000", "135527.345000", "135527.805000", "135528.265000", "135528.725000", "135529.185000", "135529.645000", "135530.105000", "135530.565000", "135531.025000", "135531.485000", "135531.945000", "135532.405000", "135532.865000", "135533.325000", "135533.785000", "135534.245000", "135534.705000", "135535.165000", "135535.625000", "135536.085000", "135536.545000", "135537.005000", "135537.465000", "135537.925000", "135538.385000", "135538.845000", "135539.305000", "135539.765000", "135540.225000", "135540.685000", "135541.145000", "135541.605000", "135542.065000", "135542.525000", "135542.985000", "135543.445000", "135543.905000", "135544.365000", "135544.825000", "135545.285000", "135545.745000", "135546.205000", "135546.665000", "135547.125000", "135547.585000", "135548.045000", "135548.505000", "135548.965000", "135549.425000", "135549.885000", "135550.345000", "135550.805000", "135551.265000", "135551.725000", "135552.185000", "135552.645000", "135553.105000", "135553.565000", "135554.025000", "135554.485000", "135554.945000", "135555.405000", "135555.865000", "135556.325000", "135556.785000", "135557.245000", "135557.705000", "135558.165000", "135558.625000", "135559.085000", "135559.545000", "135600.005000", "135600.465000", "135600.925000", "135601.385000", "135601.845000", "135602.305000", "135602.765000", "135603.225000", "135603.685000", "135604.145000", "135604.605000", "135605.065000", "135605.525000", "135605.985000", "135606.445000", "135606.905000", "135607.365000", "135607.825000", "135608.285000", "135608.745000", "135609.205000", "135609.665000", "135610.125000", "135610.585000", "135611.045000", "135611.505000", "135611.965000", "135612.425000", "135612.885000", "135613.345000", "135613.805000", "135614.265000", "135614.725000", "135615.185000", "135615.645000", "135616.105000", "135616.565000", "135617.025000", "135617.485000", "135617.945000", "135618.405000", "135618.865000", "135619.325000", "135619.785000", "135620.245000", "135620.705000", "135621.165000", "135621.625000", "135622.085000", "135622.545000", "135623.005000", "135623.465000", "135623.925000", "135624.385000", "135624.845000", "135625.305000", "135625.765000", "135626.225000", "135626.685000", "135627.145000", "135627.605000", "135628.065000", "135628.525000", "135628.985000", "135629.445000", "135629.905000", "135630.365000", "135630.825000", "135631.285000", "135631.745000", "135632.205000", "135632.665000", "135633.125000", "135633.585000", "135634.045000", "135634.505000", "135634.965000", "135635.425000", "135635.885000", "135636.345000", "135636.805000", "135637.265000", "135637.725000", "135638.185000", "135638.645000", "135639.105000", "135639.565000", "135640.025000", "135640.485000", "135640.945000", "135641.405000", "135641.865000", "135642.325000", "135642.785000", "135643.245000", "135643.705000", "135644.165000", "135644.625000", "135645.085000", "135645.545000", "135646.005000", "135646.465000", "135646.925000", "135647.385000", "135647.845000", "135648.305000", "135648.765000", "135649.225000", "135649.685000", "135650.145000", "135650.605000", "135651.065000", "135651.525000", "135651.985000", "135652.445000", "135652.905000", "135653.365000", "135653.825000", "135654.285000", "135654.745000", "135655.205000", "135655.665000", "135656.125000", "135656.585000", "135657.045000", "135657.505000", "135657.965000", "135658.425000", "135658.885000", "135659.345000", "135659.805000", "135700.265000", "135700.725000", "135701.185000", "135701.645000", "135702.105000", "135702.565000", "135703.025000", "135703.485000", "135703.945000", "135704.405000", "135704.865000", "135705.325000", "135705.785000", "135706.245000", "135706.705000", "135707.165000", "135707.625000", "135708.085000", "135708.545000", "135709.005000", "135709.465000", "135709.925000", "135710.385000", "135710.845000", "135711.305000", "135711.765000", "135712.225000", "135712.685000", "135713.145000", "135713.605000", "135714.065000", "135714.525000", "135714.985000", "135715.445000", "135715.905000", "135716.365000", "135716.825000", "135717.285000", "135717.745000", "135718.205000", "135718.665000", "135719.125000", "135719.585000", "135720.045000", "135720.505000", "135720.965000", "135721.425000", "135721.885000", "135722.345000", "135722.805000", "135723.265000", "135723.725000", "135724.185000", "135724.645000", "135725.105000", "135725.565000", "135726.025000", "135726.485000", "135726.945000", "135727.405000", "135727.865000", "135728.325000", "135728.785000", "135729.245000", "135729.705000", "135730.165000", "135730.625000", "135731.085000", "135731.545000", "135732.005000", "135732.465000", "135732.925000", "135733.385000", "135733.845000", "135734.305000", "135734.765000", "135735.225000", "135735.685000", "135736.145000", "135736.605000", "135737.065000", "135737.525000", "135737.985000", "135738.445000", "135738.905000", "135739.365000", "135739.825000", "135740.285000", "135740.745000", "135741.205000", "135741.665000", "135742.125000", "135742.585000", "135743.045000", "135743.505000", "135743.965000", "135744.425000", "135744.885000", "135745.345000", "135745.805000", "135746.265000", "135746.725000", "135747.185000", "135747.645000", "135748.105000", "135748.565000", "135749.025000", "135749.485000", "135749.945000", "135750.405000", "135750.865000", "135751.325000", "135751.785000", "135752.245000", "135752.705000", "135753.165000", "135753.625000", "135754.085000", "135754.545000", "135755.005000", "135755.465000", "135755.925000", "135756.385000", "135756.845000", "135757.305000", "135757.765000", "135758.225000", "135758.685000", "135759.145000", "135759.605000", "135800.065000", "135800.525000", "135800.985000", "135801.445000", "135801.905000", "135802.365000", "135802.825000", "135803.285000", "135803.745000", "135804.205000", "135804.665000", "135805.125000", "135805.585000", "135806.045000", "135806.505000", "135806.965000", "135807.425000", "135807.885000", "135808.345000", "135808.805000", "135809.265000", "135809.725000", "135810.185000", "135810.645000", "135811.105000", "135811.565000", "135812.025000", "135812.485000", "135812.945000", "135813.405000", "135813.865000", "135814.325000", "135814.785000", "135815.245000", "135815.705000", "135816.165000", "135816.625000", "135817.085000", "135817.545000", "135818.005000", "135818.465000", "135818.925000", "135819.385000", "135819.845000", "135820.305000", "135820.765000", "135821.225000", "135821.685000", "135822.145000", "135822.605000", "135823.065000", "135823.525000", "135823.985000", "135824.445000", "135824.905000", "135825.365000", "135825.825000", "135826.285000", "135826.745000", "135827.205000", "135827.665000", "135828.125000", "135828.585000", "135829.045000", "135829.505000", "135829.965000", "135830.425000", "135830.885000", "135831.345000", "135831.805000", "135832.265000", "135832.725000", "135833.185000", "135833.645000", "135834.105000", "135834.565000", "135835.025000", "135835.485000", "135835.945000", "135836.405000", "135836.865000", "135837.325000", "135837.785000", "135838.245000", "135838.705000", "135839.165000", "135839.625000", "135840.085000", "135840.545000", "135841.005000", "135841.465000", "135841.925000", "135842.385000", "135842.845000", "135843.305000", "135843.765000", "135844.225000", "135844.685000", "135845.145000", "135845.605000", "135846.065000", "135846.525000", "135846.985000", "135847.445000", "135847.905000", "135848.365000", "135848.825000", "135849.285000", "135849.745000", "135850.205000", "135850.665000", "135851.125000", "135851.585000", "135852.045000", "135852.505000", "135852.965000", "135853.425000", "135853.885000", "135854.345000", "135854.805000", "135855.265000", "135855.725000", "135856.185000", "135856.645000", "135857.105000", "135857.565000", "135858.025000", "135858.485000", "135858.945000", "135859.405000", "135859.865000", "135900.325000", "135900.785000", "135901.245000", "135901.705000", "135902.165000", "135902.625000", "135903.085000", "135903.545000", "135904.005000", "135904.465000", "135904.925000", "135905.385000", "135905.845000", "135906.305000", "135906.765000", "135907.225000", "135907.685000", "135908.145000", "135908.605000", "135909.065000", "135909.525000", "135909.985000", "135910.445000", "135910.905000", "135911.365000", "135911.825000", "135912.285000", "135912.745000", "135913.205000", "135913.665000", "135914.125000", "135914.585000", "135915.045000", "135915.505000", "135915.965000", "135916.425000", "135916.885000", "135917.345000", "135917.805000", "135918.265000", "135918.725000", "135919.185000", "135919.645000", "135920.105000", "135920.565000", "135921.025000", "135921.485000", "135921.945000", "135922.405000", "135922.865000", "135923.325000", "135923.785000", "135924.245000", "135924.705000", "135925.165000", "135925.625000", "135926.085000", "135926.545000", "135927.005000", "135927.465000", "135927.925000", "135928.385000", "135928.845000", "135929.305000", "135929.765000", "135930.225000", "135930.685000", "135931.145000", "135931.605000", "135932.065000", "135932.525000", "135932.985000", "135933.445000", "135933.905000", "135934.365000", "135934.825000", "135935.285000", "135935.745000", "135936.205000", "135936.665000", "135937.125000", "135937.585000", "135938.045000", "135938.505000", "135938.965000", "135939.425000", "135939.885000", "135940.345000", "135940.805000", "135941.265000", "135941.725000", "135942.185000", "135942.645000", "135943.105000", "135943.565000", "135944.025000", "135944.485000", "135944.945000", "135945.405000", "135945.865000", "135946.325000", "135946.785000", "135947.245000", "135947.705000", "135948.165000", "135948.625000", "135949.085000", "135949.545000", "135950.005000", "135950.465000", "135950.925000", "135951.385000", "135951.845000", "135952.305000", "135952.765000", "135953.225000", "135953.685000", "135954.145000", "135954.605000", "135955.065000", "135955.525000", "135955.985000", "135956.445000", "135956.905000", "135957.365000", "135957.825000", "135958.285000", "135958.745000", "135959.205000", "135959.665000", "140000.125000", "140000.585000", "140001.045000", "140001.505000", "140001.965000", "140002.425000", "140002.885000", "140003.345000", "140003.805000", "140004.265000", "140004.725000", "140005.185000", "140005.645000", "140006.105000", "140006.565000", "140007.025000", "140007.485000", "140007.945000", "140008.405000", "140008.865000", "140009.325000", "140009.785000", "140010.245000", "140010.705000", "140011.165000", "140011.625000", "140012.085000", "140012.545000", "140013.005000", "140013.465000", "140013.925000", "140014.385000", "140014.845000", "140015.305000", "140015.765000", "140016.225000", "140016.685000", "140017.145000", "140017.605000", "140018.065000", "140018.525000", "140018.985000", "140019.445000", "140019.905000", "140020.365000", "140020.825000", "140021.285000", "140021.745000", "140022.205000", "140022.665000", "140023.125000", "140023.585000", "140024.045000", "140024.505000", "140024.965000", "140025.425000", "140025.885000", "140026.345000", "140026.805000", "140027.265000", "140027.725000", "140028.185000", "140028.645000", "140029.105000", "140029.565000", "140030.025000", "140030.485000", "140030.945000", "140031.405000", "140031.865000", "140032.325000", "140032.785000", "140033.245000", "140033.705000", "140034.165000", "140034.625000", "140035.085000", "140035.545000", "140036.005000", "140036.465000", "140036.925000", "140037.385000", "140037.845000", "140038.305000", "140038.765000", "140039.225000", "140039.685000", "140040.145000", "140040.605000", "140041.065000", "140041.525000", "140041.985000", "140042.445000", "140042.905000", "140043.365000", "140043.825000", "140044.285000", "140044.745000", "140045.205000", "140045.665000", "140046.125000", "140046.585000", "140047.045000", "140047.505000", "140047.965000", "140048.425000", "140048.885000", "140049.345000", "140049.805000", "140050.265000", "140050.725000", "140051.185000", "140051.645000", "140052.105000", "140052.565000", "140053.025000", "140053.485000", "140053.945000", "140054.405000", "140054.865000", "140055.325000", "140055.785000", "140056.245000", "140056.705000", "140057.165000", "140057.625000", "140058.085000", "140058.545000", "140059.005000", "140059.465000", "140059.925000", "140100.385000", "140100.845000", "140101.305000", "140101.765000", "140102.225000", "140102.685000", "140103.145000", "140103.605000", "140104.065000", "140104.525000", "140104.985000", "140105.445000", "140105.905000", "140106.365000", "140106.825000", "140107.285000", "140107.745000", "140108.205000", "140108.665000", "140109.125000", "140109.585000", "140110.045000", "140110.505000", "140110.965000", "140111.425000", "140111.885000", "140112.345000", "140112.805000", "140113.265000", "140113.725000", "140114.185000", "140114.645000", "140115.105000", "140115.565000", "140116.025000", "140116.485000", "140116.945000", "140117.405000", "140117.865000", "140118.325000", "140118.785000", "140119.245000", "140119.705000", "140120.165000", "140120.625000", "140121.085000", "140121.545000", "140122.005000", "140122.465000", "140122.925000", "140123.385000", "140123.845000", "140124.305000", "140124.765000", "140125.225000", "140125.685000", "140126.145000", "140126.605000", "140127.065000", "140127.525000", "140127.985000", "140128.445000", "140128.905000", "140129.365000", "140129.825000", "140130.285000", "140130.745000", "140131.205000", "140131.665000", "140132.125000", "140132.585000", "140133.045000", "140133.505000", "140133.965000", "140134.425000", "140134.885000", "140135.345000", "140135.805000", "140136.265000", "140136.725000", "140137.185000", "140137.645000", "140138.105000", "140138.565000", "140139.025000", "140139.485000", "140139.945000", "140140.405000", "140140.865000", "140141.325000", "140141.785000", "140142.245000"],
