{
  "AcquisitionMatrixPE": 82,
  "AcquisitionNumber": 1,
  "AcquisitionTime": "13:38:39.442500",
  "BandwidthPerPixelPhaseEncode": 24.888,
  "BaseResolution": 82,
  "BodyPartExamined": "BRAIN",
  "ConsistencyInfo": "N4_VE11C_LATEST_20160120",
  "ConversionSoftware": "dcm2niix",
  "ConversionSoftwareVersion": "v1.0.20201102",
  "DerivedVendorReportedEchoSpacing": 0.00049,
  "DeviceSerialNumber": "66112",
  "DwellTime": 2e-06,
  "EchoTime": 0.0272,
  "EchoTrainLength": 82,
  "EffectiveEchoSpacing": 0.00049,
  "FlipAngle": 44,
  "ImageComments": "Unaliased MB8/PE3",
  "ImageOrientationPatientDICOM": [0.999726, 0.0214213, 0.00942817, -0.0223379, 0.993543, 0.111236],
  "ImageType": [
    "ORIGINAL",
    "PRIMARY",
    "M",
    "MB",
    "ND",
    "NORM",
    "MOSAIC"
],
  "ImagingFrequency": 123.252,
  "InPlanePhaseEncodingDirectionDICOM": "COL",
  "InstitutionAddress": "Maynard 3,Hanover,NH,US,03755",
  "InstitutionName": "Dartmouth College - PBS",
  "InstitutionalDepartmentName": "Department",
  "MRAcquisitionType": "2D",
  "MagneticFieldStrength": 3,
  "Manufacturer": "Siemens",
  "ManufacturersModelName": "Prisma",
  "Modality": "MR",
  "MultibandAccelerationFactor": 8,
  "PartialFourier": 1,
  "PatientPosition": "HFS",
  "PercentPhaseFOV": 100,
  "PercentSampling": 100,
  "PhaseEncodingDirection": "j-",
  "PhaseEncodingSteps": 82,
  "PhaseResolution": 1,
  "PixelBandwidth": 3050,
  "ProcedureStepDescription": "Wager_Wager^1076_spacetop",
  "ProtocolName": "func_run-03_task-social_acq-ap-mb8",
  "PulseSequenceDetails": "%CustomerSeq%\\cmrr_mbep2d_bold",
  "ReceiveCoilActiveElements": "HEA;HEP",
  "ReceiveCoilName": "Head_32",
  "ReconMatrixPE": 82,
  "RepetitionTime": 0.46,
  "SAR": 0.112428,
  "ScanOptions": "FS",
  "ScanningSequence": "EP",
  "SequenceName": "epfid2d1_82",
  "SequenceVariant": "SK\\SS",
  "SeriesDescription": "func_run-03_task-social_acq-ap-mb8",
  "SeriesNumber": 16,
  "ShimSetting": [4148, -7766, -7203, 613, -41, -175, 43, 53],
  "SliceThickness": 2.7,
  "SliceTiming": [0, 0.2525, 0.0625, 0.315, 0.1275, 0.3775, 0.19, 0, 0.2525, 0.0625, 0.315, 0.1275, 0.3775, 0.19, 0, 0.2525, 0.0625, 0.315, 0.1275, 0.3775, 0.19, 0, 0.2525, 0.0625, 0.315, 0.1275, 0.3775, 0.19, 0, 0.2525, 0.0625, 0.315, 0.1275, 0.3775, 0.19, 0, 0.2525, 0.0625, 0.315, 0.1275, 0.3775, 0.19, 0, 0.2525, 0.0625, 0.315, 0.1275, 0.3775, 0.19, 0, 0.2525, 0.0625, 0.315, 0.1275, 0.3775, 0.19],
  "SoftwareVersions": "syngo MR E11",
  "SpacingBetweenSlices": 2.7,
  "StationName": "AWP66112",
  "TaskName": "social",
  "TotalReadoutTime": 0.03969,
  "TxRefAmp": 249.268,
  "WipMemBlock": "9cb728c5-45c6-4a10-aa84-0c1b85d27a9a||Sequence: R016 ve11c/master r/e634e98; Dec 19 2017 11:00:25 by eja",
  "dcmmeta_affine": [
    [-2.682192087173462, -0.05993086099624634, 0.018858062103390694, 113.81466674804688],
    [-0.05747181922197342, 2.665602922439575, 0.3008238971233368, -88.9755630493164],
    [0.025295091792941093, -0.2984384000301361, 2.6831231117248535, -26.83510971069336],
    [0.0, 0.0, 0.0, 1.0]
],
  "dcmmeta_reorient_transform": [
    [0.0, -1.0, 0.0, 81.0],
    [1.0, 0.0, 0.0, 0.0],
    [0.0, 0.0, 1.0, 0.0],
    [0.0, 0.0, 0.0, 1.0]
],
  "dcmmeta_shape": [82, 82, 56, 872],
  "dcmmeta_slice_dim": 2,
  "dcmmeta_version": 0.6,
  "global": {
    "const": {
      "AccessionNumber": "A003734",
      "AcquisitionMatrix": [82, 0, 0, 82],
      "AngioFlag": "N",
      "BitsAllocated": 16,
      "BitsStored": 16,
      "BodyPartExamined": "BRAIN",
      "Columns": 656,
      "EchoNumbers": 1,
      "EchoTime": 27.2,
      "EchoTrainLength": 82,
      "FlipAngle": 44.0,
      "HighBit": 15,
      "ImageOrientationPatient": [0.99972608095419, 0.02142131342802, 0.00942817007718, -0.0223378662715, 0.99354292529729, 0.11123612417802],
      "ImagePositionPatient": [-861.54920985678, -908.46076576669, -143.92012758827],
      "ImageType": [
        "ORIGINAL",
        "PRIMARY",
        "M",
        "MB",
        "ND",
        "NORM",
        "MOSAIC"
],
      "ImagedNucleus": "1H",
      "ImagingFrequency": 123.252123,
      "InPlanePhaseEncodingDirection": "COL",
      "MRAcquisitionType": "2D",
      "MagneticFieldStrength": 3.0,
      "Manufacturer": "SIEMENS",
      "ManufacturerModelName": "Prisma",
      "Modality": "MR",
      "NumberOfAverages": 1.0,
      "NumberOfPhaseEncodingSteps": 82,
      "PercentPhaseFieldOfView": 100.0,
      "PercentSampling": 100.0,
      "PerformedProcedureStepStartTime": "113657.376000",
      "PhotometricInterpretation": "MONOCHROME2",
      "PixelBandwidth": 3050.0,
      "PixelRepresentation": 0,
      "PixelSpacing": [2.6829268932343, 2.6829268932343],
      "ProtocolName": "func_run-03_task-social_acq-ap-mb8",
      "RepetitionTime": 460.0,
      "Rows": 656,
      "SAR": 0.11242791766607,
      "SamplesPerPixel": 1,
      "ScanOptions": "FS",
      "ScanningSequence": "EP",
      "SequenceName": "epfid2d1_82",
      "SequenceVariant": [
        "SK",
        "SS"
],
      "SeriesDescription": "func_run-03_task-social_acq-ap-mb8",
      "SeriesNumber": 16,
      "SeriesTime": "133859.981000",
      "SliceLocation": -35.785760062889,
      "SliceThickness": 2.7000000476837,
      "SmallestImagePixelValue": 0,
      "SoftwareVersions": "syngo MR E11",
      "SpacingBetweenSlices": 2.6999999554222,
      "SpecificCharacterSet": "ISO_IR 100",
      "StudyID": "1",
      "StudyTime": "113657.305000",
      "TransmitCoilName": "Body",
      "VariableFlipAngleFlag": "N",
      "WindowCenterWidthExplanation": "Algo1",
      "dBdt": 0.0},
    "slices": {}
  },
  "time": {
    "samples": {
      "AcquisitionNumber": [1, 2, 3, 4, 5, 6, 7, 8, 9, 10, 11, 12, 13, 14, 15, 16, 17, 18, 19, 20, 21, 22, 23, 24, 25, 26, 27, 28, 29, 30, 31, 32, 33, 34, 35, 36, 37, 38, 39, 40, 41, 42, 43, 44, 45, 46, 47, 48, 49, 50, 51, 52, 53, 54, 55, 56, 57, 58, 59, 60, 61, 62, 63, 64, 65, 66, 67, 68, 69, 70, 71, 72, 73, 74, 75, 76, 77, 78, 79, 80, 81, 82, 83, 84, 85, 86, 87, 88, 89, 90, 91, 92, 93, 94, 95, 96, 97, 98, 99, 100, 101, 102, 103, 104, 105, 106, 107, 108, 109, 110, 111, 112, 113, 114, 115, 116, 117, 118, 119, 120, 121, 122, 123, 124, 125, 126, 127, 128, 129, 130, 131, 132, 133, 134, 135, 136, 137, 138, 139, 140, 141, 142, 143, 144, 145, 146, 147, 148, 149, 150, 151, 152, 153, 154, 155, 156, 157, 158, 159, 160, 161, 162, 163, 164, 165, 166, 167, 168, 169, 170, 171, 172, 173, 174, 175, 176, 177, 178, 179, 180, 181, 182, 183, 184, 185, 186, 187, 188, 189, 190, 191, 192, 193, 194, 195, 196, 197, 198, 199, 200, 201, 202, 203, 204, 205, 206, 207, 208, 209, 210, 211, 212, 213, 214, 215, 216, 217, 218, 219, 220, 221, 222, 223, 224, 225, 226, 227, 228, 229, 230, 231, 232, 233, 234, 235, 236, 237, 238, 239, 240, 241, 242, 243, 244, 245, 246, 247, 248, 249, 250, 251, 252, 253, 254, 255, 256, 257, 258, 259, 260, 261, 262, 263, 264, 265, 266, 267, 268, 269, 270, 271, 272, 273, 274, 275, 276, 277, 278, 279, 280, 281, 282, 283, 284, 285, 286, 287, 288, 289, 290, 291, 292, 293, 294, 295, 296, 297, 298, 299, 300, 301, 302, 303, 304, 305, 306, 307, 308, 309, 310, 311, 312, 313, 314, 315, 316, 317, 318, 319, 320, 321, 322, 323, 324, 325, 326, 327, 328, 329, 330, 331, 332, 333, 334, 335, 336, 337, 338, 339, 340, 341, 342, 343, 344, 345, 346, 347, 348, 349, 350, 351, 352, 353, 354, 355, 356, 357, 358, 359, 360, 361, 362, 363, 364, 365, 366, 367, 368, 369, 370, 371, 372, 373, 374, 375, 376, 377, 378, 379, 380, 381, 382, 383, 384, 385, 386, 387, 388, 389, 390, 391, 392, 393, 394, 395, 396, 397, 398, 399, 400, 401, 402, 403, 404, 405, 406, 407, 408, 409, 410, 411, 412, 413, 414, 415, 416, 417, 418, 419, 420, 421, 422, 423, 424, 425, 426, 427, 428, 429, 430, 431, 432, 433, 434, 435, 436, 437, 438, 439, 440, 441, 442, 443, 444, 445, 446, 447, 448, 449, 450, 451, 452, 453, 454, 455, 456, 457, 458, 459, 460, 461, 462, 463, 464, 465, 466, 467, 468, 469, 470, 471, 472, 473, 474, 475, 476, 477, 478, 479, 480, 481, 482, 483, 484, 485, 486, 487, 488, 489, 490, 491, 492, 493, 494, 495, 496, 497, 498, 499, 500, 501, 502, 503, 504, 505, 506, 507, 508, 509, 510, 511, 512, 513, 514, 515, 516, 517, 518, 519, 520, 521, 522, 523, 524, 525, 526, 527, 528, 529, 530, 531, 532, 533, 534, 535, 536, 537, 538, 539, 540, 541, 542, 543, 544, 545, 546, 547, 548, 549, 550, 551, 552, 553, 554, 555, 556, 557, 558, 559, 560, 561, 562, 563, 564, 565, 566, 567, 568, 569, 570, 571, 572, 573, 574, 575, 576, 577, 578, 579, 580, 581, 582, 583, 584, 585, 586, 587, 588, 589, 590, 591, 592, 593, 594, 595, 596, 597, 598, 599, 600, 601, 602, 603, 604, 605, 606, 607, 608, 609, 610, 611, 612, 613, 614, 615, 616, 617, 618, 619, 620, 621, 622, 623, 624, 625, 626, 627, 628, 629, 630, 631, 632, 633, 634, 635, 636, 637, 638, 639, 640, 641, 642, 643, 644, 645, 646, 647, 648, 649, 650, 651, 652, 653, 654, 655, 656, 657, 658, 659, 660, 661, 662, 663, 664, 665, 666, 667, 668, 669, 670, 671, 672, 673, 674, 675, 676, 677, 678, 679, 680, 681, 682, 683, 684, 685, 686, 687, 688, 689, 690, 691, 692, 693, 694, 695, 696, 697, 698, 699, 700, 701, 702, 703, 704, 705, 706, 707, 708, 709, 710, 711, 712, 713, 714, 715, 716, 717, 718, 719, 720, 721, 722, 723, 724, 725, 726, 727, 728, 729, 730, 731, 732, 733, 734, 735, 736, 737, 738, 739, 740, 741, 742, 743, 744, 745, 746, 747, 748, 749, 750, 751, 752, 753, 754, 755, 756, 757, 758, 759, 760, 761, 762, 763, 764, 765, 766, 767, 768, 769, 770, 771, 772, 773, 774, 775, 776, 777, 778, 779, 780, 781, 782, 783, 784, 785, 786, 787, 788, 789, 790, 791, 792, 793, 794, 795, 796, 797, 798, 799, 800, 801, 802, 803, 804, 805, 806, 807, 808, 809, 810, 811, 812, 813, 814, 815, 816, 817, 818, 819, 820, 821, 822, 823, 824, 825, 826, 827, 828, 829, 830, 831, 832, 833, 834, 835, 836, 837, 838, 839, 840, 841, 842, 843, 844, 845, 846, 847, 848, 849, 850, 851, 852, 853, 854, 855, 856, 857, 858, 859, 860, 861, 862, 863, 864, 865, 866, 867, 868, 869, 870, 871, 872],
      "AcquisitionTime": ["133839.442500", "133839.902500", "133840.362500", "133840.822500", "133841.282500", "133841.742500", "133842.202500", "133842.662500", "133843.122500", "133843.582500", "133844.042500", "133844.502500", "133844.962500", "133845.422500", "133845.882500", "133846.342500", "133846.802500", "133847.262500", "133847.722500", "133848.182500", "133848.642500", "133849.102500", "133849.562500", "133850.022500", "133850.482500", "133850.942500", "133851.402500", "133851.862500", "133852.322500", "133852.782500", "133853.242500", "133853.702500", "133854.162500", "133854.622500", "133855.082500", "133855.542500", "133856.002500", "133856.462500", "133856.922500", "133857.382500", "133857.842500", "133858.302500", "133858.762500", "133859.222500", "133859.682500", "133900.142500", "133900.602500", "133901.062500", "133901.522500", "133901.982500", "133902.442500", "133902.902500", "133903.362500", "133903.822500", "133904.282500", "133904.742500", "133905.202500", "133905.662500", "133906.122500", "133906.582500", "133907.042500", "133907.502500", "133907.962500", "133908.422500", "133908.882500", "133909.342500", "133909.802500", "133910.262500", "133910.722500", "133911.182500", "133911.642500", "133912.102500", "133912.562500", "133913.022500", "133913.482500", "133913.942500", "133914.402500", "133914.862500", "133915.322500", "133915.782500", "133916.242500", "133916.702500", "133917.162500", "133917.622500", "133918.082500", "133918.542500", "133919.002500", "133919.462500", "133919.922500", "133920.382500", "133920.842500", "133921.302500", "133921.762500", "133922.222500", "133922.682500", "133923.142500", "133923.602500", "133924.062500", "133924.522500", "133924.982500", "133925.442500", "133925.902500", "133926.362500", "133926.822500", "133927.282500", "133927.742500", "133928.202500", "133928.662500", "133929.122500", "133929.582500", "133930.042500", "133930.502500", "133930.962500", "133931.422500", "133931.882500", "133932.342500", "133932.802500", "133933.262500", "133933.722500", "133934.182500", "133934.642500", "133935.102500", "133935.562500", "133936.022500", "133936.482500", "133936.942500", "133937.402500", "133937.862500", "133938.322500", "133938.782500", "133939.242500", "133939.702500", "133940.162500", "133940.622500", "133941.082500", "133941.542500", "133942.002500", "133942.462500", "133942.922500", "133943.382500", "133943.842500", "133944.302500", "133944.762500", "133945.222500", "133945.682500", "133946.142500", "133946.602500", "133947.062500", "133947.522500", "133947.982500", "133948.442500", "133948.902500", "133949.362500", "133949.822500", "133950.282500", "133950.742500", "133951.202500", "133951.662500", "133952.122500", "133952.582500", "133953.042500", "133953.502500", "133953.962500", "133954.422500", "133954.882500", "133955.342500", "133955.802500", "133956.262500", "133956.722500", "133957.182500", "133957.642500", "133958.102500", "133958.562500", "133959.022500", "133959.482500", "133959.942500", "134000.402500", "134000.862500", "134001.322500", "134001.782500", "134002.242500", "134002.702500", "134003.162500", "134003.622500", "134004.082500", "134004.542500", "134005.002500", "134005.462500", "134005.922500", "134006.382500", "134006.842500", "134007.302500", "134007.762500", "134008.222500", "134008.682500", "134009.142500", "134009.602500", "134010.062500", "134010.522500", "134010.982500", "134011.442500", "134011.902500", "134012.362500", "134012.822500", "134013.282500", "134013.742500", "134014.202500", "134014.662500", "134015.122500", "134015.582500", "134016.042500", "134016.502500", "134016.962500", "134017.422500", "134017.882500", "134018.342500", "134018.802500", "134019.262500", "134019.722500", "134020.182500", "134020.642500", "134021.102500", "134021.562500", "134022.022500", "134022.482500", "134022.942500", "134023.402500", "134023.862500", "134024.322500", "134024.782500", "134025.242500", "134025.702500", "134026.162500", "134026.622500", "134027.082500", "134027.542500", "134028.002500", "134028.462500", "134028.922500", "134029.382500", "134029.842500", "134030.302500", "134030.762500", "134031.222500", "134031.682500", "134032.142500", "134032.602500", "134033.062500", "134033.522500", "134033.982500", "134034.442500", "134034.902500", "134035.362500", "134035.822500", "134036.282500", "134036.742500", "134037.202500", "134037.662500", "134038.122500", "134038.582500", "134039.042500", "134039.502500", "134039.962500", "134040.422500", "134040.882500", "134041.342500", "134041.802500", "134042.262500", "134042.722500", "134043.182500", "134043.642500", "134044.102500", "134044.562500", "134045.022500", "134045.482500", "134045.942500", "134046.402500", "134046.862500", "134047.322500", "134047.782500", "134048.242500", "134048.702500", "134049.162500", "134049.622500", "134050.082500", "134050.542500", "134051.002500", "134051.462500", "134051.922500", "134052.382500", "134052.842500", "134053.302500", "134053.762500", "134054.222500", "134054.682500", "134055.142500", "134055.602500", "134056.062500", "134056.522500", "134056.982500", "134057.442500", "134057.902500", "134058.362500", "134058.822500", "134059.282500", "134059.742500", "134100.202500", "134100.662500", "134101.122500", "134101.582500", "134102.042500", "134102.502500", "134102.962500", "134103.422500", "134103.882500", "134104.342500", "134104.802500", "134105.262500", "134105.722500", "134106.182500", "134106.642500", "134107.102500", "134107.562500", "134108.022500", "134108.482500", "134108.942500", "134109.402500", "134109.862500", "134110.322500", "134110.782500", "134111.242500", "134111.702500", "134112.162500", "134112.622500", "134113.082500", "134113.542500", "134114.002500", "134114.462500", "134114.922500", "134115.382500", "134115.842500", "134116.302500", "134116.762500", "134117.222500", "134117.682500", "134118.142500", "134118.602500", "134119.062500", "134119.522500", "134119.982500", "134120.442500", "134120.902500", "134121.362500", "134121.822500", "134122.282500", "134122.742500", "134123.202500", "134123.662500", "134124.122500", "134124.582500", "134125.042500", "134125.502500", "134125.962500", "134126.422500", "134126.882500", "134127.342500", "134127.802500", "134128.262500", "134128.722500", "134129.182500", "134129.642500", "134130.102500", "134130.562500", "134131.022500", "134131.482500", "134131.942500", "134132.402500", "134132.862500", "134133.322500", "134133.782500", "134134.242500", "134134.702500", "134135.162500", "134135.622500", "134136.082500", "134136.542500", "134137.002500", "134137.462500", "134137.922500", "134138.382500", "134138.842500", "134139.302500", "134139.762500", "134140.222500", "134140.682500", "134141.142500", "134141.602500", "134142.062500", "134142.522500", "134142.982500", "134143.442500", "134143.902500", "134144.362500", "134144.822500", "134145.282500", "134145.742500", "134146.202500", "134146.662500", "134147.122500", "134147.582500", "134148.042500", "134148.502500", "134148.962500", "134149.422500", "134149.882500", "134150.342500", "134150.802500", "134151.262500", "134151.722500", "134152.182500", "134152.642500", "134153.102500", "134153.562500", "134154.022500", "134154.482500", "134154.942500", "134155.402500", "134155.862500", "134156.322500", "134156.782500", "134157.242500", "134157.702500", "134158.162500", "134158.622500", "134159.082500", "134159.542500", "134200.002500", "134200.462500", "134200.922500", "134201.382500", "134201.842500", "134202.302500", "134202.762500", "134203.222500", "134203.682500", "134204.142500", "134204.602500", "134205.062500", "134205.522500", "134205.982500", "134206.442500", "134206.902500", "134207.362500", "134207.822500", "134208.282500", "134208.742500", "134209.202500", "134209.662500", "134210.122500", "134210.582500", "134211.042500", "134211.502500", "134211.962500", "134212.422500", "134212.882500", "134213.342500", "134213.802500", "134214.262500", "134214.722500", "134215.182500", "134215.642500", "134216.102500", "134216.562500", "134217.022500", "134217.482500", "134217.942500", "134218.402500", "134218.862500", "134219.322500", "134219.782500", "134220.242500", "134220.702500", "134221.162500", "134221.622500", "134222.082500", "134222.542500", "134223.002500", "134223.462500", "134223.922500", "134224.382500", "134224.842500", "134225.302500", "134225.762500", "134226.222500", "134226.682500", "134227.142500", "134227.602500", "134228.062500", "134228.522500", "134228.982500", "134229.442500", "134229.902500", "134230.362500", "134230.822500", "134231.282500", "134231.742500", "134232.202500", "134232.662500", "134233.122500", "134233.582500", "134234.042500", "134234.502500", "134234.962500", "134235.422500", "134235.882500", "134236.342500", "134236.802500", "134237.262500", "134237.722500", "134238.182500", "134238.642500", "134239.102500", "134239.562500", "134240.022500", "134240.482500", "134240.942500", "134241.402500", "134241.862500", "134242.322500", "134242.782500", "134243.242500", "134243.702500", "134244.162500", "134244.622500", "134245.082500", "134245.542500", "134246.002500", "134246.462500", "134246.922500", "134247.382500", "134247.842500", "134248.302500", "134248.762500", "134249.222500", "134249.682500", "134250.142500", "134250.602500", "134251.062500", "134251.522500", "134251.982500", "134252.442500", "134252.902500", "134253.362500", "134253.822500", "134254.282500", "134254.742500", "134255.202500", "134255.662500", "134256.122500", "134256.582500", "134257.042500", "134257.502500", "134257.962500", "134258.422500", "134258.882500", "134259.342500", "134259.802500", "134300.262500", "134300.722500", "134301.182500", "134301.642500", "134302.102500", "134302.562500", "134303.022500", "134303.482500", "134303.942500", "134304.402500", "134304.862500", "134305.322500", "134305.782500", "134306.242500", "134306.702500", "134307.162500", "134307.622500", "134308.082500", "134308.542500", "134309.002500", "134309.462500", "134309.922500", "134310.382500", "134310.842500", "134311.302500", "134311.762500", "134312.222500", "134312.682500", "134313.142500", "134313.602500", "134314.062500", "134314.522500", "134314.982500", "134315.442500", "134315.902500", "134316.362500", "134316.822500", "134317.282500", "134317.742500", "134318.202500", "134318.662500", "134319.122500", "134319.582500", "134320.042500", "134320.502500", "134320.962500", "134321.422500", "134321.882500", "134322.342500", "134322.802500", "134323.262500", "134323.722500", "134324.182500", "134324.642500", "134325.102500", "134325.562500", "134326.022500", "134326.482500", "134326.942500", "134327.402500", "134327.862500", "134328.322500", "134328.782500", "134329.242500", "134329.702500", "134330.162500", "134330.622500", "134331.082500", "134331.542500", "134332.002500", "134332.462500", "134332.922500", "134333.382500", "134333.842500", "134334.302500", "134334.762500", "134335.222500", "134335.682500", "134336.142500", "134336.602500", "134337.062500", "134337.522500", "134337.982500", "134338.442500", "134338.902500", "134339.362500", "134339.822500", "134340.282500", "134340.742500", "134341.202500", "134341.662500", "134342.122500", "134342.582500", "134343.042500", "134343.502500", "134343.962500", "134344.422500", "134344.882500", "134345.342500", "134345.802500", "134346.262500", "134346.722500", "134347.182500", "134347.642500", "134348.102500", "134348.562500", "134349.022500", "134349.482500", "134349.942500", "134350.402500", "134350.862500", "134351.322500", "134351.782500", "134352.242500", "134352.702500", "134353.162500", "134353.622500", "134354.082500", "134354.542500", "134355.002500", "134355.462500", "134355.922500", "134356.382500", "134356.842500", "134357.302500", "134357.762500", "134358.222500", "134358.682500", "134359.142500", "134359.602500", "134400.062500", "134400.522500", "134400.982500", "134401.442500", "134401.902500", "134402.362500", "134402.822500", "134403.282500", "134403.742500", "134404.202500", "134404.662500", "134405.122500", "134405.582500", "134406.042500", "134406.502500", "134406.962500", "134407.422500", "134407.882500", "134408.342500", "134408.802500", "134409.262500", "134409.722500", "134410.182500", "134410.642500", "134411.102500", "134411.562500", "134412.022500", "134412.482500", "134412.942500", "134413.402500", "134413.862500", "134414.322500", "134414.782500", "134415.242500", "134415.702500", "134416.162500", "134416.622500", "134417.082500", "134417.542500", "134418.002500", "134418.462500", "134418.922500", "134419.382500", "134419.842500", "134420.302500", "134420.762500", "134421.222500", "134421.682500", "134422.142500", "134422.602500", "134423.062500", "134423.522500", "134423.982500", "134424.442500", "134424.902500", "134425.362500", "134425.822500", "134426.282500", "134426.742500", "134427.202500", "134427.662500", "134428.122500", "134428.582500", "134429.042500", "134429.502500", "134429.962500", "134430.422500", "134430.882500", "134431.342500", "134431.802500", "134432.262500", "134432.722500", "134433.182500", "134433.642500", "134434.102500", "134434.562500", "134435.022500", "134435.482500", "134435.942500", "134436.402500", "134436.862500", "134437.322500", "134437.782500", "134438.242500", "134438.702500", "134439.162500", "134439.622500", "134440.082500", "134440.542500", "134441.002500", "134441.462500", "134441.922500", "134442.382500", "134442.842500", "134443.302500", "134443.762500", "134444.222500", "134444.682500", "134445.142500", "134445.602500", "134446.062500", "134446.522500", "134446.982500", "134447.442500", "134447.902500", "134448.362500", "134448.822500", "134449.282500", "134449.742500", "134450.202500", "134450.662500", "134451.122500", "134451.582500", "134452.042500", "134452.502500", "134452.962500", "134453.422500", "134453.882500", "134454.342500", "134454.802500", "134455.262500", "134455.722500", "134456.182500", "134456.642500", "134457.102500", "134457.562500", "134458.022500", "134458.482500", "134458.942500", "134459.402500", "134459.862500", "134500.322500", "134500.782500", "134501.242500", "134501.702500", "134502.162500", "134502.622500", "134503.082500", "134503.542500", "134504.002500", "134504.462500", "134504.922500", "134505.382500", "134505.842500", "134506.302500", "134506.762500", "134507.222500", "134507.682500", "134508.142500", "134508.602500", "134509.062500", "134509.522500", "134509.982500", "134510.442500", "134510.902500", "134511.362500", "134511.822500", "134512.282500", "134512.742500", "134513.202500", "134513.662500", "134514.122500", "134514.582500", "134515.042500", "134515.502500", "134515.962500", "134516.422500", "134516.882500", "134517.342500", "134517.802500", "134518.262500", "134518.722500", "134519.182500", "134519.642500", "134520.102500"],
