{
  "AcquisitionMatrixPE": 82,
  "AcquisitionNumber": 1,
  "AcquisitionTime": "13:31:32.362500",
  "BandwidthPerPixelPhaseEncode": 24.888,
  "BaseResolution": 82,
  "BodyPartExamined": "BRAIN",
  "ConsistencyInfo": "N4_VE11C_LATEST_20160120",
  "ConversionSoftware": "dcm2niix",
  "ConversionSoftwareVersion": "v1.0.20201102",
  "DerivedVendorReportedEchoSpacing": 0.00049,
  "DeviceSerialNumber": "66112",
  "DwellTime": 2e-06,
  "EchoTime": 0.0272,
  "EchoTrainLength": 82,
  "EffectiveEchoSpacing": 0.00049,
  "FlipAngle": 44,
  "ImageComments": "Unaliased MB8/PE3",
  "ImageOrientationPatientDICOM": [0.999726, 0.0214213, 0.00942817, -0.0223379, 0.993543, 0.111236],
  "ImageType": [
    "ORIGINAL",
    "PRIMARY",
    "M",
    "MB",
    "ND",
    "NORM",
    "MOSAIC"
],
  "ImagingFrequency": 123.252,
  "InPlanePhaseEncodingDirectionDICOM": "COL",
  "InstitutionAddress": "Maynard 3,Hanover,NH,US,03755",
  "InstitutionName": "Dartmouth College - PBS",
  "InstitutionalDepartmentName": "Department",
  "MRAcquisitionType": "2D",
  "MagneticFieldStrength": 3,
  "Manufacturer": "Siemens",
  "ManufacturersModelName": "Prisma",
  "Modality": "MR",
  "MultibandAccelerationFactor": 8,
  "PartialFourier": 1,
  "PatientPosition": "HFS",
  "PercentPhaseFOV": 100,
  "PercentSampling": 100,
  "PhaseEncodingDirection": "j-",
  "PhaseEncodingSteps": 82,
  "PhaseResolution": 1,
  "PixelBandwidth": 3050,
  "ProcedureStepDescription": "Wager_Wager^1076_spacetop",
  "ProtocolName": "func_run-02_task-social_acq-ap-mb8",
  "PulseSequenceDetails": "%CustomerSeq%\\cmrr_mbep2d_bold",
  "ReceiveCoilActiveElements": "HEA;HEP",
  "ReceiveCoilName": "Head_32",
  "ReconMatrixPE": 82,
  "RepetitionTime": 0.46,
  "SAR": 0.112428,
  "ScanOptions": "FS",
  "ScanningSequence": "EP",
  "SequenceName": "epfid2d1_82",
  "SequenceVariant": "SK\\SS",
  "SeriesDescription": "func_run-02_task-social_acq-ap-mb8",
  "SeriesNumber": 14,
  "ShimSetting": [4148, -7766, -7203, 613, -41, -175, 43, 53],
  "SliceThickness": 2.7,
  "SliceTiming": [0, 0.2525, 0.0625, 0.315, 0.1275, 0.3775, 0.19, 0, 0.2525, 0.0625, 0.315, 0.1275, 0.3775, 0.19, 0, 0.2525, 0.0625, 0.315, 0.1275, 0.3775, 0.19, 0, 0.2525, 0.0625, 0.315, 0.1275, 0.3775, 0.19, 0, 0.2525, 0.0625, 0.315, 0.1275, 0.3775, 0.19, 0, 0.2525, 0.0625, 0.315, 0.1275, 0.3775, 0.19, 0, 0.2525, 0.0625, 0.315, 0.1275, 0.3775, 0.19, 0, 0.2525, 0.0625, 0.315, 0.1275, 0.3775, 0.19],
  "SoftwareVersions": "syngo MR E11",
  "SpacingBetweenSlices": 2.7,
  "StationName": "AWP66112",
  "TaskName": "social",
  "TotalReadoutTime": 0.03969,
  "TxRefAmp": 249.268,
  "WipMemBlock": "dbec4168-897a-40d6-9ce7-9403d6cde6e3||Sequence: R016 ve11c/master r/e634e98; Dec 19 2017 11:00:25 by eja",
  "dcmmeta_affine": [
    [-2.682192087173462, -0.05993086099624634, 0.018858062103390694, 113.81466674804688],
    [-0.05747181922197342, 2.665602922439575, 0.3008238971233368, -88.9755630493164],
    [0.025295091792941093, -0.2984384000301361, 2.6831231117248535, -26.83510971069336],
    [0.0, 0.0, 0.0, 1.0]
],
  "dcmmeta_reorient_transform": [
    [0.0, -1.0, 0.0, 81.0],
    [1.0, 0.0, 0.0, 0.0],
    [0.0, 0.0, 1.0, 0.0],
    [0.0, 0.0, 0.0, 1.0]
],
  "dcmmeta_shape": [82, 82, 56, 872],
  "dcmmeta_slice_dim": 2,
  "dcmmeta_version": 0.6,
  "global": {
    "const": {
      "AccessionNumber": "A003734",
      "AcquisitionMatrix": [82, 0, 0, 82],
      "AngioFlag": "N",
      "BitsAllocated": 16,
      "BitsStored": 16,
      "BodyPartExamined": "BRAIN",
      "Columns": 656,
      "EchoNumbers": 1,
      "EchoTime": 27.2,
      "EchoTrainLength": 82,
      "FlipAngle": 44.0,
      "HighBit": 15,
      "ImageOrientationPatient": [0.99972608095419, 0.02142131342802, 0.00942817007718, -0.0223378662715, 0.99354292529729, 0.11123612417802],
      "ImagePositionPatient": [-861.54920985678, -908.46076576669, -143.92012758827],
      "ImageType": [
        "ORIGINAL",
        "PRIMARY",
        "M",
        "MB",
        "ND",
        "NORM",
        "MOSAIC"
],
      "ImagedNucleus": "1H",
      "ImagingFrequency": 123.252121,
      "InPlanePhaseEncodingDirection": "COL",
      "MRAcquisitionType": "2D",
      "MagneticFieldStrength": 3.0,
      "Manufacturer": "SIEMENS",
      "ManufacturerModelName": "Prisma",
      "Modality": "MR",
      "NumberOfAverages": 1.0,
      "NumberOfPhaseEncodingSteps": 82,
      "PercentPhaseFieldOfView": 100.0,
      "PercentSampling": 100.0,
      "PerformedProcedureStepStartTime": "113657.376000",
      "PhotometricInterpretation": "MONOCHROME2",
      "PixelBandwidth": 3050.0,
      "PixelRepresentation": 0,
      "PixelSpacing": [2.6829268932343, 2.6829268932343],
      "ProtocolName": "func_run-02_task-social_acq-ap-mb8",
      "RepetitionTime": 460.0,
      "Rows": 656,
      "SAR": 0.11242791766607,
      "SamplesPerPixel": 1,
      "ScanOptions": "FS",
      "ScanningSequence": "EP",
      "SequenceName": "epfid2d1_82",
      "SequenceVariant": [
        "SK",
        "SS"
],
      "SeriesDescription": "func_run-02_task-social_acq-ap-mb8",
      "SeriesNumber": 14,
      "SeriesTime": "133159.912000",
      "SliceLocation": -35.785760062889,
      "SliceThickness": 2.7000000476837,
      "SmallestImagePixelValue": 0,
      "SoftwareVersions": "syngo MR E11",
      "SpacingBetweenSlices": 2.6999999554222,
      "SpecificCharacterSet": "ISO_IR 100",
      "StudyID": "1",
      "StudyTime": "113657.305000",
      "TransmitCoilName": "Body",
      "VariableFlipAngleFlag": "N",
      "WindowCenterWidthExplanation": "Algo1",
      "dBdt": 0.0},
    "slices": {}
  },
  "time": {
    "samples": {
      "AcquisitionNumber": [1, 2, 3, 4, 5, 6, 7, 8, 9, 10, 11, 12, 13, 14, 15, 16, 17, 18, 19, 20, 21, 22, 23, 24, 25, 26, 27, 28, 29, 30, 31, 32, 33, 34, 35, 36, 37, 38, 39, 40, 41, 42, 43, 44, 45, 46, 47, 48, 49, 50, 51, 52, 53, 54, 55, 56, 57, 58, 59, 60, 61, 62, 63, 64, 65, 66, 67, 68, 69, 70, 71, 72, 73, 74, 75, 76, 77, 78, 79, 80, 81, 82, 83, 84, 85, 86, 87, 88, 89, 90, 91, 92, 93, 94, 95, 96, 97, 98, 99, 100, 101, 102, 103, 104, 105, 106, 107, 108, 109, 110, 111, 112, 113, 114, 115, 116, 117, 118, 119, 120, 121, 122, 123, 124, 125, 126, 127, 128, 129, 130, 131, 132, 133, 134, 135, 136, 137, 138, 139, 140, 141, 142, 143, 144, 145, 146, 147, 148, 149, 150, 151, 152, 153, 154, 155, 156, 157, 158, 159, 160, 161, 162, 163, 164, 165, 166, 167, 168, 169, 170, 171, 172, 173, 174, 175, 176, 177, 178, 179, 180, 181, 182, 183, 184, 185, 186, 187, 188, 189, 190, 191, 192, 193, 194, 195, 196, 197, 198, 199, 200, 201, 202, 203, 204, 205, 206, 207, 208, 209, 210, 211, 212, 213, 214, 215, 216, 217, 218, 219, 220, 221, 222, 223, 224, 225, 226, 227, 228, 229, 230, 231, 232, 233, 234, 235, 236, 237, 238, 239, 240, 241, 242, 243, 244, 245, 246, 247, 248, 249, 250, 251, 252, 253, 254, 255, 256, 257, 258, 259, 260, 261, 262, 263, 264, 265, 266, 267, 268, 269, 270, 271, 272, 273, 274, 275, 276, 277, 278, 279, 280, 281, 282, 283, 284, 285, 286, 287, 288, 289, 290, 291, 292, 293, 294, 295, 296, 297, 298, 299, 300, 301, 302, 303, 304, 305, 306, 307, 308, 309, 310, 311, 312, 313, 314, 315, 316, 317, 318, 319, 320, 321, 322, 323, 324, 325, 326, 327, 328, 329, 330, 331, 332, 333, 334, 335, 336, 337, 338, 339, 340, 341, 342, 343, 344, 345, 346, 347, 348, 349, 350, 351, 352, 353, 354, 355, 356, 357, 358, 359, 360, 361, 362, 363, 364, 365, 366, 367, 368, 369, 370, 371, 372, 373, 374, 375, 376, 377, 378, 379, 380, 381, 382, 383, 384, 385, 386, 387, 388, 389, 390, 391, 392, 393, 394, 395, 396, 397, 398, 399, 400, 401, 402, 403, 404, 405, 406, 407, 408, 409, 410, 411, 412, 413, 414, 415, 416, 417, 418, 419, 420, 421, 422, 423, 424, 425, 426, 427, 428, 429, 430, 431, 432, 433, 434, 435, 436, 437, 438, 439, 440, 441, 442, 443, 444, 445, 446, 447, 448, 449, 450, 451, 452, 453, 454, 455, 456, 457, 458, 459, 460, 461, 462, 463, 464, 465, 466, 467, 468, 469, 470, 471, 472, 473, 474, 475, 476, 477, 478, 479, 480, 481, 482, 483, 484, 485, 486, 487, 488, 489, 490, 491, 492, 493, 494, 495, 496, 497, 498, 499, 500, 501, 502, 503, 504, 505, 506, 507, 508, 509, 510, 511, 512, 513, 514, 515, 516, 517, 518, 519, 520, 521, 522, 523, 524, 525, 526, 527, 528, 529, 530, 531, 532, 533, 534, 535, 536, 537, 538, 539, 540, 541, 542, 543, 544, 545, 546, 547, 548, 549, 550, 551, 552, 553, 554, 555, 556, 557, 558, 559, 560, 561, 562, 563, 564, 565, 566, 567, 568, 569, 570, 571, 572, 573, 574, 575, 576, 577, 578, 579, 580, 581, 582, 583, 584, 585, 586, 587, 588, 589, 590, 591, 592, 593, 594, 595, 596, 597, 598, 599, 600, 601, 602, 603, 604, 605, 606, 607, 608, 609, 610, 611, 612, 613, 614, 615, 616, 617, 618, 619, 620, 621, 622, 623, 624, 625, 626, 627, 628, 629, 630, 631, 632, 633, 634, 635, 636, 637, 638, 639, 640, 641, 642, 643, 644, 645, 646, 647, 648, 649, 650, 651, 652, 653, 654, 655, 656, 657, 658, 659, 660, 661, 662, 663, 664, 665, 666, 667, 668, 669, 670, 671, 672, 673, 674, 675, 676, 677, 678, 679, 680, 681, 682, 683, 684, 685, 686, 687, 688, 689, 690, 691, 692, 693, 694, 695, 696, 697, 698, 699, 700, 701, 702, 703, 704, 705, 706, 707, 708, 709, 710, 711, 712, 713, 714, 715, 716, 717, 718, 719, 720, 721, 722, 723, 724, 725, 726, 727, 728, 729, 730, 731, 732, 733, 734, 735, 736, 737, 738, 739, 740, 741, 742, 743, 744, 745, 746, 747, 748, 749, 750, 751, 752, 753, 754, 755, 756, 757, 758, 759, 760, 761, 762, 763, 764, 765, 766, 767, 768, 769, 770, 771, 772, 773, 774, 775, 776, 777, 778, 779, 780, 781, 782, 783, 784, 785, 786, 787, 788, 789, 790, 791, 792, 793, 794, 795, 796, 797, 798, 799, 800, 801, 802, 803, 804, 805, 806, 807, 808, 809, 810, 811, 812, 813, 814, 815, 816, 817, 818, 819, 820, 821, 822, 823, 824, 825, 826, 827, 828, 829, 830, 831, 832, 833, 834, 835, 836, 837, 838, 839, 840, 841, 842, 843, 844, 845, 846, 847, 848, 849, 850, 851, 852, 853, 854, 855, 856, 857, 858, 859, 860, 861, 862, 863, 864, 865, 866, 867, 868, 869, 870, 871, 872],
      "AcquisitionTime": ["133132.362500", "133132.822500", "133133.282500", "133133.742500", "133134.202500", "133134.662500", "133135.122500", "133135.582500", "133136.042500", "133136.502500", "133136.962500", "133137.422500", "133137.882500", "133138.342500", "133138.802500", "133139.262500", "133139.722500", "133140.182500", "133140.642500", "133141.102500", "133141.562500", "133142.022500", "133142.482500", "133142.942500", "133143.402500", "133143.862500", "133144.322500", "133144.782500", "133145.242500", "133145.702500", "133146.162500", "133146.622500", "133147.082500", "133147.542500", "133148.002500", "133148.462500", "133148.922500", "133149.382500", "133149.842500", "133150.302500", "133150.762500", "133151.222500", "133151.682500", "133152.142500", "133152.602500", "133153.062500", "133153.522500", "133153.982500", "133154.442500", "133154.902500", "133155.362500", "133155.822500", "133156.282500", "133156.742500", "133157.202500", "133157.662500", "133158.122500", "133158.582500", "133159.042500", "133159.502500", "133159.962500", "133200.422500", "133200.882500", "133201.342500", "133201.802500", "133202.262500", "133202.722500", "133203.182500", "133203.642500", "133204.102500", "133204.562500", "133205.022500", "133205.482500", "133205.942500", "133206.402500", "133206.862500", "133207.322500", "133207.782500", "133208.242500", "133208.702500", "133209.162500", "133209.622500", "133210.082500", "133210.542500", "133211.002500", "133211.462500", "133211.922500", "133212.382500", "133212.842500", "133213.302500", "133213.762500", "133214.222500", "133214.682500", "133215.142500", "133215.602500", "133216.062500", "133216.522500", "133216.982500", "133217.442500", "133217.902500", "133218.362500", "133218.822500", "133219.282500", "133219.742500", "133220.202500", "133220.662500", "133221.122500", "133221.582500", "133222.042500", "133222.502500", "133222.962500", "133223.422500", "133223.882500", "133224.342500", "133224.802500", "133225.262500", "133225.722500", "133226.182500", "133226.642500", "133227.102500", "133227.562500", "133228.022500", "133228.482500", "133228.942500", "133229.402500", "133229.862500", "133230.322500", "133230.782500", "133231.242500", "133231.702500", "133232.162500", "133232.622500", "133233.082500", "133233.542500", "133234.002500", "133234.462500", "133234.922500", "133235.382500", "133235.842500", "133236.302500", "133236.762500", "133237.222500", "133237.682500", "133238.142500", "133238.602500", "133239.062500", "133239.522500", "133239.982500", "133240.442500", "133240.902500", "133241.362500", "133241.822500", "133242.282500", "133242.742500", "133243.202500", "133243.662500", "133244.122500", "133244.582500", "133245.042500", "133245.502500", "133245.962500", "133246.422500", "133246.882500", "133247.342500", "133247.802500", "133248.262500", "133248.722500", "133249.182500", "133249.642500", "133250.102500", "133250.562500", "133251.022500", "133251.482500", "133251.942500", "133252.402500", "133252.862500", "133253.322500", "133253.782500", "133254.242500", "133254.702500", "133255.162500", "133255.622500", "133256.082500", "133256.542500", "133257.002500", "133257.462500", "133257.922500", "133258.382500", "133258.842500", "133259.302500", "133259.762500", "133300.222500", "133300.682500", "133301.142500", "133301.602500", "133302.062500", "133302.522500", "133302.982500", "133303.442500", "133303.902500", "133304.362500", "133304.822500", "133305.282500", "133305.742500", "133306.202500", "133306.662500", "133307.122500", "133307.582500", "133308.042500", "133308.502500", "133308.962500", "133309.422500", "133309.882500", "133310.342500", "133310.802500", "133311.262500", "133311.722500", "133312.182500", "133312.642500", "133313.102500", "133313.562500", "133314.022500", "133314.482500", "133314.942500", "133315.402500", "133315.862500", "133316.322500", "133316.782500", "133317.242500", "133317.702500", "133318.162500", "133318.622500", "133319.082500", "133319.542500", "133320.002500", "133320.462500", "133320.922500", "133321.382500", "133321.842500", "133322.302500", "133322.762500", "133323.222500", "133323.682500", "133324.142500", "133324.602500", "133325.062500", "133325.522500", "133325.982500", "133326.442500", "133326.902500", "133327.362500", "133327.822500", "133328.282500", "133328.742500", "133329.202500", "133329.662500", "133330.122500", "133330.582500", "133331.042500", "133331.502500", "133331.962500", "133332.422500", "133332.882500", "133333.342500", "133333.802500", "133334.262500", "133334.722500", "133335.182500", "133335.642500", "133336.102500", "133336.562500", "133337.022500", "133337.482500", "133337.942500", "133338.402500", "133338.862500", "133339.322500", "133339.782500", "133340.242500", "133340.702500", "133341.162500", "133341.622500", "133342.082500", "133342.542500", "133343.002500", "133343.462500", "133343.922500", "133344.382500", "133344.842500", "133345.302500", "133345.762500", "133346.222500", "133346.682500", "133347.142500", "133347.602500", "133348.062500", "133348.522500", "133348.982500", "133349.442500", "133349.902500", "133350.362500", "133350.822500", "133351.282500", "133351.742500", "133352.202500", "133352.662500", "133353.122500", "133353.582500", "133354.042500", "133354.502500", "133354.962500", "133355.422500", "133355.882500", "133356.342500", "133356.802500", "133357.262500", "133357.722500", "133358.182500", "133358.642500", "133359.102500", "133359.562500", "133400.022500", "133400.482500", "133400.942500", "133401.402500", "133401.862500", "133402.322500", "133402.782500", "133403.242500", "133403.702500", "133404.162500", "133404.622500", "133405.082500", "133405.542500", "133406.002500", "133406.462500", "133406.922500", "133407.382500", "133407.842500", "133408.302500", "133408.762500", "133409.222500", "133409.682500", "133410.142500", "133410.602500", "133411.062500", "133411.522500", "133411.982500", "133412.442500", "133412.902500", "133413.362500", "133413.822500", "133414.282500", "133414.742500", "133415.202500", "133415.662500", "133416.122500", "133416.582500", "133417.042500", "133417.502500", "133417.962500", "133418.422500", "133418.882500", "133419.342500", "133419.802500", "133420.262500", "133420.722500", "133421.182500", "133421.642500", "133422.102500", "133422.562500", "133423.022500", "133423.482500", "133423.942500", "133424.402500", "133424.862500", "133425.322500", "133425.782500", "133426.242500", "133426.702500", "133427.162500", "133427.622500", "133428.082500", "133428.542500", "133429.002500", "133429.462500", "133429.922500", "133430.382500", "133430.842500", "133431.302500", "133431.762500", "133432.222500", "133432.682500", "133433.142500", "133433.602500", "133434.062500", "133434.522500", "133434.982500", "133435.442500", "133435.902500", "133436.362500", "133436.822500", "133437.282500", "133437.742500", "133438.202500", "133438.662500", "133439.122500", "133439.582500", "133440.042500", "133440.502500", "133440.962500", "133441.422500", "133441.882500", "133442.342500", "133442.802500", "133443.262500", "133443.722500", "133444.182500", "133444.642500", "133445.102500", "133445.562500", "133446.022500", "133446.482500", "133446.942500", "133447.402500", "133447.862500", "133448.322500", "133448.782500", "133449.242500", "133449.702500", "133450.162500", "133450.622500", "133451.082500", "133451.542500", "133452.002500", "133452.462500", "133452.922500", "133453.382500", "133453.842500", "133454.302500", "133454.762500", "133455.222500", "133455.682500", "133456.142500", "133456.602500", "133457.062500", "133457.522500", "133457.982500", "133458.442500", "133458.902500", "133459.362500", "133459.822500", "133500.282500", "133500.742500", "133501.202500", "133501.662500", "133502.122500", "133502.582500", "133503.042500", "133503.502500", "133503.962500", "133504.422500", "133504.882500", "133505.342500", "133505.802500", "133506.262500", "133506.722500", "133507.182500", "133507.642500", "133508.102500", "133508.562500", "133509.022500", "133509.482500", "133509.942500", "133510.402500", "133510.862500", "133511.322500", "133511.782500", "133512.242500", "133512.702500", "133513.162500", "133513.622500", "133514.082500", "133514.542500", "133515.002500", "133515.462500", "133515.922500", "133516.382500", "133516.842500", "133517.302500", "133517.762500", "133518.222500", "133518.682500", "133519.142500", "133519.602500", "133520.062500", "133520.522500", "133520.982500", "133521.442500", "133521.902500", "133522.362500", "133522.822500", "133523.282500", "133523.742500", "133524.202500", "133524.662500", "133525.122500", "133525.582500", "133526.042500", "133526.502500", "133526.962500", "133527.422500", "133527.882500", "133528.342500", "133528.802500", "133529.262500", "133529.722500", "133530.182500", "133530.642500", "133531.102500", "133531.562500", "133532.022500", "133532.482500", "133532.942500", "133533.402500", "133533.862500", "133534.322500", "133534.782500", "133535.242500", "133535.702500", "133536.162500", "133536.622500", "133537.082500", "133537.542500", "133538.002500", "133538.462500", "133538.922500", "133539.382500", "133539.842500", "133540.302500", "133540.762500", "133541.222500", "133541.682500", "133542.142500", "133542.602500", "133543.062500", "133543.522500", "133543.982500", "133544.442500", "133544.902500", "133545.362500", "133545.822500", "133546.282500", "133546.742500", "133547.202500", "133547.662500", "133548.122500", "133548.582500", "133549.042500", "133549.502500", "133549.962500", "133550.422500", "133550.882500", "133551.342500", "133551.802500", "133552.262500", "133552.722500", "133553.182500", "133553.642500", "133554.102500", "133554.562500", "133555.022500", "133555.482500", "133555.942500", "133556.402500", "133556.862500", "133557.322500", "133557.782500", "133558.242500", "133558.702500", "133559.162500", "133559.622500", "133600.082500", "133600.542500", "133601.002500", "133601.462500", "133601.922500", "133602.382500", "133602.842500", "133603.302500", "133603.762500", "133604.222500", "133604.682500", "133605.142500", "133605.602500", "133606.062500", "133606.522500", "133606.982500", "133607.442500", "133607.902500", "133608.362500", "133608.822500", "133609.282500", "133609.742500", "133610.202500", "133610.662500", "133611.122500", "133611.582500", "133612.042500", "133612.502500", "133612.962500", "133613.422500", "133613.882500", "133614.342500", "133614.802500", "133615.262500", "133615.722500", "133616.182500", "133616.642500", "133617.102500", "133617.562500", "133618.022500", "133618.482500", "133618.942500", "133619.402500", "133619.862500", "133620.322500", "133620.782500", "133621.242500", "133621.702500", "133622.162500", "133622.622500", "133623.082500", "133623.542500", "133624.002500", "133624.462500", "133624.922500", "133625.382500", "133625.842500", "133626.302500", "133626.762500", "133627.222500", "133627.682500", "133628.142500", "133628.602500", "133629.062500", "133629.522500", "133629.982500", "133630.442500", "133630.902500", "133631.362500", "133631.822500", "133632.282500", "133632.742500", "133633.202500", "133633.662500", "133634.122500", "133634.582500", "133635.042500", "133635.502500", "133635.962500", "133636.422500", "133636.882500", "133637.342500", "133637.802500", "133638.262500", "133638.722500", "133639.182500", "133639.642500", "133640.102500", "133640.562500", "133641.022500", "133641.482500", "133641.942500", "133642.402500", "133642.862500", "133643.322500", "133643.782500", "133644.242500", "133644.702500", "133645.162500", "133645.622500", "133646.082500", "133646.542500", "133647.002500", "133647.462500", "133647.922500", "133648.382500", "133648.842500", "133649.302500", "133649.762500", "133650.222500", "133650.682500", "133651.142500", "133651.602500", "133652.062500", "133652.522500", "133652.982500", "133653.442500", "133653.902500", "133654.362500", "133654.822500", "133655.282500", "133655.742500", "133656.202500", "133656.662500", "133657.122500", "133657.582500", "133658.042500", "133658.502500", "133658.962500", "133659.422500", "133659.882500", "133700.342500", "133700.802500", "133701.262500", "133701.722500", "133702.182500", "133702.642500", "133703.102500", "133703.562500", "133704.022500", "133704.482500", "133704.942500", "133705.402500", "133705.862500", "133706.322500", "133706.782500", "133707.242500", "133707.702500", "133708.162500", "133708.622500", "133709.082500", "133709.542500", "133710.002500", "133710.462500", "133710.922500", "133711.382500", "133711.842500", "133712.302500", "133712.762500", "133713.222500", "133713.682500", "133714.142500", "133714.602500", "133715.062500", "133715.522500", "133715.982500", "133716.442500", "133716.902500", "133717.362500", "133717.822500", "133718.282500", "133718.742500", "133719.202500", "133719.662500", "133720.122500", "133720.582500", "133721.042500", "133721.502500", "133721.962500", "133722.422500", "133722.882500", "133723.342500", "133723.802500", "133724.262500", "133724.722500", "133725.182500", "133725.642500", "133726.102500", "133726.562500", "133727.022500", "133727.482500", "133727.942500", "133728.402500", "133728.862500", "133729.322500", "133729.782500", "133730.242500", "133730.702500", "133731.162500", "133731.622500", "133732.082500", "133732.542500", "133733.002500", "133733.462500", "133733.922500", "133734.382500", "133734.842500", "133735.302500", "133735.762500", "133736.222500", "133736.682500", "133737.142500", "133737.602500", "133738.062500", "133738.522500", "133738.982500", "133739.442500", "133739.902500", "133740.362500", "133740.822500", "133741.282500", "133741.742500", "133742.202500", "133742.662500", "133743.122500", "133743.582500", "133744.042500", "133744.502500", "133744.962500", "133745.422500", "133745.882500", "133746.342500", "133746.802500", "133747.262500", "133747.722500", "133748.182500", "133748.642500", "133749.102500", "133749.562500", "133750.022500", "133750.482500", "133750.942500", "133751.402500", "133751.862500", "133752.322500", "133752.782500", "133753.242500", "133753.702500", "133754.162500", "133754.622500", "133755.082500", "133755.542500", "133756.002500", "133756.462500", "133756.922500", "133757.382500", "133757.842500", "133758.302500", "133758.762500", "133759.222500", "133759.682500", "133800.142500", "133800.602500", "133801.062500", "133801.522500", "133801.982500", "133802.442500", "133802.902500", "133803.362500", "133803.822500", "133804.282500", "133804.742500", "133805.202500", "133805.662500", "133806.122500", "133806.582500", "133807.042500", "133807.502500", "133807.962500", "133808.422500", "133808.882500", "133809.342500", "133809.802500", "133810.262500", "133810.722500", "133811.182500", "133811.642500", "133812.102500", "133812.562500", "133813.022500"],
