{
  "AcquisitionMatrixPE": 140,
  "AcquisitionNumber": 1,
  "AcquisitionTime": "13:15:12.315000",
  "BandwidthPerPixelPhaseEncode": 10.352,
  "BaseResolution": 140,
  "BodyPartExamined": "BRAIN",
  "ConsistencyInfo": "N4_VE11E_LATEST_20181129",
  "ConversionSoftware": "dcm2niix",
  "ConversionSoftwareVersion": "v1.0.20201102",
  "DerivedVendorReportedEchoSpacing": 0.000689998,
  "DeviceSerialNumber": "66112",
  "DiffusionScheme": "Monopolar",
  "DwellTime": 2.1e-06,
  "EchoTime": 0.088,
  "EchoTrainLength": 105,
  "EffectiveEchoSpacing": 0.000689998,
  "FlipAngle": 90,
  "ImageComments": "Unaliased MB3/PE3",
  "ImageOrientationPatientDICOM": [0.995874, 0.0902327, 0.0096207, -0.0892299, 0.993024, -0.0770801],
  "ImageType": [
    "ORIGINAL",
    "PRIMARY",
    "DIFFUSION",
    "NONE",
    "MB",
    "ND"
],
  "ImagingFrequency": 123.259,
  "InPlanePhaseEncodingDirectionDICOM": "COL",
  "InstitutionAddress": "Maynard 3,Hanover,NH,US,03755",
  "InstitutionName": "Dartmouth College - PBS",
  "InstitutionalDepartmentName": "Department",
  "IntendedFor": [
    "ses-01/dwi/sub-0119_ses-01_acq-96dirX6b0Xmb_dwi.nii.gz"
],
  "MRAcquisitionType": "2D",
  "MagneticFieldStrength": 3,
  "Manufacturer": "Siemens",
  "ManufacturersModelName": "Prisma",
  "Modality": "MR",
  "MultibandAccelerationFactor": 3,
  "PartialFourier": 0.75,
  "PatientPosition": "HFS",
  "PercentPhaseFOV": 100,
  "PercentSampling": 100,
  "PhaseEncodingDirection": "j",
  "PhaseEncodingSteps": 105,
  "PhaseResolution": 1,
  "PixelBandwidth": 1700,
  "ProcedureStepDescription": "Wager_Wager^1076_spacetop",
  "ProtocolName": "dwi_acq-discorr-PA",
  "PulseSequenceDetails": "%CustomerSeq%\\cmrr_mbep2d_diff",
  "ReceiveCoilActiveElements": "HEA;HEP",
  "ReceiveCoilName": "Head_32",
  "ReconMatrixPE": 140,
  "RepetitionTime": 4.1,
  "SAR": 0.135669,
  "ScanOptions": "PFP\\FS",
  "ScanningSequence": "EP",
  "SequenceName": "ep_b0",
  "SequenceVariant": "SK\\SS",
  "SeriesDescription": "dwi_acq-discorr-PA",
  "SeriesNumber": 6,
  "ShimSetting": [4219, -7721, -7258, 276, -196, 1, -13, 124],
  "SliceThickness": 1.7,
  "SliceTiming": [0, 2.125, 0.15625, 2.26562, 0.3125, 2.42188, 0.45312, 2.57812, 0.60938, 2.71875, 0.75, 2.875, 0.90625, 3.03125, 1.0625, 3.17188, 1.21875, 3.32812, 1.35938, 3.48438, 1.51562, 3.625, 1.67188, 3.78125, 1.8125, 3.9375, 1.96875, 0, 2.125, 0.15625, 2.26562, 0.3125, 2.42188, 0.45312, 2.57812, 0.60938, 2.71875, 0.75, 2.875, 0.90625, 3.03125, 1.0625, 3.17188, 1.21875, 3.32812, 1.35938, 3.48438, 1.51562, 3.625, 1.67188, 3.78125, 1.8125, 3.9375, 1.96875, 0, 2.125, 0.15625, 2.26562, 0.3125, 2.42188, 0.45312, 2.57812, 0.60938, 2.71875, 0.75, 2.875, 0.90625, 3.03125, 1.0625, 3.17188, 1.21875, 3.32812, 1.35938, 3.48438, 1.51562, 3.625, 1.67188, 3.78125, 1.8125, 3.9375, 1.96875],
  "SoftwareVersions": "syngo MR E11",
  "SpacingBetweenSlices": 1.7,
  "StationName": "AWP66112",
  "TotalReadoutTime": 0.0959097,
  "TxRefAmp": 228.948,
  "WipMemBlock": "a9794792-cde6-4577-be21-e25f435fec6b||Sequence: R016 ve11e/master r/434b28f1; Aug  7 2019 19:06:17 by eja",
  "dcmmeta_affine": [
    [-1.707213044166565, -0.1529654562473297, 0.028064846992492676, 128.38397216796875],
    [-0.15468469262123108, 1.7023268938064575, -0.12903642654418945, -90.30906677246094],
    [0.016492631286382675, 0.13213735818862915, 1.6948623657226562, -94.1817626953125],
    [0.0, 0.0, 0.0, 1.0]
],
  "dcmmeta_reorient_transform": [
    [0.0, -1.0, 0.0, 139.0],
    [1.0, 0.0, 0.0, 0.0],
    [0.0, 0.0, -1.0, 80.0],
    [0.0, 0.0, 0.0, 1.0]
],
  "dcmmeta_shape": [140, 140, 81],
  "dcmmeta_slice_dim": 2,
  "dcmmeta_version": 0.6,
  "global": {
    "const": {
      "AccessionNumber": "A004527",
      "AcquisitionMatrix": [140, 0, 0, 140],
      "AcquisitionNumber": 1,
      "AngioFlag": "N",
      "BitsAllocated": 16,
      "BitsStored": 16,
      "BodyPartExamined": "BRAIN",
      "Columns": 140,
      "EchoNumbers": 1,
      "EchoTime": 88.0,
      "EchoTrainLength": 105,
      "FlipAngle": 90.0,
      "HighBit": 15,
      "ImageOrientationPatient": [0.99587423684565, 0.09023273516416, 0.00962070121664, -0.0892298491013, 0.99302401218874, -0.0770801222491],
      "ImageType": [
        "ORIGINAL",
        "PRIMARY",
        "DIFFUSION",
        "NONE",
        "MB",
        "ND"
],
      "ImagedNucleus": "1H",
      "ImagingFrequency": 123.259109,
      "InPlanePhaseEncodingDirection": "COL",
      "MRAcquisitionType": "2D",
      "MagneticFieldStrength": 3.0,
      "Manufacturer": "SIEMENS",
      "ManufacturerModelName": "Prisma",
      "Modality": "MR",
      "NumberOfAverages": 1.0,
      "NumberOfPhaseEncodingSteps": 105,
      "PercentPhaseFieldOfView": 100.0,
      "PercentSampling": 100.0,
      "PerformedProcedureStepStartTime": "125042.586000",
      "PhotometricInterpretation": "MONOCHROME2",
      "PixelBandwidth": 1700.0,
      "PixelRepresentation": 0,
      "PixelSpacing": [1.7142857313156, 1.7142857313156],
      "ProtocolName": "dwi_acq-discorr-PA",
      "RepetitionTime": 4100.0,
      "Rows": 140,
      "SAR": 0.13566920333653,
      "SamplesPerPixel": 1,
      "ScanOptions": [
        "PFP",
        "FS"
],
      "ScanningSequence": "EP",
      "SequenceName": "ep_b0",
      "SequenceVariant": [
        "SK",
        "SS"
],
      "SeriesDescription": "dwi_acq-discorr-PA",
      "SeriesNumber": 6,
      "SeriesTime": "131517.051000",
      "SliceThickness": 1.7000000476837,
      "SmallestImagePixelValue": 0,
      "SoftwareVersions": "syngo MR E11",
      "SpacingBetweenSlices": 1.7,
      "SpecificCharacterSet": "ISO_IR 100",
      "StudyID": "1",
      "StudyTime": "125042.500000",
      "TransmitCoilName": "Body",
      "VariableFlipAngleFlag": "N",
      "WindowCenterWidthExplanation": "Algo1"
    },
    "slices": {
      "AcquisitionTime": ["131512.315000", "131514.430000", "131512.467500", "131514.582500", "131512.617500", "131514.732500", "131512.770000", "131514.885000", "131512.920000", "131515.035000", "131513.070000", "131515.187500", "131513.222500", "131515.337500", "131513.372500", "131515.490000", "131513.525000", "131515.640000", "131513.675000", "131515.790000", "131513.827500", "131515.942500", "131513.977500", "131516.092500", "131514.130000", "131516.245000", "131514.280000", "131512.315000", "131514.430000", "131512.467500", "131514.582500", "131512.617500", "131514.732500", "131512.770000", "131514.885000", "131512.920000", "131515.035000", "131513.070000", "131515.187500", "131513.222500", "131515.337500", "131513.372500", "131515.490000", "131513.525000", "131515.640000", "131513.675000", "131515.790000", "131513.827500", "131515.942500", "131513.977500", "131516.092500", "131514.130000", "131516.245000", "131514.280000", "131512.315000", "131514.430000", "131512.467500", "131514.582500", "131512.617500", "131514.732500", "131512.770000", "131514.885000", "131512.920000", "131515.035000", "131513.070000", "131515.187500", "131513.222500", "131515.337500", "131513.372500", "131515.490000", "131513.525000", "131515.640000", "131513.675000", "131515.790000", "131513.827500", "131515.942500", "131513.977500", "131516.092500", "131514.130000", "131516.245000", "131514.280000"],
      "ContentTime": ["131517.053000", "131517.140000", "131517.063000", "131517.146000", "131517.069000", "131517.159000", "131517.075000", "131517.166000", "131517.081000", "131517.173000", "131517.087000", "131517.179000", "131517.093000", "131517.186000", "131517.099000", "131517.192000", "131517.105000", "131517.199000", "131517.111000", "131517.206000", "131517.117000", "131517.212000", "131517.122000", "131517.219000", "131517.128000", "131517.225000", "131517.134000", "131517.056000", "131517.142000", "131517.065000", "131517.148000", "131517.071000", "131517.161000", "131517.077000", "131517.168000", "131517.083000", "131517.175000", "131517.089000", "131517.181000", "131517.095000", "131517.188000", "131517.101000", "131517.195000", "131517.107000", "131517.201000", "131517.113000", "131517.208000", "131517.118000", "131517.215000", "131517.124000", "131517.221000", "131517.130000", "131517.227000", "131517.136000", "131517.061000", "131517.144000", "131517.067000", "131517.157000", "131517.073000", "131517.163000", "131517.079000", "131517.171000", "131517.085000", "131517.177000", "131517.091000", "131517.183000", "131517.097000", "131517.190000", "131517.103000", "131517.197000", "131517.109000", "131517.203000", "131517.115000", "131517.210000", "131517.120000", "131517.217000", "131517.126000", "131517.223000", "131517.132000", "131517.229000", "131517.138000"],
      "CsaImage.GSWDDataType": [
        "predicted",
        "predicted",
        "predicted",
        "predicted",
        "predicted",
        "predicted",
        "predicted",
        "predicted",
        "predicted",
        "predicted",
        "predicted",
        "predicted",
        "predicted",
        "predicted",
        "predicted",
        "predicted",
        "predicted",
        "predicted",
        "predicted",
        "predicted",
        "predicted",
        "predicted",
        "predicted",
        "measured",
        "predicted",
        "measured",
        "predicted",
        "predicted",
        "predicted",
        "predicted",
        "predicted",
        "predicted",
        "predicted",
        "predicted",
        "predicted",
        "predicted",
        "predicted",
        "predicted",
        "predicted",
        "predicted",
        "predicted",
        "predicted",
        "predicted",
        "predicted",
        "predicted",
        "predicted",
        "predicted",
        "predicted",
        "predicted",
        "predicted",
        "measured",
        "predicted",
        "measured",
        "predicted",
        "predicted",
        "predicted",
        "predicted",
        "predicted",
        "predicted",
        "predicted",
        "predicted",
        "predicted",
        "predicted",
        "predicted",
        "predicted",
        "predicted",
        "predicted",
        "predicted",
        "predicted",
        "predicted",
        "predicted",
        "predicted",
        "predicted",
        "predicted",
        "predicted",
        "predicted",
        "predicted",
        "measured",
        "predicted",
        "measured",
        "predicted"
],
      "CsaImage.ICE_Dims": [
        "X_1_1_1_1_1_1_1_1_1_1_1_92",
        "X_1_1_1_1_1_1_42_1_1_2_1_92",
        "X_1_1_1_1_1_1_2_1_1_3_1_92",
        "X_1_1_1_1_1_1_43_1_1_4_1_92",
        "X_1_1_1_1_1_1_3_1_1_5_1_92",
        "X_1_1_1_1_1_1_44_1_1_6_1_92",
        "X_1_1_1_1_1_1_4_1_1_7_1_92",
        "X_1_1_1_1_1_1_45_1_1_8_1_92",
        "X_1_1_1_1_1_1_5_1_1_9_1_92",
        "X_1_1_1_1_1_1_46_1_1_10_1_92",
        "X_1_1_1_1_1_1_6_1_1_11_1_92",
        "X_1_1_1_1_1_1_47_1_1_12_1_92",
        "X_1_1_1_1_1_1_7_1_1_13_1_92",
        "X_1_1_1_1_1_1_48_1_1_14_1_92",
        "X_1_1_1_1_1_1_8_1_1_15_1_92",
        "X_1_1_1_1_1_1_49_1_1_16_1_92",
        "X_1_1_1_1_1_1_9_1_1_17_1_92",
        "X_1_1_1_1_1_1_50_1_1_18_1_92",
        "X_1_1_1_1_1_1_10_1_1_19_1_92",
        "X_1_1_1_1_1_1_51_1_1_20_1_92",
        "X_1_1_1_1_1_1_11_1_1_21_1_92",
        "X_1_1_1_1_1_1_52_1_1_22_1_92",
        "X_1_1_1_1_1_1_12_1_1_23_1_92",
        "X_1_1_1_1_1_1_53_1_1_24_1_92",
        "X_1_1_1_1_1_1_13_1_1_25_1_92",
        "X_1_1_1_1_1_1_54_1_1_26_1_92",
        "X_1_1_1_1_1_1_14_1_1_27_1_92",
        "X_1_1_1_1_1_1_55_1_1_28_1_92",
        "X_1_1_1_1_1_1_15_1_1_29_1_92",
        "X_1_1_1_1_1_1_56_1_1_30_1_92",
        "X_1_1_1_1_1_1_16_1_1_31_1_92",
        "X_1_1_1_1_1_1_57_1_1_32_1_92",
        "X_1_1_1_1_1_1_17_1_1_33_1_92",
        "X_1_1_1_1_1_1_58_1_1_34_1_92",
        "X_1_1_1_1_1_1_18_1_1_35_1_92",
        "X_1_1_1_1_1_1_59_1_1_36_1_92",
        "X_1_1_1_1_1_1_19_1_1_37_1_92",
        "X_1_1_1_1_1_1_60_1_1_38_1_92",
        "X_1_1_1_1_1_1_20_1_1_39_1_92",
        "X_1_1_1_1_1_1_61_1_1_40_1_92",
        "X_1_1_1_1_1_1_21_1_1_41_1_92",
        "X_1_1_1_1_1_1_62_1_1_42_1_92",
        "X_1_1_1_1_1_1_22_1_1_43_1_92",
        "X_1_1_1_1_1_1_63_1_1_44_1_92",
        "X_1_1_1_1_1_1_23_1_1_45_1_92",
        "X_1_1_1_1_1_1_64_1_1_46_1_92",
        "X_1_1_1_1_1_1_24_1_1_47_1_92",
        "X_1_1_1_1_1_1_65_1_1_48_1_92",
        "X_1_1_1_1_1_1_25_1_1_49_1_92",
        "X_1_1_1_1_1_1_66_1_1_50_1_92",
        "X_1_1_1_1_1_1_26_1_1_51_1_92",
        "X_1_1_1_1_1_1_67_1_1_52_1_92",
        "X_1_1_1_1_1_1_27_1_1_53_1_92",
        "X_1_1_1_1_1_1_68_1_1_54_1_92",
        "X_1_1_1_1_1_1_28_1_1_55_1_92",
        "X_1_1_1_1_1_1_69_1_1_56_1_92",
        "X_1_1_1_1_1_1_29_1_1_57_1_92",
        "X_1_1_1_1_1_1_70_1_1_58_1_92",
        "X_1_1_1_1_1_1_30_1_1_59_1_92",
        "X_1_1_1_1_1_1_71_1_1_60_1_92",
        "X_1_1_1_1_1_1_31_1_1_61_1_92",
        "X_1_1_1_1_1_1_72_1_1_62_1_92",
        "X_1_1_1_1_1_1_32_1_1_63_1_92",
        "X_1_1_1_1_1_1_73_1_1_64_1_92",
        "X_1_1_1_1_1_1_33_1_1_65_1_92",
        "X_1_1_1_1_1_1_74_1_1_66_1_92",
        "X_1_1_1_1_1_1_34_1_1_67_1_92",
        "X_1_1_1_1_1_1_75_1_1_68_1_92",
        "X_1_1_1_1_1_1_35_1_1_69_1_92",
        "X_1_1_1_1_1_1_76_1_1_70_1_92",
        "X_1_1_1_1_1_1_36_1_1_71_1_92",
        "X_1_1_1_1_1_1_77_1_1_72_1_92",
        "X_1_1_1_1_1_1_37_1_1_73_1_92",
        "X_1_1_1_1_1_1_78_1_1_74_1_92",
        "X_1_1_1_1_1_1_38_1_1_75_1_92",
        "X_1_1_1_1_1_1_79_1_1_76_1_92",
        "X_1_1_1_1_1_1_39_1_1_77_1_92",
        "X_1_1_1_1_1_1_80_1_1_78_1_92",
        "X_1_1_1_1_1_1_40_1_1_79_1_92",
        "X_1_1_1_1_1_1_81_1_1_80_1_92",
        "X_1_1_1_1_1_1_41_1_1_81_1_92"
],
      "CsaImage.ProtocolSliceNumber": [0, 1, 2, 3, 4, 5, 6, 7, 8, 9, 10, 11, 12, 13, 14, 15, 16, 17, 18, 19, 20, 21, 22, 23, 24, 25, 26, 27, 28, 29, 30, 31, 32, 33, 34, 35, 36, 37, 38, 39, 40, 41, 42, 43, 44, 45, 46, 47, 48, 49, 50, 51, 52, 53, 54, 55, 56, 57, 58, 59, 60, 61, 62, 63, 64, 65, 66, 67, 68, 69, 70, 71, 72, 73, 74, 75, 76, 77, 78, 79, 80],
      "CsaImage.RFSWDDataType": [
        "predicted",
        "predicted",
        "predicted",
        "predicted",
        "predicted",
        "predicted",
        "predicted",
        "predicted",
        "predicted",
        "predicted",
        "predicted",
        "predicted",
        "predicted",
        "predicted",
        "predicted",
        "predicted",
        "predicted",
        "predicted",
        "predicted",
        "predicted",
        "predicted",
        "predicted",
        "predicted",
        "measured",
        "predicted",
        "measured",
        "predicted",
        "predicted",
        "predicted",
        "predicted",
        "predicted",
        "predicted",
        "predicted",
        "predicted",
        "predicted",
        "predicted",
        "predicted",
        "predicted",
        "predicted",
        "predicted",
        "predicted",
        "predicted",
        "predicted",
        "predicted",
        "predicted",
        "predicted",
        "predicted",
        "predicted",
        "predicted",
        "predicted",
        "measured",
        "predicted",
        "measured",
        "predicted",
        "predicted",
        "predicted",
        "predicted",
        "predicted",
        "predicted",
        "predicted",
        "predicted",
        "predicted",
        "predicted",
        "predicted",
        "predicted",
        "predicted",
        "predicted",
        "predicted",
        "predicted",
        "predicted",
        "predicted",
        "predicted",
        "predicted",
        "predicted",
        "predicted",
        "predicted",
        "predicted",
        "measured",
        "predicted",
        "measured",
        "predicted"
],
      "CsaImage.SlicePosition_PCS": [
        [-107.12177775, -146.31435452, -75.81475099],
        [-107.14984259, -146.18531857, -74.11988862],
        [-107.17790744, -146.05628262, -72.42502626],
        [-107.20597229, -145.92724572, -70.73016389],
        [-107.23403713, -145.79820977, -69.03530152],
        [-107.26210198, -145.66917382, -67.34043153],
        [-107.29016683, -145.54013787, -65.64556916],
        [-107.31823167, -145.41110097, -63.9507068],
        [-107.34629652, -145.28206502, -62.25584443],
        [-107.37436137, -145.15302907, -60.56098207],
        [-107.40242622, -145.02399312, -58.8661197],
        [-107.43049106, -144.89495621, -57.17125734],
        [-107.45855591, -144.76592026, -55.47639115],
        [-107.48662076, -144.63688432, -53.78152879],
        [-107.5146856, -144.50784741, -52.08666261],
        [-107.54275045, -144.37881146, -50.39180024],
        [-107.5708153, -144.24977551, -48.69693788],
        [-107.59888014, -144.12073956, -47.00207551],
        [-107.62694499, -143.99170266, -45.30720933],
        [-107.65500984, -143.86266671, -43.61234697],
        [-107.68307469, -143.73363076, -41.9174846],
        [-107.71113953, -143.60459481, -40.22261842],
        [-107.73920438, -143.47555791, -38.52775605],
        [-107.76726923, -143.34652196, -36.83289369],
        [-107.79533407, -143.21748601, -35.13803132],
        [-107.82339898, -143.08845006, -33.44316514],
        [-107.85146383, -142.95941315, -31.74830278],
        [-107.87952867, -142.8303772, -30.05344041],
        [-107.90759352, -142.70134125, -28.35857804],
        [-107.93565837, -142.57230435, -26.66371186],
        [-107.96372321, -142.4432684, -24.9688495],
        [-107.99178806, -142.31423245, -23.27398523],
        [-108.01985291, -142.1851965, -21.57912286],
        [-108.04791776, -142.0561596, -19.88425859],
        [-108.0759826, -141.92712365, -18.18939622],
        [-108.10404745, -141.7980877, -16.49453195],
        [-108.1321123, -141.66905175, -14.79966958],
        [-108.16017714, -141.54001485, -13.10480531],
        [-108.18824199, -141.4109789, -11.40994294],
        [-108.21630684, -141.28194295, -9.71507867],
        [-108.24437168, -141.15290604, -8.0202144],
        [-108.27243653, -141.02387009, -6.32535203],
        [-108.30050138, -140.89483414, -4.63048871],
        [-108.32856623, -140.76579819, -2.93562539],
        [-108.35663107, -140.63676129, -1.24076112],
        [-108.38469592, -140.50772534, 0.45410172],
        [-108.41276077, -140.37868939, 2.14896552],
        [-108.44082561, -140.24965344, 3.84382884],
        [-108.46889046, -140.12061654, 5.53869216],
        [-108.49695531, -139.99158059, 7.23355554],
        [-108.52502015, -139.86254464, 8.92841898],
        [-108.55308502, -139.73350774, 10.62328235],
        [-108.58114986, -139.60447179, 12.31814591],
        [-108.60921471, -139.47543584, 14.01300923],
        [-108.63727956, -139.34639989, 15.70787255],
        [-108.6653444, -139.21736298, 17.40273635],
        [-108.69340925, -139.08832703, 19.09759967],
        [-108.72147411, -138.95929108, 20.79246299],
        [-108.74953895, -138.83025513, 22.48732631],
        [-108.7776038, -138.70121823, 24.18218963],
        [-108.80566865, -138.57218228, 25.8770539],
        [-108.8337335, -138.44314633, 27.57191626],
        [-108.86179835, -138.31410943, 29.26678054],
        [-108.8898632, -138.18507348, 30.9616429],
        [-108.91792804, -138.05603753, 32.65650718],
        [-108.94599289, -137.9270011, 34.35136954],
        [-108.97405774, -137.79796515, 36.04623381],
        [-109.00212258, -137.66892873, 37.74109809],
        [-109.03018743, -137.53989278, 39.43596045],
        [-109.05825228, -137.41085635, 41.13082473],
        [-109.08631712, -137.2818204, 42.82568709],
        [-109.11438197, -137.15278397, 44.52054946],
        [-109.14244682, -137.02374802, 46.21541564],
        [-109.17051167, -136.8947116, 47.910278],
        [-109.19857651, -136.76567517, 49.60514037],
        [-109.22664139, -136.63663922, 51.30000274],
        [-109.25470624, -136.50760279, 52.99486892],
        [-109.28277108, -136.37856684, 54.68973128],
        [-109.31083593, -136.24953042, 56.38459365],
        [-109.33890078, -136.12049447, 58.07945983],
        [-109.36696562, -135.99145804, 59.77432219]
],
      "CsaImage.TimeAfterStart": [16.4, 18.515, 16.5525, 18.6675, 16.7025, 18.8175, 16.8525, 18.97, 17.005, 19.12, 17.155, 19.27, 17.3075, 19.4225, 17.4575, 19.5725, 17.61, 19.725, 17.76, 19.875, 17.9125, 20.0275, 18.0625, 20.1775, 18.2125, 20.33, 18.365, 16.4, 18.515, 16.5525, 18.6675, 16.7025, 18.8175, 16.8525, 18.97, 17.005, 19.12, 17.155, 19.27, 17.3075, 19.4225, 17.4575, 19.5725, 17.61, 19.725, 17.76, 19.875, 17.9125, 20.0275, 18.0625, 20.1775, 18.2125, 20.33, 18.365, 16.4, 18.515, 16.5525, 18.6675, 16.7025, 18.8175, 16.8525, 18.97, 17.005, 19.12, 17.155, 19.27, 17.3075, 19.4225, 17.4575, 19.5725, 17.61, 19.725, 17.76, 19.875, 17.9125, 20.0275, 18.0625, 20.1775, 18.2125, 20.33, 18.365],
      "ImagePositionPatient": [
        [-107.12177774536, -146.31435452227, -75.814750987483],
        [-107.14984259235, -146.18531857257, -74.11988862176],
        [-107.17790743935, -146.05628262286, -72.425026256038],
        [-107.20597228634, -145.92724571948, -70.730163890315],
        [-107.23403713333, -145.79820976977, -69.035301524592],
        [-107.26210198032, -145.66917382006, -67.340431529475],
        [-107.29016682732, -145.54013787036, -65.645569163752],
        [-107.31823167431, -145.41110096698, -63.95070679803],
        [-107.3462965213, -145.28206501727, -62.255844432307],
        [-107.37436136829, -145.15302906756, -60.560982066585],
        [-107.40242621529, -145.02399311786, -58.866119700862],
        [-107.43049106228, -144.89495621447, -57.171257335139],
        [-107.45855590927, -144.76592026477, -55.476391154719],
        [-107.48662075626, -144.63688431506, -53.781528788997],
        [-107.51468560326, -144.50784741168, -52.086662608577],
        [-107.54275045025, -144.37881146197, -50.391800242854],
        [-107.57081529724, -144.24977551226, -48.696937877131],
        [-107.59888014423, -144.12073956256, -47.002075511409],
        [-107.62694499123, -143.99170265918, -45.307209330989],
        [-107.65500983822, -143.86266670947, -43.612346965266],
        [-107.68307468521, -143.73363075976, -41.917484599543],
        [-107.7111395322, -143.60459481006, -40.222618419124],
        [-107.7392043792, -143.47555790667, -38.527756053401],
        [-107.76726922619, -143.34652195697, -36.832893687678],
        [-107.79533407318, -143.21748600726, -35.138031321956],
        [-107.82339897978, -143.08845005755, -33.443165141536],
        [-107.85146382677, -142.95941315417, -31.748302775813],
        [-107.87952867376, -142.83037720446, -30.05344041009],
        [-107.90759352076, -142.70134125476, -28.358578044368],
        [-107.93565836775, -142.57230435138, -26.663711863948],
        [-107.96372321474, -142.44326840167, -24.968849498225],
        [-107.99178806173, -142.31423245196, -23.273985225154],
        [-108.01985290873, -142.18519650225, -21.579122859431],
        [-108.04791775572, -142.05615959887, -19.88425858636],
        [-108.07598260271, -141.92712364917, -18.189396220637],
        [-108.1040474497, -141.79808769946, -16.494531947566],
        [-108.1321122967, -141.66905174975, -14.799669581843],
        [-108.16017714369, -141.54001484637, -13.104805308772],
        [-108.18824199068, -141.41097889666, -11.409942943049],
        [-108.21630683767, -141.28194294696, -9.7150786699781],
        [-108.24437168467, -141.15290604358, -8.0202143969068],
        [-108.27243653166, -141.02387009387, -6.3253520311841],
        [-108.30050137865, -140.89483414416, -4.6304887117871],
        [-108.32856622564, -140.76579819445, -2.9356253923902],
        [-108.35663107264, -140.63676129107, -1.2407611193189],
        [-108.38469591963, -140.50772534137, 0.45410172324094],
        [-108.41276076662, -140.37868939166, 2.1489655194751],
        [-108.44082561361, -140.24965344195, 3.843828838872],
        [-108.46889046061, -140.12061653857, 5.538692158269],
        [-108.4969553076, -139.99158058886, 7.2335555372706],
        [-108.52502015459, -139.86254463916, 8.9284189758769],
        [-108.55308501648, -139.73350773578, 10.623282354879],
        [-108.58114986348, -139.60447178607, 12.318145912694],
        [-108.60921471047, -139.47543583636, 14.013009232091],
        [-108.63727955746, -139.34639988665, 15.707872551488],
        [-108.66534440445, -139.21736298327, 17.402736347722],
        [-108.69340925145, -139.08832703357, 19.097599667119],
        [-108.72147410589, -138.95929108386, 20.792462986516],
        [-108.74953895288, -138.83025513415, 22.487326305913],
        [-108.77760379988, -138.70121823077, 24.18218962531],
        [-108.80566864873, -138.57218228106, 25.877053898381],
        [-108.83373349759, -138.44314633136, 27.571916264104],
        [-108.8617983483, -138.31410942797, 29.266780537175],
        [-108.8898631953, -138.18507347827, 30.961642902898],
        [-108.91792804229, -138.05603752856, 32.656507175969],
        [-108.94599288928, -137.92700110202, 34.351369541692],
        [-108.97405773627, -137.79796515231, 36.046233814763],
        [-109.00212258327, -137.66892872577, 37.741098087834],
        [-109.03018743026, -137.53989277606, 39.435960453557],
        [-109.05825227725, -137.41085634951, 41.130824726628],
        [-109.08631712424, -137.28182039981, 42.825687092351],
        [-109.11438197124, -137.15278397326, 44.520549458074],
        [-109.14244681823, -137.02374802356, 46.215415638494],
        [-109.17051166522, -136.89471159701, 47.910278004216],
        [-109.19857651221, -136.76567517047, 49.605140369939],
        [-109.22664138901, -136.63663922076, 51.300002735662],
        [-109.254706236, -136.50760279422, 52.994868916082],
        [-109.28277108299, -136.37856684451, 54.689731281804],
        [-109.31083592999, -136.24953041797, 56.384593647527],
        [-109.33890077698, -136.12049446826, 58.079459827947],
        [-109.36696562397, -135.99145804171, 59.774322193669]
],
      "InstanceCreationTime": ["131517.053000", "131517.140000", "131517.063000", "131517.146000", "131517.069000", "131517.159000", "131517.075000", "131517.166000", "131517.081000", "131517.173000", "131517.087000", "131517.179000", "131517.093000", "131517.186000", "131517.099000", "131517.192000", "131517.105000", "131517.199000", "131517.111000", "131517.206000", "131517.117000", "131517.212000", "131517.122000", "131517.219000", "131517.128000", "131517.225000", "131517.134000", "131517.056000", "131517.142000", "131517.065000", "131517.148000", "131517.071000", "131517.161000", "131517.077000", "131517.168000", "131517.083000", "131517.175000", "131517.089000", "131517.181000", "131517.095000", "131517.188000", "131517.101000", "131517.195000", "131517.107000", "131517.201000", "131517.113000", "131517.208000", "131517.118000", "131517.215000", "131517.124000", "131517.221000", "131517.130000", "131517.227000", "131517.136000", "131517.061000", "131517.144000", "131517.067000", "131517.157000", "131517.073000", "131517.163000", "131517.079000", "131517.171000", "131517.085000", "131517.177000", "131517.091000", "131517.183000", "131517.097000", "131517.190000", "131517.103000", "131517.197000", "131517.109000", "131517.203000", "131517.115000", "131517.210000", "131517.120000", "131517.217000", "131517.126000", "131517.223000", "131517.132000", "131517.229000", "131517.138000"],
      "InstanceNumber": [1, 2, 3, 4, 5, 6, 7, 8, 9, 10, 11, 12, 13, 14, 15, 16, 17, 18, 19, 20, 21, 22, 23, 24, 25, 26, 27, 28, 29, 30, 31, 32, 33, 34, 35, 36, 37, 38, 39, 40, 41, 42, 43, 44, 45, 46, 47, 48, 49, 50, 51, 52, 53, 54, 55, 56, 57, 58, 59, 60, 61, 62, 63, 64, 65, 66, 67, 68, 69, 70, 71, 72, 73, 74, 75, 76, 77, 78, 79, 80, 81],
      "LargestImagePixelValue": [14212, 12948, 17827, 22040, 32938, 33384, 42075, 37706, 38251, 31573, 40870, 40659, 43764, 40487, 36787, 38494, 40115, 34135, 35383, 51128, 62371, 65535, 65535, 65535, 58047, 65535, 60574, 39040, 41517, 53941, 54962, 49345, 46241, 38191, 39839, 42939, 34779, 39561, 31800, 33115, 34775, 40065, 43370, 40925, 35794, 36132, 41061, 46751, 35650, 32846, 32471, 38630, 42435, 37500, 33360, 33627, 38171, 33688, 41829, 40609, 38260, 35337, 33689, 41834, 38216, 35852, 39113, 34134, 33186, 31037, 31979, 27501, 34688, 27566, 25557, 36298, 53212, 25519, 13554, 7591, 7746],
      "SliceLocation": [-84.923024330585, -83.22302540391, -81.523026477235, -79.823027478173, -78.123028551498, -76.42302201848, -74.723023091805, -73.023024092743, -71.323025166068, -69.623026239393, -67.923027312718, -66.223028313655, -64.523025583809, -62.823026657134, -61.1230238549, -59.423024928225, -57.72302600155, -56.023027074875, -54.323024272641, -52.623025345966, -50.923026419291, -49.223023689445, -47.523024690383, -45.823025763707, -44.123026837032, -42.423024106202, -40.72302510714, -39.023026180465, -37.32302725379, -35.623024451556, -33.923025524881, -32.22302469662, -30.523025769945, -28.823024869297, -27.123025942622, -25.423025114361, -23.723026187686, -22.023025287038, -20.323026360363, -18.623025532103, -16.923024631455, -15.223025704779, -13.523025827312, -11.823025949844, -10.123025049196, -8.4230256471243, -6.72302529426, -5.0230254167921, -3.3230254669369, -1.6230255300445, 0.07697446627247, 1.7769744757983, 3.4769745909643, 5.1769744684322, 6.8769743459001, 8.5769747711517, 10.27697464862, 11.97697452621, 13.676974403678, 15.376974353534, 17.076975181825, 18.776974108531, 20.47697500924, 22.176973935915, 23.876974764176, 25.576973727045, 27.276974555305, 28.97697541976, 30.676974346435, 32.376975210889, 34.076974137564, 35.776973100433, 37.476975830279, 39.176974793148, 40.876973756017, 42.576972683184, 44.276975449224, 45.976974375899, 47.676973338768, 49.376976068614, 51.076975031483],
