{
  "AcquisitionMatrixPE": 82,
  "AcquisitionNumber": 1,
  "AcquisitionTime": "12:01:12.917500",
  "BandwidthPerPixelPhaseEncode": 24.888,
  "BaseResolution": 82,
  "BodyPartExamined": "BRAIN",
  "ConsistencyInfo": "N4_VE11E_LATEST_20181129",
  "ConversionSoftware": "dcm2niix",
  "ConversionSoftwareVersion": "v1.0.20201102",
  "DerivedVendorReportedEchoSpacing": 0.00049,
  "DeviceSerialNumber": "66112",
  "DwellTime": 2e-06,
  "EchoTime": 0.0272,
  "EchoTrainLength": 82,
  "EffectiveEchoSpacing": 0.00049,
  "FlipAngle": 44,
  "ImageComments": "Unaliased MB8/PE3",
  "ImageOrientationPatientDICOM": [0.999904, -0.0138036, -0.000989231, 0.0137877, 0.999798, -0.0146031],
  "ImageType": [
    "ORIGINAL",
    "PRIMARY",
    "M",
    "MB",
    "ND",
    "NORM",
    "MOSAIC"
],
  "ImagingFrequency": 123.252,
  "InPlanePhaseEncodingDirectionDICOM": "COL",
  "InstitutionAddress": "Maynard 3,Hanover,NH,US,03755",
  "InstitutionName": "Dartmouth College - PBS",
  "InstitutionalDepartmentName": "Department",
  "MRAcquisitionType": "2D",
  "MagneticFieldStrength": 3,
  "Manufacturer": "Siemens",
  "ManufacturersModelName": "Prisma",
  "Modality": "MR",
  "MultibandAccelerationFactor": 8,
  "PartialFourier": 1,
  "PatientPosition": "HFS",
  "PercentPhaseFOV": 100,
  "PercentSampling": 100,
  "PhaseEncodingDirection": "j-",
  "PhaseEncodingSteps": 82,
  "PhaseResolution": 1,
  "PixelBandwidth": 3050,
  "ProcedureStepDescription": "Wager_Wager^1076_spacetop",
  "ProtocolName": "func_run-01_task-alignvideo_acq-ap-mb8",
  "PulseSequenceDetails": "%CustomerSeq%\\cmrr_mbep2d_bold",
  "ReceiveCoilActiveElements": "HEA;HEP",
  "ReceiveCoilName": "Head_32",
  "ReconMatrixPE": 82,
  "RepetitionTime": 0.46,
  "SAR": 0.107763,
  "ScanOptions": "FS",
  "ScanningSequence": "EP",
  "SequenceName": "epfid2d1_82",
  "SequenceVariant": "SK\\SS",
  "SeriesDescription": "func_run-01_task-alignvideo_acq-ap-mb8",
  "SeriesNumber": 30,
  "ShimSetting": [4142, -7719, -7296, 477, -81, -135, -34, 72],
  "SliceThickness": 2.7,
  "SliceTiming": [0, 0.25, 0.0625, 0.315, 0.125, 0.3775, 0.1875, 0, 0.25, 0.0625, 0.315, 0.125, 0.3775, 0.1875, 0, 0.25, 0.0625, 0.315, 0.125, 0.3775, 0.1875, 0, 0.25, 0.0625, 0.315, 0.125, 0.3775, 0.1875, 0, 0.25, 0.0625, 0.315, 0.125, 0.3775, 0.1875, 0, 0.25, 0.0625, 0.315, 0.125, 0.3775, 0.1875, 0, 0.25, 0.0625, 0.315, 0.125, 0.3775, 0.1875, 0, 0.25, 0.0625, 0.315, 0.125, 0.3775, 0.1875],
  "SoftwareVersions": "syngo MR E11",
  "SpacingBetweenSlices": 2.7,
  "StationName": "AWP66112",
  "TaskName": "alignvideo",
  "TotalReadoutTime": 0.03969,
  "TxRefAmp": 273.474,
  "WipMemBlock": "1b6b30a1-b7a8-4dcd-9fa8-fbde1848080a||Sequence: R016 ve11e/master r/434b28f1; Aug  7 2019 18:53:46 by eja",
  "dcmmeta_affine": [
    [-2.6826698780059814, 0.036991383880376816, -0.003214639611542225, 106.14373779296875],
    [0.03703406825661659, 2.6823856830596924, -0.039387889206409454, -93.43109130859375],
    [-0.002654033713042736, 0.03917916864156723, 2.6997108459472656, -61.61241912841797],
    [0.0, 0.0, 0.0, 1.0]
],
  "dcmmeta_reorient_transform": [
    [0.0, -1.0, 0.0, 81.0],
    [1.0, 0.0, 0.0, 0.0],
    [0.0, 0.0, 1.0, 0.0],
    [0.0, 0.0, 0.0, 1.0]
],
  "dcmmeta_shape": [82, 82, 56, 839],
  "dcmmeta_slice_dim": 2,
  "dcmmeta_version": 0.6,
  "global": {
    "const": {
      "AccessionNumber": "A003941",
      "AcquisitionMatrix": [82, 0, 0, 82],
      "AngioFlag": "N",
      "BitsAllocated": 16,
      "BitsStored": 16,
      "BodyPartExamined": "BRAIN",
      "Columns": 656,
      "EchoNumbers": 1,
      "EchoTime": 27.2,
      "EchoTrainLength": 82,
      "FlipAngle": 44.0,
      "HighBit": 15,
      "ImageOrientationPatient": [0.99990423634621, -0.0138036067536, -0.0009892307632, 0.01378769709403, 0.99979830344657, -0.0146031446681],
      "ImagePositionPatient": [-889.68284479558, -883.0580909365, -46.43277728646],
      "ImageType": [
        "ORIGINAL",
        "PRIMARY",
        "M",
        "MB",
        "ND",
        "NORM",
        "MOSAIC"
],
      "ImagedNucleus": "1H",
      "ImagingFrequency": 123.252177,
      "InPlanePhaseEncodingDirection": "COL",
      "MRAcquisitionType": "2D",
      "MagneticFieldStrength": 3.0,
      "Manufacturer": "SIEMENS",
      "ManufacturerModelName": "Prisma",
      "Modality": "MR",
      "NumberOfAverages": 1.0,
      "NumberOfPhaseEncodingSteps": 82,
      "PercentPhaseFieldOfView": 100.0,
      "PercentSampling": 100.0,
      "PerformedProcedureStepStartTime": "103330.940000",
      "PhotometricInterpretation": "MONOCHROME2",
      "PixelBandwidth": 3050.0,
      "PixelRepresentation": 0,
      "PixelSpacing": [2.6829268932343, 2.6829268932343],
      "ProtocolName": "func_run-01_task-alignvideo_acq-ap-mb8",
      "RepetitionTime": 460.0,
      "Rows": 656,
      "SAR": 0.1077628533728,
      "SamplesPerPixel": 1,
      "ScanOptions": "FS",
      "ScanningSequence": "EP",
      "SequenceName": "epfid2d1_82",
      "SequenceVariant": [
        "SK",
        "SS"
],
      "SeriesDescription": "func_run-01_task-alignvideo_acq-ap-mb8",
      "SeriesNumber": 30,
      "SeriesTime": "120123.741000",
      "SliceLocation": -60.369212178718,
      "SliceThickness": 2.7000000476837,
      "SmallestImagePixelValue": 0,
      "SoftwareVersions": "syngo MR E11",
      "SpacingBetweenSlices": 2.7000000032017,
      "SpecificCharacterSet": "ISO_IR 100",
      "StudyID": "2",
      "StudyTime": "103330.885000",
      "TransmitCoilName": "Body",
      "VariableFlipAngleFlag": "N",
      "WindowCenterWidthExplanation": "Algo1"
    },
    "slices": {}
  },
  "time": {
    "samples": {
      "AcquisitionNumber": [1, 2, 3, 4, 5, 6, 7, 8, 9, 10, 11, 12, 13, 14, 15, 16, 17, 18, 19, 20, 21, 22, 23, 24, 25, 26, 27, 28, 29, 30, 31, 32, 33, 34, 35, 36, 37, 38, 39, 40, 41, 42, 43, 44, 45, 46, 47, 48, 49, 50, 51, 52, 53, 54, 55, 56, 57, 58, 59, 60, 61, 62, 63, 64, 65, 66, 67, 68, 69, 70, 71, 72, 73, 74, 75, 76, 77, 78, 79, 80, 81, 82, 83, 84, 85, 86, 87, 88, 89, 90, 91, 92, 93, 94, 95, 96, 97, 98, 99, 100, 101, 102, 103, 104, 105, 106, 107, 108, 109, 110, 111, 112, 113, 114, 115, 116, 117, 118, 119, 120, 121, 122, 123, 124, 125, 126, 127, 128, 129, 130, 131, 132, 133, 134, 135, 136, 137, 138, 139, 140, 141, 142, 143, 144, 145, 146, 147, 148, 149, 150, 151, 152, 153, 154, 155, 156, 157, 158, 159, 160, 161, 162, 163, 164, 165, 166, 167, 168, 169, 170, 171, 172, 173, 174, 175, 176, 177, 178, 179, 180, 181, 182, 183, 184, 185, 186, 187, 188, 189, 190, 191, 192, 193, 194, 195, 196, 197, 198, 199, 200, 201, 202, 203, 204, 205, 206, 207, 208, 209, 210, 211, 212, 213, 214, 215, 216, 217, 218, 219, 220, 221, 222, 223, 224, 225, 226, 227, 228, 229, 230, 231, 232, 233, 234, 235, 236, 237, 238, 239, 240, 241, 242, 243, 244, 245, 246, 247, 248, 249, 250, 251, 252, 253, 254, 255, 256, 257, 258, 259, 260, 261, 262, 263, 264, 265, 266, 267, 268, 269, 270, 271, 272, 273, 274, 275, 276, 277, 278, 279, 280, 281, 282, 283, 284, 285, 286, 287, 288, 289, 290, 291, 292, 293, 294, 295, 296, 297, 298, 299, 300, 301, 302, 303, 304, 305, 306, 307, 308, 309, 310, 311, 312, 313, 314, 315, 316, 317, 318, 319, 320, 321, 322, 323, 324, 325, 326, 327, 328, 329, 330, 331, 332, 333, 334, 335, 336, 337, 338, 339, 340, 341, 342, 343, 344, 345, 346, 347, 348, 349, 350, 351, 352, 353, 354, 355, 356, 357, 358, 359, 360, 361, 362, 363, 364, 365, 366, 367, 368, 369, 370, 371, 372, 373, 374, 375, 376, 377, 378, 379, 380, 381, 382, 383, 384, 385, 386, 387, 388, 389, 390, 391, 392, 393, 394, 395, 396, 397, 398, 399, 400, 401, 402, 403, 404, 405, 406, 407, 408, 409, 410, 411, 412, 413, 414, 415, 416, 417, 418, 419, 420, 421, 422, 423, 424, 425, 426, 427, 428, 429, 430, 431, 432, 433, 434, 435, 436, 437, 438, 439, 440, 441, 442, 443, 444, 445, 446, 447, 448, 449, 450, 451, 452, 453, 454, 455, 456, 457, 458, 459, 460, 461, 462, 463, 464, 465, 466, 467, 468, 469, 470, 471, 472, 473, 474, 475, 476, 477, 478, 479, 480, 481, 482, 483, 484, 485, 486, 487, 488, 489, 490, 491, 492, 493, 494, 495, 496, 497, 498, 499, 500, 501, 502, 503, 504, 505, 506, 507, 508, 509, 510, 511, 512, 513, 514, 515, 516, 517, 518, 519, 520, 521, 522, 523, 524, 525, 526, 527, 528, 529, 530, 531, 532, 533, 534, 535, 536, 537, 538, 539, 540, 541, 542, 543, 544, 545, 546, 547, 548, 549, 550, 551, 552, 553, 554, 555, 556, 557, 558, 559, 560, 561, 562, 563, 564, 565, 566, 567, 568, 569, 570, 571, 572, 573, 574, 575, 576, 577, 578, 579, 580, 581, 582, 583, 584, 585, 586, 587, 588, 589, 590, 591, 592, 593, 594, 595, 596, 597, 598, 599, 600, 601, 602, 603, 604, 605, 606, 607, 608, 609, 610, 611, 612, 613, 614, 615, 616, 617, 618, 619, 620, 621, 622, 623, 624, 625, 626, 627, 628, 629, 630, 631, 632, 633, 634, 635, 636, 637, 638, 639, 640, 641, 642, 643, 644, 645, 646, 647, 648, 649, 650, 651, 652, 653, 654, 655, 656, 657, 658, 659, 660, 661, 662, 663, 664, 665, 666, 667, 668, 669, 670, 671, 672, 673, 674, 675, 676, 677, 678, 679, 680, 681, 682, 683, 684, 685, 686, 687, 688, 689, 690, 691, 692, 693, 694, 695, 696, 697, 698, 699, 700, 701, 702, 703, 704, 705, 706, 707, 708, 709, 710, 711, 712, 713, 714, 715, 716, 717, 718, 719, 720, 721, 722, 723, 724, 725, 726, 727, 728, 729, 730, 731, 732, 733, 734, 735, 736, 737, 738, 739, 740, 741, 742, 743, 744, 745, 746, 747, 748, 749, 750, 751, 752, 753, 754, 755, 756, 757, 758, 759, 760, 761, 762, 763, 764, 765, 766, 767, 768, 769, 770, 771, 772, 773, 774, 775, 776, 777, 778, 779, 780, 781, 782, 783, 784, 785, 786, 787, 788, 789, 790, 791, 792, 793, 794, 795, 796, 797, 798, 799, 800, 801, 802, 803, 804, 805, 806, 807, 808, 809, 810, 811, 812, 813, 814, 815, 816, 817, 818, 819, 820, 821, 822, 823, 824, 825, 826, 827, 828, 829, 830, 831, 832, 833, 834, 835, 836, 837, 838, 839],
      "AcquisitionTime": ["120112.917500", "120113.377500", "120113.837500", "120114.297500", "120114.757500", "120115.217500", "120115.677500", "120116.137500", "120116.597500", "120117.057500", "120117.517500", "120117.977500", "120118.437500", "120118.897500", "120119.357500", "120119.817500", "120120.277500", "120120.737500", "120121.197500", "120121.657500", "120122.117500", "120122.577500", "120123.037500", "120123.497500", "120123.957500", "120124.417500", "120124.877500", "120125.337500", "120125.797500", "120126.257500", "120126.717500", "120127.177500", "120127.637500", "120128.097500", "120128.557500", "120129.017500", "120129.477500", "120129.937500", "120130.397500", "120130.857500", "120131.317500", "120131.777500", "120132.237500", "120132.697500", "120133.157500", "120133.617500", "120134.077500", "120134.537500", "120134.997500", "120135.457500", "120135.917500", "120136.377500", "120136.837500", "120137.297500", "120137.757500", "120138.217500", "120138.677500", "120139.137500", "120139.597500", "120140.057500", "120140.517500", "120140.977500", "120141.437500", "120141.897500", "120142.357500", "120142.817500", "120143.277500", "120143.737500", "120144.197500", "120144.657500", "120145.117500", "120145.577500", "120146.037500", "120146.497500", "120146.957500", "120147.417500", "120147.877500", "120148.337500", "120148.797500", "120149.257500", "120149.717500", "120150.177500", "120150.637500", "120151.097500", "120151.557500", "120152.017500", "120152.477500", "120152.937500", "120153.397500", "120153.857500", "120154.317500", "120154.777500", "120155.237500", "120155.697500", "120156.157500", "120156.617500", "120157.077500", "120157.537500", "120157.997500", "120158.457500", "120158.917500", "120159.377500", "120159.837500", "120200.297500", "120200.757500", "120201.217500", "120201.677500", "120202.137500", "120202.597500", "120203.057500", "120203.517500", "120203.977500", "120204.437500", "120204.897500", "120205.357500", "120205.817500", "120206.277500", "120206.737500", "120207.197500", "120207.657500", "120208.117500", "120208.577500", "120209.037500", "120209.497500", "120209.957500", "120210.417500", "120210.877500", "120211.337500", "120211.797500", "120212.257500", "120212.717500", "120213.177500", "120213.637500", "120214.097500", "120214.557500", "120215.017500", "120215.477500", "120215.937500", "120216.397500", "120216.857500", "120217.317500", "120217.777500", "120218.237500", "120218.697500", "120219.157500", "120219.617500", "120220.077500", "120220.537500", "120220.997500", "120221.457500", "120221.917500", "120222.377500", "120222.837500", "120223.297500", "120223.757500", "120224.217500", "120224.677500", "120225.137500", "120225.597500", "120226.057500", "120226.517500", "120226.977500", "120227.437500", "120227.897500", "120228.357500", "120228.817500", "120229.277500", "120229.737500", "120230.197500", "120230.657500", "120231.117500", "120231.577500", "120232.037500", "120232.497500", "120232.957500", "120233.417500", "120233.877500", "120234.337500", "120234.797500", "120235.257500", "120235.717500", "120236.177500", "120236.637500", "120237.097500", "120237.557500", "120238.017500", "120238.477500", "120238.937500", "120239.397500", "120239.857500", "120240.317500", "120240.777500", "120241.237500", "120241.697500", "120242.157500", "120242.617500", "120243.077500", "120243.537500", "120243.997500", "120244.457500", "120244.917500", "120245.377500", "120245.837500", "120246.297500", "120246.757500", "120247.217500", "120247.677500", "120248.137500", "120248.597500", "120249.057500", "120249.517500", "120249.977500", "120250.437500", "120250.897500", "120251.357500", "120251.817500", "120252.277500", "120252.737500", "120253.197500", "120253.657500", "120254.117500", "120254.577500", "120255.037500", "120255.497500", "120255.957500", "120256.417500", "120256.877500", "120257.337500", "120257.797500", "120258.257500", "120258.717500", "120259.177500", "120259.637500", "120300.097500", "120300.557500", "120301.017500", "120301.477500", "120301.937500", "120302.397500", "120302.857500", "120303.317500", "120303.777500", "120304.237500", "120304.697500", "120305.157500", "120305.617500", "120306.077500", "120306.537500", "120306.997500", "120307.457500", "120307.917500", "120308.377500", "120308.837500", "120309.297500", "120309.757500", "120310.217500", "120310.677500", "120311.137500", "120311.597500", "120312.057500", "120312.517500", "120312.977500", "120313.437500", "120313.897500", "120314.357500", "120314.817500", "120315.277500", "120315.737500", "120316.197500", "120316.657500", "120317.117500", "120317.577500", "120318.037500", "120318.497500", "120318.957500", "120319.417500", "120319.877500", "120320.337500", "120320.797500", "120321.257500", "120321.717500", "120322.177500", "120322.637500", "120323.097500", "120323.557500", "120324.017500", "120324.477500", "120324.937500", "120325.397500", "120325.857500", "120326.317500", "120326.777500", "120327.237500", "120327.697500", "120328.157500", "120328.617500", "120329.077500", "120329.537500", "120329.997500", "120330.457500", "120330.917500", "120331.377500", "120331.837500", "120332.297500", "120332.757500", "120333.217500", "120333.677500", "120334.137500", "120334.597500", "120335.057500", "120335.517500", "120335.977500", "120336.437500", "120336.897500", "120337.357500", "120337.817500", "120338.277500", "120338.737500", "120339.197500", "120339.657500", "120340.117500", "120340.577500", "120341.037500", "120341.497500", "120341.957500", "120342.417500", "120342.877500", "120343.337500", "120343.797500", "120344.257500", "120344.717500", "120345.177500", "120345.637500", "120346.097500", "120346.557500", "120347.017500", "120347.477500", "120347.937500", "120348.397500", "120348.857500", "120349.317500", "120349.777500", "120350.237500", "120350.697500", "120351.157500", "120351.617500", "120352.077500", "120352.537500", "120352.997500", "120353.457500", "120353.917500", "120354.377500", "120354.837500", "120355.297500", "120355.757500", "120356.217500", "120356.677500", "120357.137500", "120357.597500", "120358.057500", "120358.517500", "120358.977500", "120359.437500", "120359.897500", "120400.357500", "120400.817500", "120401.277500", "120401.737500", "120402.197500", "120402.657500", "120403.117500", "120403.577500", "120404.037500", "120404.497500", "120404.957500", "120405.417500", "120405.877500", "120406.337500", "120406.797500", "120407.257500", "120407.717500", "120408.177500", "120408.637500", "120409.097500", "120409.557500", "120410.017500", "120410.477500", "120410.937500", "120411.397500", "120411.857500", "120412.317500", "120412.777500", "120413.237500", "120413.697500", "120414.157500", "120414.617500", "120415.077500", "120415.537500", "120415.997500", "120416.457500", "120416.917500", "120417.377500", "120417.837500", "120418.297500", "120418.757500", "120419.217500", "120419.677500", "120420.137500", "120420.597500", "120421.057500", "120421.517500", "120421.977500", "120422.437500", "120422.897500", "120423.357500", "120423.817500", "120424.277500", "120424.737500", "120425.197500", "120425.657500", "120426.117500", "120426.577500", "120427.037500", "120427.497500", "120427.957500", "120428.417500", "120428.877500", "120429.337500", "120429.797500", "120430.257500", "120430.717500", "120431.177500", "120431.637500", "120432.097500", "120432.557500", "120433.017500", "120433.477500", "120433.937500", "120434.397500", "120434.857500", "120435.317500", "120435.777500", "120436.237500", "120436.697500", "120437.157500", "120437.617500", "120438.077500", "120438.537500", "120438.997500", "120439.457500", "120439.917500", "120440.377500", "120440.837500", "120441.297500", "120441.757500", "120442.217500", "120442.677500", "120443.137500", "120443.597500", "120444.057500", "120444.517500", "120444.977500", "120445.437500", "120445.897500", "120446.357500", "120446.817500", "120447.277500", "120447.737500", "120448.197500", "120448.657500", "120449.117500", "120449.577500", "120450.037500", "120450.497500", "120450.957500", "120451.417500", "120451.877500", "120452.337500", "120452.797500", "120453.257500", "120453.717500", "120454.177500", "120454.637500", "120455.097500", "120455.557500", "120456.017500", "120456.477500", "120456.937500", "120457.397500", "120457.857500", "120458.317500", "120458.777500", "120459.237500", "120459.697500", "120500.157500", "120500.617500", "120501.077500", "120501.537500", "120501.997500", "120502.457500", "120502.917500", "120503.377500", "120503.837500", "120504.297500", "120504.757500", "120505.217500", "120505.677500", "120506.137500", "120506.597500", "120507.057500", "120507.517500", "120507.977500", "120508.437500", "120508.897500", "120509.357500", "120509.817500", "120510.277500", "120510.737500", "120511.197500", "120511.657500", "120512.117500", "120512.577500", "120513.037500", "120513.497500", "120513.957500", "120514.417500", "120514.877500", "120515.337500", "120515.797500", "120516.257500", "120516.717500", "120517.177500", "120517.637500", "120518.097500", "120518.557500", "120519.017500", "120519.477500", "120519.937500", "120520.397500", "120520.857500", "120521.317500", "120521.777500", "120522.237500", "120522.697500", "120523.157500", "120523.617500", "120524.077500", "120524.537500", "120524.997500", "120525.457500", "120525.917500", "120526.377500", "120526.837500", "120527.297500", "120527.757500", "120528.217500", "120528.677500", "120529.137500", "120529.597500", "120530.057500", "120530.517500", "120530.977500", "120531.437500", "120531.897500", "120532.357500", "120532.817500", "120533.277500", "120533.737500", "120534.197500", "120534.657500", "120535.117500", "120535.577500", "120536.037500", "120536.497500", "120536.957500", "120537.417500", "120537.877500", "120538.337500", "120538.797500", "120539.257500", "120539.717500", "120540.177500", "120540.637500", "120541.097500", "120541.557500", "120542.017500", "120542.477500", "120542.937500", "120543.397500", "120543.857500", "120544.317500", "120544.777500", "120545.237500", "120545.697500", "120546.157500", "120546.617500", "120547.077500", "120547.537500", "120547.997500", "120548.457500", "120548.917500", "120549.377500", "120549.837500", "120550.297500", "120550.757500", "120551.217500", "120551.677500", "120552.137500", "120552.597500", "120553.057500", "120553.517500", "120553.977500", "120554.437500", "120554.897500", "120555.357500", "120555.817500", "120556.277500", "120556.737500", "120557.197500", "120557.657500", "120558.117500", "120558.577500", "120559.037500", "120559.497500", "120559.957500", "120600.417500", "120600.877500", "120601.337500", "120601.797500", "120602.257500", "120602.717500", "120603.177500", "120603.637500", "120604.097500", "120604.557500", "120605.017500", "120605.477500", "120605.937500", "120606.397500", "120606.857500", "120607.317500", "120607.777500", "120608.237500", "120608.697500", "120609.157500", "120609.617500", "120610.077500", "120610.537500", "120610.997500", "120611.457500", "120611.917500", "120612.377500", "120612.837500", "120613.297500", "120613.757500", "120614.217500", "120614.677500", "120615.137500", "120615.597500", "120616.057500", "120616.517500", "120616.977500", "120617.437500", "120617.897500", "120618.357500", "120618.817500", "120619.277500", "120619.737500", "120620.197500", "120620.657500", "120621.117500", "120621.577500", "120622.037500", "120622.497500", "120622.957500", "120623.417500", "120623.877500", "120624.337500", "120624.797500", "120625.257500", "120625.717500", "120626.177500", "120626.637500", "120627.097500", "120627.557500", "120628.017500", "120628.477500", "120628.937500", "120629.397500", "120629.857500", "120630.317500", "120630.777500", "120631.237500", "120631.697500", "120632.157500", "120632.617500", "120633.077500", "120633.537500", "120633.997500", "120634.457500", "120634.917500", "120635.377500", "120635.837500", "120636.297500", "120636.757500", "120637.217500", "120637.677500", "120638.137500", "120638.597500", "120639.057500", "120639.517500", "120639.977500", "120640.437500", "120640.897500", "120641.357500", "120641.817500", "120642.277500", "120642.737500", "120643.197500", "120643.657500", "120644.117500", "120644.577500", "120645.037500", "120645.497500", "120645.957500", "120646.417500", "120646.877500", "120647.337500", "120647.797500", "120648.257500", "120648.717500", "120649.177500", "120649.637500", "120650.097500", "120650.557500", "120651.017500", "120651.477500", "120651.937500", "120652.397500", "120652.857500", "120653.317500", "120653.777500", "120654.237500", "120654.697500", "120655.157500", "120655.617500", "120656.077500", "120656.537500", "120656.997500", "120657.457500", "120657.917500", "120658.377500", "120658.837500", "120659.297500", "120659.757500", "120700.217500", "120700.677500", "120701.137500", "120701.597500", "120702.057500", "120702.517500", "120702.977500", "120703.437500", "120703.897500", "120704.357500", "120704.817500", "120705.277500", "120705.737500", "120706.197500", "120706.657500", "120707.117500", "120707.577500", "120708.037500", "120708.497500", "120708.957500", "120709.417500", "120709.877500", "120710.337500", "120710.797500", "120711.257500", "120711.717500", "120712.177500", "120712.637500", "120713.097500", "120713.557500", "120714.017500", "120714.477500", "120714.937500", "120715.397500", "120715.857500", "120716.317500", "120716.777500", "120717.237500", "120717.697500", "120718.157500", "120718.617500", "120719.077500", "120719.537500", "120719.997500", "120720.457500", "120720.917500", "120721.377500", "120721.837500", "120722.297500", "120722.757500", "120723.217500", "120723.677500", "120724.137500", "120724.597500", "120725.057500", "120725.517500", "120725.977500", "120726.437500", "120726.897500", "120727.357500", "120727.817500", "120728.277500", "120728.737500", "120729.197500", "120729.657500", "120730.117500", "120730.577500", "120731.037500", "120731.497500", "120731.957500", "120732.417500", "120732.877500", "120733.337500", "120733.797500", "120734.257500", "120734.717500", "120735.177500", "120735.637500", "120736.097500", "120736.557500", "120737.017500", "120737.477500", "120737.937500", "120738.397500"],
