{
  "AcquisitionMatrixPE": 140,
  "AcquisitionNumber": 1,
  "AcquisitionTime": "09:34:47.035000",
  "BandwidthPerPixelPhaseEncode": 10.352,
  "BaseResolution": 140,
  "BodyPartExamined": "BRAIN",
  "ConsistencyInfo": "N4_VE11C_LATEST_20160120",
  "ConversionSoftware": "dcm2niix",
  "ConversionSoftwareVersion": "v1.0.20201102",
  "DerivedVendorReportedEchoSpacing": 0.000689998,
  "DeviceSerialNumber": "66112",
  "DiffusionScheme": "Monopolar",
  "DwellTime": 2.1e-06,
  "EchoTime": 0.088,
  "EchoTrainLength": 105,
  "EffectiveEchoSpacing": 0.000689998,
  "FlipAngle": 90,
  "ImageComments": "Unaliased MB3/PE3",
  "ImageOrientationPatientDICOM": [0.996761, 0.0432897, 0.0677738, -0.0450884, 0.998664, 0.0252382],
  "ImageType": [
    "ORIGINAL",
    "PRIMARY",
    "DIFFUSION",
    "NONE",
    "MB",
    "ND"
],
  "ImagingFrequency": 123.252,
  "InPlanePhaseEncodingDirectionDICOM": "COL",
  "InstitutionAddress": "Maynard 3,Hanover,NH,US,03755",
  "InstitutionName": "Dartmouth College - PBS",
  "InstitutionalDepartmentName": "Department",
  "IntendedFor": [
    "ses-01/dwi/sub-0026_ses-01_acq-96dirX6b0Xmb_dwi.nii.gz"
],
  "MRAcquisitionType": "2D",
  "MagneticFieldStrength": 3,
  "Manufacturer": "Siemens",
  "ManufacturersModelName": "Prisma",
  "Modality": "MR",
  "MultibandAccelerationFactor": 3,
  "PartialFourier": 0.75,
  "PatientPosition": "HFS",
  "PercentPhaseFOV": 100,
  "PercentSampling": 100,
  "PhaseEncodingDirection": "j-",
  "PhaseEncodingSteps": 105,
  "PhaseResolution": 1,
  "PixelBandwidth": 1700,
  "ProcedureStepDescription": "Wager_Wager^1076_spacetop",
  "ProtocolName": "dwi_acq-discorr-AP",
  "PulseSequenceDetails": "%CustomerSeq%\\cmrr_mbep2d_diff",
  "ReceiveCoilActiveElements": "HEA;HEP",
  "ReceiveCoilName": "Head_32",
  "ReconMatrixPE": 140,
  "RepetitionTime": 4.1,
  "SAR": 0.163712,
  "ScanOptions": "PFP\\FS",
  "ScanningSequence": "EP",
  "SequenceName": "ep_b0",
  "SequenceVariant": "SK\\SS",
  "SeriesDescription": "dwi_acq-discorr-AP",
  "SeriesNumber": 7,
  "ShimSetting": [4181, -7730, -7245, 654, 44, -90, 19, 46],
  "SliceThickness": 1.7,
  "SliceTiming": [0, 2.11719, 0.15625, 2.27344, 0.30469, 2.42188, 0.45312, 2.57031, 0.60938, 2.72656, 0.75781, 2.875, 0.91406, 3.02344, 1.0625, 3.17969, 1.21094, 3.32812, 1.36719, 3.47656, 1.51562, 3.63281, 1.66406, 3.78125, 1.8125, 3.9375, 1.96875, 0, 2.11719, 0.15625, 2.27344, 0.30469, 2.42188, 0.45312, 2.57031, 0.60938, 2.72656, 0.75781, 2.875, 0.91406, 3.02344, 1.0625, 3.17969, 1.21094, 3.32812, 1.36719, 3.47656, 1.51562, 3.63281, 1.66406, 3.78125, 1.8125, 3.9375, 1.96875, 0, 2.11719, 0.15625, 2.27344, 0.30469, 2.42188, 0.45312, 2.57031, 0.60938, 2.72656, 0.75781, 2.875, 0.91406, 3.02344, 1.0625, 3.17969, 1.21094, 3.32812, 1.36719, 3.47656, 1.51562, 3.63281, 1.66406, 3.78125, 1.8125, 3.9375, 1.96875],
  "SoftwareVersions": "syngo MR E11",
  "SpacingBetweenSlices": 1.7,
  "StationName": "AWP66112",
  "TotalReadoutTime": 0.0959097,
  "TxRefAmp": 268.764,
  "WipMemBlock": "31aac77c-f1d0-4a05-afa9-8ace0425a95b||Sequence: R016 ve11c/master r/e634e98; Dec 19 2017 11:11:25 by eja",
  "dcmmeta_affine": [
    [-1.708733320236206, -0.07729436457157135, 0.1132040023803711, 122.88390350341797],
    [-0.07421088218688965, 1.7119957208633423, 0.047962188720703125, -82.31806182861328],
    [0.11618375033140182, -0.043265510350465775, 1.6955413818359375, -45.3049430847168],
    [0.0, 0.0, 0.0, 1.0]
],
  "dcmmeta_reorient_transform": [
    [0.0, -1.0, 0.0, 139.0],
    [1.0, 0.0, 0.0, 0.0],
    [0.0, 0.0, -1.0, 80.0],
    [0.0, 0.0, 0.0, 1.0]
],
  "dcmmeta_shape": [140, 140, 81],
  "dcmmeta_slice_dim": 2,
  "dcmmeta_version": 0.6,
  "global": {
    "const": {
      "AccessionNumber": "A003733",
      "AcquisitionMatrix": [140, 0, 0, 140],
      "AcquisitionNumber": 1,
      "AngioFlag": "N",
      "BitsAllocated": 16,
      "BitsStored": 16,
      "BodyPartExamined": "BRAIN",
      "Columns": 140,
      "EchoNumbers": 1,
      "EchoTime": 88.0,
      "EchoTrainLength": 105,
      "FlipAngle": 90.0,
      "HighBit": 15,
      "ImageOrientationPatient": [0.99676110900357, 0.04328968198756, 0.06777385197404, -0.0450883804621, 0.998664143005, 0.02523821355396],
      "ImageType": [
        "ORIGINAL",
        "PRIMARY",
        "DIFFUSION",
        "NONE",
        "MB",
        "ND"
],
      "ImagedNucleus": "1H",
      "ImagingFrequency": 123.252133,
      "InPlanePhaseEncodingDirection": "COL",
      "MRAcquisitionType": "2D",
      "MagneticFieldStrength": 3.0,
      "Manufacturer": "SIEMENS",
      "ManufacturerModelName": "Prisma",
      "Modality": "MR",
      "NumberOfAverages": 1.0,
      "NumberOfPhaseEncodingSteps": 105,
      "PercentPhaseFieldOfView": 100.0,
      "PercentSampling": 100.0,
      "PerformedProcedureStepStartTime": "090819.556000",
      "PhotometricInterpretation": "MONOCHROME2",
      "PixelBandwidth": 1700.0,
      "PixelRepresentation": 0,
      "PixelSpacing": [1.7142857313156, 1.7142857313156],
      "ProtocolName": "dwi_acq-discorr-AP",
      "RepetitionTime": 4100.0,
      "Rows": 140,
      "SAR": 0.16371202550831,
      "SamplesPerPixel": 1,
      "ScanOptions": [
        "PFP",
        "FS"
],
      "ScanningSequence": "EP",
      "SequenceName": "ep_b0",
      "SequenceVariant": [
        "SK",
        "SS"
],
      "SeriesDescription": "dwi_acq-discorr-AP",
      "SeriesNumber": 7,
      "SeriesTime": "093451.208000",
      "SliceThickness": 1.7000000476837,
      "SmallestImagePixelValue": 0,
      "SoftwareVersions": "syngo MR E11",
      "SpacingBetweenSlices": 1.7,
      "SpecificCharacterSet": "ISO_IR 100",
      "StudyID": "2",
      "StudyTime": "090819.488000",
      "TransmitCoilName": "Body",
      "VariableFlipAngleFlag": "N",
      "WindowCenterWidthExplanation": "Algo1",
      "dBdt": 0.0},
    "slices": {
      "AcquisitionTime": ["093447.035000", "093449.150000", "093447.185000", "093449.302500", "093447.337500", "093449.452500", "093447.487500", "093449.605000", "093447.640000", "093449.755000", "093447.790000", "093449.905000", "093447.942500", "093450.057500", "093448.092500", "093450.207500", "093448.245000", "093450.360000", "093448.395000", "093450.510000", "093448.545000", "093450.662500", "093448.697500", "093450.812500", "093448.847500", "093450.965000", "093449.000000", "093447.035000", "093449.150000", "093447.185000", "093449.302500", "093447.337500", "093449.452500", "093447.487500", "093449.605000", "093447.640000", "093449.755000", "093447.790000", "093449.905000", "093447.942500", "093450.057500", "093448.092500", "093450.207500", "093448.245000", "093450.360000", "093448.395000", "093450.510000", "093448.545000", "093450.662500", "093448.697500", "093450.812500", "093448.847500", "093450.965000", "093449.000000", "093447.035000", "093449.150000", "093447.185000", "093449.302500", "093447.337500", "093449.452500", "093447.487500", "093449.605000", "093447.640000", "093449.755000", "093447.790000", "093449.905000", "093447.942500", "093450.057500", "093448.092500", "093450.207500", "093448.245000", "093450.360000", "093448.395000", "093450.510000", "093448.545000", "093450.662500", "093448.697500", "093450.812500", "093448.847500", "093450.965000", "093449.000000"],
      "ContentTime": ["093451.211000", "093451.310000", "093451.220000", "093451.338000", "093451.227000", "093451.356000", "093451.233000", "093451.362000", "093451.240000", "093451.369000", "093451.247000", "093451.376000", "093451.254000", "093451.384000", "093451.261000", "093451.391000", "093451.267000", "093451.398000", "093451.274000", "093451.406000", "093451.283000", "093451.413000", "093451.290000", "093451.420000", "093451.296000", "093451.427000", "093451.303000", "093451.215000", "093451.312000", "093451.222000", "093451.351000", "093451.229000", "093451.358000", "093451.236000", "093451.365000", "093451.242000", "093451.371000", "093451.250000", "093451.379000", "093451.256000", "093451.386000", "093451.263000", "093451.394000", "093451.269000", "093451.401000", "093451.278000", "093451.408000", "093451.285000", "093451.415000", "093451.292000", "093451.423000", "093451.299000", "093451.430000", "093451.306000", "093451.217000", "093451.314000", "093451.224000", "093451.354000", "093451.231000", "093451.360000", "093451.238000", "093451.367000", "093451.244000", "093451.374000", "093451.252000", "093451.381000", "093451.258000", "093451.389000", "093451.265000", "093451.396000", "093451.272000", "093451.403000", "093451.281000", "093451.410000", "093451.287000", "093451.418000", "093451.294000", "093451.425000", "093451.301000", "093451.432000", "093451.308000"],
      "CsaImage.ICE_Dims": [
        "X_1_1_1_1_1_1_1_1_1_1_1_25",
        "X_1_1_1_1_1_1_42_1_1_2_1_25",
        "X_1_1_1_1_1_1_2_1_1_3_1_25",
        "X_1_1_1_1_1_1_43_1_1_4_1_25",
        "X_1_1_1_1_1_1_3_1_1_5_1_25",
        "X_1_1_1_1_1_1_44_1_1_6_1_25",
        "X_1_1_1_1_1_1_4_1_1_7_1_25",
        "X_1_1_1_1_1_1_45_1_1_8_1_25",
        "X_1_1_1_1_1_1_5_1_1_9_1_25",
        "X_1_1_1_1_1_1_46_1_1_10_1_25",
        "X_1_1_1_1_1_1_6_1_1_11_1_25",
        "X_1_1_1_1_1_1_47_1_1_12_1_25",
        "X_1_1_1_1_1_1_7_1_1_13_1_25",
        "X_1_1_1_1_1_1_48_1_1_14_1_25",
        "X_1_1_1_1_1_1_8_1_1_15_1_25",
        "X_1_1_1_1_1_1_49_1_1_16_1_25",
        "X_1_1_1_1_1_1_9_1_1_17_1_25",
        "X_1_1_1_1_1_1_50_1_1_18_1_25",
        "X_1_1_1_1_1_1_10_1_1_19_1_25",
        "X_1_1_1_1_1_1_51_1_1_20_1_25",
        "X_1_1_1_1_1_1_11_1_1_21_1_25",
        "X_1_1_1_1_1_1_52_1_1_22_1_25",
        "X_1_1_1_1_1_1_12_1_1_23_1_25",
        "X_1_1_1_1_1_1_53_1_1_24_1_25",
        "X_1_1_1_1_1_1_13_1_1_25_1_25",
        "X_1_1_1_1_1_1_54_1_1_26_1_25",
        "X_1_1_1_1_1_1_14_1_1_27_1_25",
        "X_1_1_1_1_1_1_55_1_1_28_1_25",
        "X_1_1_1_1_1_1_15_1_1_29_1_25",
        "X_1_1_1_1_1_1_56_1_1_30_1_25",
        "X_1_1_1_1_1_1_16_1_1_31_1_25",
        "X_1_1_1_1_1_1_57_1_1_32_1_25",
        "X_1_1_1_1_1_1_17_1_1_33_1_25",
        "X_1_1_1_1_1_1_58_1_1_34_1_25",
        "X_1_1_1_1_1_1_18_1_1_35_1_25",
        "X_1_1_1_1_1_1_59_1_1_36_1_25",
        "X_1_1_1_1_1_1_19_1_1_37_1_25",
        "X_1_1_1_1_1_1_60_1_1_38_1_25",
        "X_1_1_1_1_1_1_20_1_1_39_1_25",
        "X_1_1_1_1_1_1_61_1_1_40_1_25",
        "X_1_1_1_1_1_1_21_1_1_41_1_25",
        "X_1_1_1_1_1_1_62_1_1_42_1_25",
        "X_1_1_1_1_1_1_22_1_1_43_1_25",
        "X_1_1_1_1_1_1_63_1_1_44_1_25",
        "X_1_1_1_1_1_1_23_1_1_45_1_25",
        "X_1_1_1_1_1_1_64_1_1_46_1_25",
        "X_1_1_1_1_1_1_24_1_1_47_1_25",
        "X_1_1_1_1_1_1_65_1_1_48_1_25",
        "X_1_1_1_1_1_1_25_1_1_49_1_25",
        "X_1_1_1_1_1_1_66_1_1_50_1_25",
        "X_1_1_1_1_1_1_26_1_1_51_1_25",
        "X_1_1_1_1_1_1_67_1_1_52_1_25",
        "X_1_1_1_1_1_1_27_1_1_53_1_25",
        "X_1_1_1_1_1_1_68_1_1_54_1_25",
        "X_1_1_1_1_1_1_28_1_1_55_1_25",
        "X_1_1_1_1_1_1_69_1_1_56_1_25",
        "X_1_1_1_1_1_1_29_1_1_57_1_25",
        "X_1_1_1_1_1_1_70_1_1_58_1_25",
        "X_1_1_1_1_1_1_30_1_1_59_1_25",
        "X_1_1_1_1_1_1_71_1_1_60_1_25",
        "X_1_1_1_1_1_1_31_1_1_61_1_25",
        "X_1_1_1_1_1_1_72_1_1_62_1_25",
        "X_1_1_1_1_1_1_32_1_1_63_1_25",
        "X_1_1_1_1_1_1_73_1_1_64_1_25",
        "X_1_1_1_1_1_1_33_1_1_65_1_25",
        "X_1_1_1_1_1_1_74_1_1_66_1_25",
        "X_1_1_1_1_1_1_34_1_1_67_1_25",
        "X_1_1_1_1_1_1_75_1_1_68_1_25",
        "X_1_1_1_1_1_1_35_1_1_69_1_25",
        "X_1_1_1_1_1_1_76_1_1_70_1_25",
        "X_1_1_1_1_1_1_36_1_1_71_1_25",
        "X_1_1_1_1_1_1_77_1_1_72_1_25",
        "X_1_1_1_1_1_1_37_1_1_73_1_25",
        "X_1_1_1_1_1_1_78_1_1_74_1_25",
        "X_1_1_1_1_1_1_38_1_1_75_1_25",
        "X_1_1_1_1_1_1_79_1_1_76_1_25",
        "X_1_1_1_1_1_1_39_1_1_77_1_25",
        "X_1_1_1_1_1_1_80_1_1_78_1_25",
        "X_1_1_1_1_1_1_40_1_1_79_1_25",
        "X_1_1_1_1_1_1_81_1_1_80_1_25",
        "X_1_1_1_1_1_1_41_1_1_81_1_25"
],
      "CsaImage.ProtocolSliceNumber": [0, 1, 2, 3, 4, 5, 6, 7, 8, 9, 10, 11, 12, 13, 14, 15, 16, 17, 18, 19, 20, 21, 22, 23, 24, 25, 26, 27, 28, 29, 30, 31, 32, 33, 34, 35, 36, 37, 38, 39, 40, 41, 42, 43, 44, 45, 46, 47, 48, 49, 50, 51, 52, 53, 54, 55, 56, 57, 58, 59, 60, 61, 62, 63, 64, 65, 66, 67, 68, 69, 70, 71, 72, 73, 74, 75, 76, 77, 78, 79, 80],
      "CsaImage.RFSWDDataType": [
        "predicted",
        "predicted",
        "predicted",
        "predicted",
        "predicted",
        "predicted",
        "predicted",
        "predicted",
        "predicted",
        "predicted",
        "predicted",
        "predicted",
        "predicted",
        "predicted",
        "predicted",
        "predicted",
        "predicted",
        "predicted",
        "predicted",
        "predicted",
        "predicted",
        "predicted",
        "predicted",
        "predicted",
        "predicted",
        "measured",
        "predicted",
        "predicted",
        "predicted",
        "predicted",
        "predicted",
        "predicted",
        "predicted",
        "predicted",
        "predicted",
        "predicted",
        "predicted",
        "predicted",
        "predicted",
        "predicted",
        "predicted",
        "predicted",
        "predicted",
        "predicted",
        "predicted",
        "predicted",
        "predicted",
        "predicted",
        "predicted",
        "predicted",
        "predicted",
        "predicted",
        "measured",
        "predicted",
        "predicted",
        "predicted",
        "predicted",
        "predicted",
        "predicted",
        "predicted",
        "predicted",
        "predicted",
        "predicted",
        "predicted",
        "predicted",
        "predicted",
        "predicted",
        "predicted",
        "predicted",
        "predicted",
        "predicted",
        "predicted",
        "predicted",
        "predicted",
        "predicted",
        "predicted",
        "predicted",
        "predicted",
        "predicted",
        "measured",
        "predicted"
],
      "CsaImage.SlicePosition_PCS": [
        [-112.13996091, -155.64944285, -51.31941077],
        [-112.25316503, -155.69740313, -49.62386176],
        [-112.36636939, -155.74536532, -47.92831657],
        [-112.47957363, -155.7933256, -46.23276755],
        [-112.59277799, -155.84128588, -44.53721854],
        [-112.70598223, -155.88924807, -42.84166953],
        [-112.81918659, -155.93720835, -41.14612052],
        [-112.93239083, -155.98516863, -39.45057342],
        [-113.04559519, -156.03313082, -37.75502441],
        [-113.15879943, -156.0810911, -36.05947539],
        [-113.27200379, -156.12905138, -34.36392638],
        [-113.38520803, -156.17701357, -32.66837928],
        [-113.49841233, -156.22497385, -30.97283027],
        [-113.61161664, -156.27293413, -29.27728126],
        [-113.72482097, -156.32089441, -27.58173415],
        [-113.83802527, -156.3688566, -25.88618514],
        [-113.95122955, -156.41681688, -24.19063613],
        [-114.06443385, -156.46477717, -22.49508807],
        [-114.17763815, -156.51273935, -20.79954002],
        [-114.29084245, -156.56069964, -19.103991],
        [-114.40404674, -156.60865992, -17.40844295],
        [-114.51725104, -156.65662211, -15.71289441],
        [-114.63045534, -156.70458239, -14.01734588],
        [-114.74365964, -156.75254267, -12.32179746],
        [-114.85686394, -156.80050486, -10.62624899],
        [-114.97006824, -156.84846514, -8.93070051],
        [-115.08327254, -156.89642542, -7.23515198],
        [-115.19647684, -156.94438761, -5.53960368],
        [-115.30968108, -156.99234789, -3.84405515],
        [-115.42288544, -157.04030817, -2.14850661],
        [-115.53608968, -157.08827036, -0.45295856],
        [-115.64929404, -157.13622873, 1.24259046],
        [-115.76249828, -157.18419092, 2.93813851],
        [-115.87570264, -157.23215311, 4.63368752],
        [-115.98890688, -157.28011149, 6.32923463],
        [-116.10211124, -157.32807368, 8.02478364],
        [-116.21531548, -157.37603586, 9.72033265],
        [-116.32851973, -157.42399424, 11.41588166],
        [-116.4417242, -157.47195643, 13.11142877],
        [-116.55492845, -157.51991862, 14.80697778],
        [-116.66813269, -157.56787699, 16.50252679],
        [-116.78133693, -157.61583918, 18.19807389],
        [-116.89454141, -157.66380137, 19.8936229],
        [-117.00774565, -157.71175974, 21.58917001],
        [-117.12094989, -157.75972193, 23.28471902],
        [-117.23415413, -157.80768412, 24.98026803],
        [-117.34735837, -157.85564249, 26.67581704],
        [-117.46056285, -157.90360468, 28.37136605],
        [-117.57376709, -157.95156687, 30.06691506],
        [-117.68697133, -157.99952524, 31.76246407],
        [-117.80017557, -158.04748743, 33.45800927],
        [-117.91338005, -158.09544962, 35.15355828],
        [-118.02658429, -158.143408, 36.84910729],
        [-118.13978853, -158.19137018, 38.5446563],
        [-118.25299277, -158.23933237, 40.24020532],
        [-118.36619725, -158.28729075, 41.93575433],
        [-118.47940125, -158.33525294, 43.63129952],
        [-118.59260573, -158.38321131, 45.32684853],
        [-118.70581021, -158.4311735, 47.02239755],
        [-118.81901422, -158.47913569, 48.71794656],
        [-118.93221869, -158.52709406, 50.41349557],
        [-119.04542317, -158.57505625, 52.10904458],
        [-119.15862718, -158.62301844, 53.80459359],
        [-119.27183166, -158.67097681, 55.5001426],
        [-119.38503566, -158.718939, 57.19569161],
        [-119.49824014, -158.76690119, 58.89124062],
        [-119.61144462, -158.81485956, 60.58678964],
        [-119.72464862, -158.86282175, 62.28233102],
        [-119.8378531, -158.91078394, 63.97788003],
        [-119.9510571, -158.95874232, 65.67342904],
        [-120.06426158, -159.0067045, 67.36897805],
        [-120.17746606, -159.05466669, 69.06452706],
        [-120.29067006, -159.10262507, 70.76007607],
        [-120.40387454, -159.15058726, 72.45562508],
        [-120.51707902, -159.19854944, 74.1511741],
        [-120.63028302, -159.24650782, 75.84672311],
        [-120.7434875, -159.29447001, 77.54227212],
        [-120.8566915, -159.3424322, 79.23782113],
        [-120.96989598, -159.39039057, 80.93337014],
        [-121.08310046, -159.43835276, 82.62891915],
        [-121.19630446, -159.48631495, 84.32446053]
],
      "CsaImage.TimeAfterStart": [16.4, 18.515, 16.55, 18.665, 16.7025, 18.8175, 16.8525, 18.9675, 17.005, 19.12, 17.155, 19.27, 17.305, 19.4225, 17.4575, 19.5725, 17.6075, 19.725, 17.76, 19.875, 17.91, 20.025, 18.0625, 20.1775, 18.2125, 20.3275, 18.365, 16.4, 18.515, 16.55, 18.665, 16.7025, 18.8175, 16.8525, 18.9675, 17.005, 19.12, 17.155, 19.27, 17.305, 19.4225, 17.4575, 19.5725, 17.6075, 19.725, 17.76, 19.875, 17.91, 20.025, 18.0625, 20.1775, 18.2125, 20.3275, 18.365, 16.4, 18.515, 16.55, 18.665, 16.7025, 18.8175, 16.8525, 18.9675, 17.005, 19.12, 17.155, 19.27, 17.305, 19.4225, 17.4575, 19.5725, 17.6075, 19.725, 17.76, 19.875, 17.91, 20.025, 18.0625, 20.1775, 18.2125, 20.3275, 18.365],
      "ImagePositionPatient": [
        [-112.13996090886, -155.64944284619, -51.319410773312],
        [-112.25316503045, -155.69740312757, -49.623861762082],
        [-112.36636939045, -155.74536531629, -47.928316565548],
        [-112.47957363125, -155.79332559766, -46.232767554318],
        [-112.59277799126, -155.84128587903, -44.537218543087],
        [-112.70598223206, -155.88924806775, -42.841669531857],
        [-112.81918659207, -155.93720834912, -41.146120520626],
        [-112.93239083287, -155.98516863049, -39.450573416745],
        [-113.04559519288, -156.03313081922, -37.755024405514],
        [-113.15879943368, -156.08109110059, -36.059475394284],
        [-113.27200379368, -156.12905138196, -34.363926383053],
        [-113.38520803448, -156.17701357068, -32.668379279171],
        [-113.49841233489, -156.22497385205, -30.972830267941],
        [-113.61161663529, -156.27293413342, -29.27728125671],
        [-113.7248209655, -156.3208944148, -27.581734152829],
        [-113.8380252659, -156.36885660352, -25.886185141598],
        [-113.9512295514, -156.41681688489, -24.190636130368],
        [-114.06443385181, -156.46477716626, -22.495088072812],
        [-114.17763814662, -156.51273935498, -20.799540015255],
        [-114.29084244516, -156.56069963635, -19.103991004025],
        [-114.40404673811, -156.60865991773, -17.408442946469],
        [-114.51725103852, -156.65662210645, -15.712894412075],
        [-114.63045533892, -156.70458238782, -14.017345877682],
        [-114.74365963933, -156.75254266919, -12.321797462498],
        [-114.85686393973, -156.80050485791, -10.626248987709],
        [-114.97006824013, -156.84846513928, -8.9307005129208],
        [-115.08327254054, -156.89642542066, -7.2351519785275],
        [-115.19647684094, -156.94438760938, -5.5396036825527],
        [-115.30968108174, -156.99234789075, -3.8440551481594],
        [-115.42288544175, -157.04030817212, -2.1485066137661],
        [-115.53608968255, -157.08827036084, -0.45295855621],
        [-115.64929404255, -157.13622873487, 1.2425904550205],
        [-115.76249828335, -157.18419092359, 2.9381385125767],
        [-115.87570264336, -157.23215311231, 4.6336875238071],
        [-115.98890688416, -157.28011148633, 6.329234627689],
        [-116.10211124417, -157.32807367505, 8.0247836389194],
        [-116.21531548497, -157.37603586377, 9.7203326501499],
        [-116.32851972577, -157.42399423779, 11.41588166138],
        [-116.44172420498, -157.47195642652, 13.111428765262],
        [-116.55492844578, -157.51991861524, 14.806977776493],
        [-116.66813268658, -157.56787698926, 16.502526787723],
        [-116.78133692738, -157.61583917798, 18.198073891605],
        [-116.8945414066, -157.6638013667, 19.893622902835],
        [-117.0077456474, -157.71175974072, 21.589170006717],
        [-117.1209498882, -157.75972192945, 23.284719017948],
        [-117.234154129, -157.80768411817, 24.980268029178],
        [-117.34735836979, -157.85564249219, 26.675817040409],
        [-117.46056284901, -157.90360468091, 28.371366051639],
        [-117.57376708981, -157.95156686963, 30.06691506287],
        [-117.68697133061, -157.99952524365, 31.7624640741],
        [-117.80017557141, -158.04748743237, 33.458009270633],
        [-117.91338005063, -158.0954496211, 35.153558281864],
        [-118.02658429143, -158.14340799512, 36.849107293094],
        [-118.13978853222, -158.19137018384, 38.544656304325],
        [-118.25299277302, -158.23933237256, 40.240205315555],
        [-118.36619725224, -158.28729074658, 41.935754326786],
        [-118.47940125462, -158.3352529353, 43.631299523319],
        [-118.59260573384, -158.38321130933, 45.326848534549],
        [-118.70581021306, -158.43117349805, 47.02239754578],
        [-118.81901421544, -158.47913568677, 48.71794655701],
        [-118.93221869465, -158.52709406079, 50.413495568241],
        [-119.04542317387, -158.57505624951, 52.109044579471],
        [-119.15862717625, -158.62301843823, 53.804593590702],
        [-119.27183165547, -158.67097681226, 55.500142601932],
        [-119.38503565785, -158.71893900098, 57.195691613163],
        [-119.49824013707, -158.7669011897, 58.891240624393],
        [-119.61144461628, -158.81485956372, 60.586789635624],
        [-119.72464861867, -158.86282175244, 62.282331017459],
        [-119.83785309788, -158.91078394116, 63.97788002869],
        [-119.95105710026, -158.95874231519, 65.67342903992],
        [-120.06426157948, -159.00670450391, 67.368978051151],
        [-120.1774660587, -159.05466669263, 69.064527062381],
        [-120.29067006108, -159.10262506665, 70.760076073612],
        [-120.4038745403, -159.15058725537, 72.455625084842],
        [-120.51707901951, -159.19854944409, 74.151174096073],
        [-120.63028302189, -159.24650781812, 75.846723107303],
        [-120.74348750111, -159.29447000684, 77.542272118534],
        [-120.85669150349, -159.34243219556, 79.237821129764],
        [-120.96989598271, -159.39039056958, 80.933370140995],
        [-121.08310046193, -159.4383527583, 82.628919152225],
        [-121.19630446431, -159.48631494702, 84.324460534061]
],
      "InstanceCreationTime": ["093451.211000", "093451.310000", "093451.220000", "093451.338000", "093451.227000", "093451.356000", "093451.233000", "093451.362000", "093451.240000", "093451.369000", "093451.247000", "093451.376000", "093451.254000", "093451.384000", "093451.261000", "093451.391000", "093451.267000", "093451.398000", "093451.274000", "093451.406000", "093451.283000", "093451.413000", "093451.290000", "093451.420000", "093451.296000", "093451.427000", "093451.303000", "093451.215000", "093451.312000", "093451.222000", "093451.351000", "093451.229000", "093451.358000", "093451.236000", "093451.365000", "093451.242000", "093451.371000", "093451.250000", "093451.379000", "093451.256000", "093451.386000", "093451.263000", "093451.394000", "093451.269000", "093451.401000", "093451.278000", "093451.408000", "093451.285000", "093451.415000", "093451.292000", "093451.423000", "093451.299000", "093451.430000", "093451.306000", "093451.217000", "093451.314000", "093451.224000", "093451.354000", "093451.231000", "093451.360000", "093451.238000", "093451.367000", "093451.244000", "093451.374000", "093451.252000", "093451.381000", "093451.258000", "093451.389000", "093451.265000", "093451.396000", "093451.272000", "093451.403000", "093451.281000", "093451.410000", "093451.287000", "093451.418000", "093451.294000", "093451.425000", "093451.301000", "093451.432000", "093451.308000"],
      "InstanceNumber": [1, 2, 3, 4, 5, 6, 7, 8, 9, 10, 11, 12, 13, 14, 15, 16, 17, 18, 19, 20, 21, 22, 23, 24, 25, 26, 27, 28, 29, 30, 31, 32, 33, 34, 35, 36, 37, 38, 39, 40, 41, 42, 43, 44, 45, 46, 47, 48, 49, 50, 51, 52, 53, 54, 55, 56, 57, 58, 59, 60, 61, 62, 63, 64, 65, 66, 67, 68, 69, 70, 71, 72, 73, 74, 75, 76, 77, 78, 79, 80, 81],
      "LargestImagePixelValue": [28523, 18430, 28880, 26573, 38414, 37082, 49271, 41259, 35911, 27333, 24914, 23156, 30781, 36480, 47023, 53295, 46627, 48629, 58582, 51191, 52975, 54641, 48930, 55862, 61742, 53182, 46064, 50302, 52404, 39553, 36746, 36395, 47144, 49395, 51063, 50034, 47018, 47592, 51335, 42379, 42205, 41980, 43346, 43255, 39935, 34519, 48385, 44206, 42646, 52119, 56272, 43966, 49672, 40349, 48403, 43168, 46285, 54608, 47730, 48614, 41367, 48686, 47926, 45726, 55486, 59867, 59237, 56255, 65535, 65535, 65535, 65535, 65535, 61378, 62683, 23157, 25639, 30100, 31806, 16519, 18835],
      "SliceLocation": [-39.326316313628, -37.626315780917, -35.926318983227, -34.226318442578, -32.52631789399, -30.82631729953, -29.126316750942, -27.426318112647, -25.726317510249, -24.026316969599, -22.326316421011, -20.626317728905, -18.926317184287, -17.226316639668, -15.526317995419, -13.82631739699, -12.126316853364, -10.426317259922, -8.7263176130423, -7.0263170685478, -5.3263174756024, -3.6263173527618, -1.9263172837317, -0.2263173335988, 1.4736827297933, 3.1736827393747, 4.8736828084048, 6.5736826934512, 8.2736827585121, 9.9736828315112, 11.673682474794, 13.373682969571, 15.073682612854, 16.773683215253, 18.473681799737, 20.173682402136, 21.873682996596, 23.573683483435, 25.273682191417, 26.973682785877, 28.673683272716, 30.373681964822, 32.073682575158, 33.773681159643, 35.473681754103, 37.173682348563, 38.873682835402, 40.573683445739, 42.273684040199, 43.973684527037, 45.673681316789, 47.373681927126, 49.073682413965, 50.773683008425, 52.473683602885, 54.1736841056, 55.873680879476, 57.573681382191, 59.273681992527, 60.973682571111, 62.673683073826, 64.373683684163, 66.073684262746, 67.773684765462, 69.473685344045, 71.173685954382, 72.873686457097, 74.573679426264, 76.273680036601, 77.973680507563, 79.6736811179, 81.373681728236, 83.073682199199, 84.773682809535, 86.473683419872, 88.173683890834, 89.873684501171, 91.573685079754, 93.27368558247, 94.973686192806, 96.673679161973],
      "WindowCenter": [6087.0, 5177.0, 5864.0, 5905.0, 6487.0, 6600.0, 7342.0, 7495.0, 7453.0, 7294.0, 7433.0, 7317.0, 7710.0, 7729.0, 8137.0, 8126.0, 7922.0, 7950.0, 8170.0, 7939.0, 8112.0, 8257.0, 8376.0, 8563.0, 8588.0, 8660.0, 8668.0, 8809.0, 8914.0, 8797.0, 8808.0, 8936.0, 9134.0, 9245.0, 9308.0, 9398.0, 9471.0, 9633.0, 9709.0, 9644.0, 9729.0, 9779.0, 9659.0, 9549.0, 9628.0, 9763.0, 9875.0, 9890.0, 9976.0, 10273.0, 10359.0, 10287.0, 10387.0, 10312.0, 9929.0, 9876.0, 9927.0, 9905.0, 9903.0, 9801.0, 9999.0, 10111.0, 10235.0, 10266.0, 10608.0, 10648.0, 10595.0, 10708.0, 10827.0, 10579.0, 10299.0, 10186.0, 10224.0, 8682.0, 7143.0, 5587.0, 5969.0, 6459.0, 6622.0, 4738.0, 3785.0],
      "WindowWidth": [13817.0, 12052.0, 13000.0, 13134.0, 14240.0, 14637.0, 16136.0, 16507.0, 16175.0, 15799.0, 16061.0, 16089.0, 16872.0, 17349.0, 18312.0, 18479.0, 18216.0, 18051.0, 18172.0, 18039.0, 18697.0, 18854.0, 18982.0, 19218.0, 19003.0, 19067.0, 19080.0, 19459.0, 19690.0, 19281.0, 19179.0, 19412.0, 19857.0, 20221.0, 20189.0, 20323.0, 20402.0, 20672.0, 20999.0, 20721.0, 20822.0, 20929.0, 20771.0, 20468.0, 20604.0, 20988.0, 21379.0, 21392.0, 21652.0, 22374.0, 22620.0, 22385.0, 22721.0, 22633.0, 21738.0, 21556.0, 21630.0, 21747.0, 21827.0, 21454.0, 21848.0, 22086.0, 22498.0, 22778.0, 24029.0, 24340.0, 24374.0, 25147.0, 27173.0, 27807.0, 29012.0, 28511.0, 25416.0, 19268.0, 15500.0, 11741.0, 12416.0, 13323.0, 13313.0, 10222.0, 8544.0]
    }
  }
}