{
  "AcquisitionMatrixPE": 82,
  "AcquisitionNumber": 1,
  "AcquisitionTime": "12:08:48.905000",
  "BandwidthPerPixelPhaseEncode": 24.888,
  "BaseResolution": 82,
  "BodyPartExamined": "BRAIN",
  "ConsistencyInfo": "N4_VE11C_LATEST_20160120",
  "ConversionSoftware": "dcm2niix",
  "ConversionSoftwareVersion": "v1.0.20201102",
  "DerivedVendorReportedEchoSpacing": 0.00049,
  "DeviceSerialNumber": "66112",
  "DwellTime": 2e-06,
  "EchoTime": 0.0272,
  "EchoTrainLength": 82,
  "EffectiveEchoSpacing": 0.00049,
  "FlipAngle": 44,
  "ImageComments": "Unaliased MB8/PE3",
  "ImageOrientationPatientDICOM": [0.999581, 0.0237873, 0.0164756, -0.0237311, 0.999712, -0.00360201],
  "ImageType": [
    "ORIGINAL",
    "PRIMARY",
    "M",
    "MB",
    "ND",
    "NORM",
    "MOSAIC"
],
  "ImagingFrequency": 123.252,
  "InPlanePhaseEncodingDirectionDICOM": "COL",
  "InstitutionAddress": "Maynard 3,Hanover,NH,US,03755",
  "InstitutionName": "Dartmouth College - PBS",
  "InstitutionalDepartmentName": "Department",
  "MRAcquisitionType": "2D",
  "MagneticFieldStrength": 3,
  "Manufacturer": "Siemens",
  "ManufacturersModelName": "Prisma",
  "Modality": "MR",
  "MultibandAccelerationFactor": 8,
  "PartialFourier": 1,
  "PatientPosition": "HFS",
  "PercentPhaseFOV": 100,
  "PercentSampling": 100,
  "PhaseEncodingDirection": "j-",
  "PhaseEncodingSteps": 82,
  "PhaseResolution": 1,
  "PixelBandwidth": 3050,
  "ProcedureStepDescription": "Wager_Wager^1076_spacetop",
  "ProtocolName": "func_run-04_task-social_acq-ap-mb8",
  "PulseSequenceDetails": "%CustomerSeq%\\cmrr_mbep2d_bold",
  "ReceiveCoilActiveElements": "HEA;HEP",
  "ReceiveCoilName": "Head_32",
  "ReconMatrixPE": 82,
  "RepetitionTime": 0.46,
  "SAR": 0.0927202,
  "ScanOptions": "FS",
  "ScanningSequence": "EP",
  "SequenceName": "epfid2d1_82",
  "SequenceVariant": "SK\\SS",
  "SeriesDescription": "func_run-04_task-social_acq-ap-mb8",
  "SeriesNumber": 16,
  "ShimSetting": [4140, -7712, -7222, 600, -56, -11, -122, 73],
  "SliceThickness": 2.7,
  "SliceTiming": [0, 0.2525, 0.0625, 0.315, 0.1275, 0.3775, 0.19, 0, 0.2525, 0.0625, 0.315, 0.1275, 0.3775, 0.19, 0, 0.2525, 0.0625, 0.315, 0.1275, 0.3775, 0.19, 0, 0.2525, 0.0625, 0.315, 0.1275, 0.3775, 0.19, 0, 0.2525, 0.0625, 0.315, 0.1275, 0.3775, 0.19, 0, 0.2525, 0.0625, 0.315, 0.1275, 0.3775, 0.19, 0, 0.2525, 0.0625, 0.315, 0.1275, 0.3775, 0.19, 0, 0.2525, 0.0625, 0.315, 0.1275, 0.3775, 0.19],
  "SoftwareVersions": "syngo MR E11",
  "SpacingBetweenSlices": 2.7,
  "StationName": "AWP66112",
  "TaskName": "social",
  "TotalReadoutTime": 0.03969,
  "TxRefAmp": 288.042,
  "WipMemBlock": "db3a9cfc-05d8-4220-990f-e24b6d51cc51||Sequence: R016 ve11c/master r/e634e98; Dec 19 2017 11:00:25 by eja",
  "dcmmeta_affine": [
    [-2.6818034648895264, -0.06366871297359467, 0.04470270499587059, 113.54895782470703],
    [-0.06381966173648834, 2.6821539402008057, -0.008665688335895538, -94.49252319335938],
    [0.04420289024710655, 0.009663919918239117, 2.699615955352783, -64.56947326660156],
    [0.0, 0.0, 0.0, 1.0]
],
  "dcmmeta_reorient_transform": [
    [0.0, -1.0, 0.0, 81.0],
    [1.0, 0.0, 0.0, 0.0],
    [0.0, 0.0, 1.0, 0.0],
    [0.0, 0.0, 0.0, 1.0]
],
  "dcmmeta_shape": [82, 82, 56, 872],
  "dcmmeta_slice_dim": 2,
  "dcmmeta_version": 0.6,
  "global": {
    "const": {
      "AccessionNumber": "A003639",
      "AcquisitionMatrix": [82, 0, 0, 82],
      "AngioFlag": "N",
      "BitsAllocated": 16,
      "BitsStored": 16,
      "BodyPartExamined": "BRAIN",
      "Columns": 656,
      "EchoNumbers": 1,
      "EchoTime": 27.2,
      "EchoTrainLength": 82,
      "FlipAngle": 44.0,
      "HighBit": 15,
      "ImageOrientationPatient": [0.99958127078322, 0.02378732782278, 0.01647562243002, -0.0237310660344, 0.99971188952284, -0.0036020065998],
      "ImagePositionPatient": [-859.79646849447, -910.85636139402, -73.699383854714],
      "ImageType": [
        "ORIGINAL",
        "PRIMARY",
        "M",
        "MB",
        "ND",
        "NORM",
        "MOSAIC"
],
      "ImagedNucleus": "1H",
      "ImagingFrequency": 123.252147,
      "InPlanePhaseEncodingDirection": "COL",
      "MRAcquisitionType": "2D",
      "MagneticFieldStrength": 3.0,
      "Manufacturer": "SIEMENS",
      "ManufacturerModelName": "Prisma",
      "Modality": "MR",
      "NumberOfAverages": 1.0,
      "NumberOfPhaseEncodingSteps": 82,
      "PercentPhaseFieldOfView": 100.0,
      "PercentSampling": 100.0,
      "PerformedProcedureStepStartTime": "113113.917000",
      "PhotometricInterpretation": "MONOCHROME2",
      "PixelBandwidth": 3050.0,
      "PixelRepresentation": 0,
      "PixelSpacing": [2.6829268932343, 2.6829268932343],
      "ProtocolName": "func_run-04_task-social_acq-ap-mb8",
      "RepetitionTime": 460.0,
      "Rows": 656,
      "SAR": 0.09272025075896,
      "SamplesPerPixel": 1,
      "ScanOptions": "FS",
      "ScanningSequence": "EP",
      "SequenceName": "epfid2d1_82",
      "SequenceVariant": [
        "SK",
        "SS"
],
      "SeriesDescription": "func_run-04_task-social_acq-ap-mb8",
      "SeriesNumber": 16,
      "SeriesTime": "120903.947000",
      "SliceLocation": -62.377038893198,
      "SliceThickness": 2.7000000476837,
      "SmallestImagePixelValue": 0,
      "SoftwareVersions": "syngo MR E11",
      "SpacingBetweenSlices": 2.6999999591645,
      "SpecificCharacterSet": "ISO_IR 100",
      "StudyID": "3",
      "StudyTime": "113113.871000",
      "TransmitCoilName": "Body",
      "VariableFlipAngleFlag": "N",
      "WindowCenterWidthExplanation": "Algo1",
      "dBdt": 0.0},
    "slices": {}
  },
  "time": {
    "samples": {
      "AcquisitionNumber": [1, 2, 3, 4, 5, 6, 7, 8, 9, 10, 11, 12, 13, 14, 15, 16, 17, 18, 19, 20, 21, 22, 23, 24, 25, 26, 27, 28, 29, 30, 31, 32, 33, 34, 35, 36, 37, 38, 39, 40, 41, 42, 43, 44, 45, 46, 47, 48, 49, 50, 51, 52, 53, 54, 55, 56, 57, 58, 59, 60, 61, 62, 63, 64, 65, 66, 67, 68, 69, 70, 71, 72, 73, 74, 75, 76, 77, 78, 79, 80, 81, 82, 83, 84, 85, 86, 87, 88, 89, 90, 91, 92, 93, 94, 95, 96, 97, 98, 99, 100, 101, 102, 103, 104, 105, 106, 107, 108, 109, 110, 111, 112, 113, 114, 115, 116, 117, 118, 119, 120, 121, 122, 123, 124, 125, 126, 127, 128, 129, 130, 131, 132, 133, 134, 135, 136, 137, 138, 139, 140, 141, 142, 143, 144, 145, 146, 147, 148, 149, 150, 151, 152, 153, 154, 155, 156, 157, 158, 159, 160, 161, 162, 163, 164, 165, 166, 167, 168, 169, 170, 171, 172, 173, 174, 175, 176, 177, 178, 179, 180, 181, 182, 183, 184, 185, 186, 187, 188, 189, 190, 191, 192, 193, 194, 195, 196, 197, 198, 199, 200, 201, 202, 203, 204, 205, 206, 207, 208, 209, 210, 211, 212, 213, 214, 215, 216, 217, 218, 219, 220, 221, 222, 223, 224, 225, 226, 227, 228, 229, 230, 231, 232, 233, 234, 235, 236, 237, 238, 239, 240, 241, 242, 243, 244, 245, 246, 247, 248, 249, 250, 251, 252, 253, 254, 255, 256, 257, 258, 259, 260, 261, 262, 263, 264, 265, 266, 267, 268, 269, 270, 271, 272, 273, 274, 275, 276, 277, 278, 279, 280, 281, 282, 283, 284, 285, 286, 287, 288, 289, 290, 291, 292, 293, 294, 295, 296, 297, 298, 299, 300, 301, 302, 303, 304, 305, 306, 307, 308, 309, 310, 311, 312, 313, 314, 315, 316, 317, 318, 319, 320, 321, 322, 323, 324, 325, 326, 327, 328, 329, 330, 331, 332, 333, 334, 335, 336, 337, 338, 339, 340, 341, 342, 343, 344, 345, 346, 347, 348, 349, 350, 351, 352, 353, 354, 355, 356, 357, 358, 359, 360, 361, 362, 363, 364, 365, 366, 367, 368, 369, 370, 371, 372, 373, 374, 375, 376, 377, 378, 379, 380, 381, 382, 383, 384, 385, 386, 387, 388, 389, 390, 391, 392, 393, 394, 395, 396, 397, 398, 399, 400, 401, 402, 403, 404, 405, 406, 407, 408, 409, 410, 411, 412, 413, 414, 415, 416, 417, 418, 419, 420, 421, 422, 423, 424, 425, 426, 427, 428, 429, 430, 431, 432, 433, 434, 435, 436, 437, 438, 439, 440, 441, 442, 443, 444, 445, 446, 447, 448, 449, 450, 451, 452, 453, 454, 455, 456, 457, 458, 459, 460, 461, 462, 463, 464, 465, 466, 467, 468, 469, 470, 471, 472, 473, 474, 475, 476, 477, 478, 479, 480, 481, 482, 483, 484, 485, 486, 487, 488, 489, 490, 491, 492, 493, 494, 495, 496, 497, 498, 499, 500, 501, 502, 503, 504, 505, 506, 507, 508, 509, 510, 511, 512, 513, 514, 515, 516, 517, 518, 519, 520, 521, 522, 523, 524, 525, 526, 527, 528, 529, 530, 531, 532, 533, 534, 535, 536, 537, 538, 539, 540, 541, 542, 543, 544, 545, 546, 547, 548, 549, 550, 551, 552, 553, 554, 555, 556, 557, 558, 559, 560, 561, 562, 563, 564, 565, 566, 567, 568, 569, 570, 571, 572, 573, 574, 575, 576, 577, 578, 579, 580, 581, 582, 583, 584, 585, 586, 587, 588, 589, 590, 591, 592, 593, 594, 595, 596, 597, 598, 599, 600, 601, 602, 603, 604, 605, 606, 607, 608, 609, 610, 611, 612, 613, 614, 615, 616, 617, 618, 619, 620, 621, 622, 623, 624, 625, 626, 627, 628, 629, 630, 631, 632, 633, 634, 635, 636, 637, 638, 639, 640, 641, 642, 643, 644, 645, 646, 647, 648, 649, 650, 651, 652, 653, 654, 655, 656, 657, 658, 659, 660, 661, 662, 663, 664, 665, 666, 667, 668, 669, 670, 671, 672, 673, 674, 675, 676, 677, 678, 679, 680, 681, 682, 683, 684, 685, 686, 687, 688, 689, 690, 691, 692, 693, 694, 695, 696, 697, 698, 699, 700, 701, 702, 703, 704, 705, 706, 707, 708, 709, 710, 711, 712, 713, 714, 715, 716, 717, 718, 719, 720, 721, 722, 723, 724, 725, 726, 727, 728, 729, 730, 731, 732, 733, 734, 735, 736, 737, 738, 739, 740, 741, 742, 743, 744, 745, 746, 747, 748, 749, 750, 751, 752, 753, 754, 755, 756, 757, 758, 759, 760, 761, 762, 763, 764, 765, 766, 767, 768, 769, 770, 771, 772, 773, 774, 775, 776, 777, 778, 779, 780, 781, 782, 783, 784, 785, 786, 787, 788, 789, 790, 791, 792, 793, 794, 795, 796, 797, 798, 799, 800, 801, 802, 803, 804, 805, 806, 807, 808, 809, 810, 811, 812, 813, 814, 815, 816, 817, 818, 819, 820, 821, 822, 823, 824, 825, 826, 827, 828, 829, 830, 831, 832, 833, 834, 835, 836, 837, 838, 839, 840, 841, 842, 843, 844, 845, 846, 847, 848, 849, 850, 851, 852, 853, 854, 855, 856, 857, 858, 859, 860, 861, 862, 863, 864, 865, 866, 867, 868, 869, 870, 871, 872],
      "AcquisitionTime": ["120848.905000", "120849.365000", "120849.825000", "120850.285000", "120850.745000", "120851.205000", "120851.665000", "120852.125000", "120852.585000", "120853.045000", "120853.505000", "120853.965000", "120854.425000", "120854.885000", "120855.345000", "120855.805000", "120856.265000", "120856.725000", "120857.185000", "120857.645000", "120858.105000", "120858.565000", "120859.025000", "120859.485000", "120859.945000", "120900.405000", "120900.865000", "120901.325000", "120901.785000", "120902.245000", "120902.705000", "120903.165000", "120903.625000", "120904.085000", "120904.545000", "120905.005000", "120905.465000", "120905.925000", "120906.385000", "120906.845000", "120907.305000", "120907.765000", "120908.225000", "120908.685000", "120909.145000", "120909.605000", "120910.065000", "120910.525000", "120910.985000", "120911.445000", "120911.905000", "120912.365000", "120912.825000", "120913.285000", "120913.745000", "120914.205000", "120914.665000", "120915.125000", "120915.585000", "120916.045000", "120916.505000", "120916.965000", "120917.425000", "120917.885000", "120918.345000", "120918.805000", "120919.265000", "120919.725000", "120920.185000", "120920.645000", "120921.105000", "120921.565000", "120922.025000", "120922.485000", "120922.945000", "120923.405000", "120923.865000", "120924.325000", "120924.785000", "120925.245000", "120925.705000", "120926.165000", "120926.625000", "120927.085000", "120927.545000", "120928.005000", "120928.465000", "120928.925000", "120929.385000", "120929.845000", "120930.305000", "120930.765000", "120931.225000", "120931.685000", "120932.145000", "120932.605000", "120933.065000", "120933.525000", "120933.985000", "120934.445000", "120934.905000", "120935.365000", "120935.825000", "120936.285000", "120936.745000", "120937.205000", "120937.665000", "120938.125000", "120938.585000", "120939.045000", "120939.505000", "120939.965000", "120940.425000", "120940.885000", "120941.345000", "120941.805000", "120942.265000", "120942.725000", "120943.185000", "120943.645000", "120944.105000", "120944.565000", "120945.025000", "120945.485000", "120945.945000", "120946.405000", "120946.865000", "120947.325000", "120947.785000", "120948.245000", "120948.705000", "120949.165000", "120949.625000", "120950.085000", "120950.545000", "120951.005000", "120951.465000", "120951.925000", "120952.385000", "120952.845000", "120953.305000", "120953.765000", "120954.225000", "120954.685000", "120955.145000", "120955.605000", "120956.065000", "120956.525000", "120956.985000", "120957.445000", "120957.905000", "120958.365000", "120958.825000", "120959.285000", "120959.745000", "121000.205000", "121000.665000", "121001.125000", "121001.585000", "121002.045000", "121002.505000", "121002.965000", "121003.425000", "121003.885000", "121004.345000", "121004.805000", "121005.265000", "121005.725000", "121006.185000", "121006.645000", "121007.105000", "121007.565000", "121008.025000", "121008.485000", "121008.945000", "121009.405000", "121009.865000", "121010.325000", "121010.785000", "121011.245000", "121011.705000", "121012.165000", "121012.625000", "121013.085000", "121013.545000", "121014.005000", "121014.465000", "121014.925000", "121015.385000", "121015.845000", "121016.305000", "121016.765000", "121017.225000", "121017.685000", "121018.145000", "121018.605000", "121019.065000", "121019.525000", "121019.985000", "121020.445000", "121020.905000", "121021.365000", "121021.825000", "121022.285000", "121022.745000", "121023.205000", "121023.665000", "121024.125000", "121024.585000", "121025.045000", "121025.505000", "121025.965000", "121026.425000", "121026.885000", "121027.345000", "121027.805000", "121028.265000", "121028.725000", "121029.185000", "121029.645000", "121030.105000", "121030.565000", "121031.025000", "121031.485000", "121031.945000", "121032.405000", "121032.865000", "121033.325000", "121033.785000", "121034.245000", "121034.705000", "121035.165000", "121035.625000", "121036.085000", "121036.545000", "121037.005000", "121037.465000", "121037.925000", "121038.385000", "121038.845000", "121039.305000", "121039.765000", "121040.225000", "121040.685000", "121041.145000", "121041.605000", "121042.065000", "121042.525000", "121042.985000", "121043.445000", "121043.905000", "121044.365000", "121044.825000", "121045.285000", "121045.745000", "121046.205000", "121046.665000", "121047.125000", "121047.585000", "121048.045000", "121048.505000", "121048.965000", "121049.425000", "121049.885000", "121050.345000", "121050.805000", "121051.265000", "121051.725000", "121052.185000", "121052.645000", "121053.105000", "121053.565000", "121054.025000", "121054.485000", "121054.945000", "121055.405000", "121055.865000", "121056.325000", "121056.785000", "121057.245000", "121057.705000", "121058.165000", "121058.625000", "121059.085000", "121059.545000", "121100.005000", "121100.465000", "121100.925000", "121101.385000", "121101.845000", "121102.305000", "121102.765000", "121103.225000", "121103.685000", "121104.145000", "121104.605000", "121105.065000", "121105.525000", "121105.985000", "121106.445000", "121106.905000", "121107.365000", "121107.825000", "121108.285000", "121108.745000", "121109.205000", "121109.665000", "121110.125000", "121110.585000", "121111.045000", "121111.505000", "121111.965000", "121112.425000", "121112.885000", "121113.345000", "121113.805000", "121114.265000", "121114.725000", "121115.185000", "121115.645000", "121116.105000", "121116.565000", "121117.025000", "121117.485000", "121117.945000", "121118.405000", "121118.865000", "121119.325000", "121119.785000", "121120.245000", "121120.705000", "121121.165000", "121121.625000", "121122.085000", "121122.545000", "121123.005000", "121123.465000", "121123.925000", "121124.385000", "121124.845000", "121125.305000", "121125.765000", "121126.225000", "121126.685000", "121127.145000", "121127.605000", "121128.065000", "121128.525000", "121128.985000", "121129.445000", "121129.905000", "121130.365000", "121130.825000", "121131.285000", "121131.745000", "121132.205000", "121132.665000", "121133.125000", "121133.585000", "121134.045000", "121134.505000", "121134.965000", "121135.425000", "121135.885000", "121136.345000", "121136.805000", "121137.265000", "121137.725000", "121138.185000", "121138.645000", "121139.105000", "121139.565000", "121140.025000", "121140.485000", "121140.945000", "121141.405000", "121141.865000", "121142.325000", "121142.785000", "121143.245000", "121143.705000", "121144.165000", "121144.625000", "121145.085000", "121145.545000", "121146.005000", "121146.465000", "121146.925000", "121147.385000", "121147.845000", "121148.305000", "121148.765000", "121149.225000", "121149.685000", "121150.145000", "121150.605000", "121151.065000", "121151.525000", "121151.985000", "121152.445000", "121152.905000", "121153.365000", "121153.825000", "121154.285000", "121154.745000", "121155.205000", "121155.665000", "121156.125000", "121156.585000", "121157.045000", "121157.505000", "121157.965000", "121158.425000", "121158.885000", "121159.345000", "121159.805000", "121200.265000", "121200.725000", "121201.185000", "121201.645000", "121202.105000", "121202.565000", "121203.025000", "121203.485000", "121203.945000", "121204.405000", "121204.865000", "121205.325000", "121205.785000", "121206.245000", "121206.705000", "121207.165000", "121207.625000", "121208.085000", "121208.545000", "121209.005000", "121209.465000", "121209.925000", "121210.385000", "121210.845000", "121211.305000", "121211.765000", "121212.225000", "121212.685000", "121213.145000", "121213.605000", "121214.065000", "121214.525000", "121214.985000", "121215.445000", "121215.905000", "121216.365000", "121216.825000", "121217.285000", "121217.745000", "121218.205000", "121218.665000", "121219.125000", "121219.585000", "121220.045000", "121220.505000", "121220.965000", "121221.425000", "121221.885000", "121222.345000", "121222.805000", "121223.265000", "121223.725000", "121224.185000", "121224.645000", "121225.105000", "121225.565000", "121226.025000", "121226.485000", "121226.945000", "121227.405000", "121227.865000", "121228.325000", "121228.785000", "121229.245000", "121229.705000", "121230.165000", "121230.625000", "121231.085000", "121231.545000", "121232.005000", "121232.465000", "121232.925000", "121233.385000", "121233.845000", "121234.305000", "121234.765000", "121235.225000", "121235.685000", "121236.145000", "121236.605000", "121237.065000", "121237.525000", "121237.985000", "121238.445000", "121238.905000", "121239.365000", "121239.825000", "121240.285000", "121240.745000", "121241.205000", "121241.665000", "121242.125000", "121242.585000", "121243.045000", "121243.505000", "121243.965000", "121244.425000", "121244.885000", "121245.345000", "121245.805000", "121246.265000", "121246.725000", "121247.185000", "121247.645000", "121248.105000", "121248.565000", "121249.025000", "121249.485000", "121249.945000", "121250.405000", "121250.865000", "121251.325000", "121251.785000", "121252.245000", "121252.705000", "121253.165000", "121253.625000", "121254.085000", "121254.545000", "121255.005000", "121255.465000", "121255.925000", "121256.385000", "121256.845000", "121257.305000", "121257.765000", "121258.225000", "121258.685000", "121259.145000", "121259.605000", "121300.065000", "121300.525000", "121300.985000", "121301.445000", "121301.905000", "121302.365000", "121302.825000", "121303.285000", "121303.745000", "121304.205000", "121304.665000", "121305.125000", "121305.585000", "121306.045000", "121306.505000", "121306.965000", "121307.425000", "121307.885000", "121308.345000", "121308.805000", "121309.265000", "121309.725000", "121310.185000", "121310.645000", "121311.105000", "121311.565000", "121312.025000", "121312.485000", "121312.945000", "121313.405000", "121313.865000", "121314.325000", "121314.785000", "121315.245000", "121315.705000", "121316.165000", "121316.625000", "121317.085000", "121317.545000", "121318.005000", "121318.465000", "121318.925000", "121319.385000", "121319.845000", "121320.305000", "121320.765000", "121321.225000", "121321.685000", "121322.145000", "121322.605000", "121323.065000", "121323.525000", "121323.985000", "121324.445000", "121324.905000", "121325.365000", "121325.825000", "121326.285000", "121326.745000", "121327.205000", "121327.665000", "121328.125000", "121328.585000", "121329.045000", "121329.505000", "121329.965000", "121330.425000", "121330.885000", "121331.345000", "121331.805000", "121332.265000", "121332.725000", "121333.185000", "121333.645000", "121334.105000", "121334.565000", "121335.025000", "121335.485000", "121335.945000", "121336.405000", "121336.865000", "121337.325000", "121337.785000", "121338.245000", "121338.705000", "121339.165000", "121339.625000", "121340.085000", "121340.545000", "121341.005000", "121341.465000", "121341.925000", "121342.385000", "121342.845000", "121343.305000", "121343.765000", "121344.225000", "121344.685000", "121345.145000", "121345.605000", "121346.065000", "121346.525000", "121346.985000", "121347.445000", "121347.905000", "121348.365000", "121348.825000", "121349.285000", "121349.745000", "121350.205000", "121350.665000", "121351.125000", "121351.585000", "121352.045000", "121352.505000", "121352.965000", "121353.425000", "121353.885000", "121354.345000", "121354.805000", "121355.265000", "121355.725000", "121356.185000", "121356.645000", "121357.105000", "121357.565000", "121358.025000", "121358.485000", "121358.945000", "121359.405000", "121359.865000", "121400.325000", "121400.785000", "121401.245000", "121401.705000", "121402.165000", "121402.625000", "121403.085000", "121403.545000", "121404.005000", "121404.465000", "121404.925000", "121405.385000", "121405.845000", "121406.305000", "121406.765000", "121407.225000", "121407.685000", "121408.145000", "121408.605000", "121409.065000", "121409.525000", "121409.985000", "121410.445000", "121410.905000", "121411.365000", "121411.825000", "121412.285000", "121412.745000", "121413.205000", "121413.665000", "121414.125000", "121414.585000", "121415.045000", "121415.505000", "121415.965000", "121416.425000", "121416.885000", "121417.345000", "121417.805000", "121418.265000", "121418.725000", "121419.185000", "121419.645000", "121420.105000", "121420.565000", "121421.025000", "121421.485000", "121421.945000", "121422.405000", "121422.865000", "121423.325000", "121423.785000", "121424.245000", "121424.705000", "121425.165000", "121425.625000", "121426.085000", "121426.545000", "121427.005000", "121427.465000", "121427.925000", "121428.385000", "121428.845000", "121429.305000", "121429.765000", "121430.225000", "121430.685000", "121431.145000", "121431.605000", "121432.065000", "121432.525000", "121432.985000", "121433.445000", "121433.905000", "121434.365000", "121434.825000", "121435.285000", "121435.745000", "121436.205000", "121436.665000", "121437.125000", "121437.585000", "121438.045000", "121438.505000", "121438.965000", "121439.425000", "121439.885000", "121440.345000", "121440.805000", "121441.265000", "121441.725000", "121442.185000", "121442.645000", "121443.105000", "121443.565000", "121444.025000", "121444.485000", "121444.945000", "121445.405000", "121445.865000", "121446.325000", "121446.785000", "121447.245000", "121447.705000", "121448.165000", "121448.625000", "121449.085000", "121449.545000", "121450.005000", "121450.465000", "121450.925000", "121451.385000", "121451.845000", "121452.305000", "121452.765000", "121453.225000", "121453.685000", "121454.145000", "121454.605000", "121455.065000", "121455.525000", "121455.985000", "121456.445000", "121456.905000", "121457.365000", "121457.825000", "121458.285000", "121458.745000", "121459.205000", "121459.665000", "121500.125000", "121500.585000", "121501.045000", "121501.505000", "121501.965000", "121502.425000", "121502.885000", "121503.345000", "121503.805000", "121504.265000", "121504.725000", "121505.185000", "121505.645000", "121506.105000", "121506.565000", "121507.025000", "121507.485000", "121507.945000", "121508.405000", "121508.865000", "121509.325000", "121509.785000", "121510.245000", "121510.705000", "121511.165000", "121511.625000", "121512.085000", "121512.545000", "121513.005000", "121513.465000", "121513.925000", "121514.385000", "121514.845000", "121515.305000", "121515.765000", "121516.225000", "121516.685000", "121517.145000", "121517.605000", "121518.065000", "121518.525000", "121518.985000", "121519.445000", "121519.905000", "121520.365000", "121520.825000", "121521.285000", "121521.745000", "121522.205000", "121522.665000", "121523.125000", "121523.585000", "121524.045000", "121524.505000", "121524.965000", "121525.425000", "121525.885000", "121526.345000", "121526.805000", "121527.265000", "121527.725000", "121528.185000", "121528.645000", "121529.105000", "121529.565000"],
