{
  "AcquisitionMatrixPE": 82,
  "AcquisitionNumber": 1,
  "AcquisitionTime": "13:07:3.390000",
  "BandwidthPerPixelPhaseEncode": 24.888,
  "BaseResolution": 82,
  "BodyPartExamined": "BRAIN",
  "ConsistencyInfo": "N4_VE11C_LATEST_20160120",
  "ConversionSoftware": "dcm2niix",
  "ConversionSoftwareVersion": "v1.0.20201102",
  "DerivedVendorReportedEchoSpacing": 0.00049,
  "DeviceSerialNumber": "66112",
  "DwellTime": 2e-06,
  "EchoTime": 0.0272,
  "EchoTrainLength": 82,
  "EffectiveEchoSpacing": 0.00049,
  "FlipAngle": 44,
  "ImageComments": "Unaliased MB8/PE3",
  "ImageOrientationPatientDICOM": [0.999629, 0.0272106, -0.0013799, -0.0272238, 0.999573, -0.0106539],
  "ImageType": [
    "ORIGINAL",
    "PRIMARY",
    "M",
    "MB",
    "ND",
    "NORM",
    "MOSAIC"
],
  "ImagingFrequency": 123.252,
  "InPlanePhaseEncodingDirectionDICOM": "COL",
  "InstitutionAddress": "Maynard 3,Hanover,NH,US,03755",
  "InstitutionName": "Dartmouth College - PBS",
  "InstitutionalDepartmentName": "Department",
  "MRAcquisitionType": "2D",
  "MagneticFieldStrength": 3,
  "Manufacturer": "Siemens",
  "ManufacturersModelName": "Prisma",
  "Modality": "MR",
  "MultibandAccelerationFactor": 8,
  "PartialFourier": 1,
  "PatientPosition": "HFS",
  "PercentPhaseFOV": 100,
  "PercentSampling": 100,
  "PhaseEncodingDirection": "j-",
  "PhaseEncodingSteps": 82,
  "PhaseResolution": 1,
  "PixelBandwidth": 3050,
  "ProcedureStepDescription": "Wager_Wager^1076_spacetop",
  "ProtocolName": "func_run-03_task-alignvideo_acq-ap-mb8",
  "PulseSequenceDetails": "%CustomerSeq%\\cmrr_mbep2d_bold",
  "ReceiveCoilActiveElements": "HEA;HEP",
  "ReceiveCoilName": "Head_32",
  "ReconMatrixPE": 82,
  "RepetitionTime": 0.46,
  "SAR": 0.0928248,
  "ScanOptions": "FS",
  "ScanningSequence": "EP",
  "SequenceName": "epfid2d1_82",
  "SequenceVariant": "SK\\SS",
  "SeriesDescription": "func_run-03_task-alignvideo_acq-ap-mb8",
  "SeriesNumber": 34,
  "ShimSetting": [4140, -7717, -7226, 595, -50, -43, -115, 72],
  "SliceThickness": 2.7,
  "SliceTiming": [0, 0.25, 0.0625, 0.3125, 0.125, 0.375, 0.1875, 0, 0.25, 0.0625, 0.3125, 0.125, 0.375, 0.1875, 0, 0.25, 0.0625, 0.3125, 0.125, 0.375, 0.1875, 0, 0.25, 0.0625, 0.3125, 0.125, 0.375, 0.1875, 0, 0.25, 0.0625, 0.3125, 0.125, 0.375, 0.1875, 0, 0.25, 0.0625, 0.3125, 0.125, 0.375, 0.1875, 0, 0.25, 0.0625, 0.3125, 0.125, 0.375, 0.1875, 0, 0.25, 0.0625, 0.3125, 0.125, 0.375, 0.1875],
  "SoftwareVersions": "syngo MR E11",
  "SpacingBetweenSlices": 2.7,
  "StationName": "AWP66112",
  "TaskName": "alignvideo",
  "TotalReadoutTime": 0.03969,
  "TxRefAmp": 288.042,
  "WipMemBlock": "5e7edf91-79ac-436d-882d-1c294643c310||Sequence: R016 ve11c/master r/e634e98; Dec 19 2017 11:00:25 by eja",
  "dcmmeta_affine": [
    [-2.6819310188293457, -0.0730394572019577, -0.002941403305158019, 114.76361846923828],
    [-0.0730040967464447, 2.6817800998687744, -0.028856249526143074, -94.40242004394531],
    [-0.003702163463458419, 0.028583604842424393, 2.6998441219329834, -69.02823638916016],
    [0.0, 0.0, 0.0, 1.0]
],
  "dcmmeta_reorient_transform": [
    [0.0, -1.0, 0.0, 81.0],
    [1.0, 0.0, 0.0, 0.0],
    [0.0, 0.0, 1.0, 0.0],
    [0.0, 0.0, 0.0, 1.0]
],
  "dcmmeta_shape": [82, 82, 56, 1065],
  "dcmmeta_slice_dim": 2,
  "dcmmeta_version": 0.6,
  "global": {
    "const": {
      "AccessionNumber": "A003639",
      "AcquisitionMatrix": [82, 0, 0, 82],
      "AngioFlag": "N",
      "BitsAllocated": 16,
      "BitsStored": 16,
      "BodyPartExamined": "BRAIN",
      "Columns": 656,
      "EchoNumbers": 1,
      "EchoTime": 27.2,
      "EchoTrainLength": 82,
      "FlipAngle": 44.0,
      "HighBit": 15,
      "ImageOrientationPatient": [0.99962877015345, 0.02721061860635, -0.0013798972998, -0.0272237960318, 0.99957258845035, -0.0106538888814],
      "ImagePositionPatient": [-857.59927164091, -913.44486364097, -57.44695003705],
      "ImageType": [
        "ORIGINAL",
        "PRIMARY",
        "M",
        "MB",
        "ND",
        "NORM",
        "MOSAIC"
],
      "ImagedNucleus": "1H",
      "ImagingFrequency": 123.252154,
      "InPlanePhaseEncodingDirection": "COL",
      "MRAcquisitionType": "2D",
      "MagneticFieldStrength": 3.0,
      "Manufacturer": "SIEMENS",
      "ManufacturerModelName": "Prisma",
      "Modality": "MR",
      "NumberOfAverages": 1.0,
      "NumberOfPhaseEncodingSteps": 82,
      "PercentPhaseFieldOfView": 100.0,
      "PercentSampling": 100.0,
      "PerformedProcedureStepStartTime": "113113.917000",
      "PhotometricInterpretation": "MONOCHROME2",
      "PixelBandwidth": 3050.0,
      "PixelRepresentation": 0,
      "PixelSpacing": [2.6829268932343, 2.6829268932343],
      "ProtocolName": "func_run-03_task-alignvideo_acq-ap-mb8",
      "RepetitionTime": 460.0,
      "Rows": 656,
      "SAR": 0.09282484893478,
      "SamplesPerPixel": 1,
      "ScanOptions": "FS",
      "ScanningSequence": "EP",
      "SequenceName": "epfid2d1_82",
      "SequenceVariant": [
        "SK",
        "SS"
],
      "SeriesDescription": "func_run-03_task-alignvideo_acq-ap-mb8",
      "SeriesNumber": 34,
      "SeriesTime": "130723.940000",
      "SliceLocation": -68.14035288264,
      "SliceThickness": 2.7000000476837,
      "SmallestImagePixelValue": 0,
      "SoftwareVersions": "syngo MR E11",
      "SpacingBetweenSlices": 2.7000000290199,
      "SpecificCharacterSet": "ISO_IR 100",
      "StudyID": "3",
      "StudyTime": "113113.871000",
      "TransmitCoilName": "Body",
      "VariableFlipAngleFlag": "N",
      "WindowCenterWidthExplanation": "Algo1",
      "dBdt": 0.0},
    "slices": {}
  },
  "time": {
    "samples": {
      "AcquisitionNumber": [1, 2, 3, 4, 5, 6, 7, 8, 9, 10, 11, 12, 13, 14, 15, 16, 17, 18, 19, 20, 21, 22, 23, 24, 25, 26, 27, 28, 29, 30, 31, 32, 33, 34, 35, 36, 37, 38, 39, 40, 41, 42, 43, 44, 45, 46, 47, 48, 49, 50, 51, 52, 53, 54, 55, 56, 57, 58, 59, 60, 61, 62, 63, 64, 65, 66, 67, 68, 69, 70, 71, 72, 73, 74, 75, 76, 77, 78, 79, 80, 81, 82, 83, 84, 85, 86, 87, 88, 89, 90, 91, 92, 93, 94, 95, 96, 97, 98, 99, 100, 101, 102, 103, 104, 105, 106, 107, 108, 109, 110, 111, 112, 113, 114, 115, 116, 117, 118, 119, 120, 121, 122, 123, 124, 125, 126, 127, 128, 129, 130, 131, 132, 133, 134, 135, 136, 137, 138, 139, 140, 141, 142, 143, 144, 145, 146, 147, 148, 149, 150, 151, 152, 153, 154, 155, 156, 157, 158, 159, 160, 161, 162, 163, 164, 165, 166, 167, 168, 169, 170, 171, 172, 173, 174, 175, 176, 177, 178, 179, 180, 181, 182, 183, 184, 185, 186, 187, 188, 189, 190, 191, 192, 193, 194, 195, 196, 197, 198, 199, 200, 201, 202, 203, 204, 205, 206, 207, 208, 209, 210, 211, 212, 213, 214, 215, 216, 217, 218, 219, 220, 221, 222, 223, 224, 225, 226, 227, 228, 229, 230, 231, 232, 233, 234, 235, 236, 237, 238, 239, 240, 241, 242, 243, 244, 245, 246, 247, 248, 249, 250, 251, 252, 253, 254, 255, 256, 257, 258, 259, 260, 261, 262, 263, 264, 265, 266, 267, 268, 269, 270, 271, 272, 273, 274, 275, 276, 277, 278, 279, 280, 281, 282, 283, 284, 285, 286, 287, 288, 289, 290, 291, 292, 293, 294, 295, 296, 297, 298, 299, 300, 301, 302, 303, 304, 305, 306, 307, 308, 309, 310, 311, 312, 313, 314, 315, 316, 317, 318, 319, 320, 321, 322, 323, 324, 325, 326, 327, 328, 329, 330, 331, 332, 333, 334, 335, 336, 337, 338, 339, 340, 341, 342, 343, 344, 345, 346, 347, 348, 349, 350, 351, 352, 353, 354, 355, 356, 357, 358, 359, 360, 361, 362, 363, 364, 365, 366, 367, 368, 369, 370, 371, 372, 373, 374, 375, 376, 377, 378, 379, 380, 381, 382, 383, 384, 385, 386, 387, 388, 389, 390, 391, 392, 393, 394, 395, 396, 397, 398, 399, 400, 401, 402, 403, 404, 405, 406, 407, 408, 409, 410, 411, 412, 413, 414, 415, 416, 417, 418, 419, 420, 421, 422, 423, 424, 425, 426, 427, 428, 429, 430, 431, 432, 433, 434, 435, 436, 437, 438, 439, 440, 441, 442, 443, 444, 445, 446, 447, 448, 449, 450, 451, 452, 453, 454, 455, 456, 457, 458, 459, 460, 461, 462, 463, 464, 465, 466, 467, 468, 469, 470, 471, 472, 473, 474, 475, 476, 477, 478, 479, 480, 481, 482, 483, 484, 485, 486, 487, 488, 489, 490, 491, 492, 493, 494, 495, 496, 497, 498, 499, 500, 501, 502, 503, 504, 505, 506, 507, 508, 509, 510, 511, 512, 513, 514, 515, 516, 517, 518, 519, 520, 521, 522, 523, 524, 525, 526, 527, 528, 529, 530, 531, 532, 533, 534, 535, 536, 537, 538, 539, 540, 541, 542, 543, 544, 545, 546, 547, 548, 549, 550, 551, 552, 553, 554, 555, 556, 557, 558, 559, 560, 561, 562, 563, 564, 565, 566, 567, 568, 569, 570, 571, 572, 573, 574, 575, 576, 577, 578, 579, 580, 581, 582, 583, 584, 585, 586, 587, 588, 589, 590, 591, 592, 593, 594, 595, 596, 597, 598, 599, 600, 601, 602, 603, 604, 605, 606, 607, 608, 609, 610, 611, 612, 613, 614, 615, 616, 617, 618, 619, 620, 621, 622, 623, 624, 625, 626, 627, 628, 629, 630, 631, 632, 633, 634, 635, 636, 637, 638, 639, 640, 641, 642, 643, 644, 645, 646, 647, 648, 649, 650, 651, 652, 653, 654, 655, 656, 657, 658, 659, 660, 661, 662, 663, 664, 665, 666, 667, 668, 669, 670, 671, 672, 673, 674, 675, 676, 677, 678, 679, 680, 681, 682, 683, 684, 685, 686, 687, 688, 689, 690, 691, 692, 693, 694, 695, 696, 697, 698, 699, 700, 701, 702, 703, 704, 705, 706, 707, 708, 709, 710, 711, 712, 713, 714, 715, 716, 717, 718, 719, 720, 721, 722, 723, 724, 725, 726, 727, 728, 729, 730, 731, 732, 733, 734, 735, 736, 737, 738, 739, 740, 741, 742, 743, 744, 745, 746, 747, 748, 749, 750, 751, 752, 753, 754, 755, 756, 757, 758, 759, 760, 761, 762, 763, 764, 765, 766, 767, 768, 769, 770, 771, 772, 773, 774, 775, 776, 777, 778, 779, 780, 781, 782, 783, 784, 785, 786, 787, 788, 789, 790, 791, 792, 793, 794, 795, 796, 797, 798, 799, 800, 801, 802, 803, 804, 805, 806, 807, 808, 809, 810, 811, 812, 813, 814, 815, 816, 817, 818, 819, 820, 821, 822, 823, 824, 825, 826, 827, 828, 829, 830, 831, 832, 833, 834, 835, 836, 837, 838, 839, 840, 841, 842, 843, 844, 845, 846, 847, 848, 849, 850, 851, 852, 853, 854, 855, 856, 857, 858, 859, 860, 861, 862, 863, 864, 865, 866, 867, 868, 869, 870, 871, 872, 873, 874, 875, 876, 877, 878, 879, 880, 881, 882, 883, 884, 885, 886, 887, 888, 889, 890, 891, 892, 893, 894, 895, 896, 897, 898, 899, 900, 901, 902, 903, 904, 905, 906, 907, 908, 909, 910, 911, 912, 913, 914, 915, 916, 917, 918, 919, 920, 921, 922, 923, 924, 925, 926, 927, 928, 929, 930, 931, 932, 933, 934, 935, 936, 937, 938, 939, 940, 941, 942, 943, 944, 945, 946, 947, 948, 949, 950, 951, 952, 953, 954, 955, 956, 957, 958, 959, 960, 961, 962, 963, 964, 965, 966, 967, 968, 969, 970, 971, 972, 973, 974, 975, 976, 977, 978, 979, 980, 981, 982, 983, 984, 985, 986, 987, 988, 989, 990, 991, 992, 993, 994, 995, 996, 997, 998, 999, 1000, 1001, 1002, 1003, 1004, 1005, 1006, 1007, 1008, 1009, 1010, 1011, 1012, 1013, 1014, 1015, 1016, 1017, 1018, 1019, 1020, 1021, 1022, 1023, 1024, 1025, 1026, 1027, 1028, 1029, 1030, 1031, 1032, 1033, 1034, 1035, 1036, 1037, 1038, 1039, 1040, 1041, 1042, 1043, 1044, 1045, 1046, 1047, 1048, 1049, 1050, 1051, 1052, 1053, 1054, 1055, 1056, 1057, 1058, 1059, 1060, 1061, 1062, 1063, 1064, 1065],
      "AcquisitionTime": ["130703.390000", "130703.850000", "130704.310000", "130704.770000", "130705.230000", "130705.690000", "130706.150000", "130706.610000", "130707.070000", "130707.530000", "130707.990000", "130708.450000", "130708.910000", "130709.370000", "130709.830000", "130710.290000", "130710.750000", "130711.210000", "130711.670000", "130712.130000", "130712.590000", "130713.050000", "130713.510000", "130713.970000", "130714.430000", "130714.890000", "130715.350000", "130715.810000", "130716.270000", "130716.730000", "130717.190000", "130717.650000", "130718.110000", "130718.570000", "130719.030000", "130719.490000", "130719.950000", "130720.410000", "130720.870000", "130721.330000", "130721.790000", "130722.250000", "130722.710000", "130723.170000", "130723.630000", "130724.090000", "130724.550000", "130725.010000", "130725.470000", "130725.930000", "130726.390000", "130726.850000", "130727.310000", "130727.770000", "130728.230000", "130728.690000", "130729.150000", "130729.610000", "130730.070000", "130730.530000", "130730.990000", "130731.450000", "130731.910000", "130732.370000", "130732.830000", "130733.290000", "130733.750000", "130734.210000", "130734.670000", "130735.130000", "130735.590000", "130736.050000", "130736.510000", "130736.970000", "130737.430000", "130737.890000", "130738.350000", "130738.810000", "130739.270000", "130739.730000", "130740.190000", "130740.650000", "130741.110000", "130741.570000", "130742.030000", "130742.490000", "130742.950000", "130743.410000", "130743.870000", "130744.330000", "130744.790000", "130745.250000", "130745.710000", "130746.170000", "130746.630000", "130747.090000", "130747.550000", "130748.010000", "130748.470000", "130748.930000", "130749.390000", "130749.850000", "130750.310000", "130750.770000", "130751.230000", "130751.690000", "130752.150000", "130752.610000", "130753.070000", "130753.530000", "130753.990000", "130754.450000", "130754.910000", "130755.370000", "130755.830000", "130756.290000", "130756.750000", "130757.210000", "130757.670000", "130758.130000", "130758.590000", "130759.050000", "130759.510000", "130759.970000", "130800.430000", "130800.890000", "130801.350000", "130801.810000", "130802.270000", "130802.730000", "130803.190000", "130803.650000", "130804.110000", "130804.570000", "130805.030000", "130805.490000", "130805.950000", "130806.410000", "130806.870000", "130807.330000", "130807.790000", "130808.250000", "130808.710000", "130809.170000", "130809.630000", "130810.090000", "130810.550000", "130811.010000", "130811.470000", "130811.930000", "130812.390000", "130812.850000", "130813.310000", "130813.770000", "130814.230000", "130814.690000", "130815.150000", "130815.610000", "130816.070000", "130816.530000", "130816.990000", "130817.450000", "130817.910000", "130818.370000", "130818.830000", "130819.290000", "130819.750000", "130820.210000", "130820.670000", "130821.130000", "130821.590000", "130822.050000", "130822.510000", "130822.970000", "130823.430000", "130823.890000", "130824.350000", "130824.810000", "130825.270000", "130825.730000", "130826.190000", "130826.650000", "130827.110000", "130827.570000", "130828.030000", "130828.490000", "130828.950000", "130829.410000", "130829.870000", "130830.330000", "130830.790000", "130831.250000", "130831.710000", "130832.170000", "130832.630000", "130833.090000", "130833.550000", "130834.010000", "130834.470000", "130834.930000", "130835.390000", "130835.850000", "130836.310000", "130836.770000", "130837.230000", "130837.690000", "130838.150000", "130838.610000", "130839.070000", "130839.530000", "130839.990000", "130840.450000", "130840.910000", "130841.370000", "130841.830000", "130842.290000", "130842.750000", "130843.210000", "130843.670000", "130844.130000", "130844.590000", "130845.050000", "130845.510000", "130845.970000", "130846.430000", "130846.890000", "130847.350000", "130847.810000", "130848.270000", "130848.730000", "130849.190000", "130849.650000", "130850.110000", "130850.570000", "130851.030000", "130851.490000", "130851.950000", "130852.410000", "130852.870000", "130853.330000", "130853.790000", "130854.250000", "130854.710000", "130855.170000", "130855.630000", "130856.090000", "130856.550000", "130857.010000", "130857.470000", "130857.930000", "130858.390000", "130858.850000", "130859.310000", "130859.770000", "130900.230000", "130900.690000", "130901.150000", "130901.610000", "130902.070000", "130902.530000", "130902.990000", "130903.450000", "130903.910000", "130904.370000", "130904.830000", "130905.290000", "130905.750000", "130906.210000", "130906.670000", "130907.130000", "130907.590000", "130908.050000", "130908.510000", "130908.970000", "130909.430000", "130909.890000", "130910.350000", "130910.810000", "130911.270000", "130911.730000", "130912.190000", "130912.650000", "130913.110000", "130913.570000", "130914.030000", "130914.490000", "130914.950000", "130915.410000", "130915.870000", "130916.330000", "130916.790000", "130917.250000", "130917.710000", "130918.170000", "130918.630000", "130919.090000", "130919.550000", "130920.010000", "130920.470000", "130920.930000", "130921.390000", "130921.850000", "130922.310000", "130922.770000", "130923.230000", "130923.690000", "130924.150000", "130924.610000", "130925.070000", "130925.530000", "130925.990000", "130926.450000", "130926.910000", "130927.370000", "130927.830000", "130928.290000", "130928.750000", "130929.210000", "130929.670000", "130930.130000", "130930.590000", "130931.050000", "130931.510000", "130931.970000", "130932.430000", "130932.890000", "130933.350000", "130933.810000", "130934.270000", "130934.730000", "130935.190000", "130935.650000", "130936.110000", "130936.570000", "130937.030000", "130937.490000", "130937.950000", "130938.410000", "130938.870000", "130939.330000", "130939.790000", "130940.250000", "130940.710000", "130941.170000", "130941.630000", "130942.090000", "130942.550000", "130943.010000", "130943.470000", "130943.930000", "130944.390000", "130944.850000", "130945.310000", "130945.770000", "130946.230000", "130946.690000", "130947.150000", "130947.610000", "130948.070000", "130948.530000", "130948.990000", "130949.450000", "130949.910000", "130950.370000", "130950.830000", "130951.290000", "130951.750000", "130952.210000", "130952.670000", "130953.130000", "130953.590000", "130954.050000", "130954.510000", "130954.970000", "130955.430000", "130955.890000", "130956.350000", "130956.810000", "130957.270000", "130957.730000", "130958.190000", "130958.650000", "130959.110000", "130959.570000", "131000.030000", "131000.490000", "131000.950000", "131001.410000", "131001.870000", "131002.330000", "131002.790000", "131003.250000", "131003.710000", "131004.170000", "131004.630000", "131005.090000", "131005.550000", "131006.010000", "131006.470000", "131006.930000", "131007.390000", "131007.850000", "131008.310000", "131008.770000", "131009.230000", "131009.690000", "131010.150000", "131010.610000", "131011.070000", "131011.530000", "131011.990000", "131012.450000", "131012.910000", "131013.370000", "131013.830000", "131014.290000", "131014.750000", "131015.210000", "131015.670000", "131016.130000", "131016.590000", "131017.050000", "131017.510000", "131017.970000", "131018.430000", "131018.890000", "131019.350000", "131019.810000", "131020.270000", "131020.730000", "131021.190000", "131021.650000", "131022.110000", "131022.570000", "131023.030000", "131023.490000", "131023.950000", "131024.410000", "131024.870000", "131025.330000", "131025.790000", "131026.250000", "131026.710000", "131027.170000", "131027.630000", "131028.090000", "131028.550000", "131029.010000", "131029.470000", "131029.930000", "131030.390000", "131030.850000", "131031.310000", "131031.770000", "131032.230000", "131032.690000", "131033.150000", "131033.610000", "131034.070000", "131034.530000", "131034.990000", "131035.450000", "131035.910000", "131036.370000", "131036.830000", "131037.290000", "131037.750000", "131038.210000", "131038.670000", "131039.130000", "131039.590000", "131040.050000", "131040.510000", "131040.970000", "131041.430000", "131041.890000", "131042.350000", "131042.810000", "131043.270000", "131043.730000", "131044.190000", "131044.650000", "131045.110000", "131045.570000", "131046.030000", "131046.490000", "131046.950000", "131047.410000", "131047.870000", "131048.330000", "131048.790000", "131049.250000", "131049.710000", "131050.170000", "131050.630000", "131051.090000", "131051.550000", "131052.010000", "131052.470000", "131052.930000", "131053.390000", "131053.850000", "131054.310000", "131054.770000", "131055.230000", "131055.690000", "131056.150000", "131056.610000", "131057.070000", "131057.530000", "131057.990000", "131058.450000", "131058.910000", "131059.370000", "131059.830000", "131100.290000", "131100.750000", "131101.210000", "131101.670000", "131102.130000", "131102.590000", "131103.050000", "131103.510000", "131103.970000", "131104.430000", "131104.890000", "131105.350000", "131105.810000", "131106.270000", "131106.730000", "131107.190000", "131107.650000", "131108.110000", "131108.570000", "131109.030000", "131109.490000", "131109.950000", "131110.410000", "131110.870000", "131111.330000", "131111.790000", "131112.250000", "131112.710000", "131113.170000", "131113.630000", "131114.090000", "131114.550000", "131115.010000", "131115.470000", "131115.930000", "131116.390000", "131116.850000", "131117.310000", "131117.770000", "131118.230000", "131118.690000", "131119.150000", "131119.610000", "131120.070000", "131120.530000", "131120.990000", "131121.450000", "131121.910000", "131122.370000", "131122.830000", "131123.290000", "131123.750000", "131124.210000", "131124.670000", "131125.130000", "131125.590000", "131126.050000", "131126.510000", "131126.970000", "131127.430000", "131127.890000", "131128.350000", "131128.810000", "131129.270000", "131129.730000", "131130.190000", "131130.650000", "131131.110000", "131131.570000", "131132.030000", "131132.490000", "131132.950000", "131133.410000", "131133.870000", "131134.330000", "131134.790000", "131135.250000", "131135.710000", "131136.170000", "131136.630000", "131137.090000", "131137.550000", "131138.010000", "131138.470000", "131138.930000", "131139.390000", "131139.850000", "131140.310000", "131140.770000", "131141.230000", "131141.690000", "131142.150000", "131142.610000", "131143.070000", "131143.530000", "131143.990000", "131144.450000", "131144.910000", "131145.370000", "131145.830000", "131146.290000", "131146.750000", "131147.210000", "131147.670000", "131148.130000", "131148.590000", "131149.050000", "131149.510000", "131149.970000", "131150.430000", "131150.890000", "131151.350000", "131151.810000", "131152.270000", "131152.730000", "131153.190000", "131153.650000", "131154.110000", "131154.570000", "131155.030000", "131155.490000", "131155.950000", "131156.410000", "131156.870000", "131157.330000", "131157.790000", "131158.250000", "131158.710000", "131159.170000", "131159.630000", "131200.090000", "131200.550000", "131201.010000", "131201.470000", "131201.930000", "131202.390000", "131202.850000", "131203.310000", "131203.770000", "131204.230000", "131204.690000", "131205.150000", "131205.610000", "131206.070000", "131206.530000", "131206.990000", "131207.450000", "131207.910000", "131208.370000", "131208.830000", "131209.290000", "131209.750000", "131210.210000", "131210.670000", "131211.130000", "131211.590000", "131212.050000", "131212.510000", "131212.970000", "131213.430000", "131213.890000", "131214.350000", "131214.810000", "131215.270000", "131215.730000", "131216.190000", "131216.650000", "131217.110000", "131217.570000", "131218.030000", "131218.490000", "131218.950000", "131219.410000", "131219.870000", "131220.330000", "131220.790000", "131221.250000", "131221.710000", "131222.170000", "131222.630000", "131223.090000", "131223.550000", "131224.010000", "131224.470000", "131224.930000", "131225.390000", "131225.850000", "131226.310000", "131226.770000", "131227.230000", "131227.690000", "131228.150000", "131228.610000", "131229.070000", "131229.530000", "131229.990000", "131230.450000", "131230.910000", "131231.370000", "131231.830000", "131232.290000", "131232.750000", "131233.210000", "131233.670000", "131234.130000", "131234.590000", "131235.050000", "131235.510000", "131235.970000", "131236.430000", "131236.890000", "131237.350000", "131237.810000", "131238.270000", "131238.730000", "131239.190000", "131239.650000", "131240.110000", "131240.570000", "131241.030000", "131241.490000", "131241.950000", "131242.410000", "131242.870000", "131243.330000", "131243.790000", "131244.250000", "131244.710000", "131245.170000", "131245.630000", "131246.090000", "131246.550000", "131247.010000", "131247.470000", "131247.930000", "131248.390000", "131248.850000", "131249.310000", "131249.770000", "131250.230000", "131250.690000", "131251.150000", "131251.610000", "131252.070000", "131252.530000", "131252.990000", "131253.450000", "131253.910000", "131254.370000", "131254.830000", "131255.290000", "131255.750000", "131256.210000", "131256.670000", "131257.130000", "131257.590000", "131258.050000", "131258.510000", "131258.970000", "131259.430000", "131259.890000", "131300.350000", "131300.810000", "131301.270000", "131301.730000", "131302.190000", "131302.650000", "131303.110000", "131303.570000", "131304.030000", "131304.490000", "131304.950000", "131305.410000", "131305.870000", "131306.330000", "131306.790000", "131307.250000", "131307.710000", "131308.170000", "131308.630000", "131309.090000", "131309.550000", "131310.010000", "131310.470000", "131310.930000", "131311.390000", "131311.850000", "131312.310000", "131312.770000", "131313.230000", "131313.690000", "131314.150000", "131314.610000", "131315.070000", "131315.530000", "131315.990000", "131316.450000", "131316.910000", "131317.370000", "131317.830000", "131318.290000", "131318.750000", "131319.210000", "131319.670000", "131320.130000", "131320.590000", "131321.050000", "131321.510000", "131321.970000", "131322.430000", "131322.890000", "131323.350000", "131323.810000", "131324.270000", "131324.730000", "131325.190000", "131325.650000", "131326.110000", "131326.570000", "131327.030000", "131327.490000", "131327.950000", "131328.410000", "131328.870000", "131329.330000", "131329.790000", "131330.250000", "131330.710000", "131331.170000", "131331.630000", "131332.090000", "131332.550000", "131333.010000", "131333.470000", "131333.930000", "131334.390000", "131334.850000", "131335.310000", "131335.770000", "131336.230000", "131336.690000", "131337.150000", "131337.610000", "131338.070000", "131338.530000", "131338.990000", "131339.450000", "131339.910000", "131340.370000", "131340.830000", "131341.290000", "131341.750000", "131342.210000", "131342.670000", "131343.130000", "131343.590000", "131344.050000", "131344.510000", "131344.970000", "131345.430000", "131345.890000", "131346.350000", "131346.810000", "131347.270000", "131347.730000", "131348.190000", "131348.650000", "131349.110000", "131349.570000", "131350.030000", "131350.490000", "131350.950000", "131351.410000", "131351.870000", "131352.330000", "131352.790000", "131353.250000", "131353.710000", "131354.170000", "131354.630000", "131355.090000", "131355.550000", "131356.010000", "131356.470000", "131356.930000", "131357.390000", "131357.850000", "131358.310000", "131358.770000", "131359.230000", "131359.690000", "131400.150000", "131400.610000", "131401.070000", "131401.530000", "131401.990000", "131402.450000", "131402.910000", "131403.370000", "131403.830000", "131404.290000", "131404.750000", "131405.210000", "131405.670000", "131406.130000", "131406.590000", "131407.050000", "131407.510000", "131407.970000", "131408.430000", "131408.890000", "131409.350000", "131409.810000", "131410.270000", "131410.730000", "131411.190000", "131411.650000", "131412.110000", "131412.570000", "131413.030000", "131413.490000", "131413.950000", "131414.410000", "131414.870000", "131415.330000", "131415.790000", "131416.250000", "131416.710000", "131417.170000", "131417.630000", "131418.090000", "131418.550000", "131419.010000", "131419.470000", "131419.930000", "131420.390000", "131420.850000", "131421.310000", "131421.770000", "131422.230000", "131422.690000", "131423.150000", "131423.610000", "131424.070000", "131424.530000", "131424.990000", "131425.450000", "131425.910000", "131426.370000", "131426.830000", "131427.290000", "131427.750000", "131428.210000", "131428.670000", "131429.130000", "131429.590000", "131430.050000", "131430.510000", "131430.970000", "131431.430000", "131431.890000", "131432.350000", "131432.810000", "131433.270000", "131433.730000", "131434.190000", "131434.650000", "131435.110000", "131435.570000", "131436.030000", "131436.490000", "131436.950000", "131437.410000", "131437.870000", "131438.330000", "131438.790000", "131439.250000", "131439.710000", "131440.170000", "131440.630000", "131441.090000", "131441.550000", "131442.010000", "131442.470000", "131442.930000", "131443.390000", "131443.850000", "131444.310000", "131444.770000", "131445.230000", "131445.690000", "131446.150000", "131446.610000", "131447.070000", "131447.530000", "131447.990000", "131448.450000", "131448.910000", "131449.370000", "131449.830000", "131450.290000", "131450.750000", "131451.210000", "131451.670000", "131452.130000", "131452.590000", "131453.050000", "131453.510000", "131453.970000", "131454.430000", "131454.890000", "131455.350000", "131455.810000", "131456.270000", "131456.730000", "131457.190000", "131457.650000", "131458.110000", "131458.570000", "131459.030000", "131459.490000", "131459.950000", "131500.410000", "131500.870000", "131501.330000", "131501.790000", "131502.250000", "131502.710000", "131503.170000", "131503.630000", "131504.090000", "131504.550000", "131505.010000", "131505.470000", "131505.930000", "131506.390000", "131506.850000", "131507.310000", "131507.770000", "131508.230000", "131508.690000", "131509.150000", "131509.610000", "131510.070000", "131510.530000", "131510.990000", "131511.450000", "131511.910000", "131512.370000", "131512.830000"],
