{
  "AcquisitionMatrixPE": 82,
  "AcquisitionNumber": 1,
  "AcquisitionTime": "11:46:19.155000",
  "BandwidthPerPixelPhaseEncode": 24.888,
  "BaseResolution": 82,
  "BodyPartExamined": "BRAIN",
  "ConsistencyInfo": "N4_VE11C_LATEST_20160120",
  "ConversionSoftware": "dcm2niix",
  "ConversionSoftwareVersion": "v1.0.20201102",
  "DerivedVendorReportedEchoSpacing": 0.00049,
  "DeviceSerialNumber": "66112",
  "DwellTime": 2e-06,
  "EchoTime": 0.0272,
  "EchoTrainLength": 82,
  "EffectiveEchoSpacing": 0.00049,
  "FlipAngle": 44,
  "ImageComments": "Unaliased MB8/PE3",
  "ImageOrientationPatientDICOM": [0.999581, 0.0237873, 0.0164756, -0.0237311, 0.999712, -0.00360201],
  "ImageType": [
    "ORIGINAL",
    "PRIMARY",
    "M",
    "MB",
    "ND",
    "NORM",
    "MOSAIC"
],
  "ImagingFrequency": 123.252,
  "InPlanePhaseEncodingDirectionDICOM": "COL",
  "InstitutionAddress": "Maynard 3,Hanover,NH,US,03755",
  "InstitutionName": "Dartmouth College - PBS",
  "InstitutionalDepartmentName": "Department",
  "MRAcquisitionType": "2D",
  "MagneticFieldStrength": 3,
  "Manufacturer": "Siemens",
  "ManufacturersModelName": "Prisma",
  "Modality": "MR",
  "MultibandAccelerationFactor": 8,
  "PartialFourier": 1,
  "PatientPosition": "HFS",
  "PercentPhaseFOV": 100,
  "PercentSampling": 100,
  "PhaseEncodingDirection": "j-",
  "PhaseEncodingSteps": 82,
  "PhaseResolution": 1,
  "PixelBandwidth": 3050,
  "ProcedureStepDescription": "Wager_Wager^1076_spacetop",
  "ProtocolName": "func_run-02_task-social_acq-ap-mb8",
  "PulseSequenceDetails": "%CustomerSeq%\\cmrr_mbep2d_bold",
  "ReceiveCoilActiveElements": "HEA;HEP",
  "ReceiveCoilName": "Head_32",
  "ReconMatrixPE": 82,
  "RepetitionTime": 0.46,
  "SAR": 0.0927202,
  "ScanOptions": "FS",
  "ScanningSequence": "EP",
  "SequenceName": "epfid2d1_82",
  "SequenceVariant": "SK\\SS",
  "SeriesDescription": "func_run-02_task-social_acq-ap-mb8",
  "SeriesNumber": 10,
  "ShimSetting": [4140, -7712, -7222, 600, -56, -11, -122, 73],
  "SliceThickness": 2.7,
  "SliceTiming": [0, 0.2525, 0.065, 0.315, 0.1275, 0.3775, 0.19, 0, 0.2525, 0.065, 0.315, 0.1275, 0.3775, 0.19, 0, 0.2525, 0.065, 0.315, 0.1275, 0.3775, 0.19, 0, 0.2525, 0.065, 0.315, 0.1275, 0.3775, 0.19, 0, 0.2525, 0.065, 0.315, 0.1275, 0.3775, 0.19, 0, 0.2525, 0.065, 0.315, 0.1275, 0.3775, 0.19, 0, 0.2525, 0.065, 0.315, 0.1275, 0.3775, 0.19, 0, 0.2525, 0.065, 0.315, 0.1275, 0.3775, 0.19],
  "SoftwareVersions": "syngo MR E11",
  "SpacingBetweenSlices": 2.7,
  "StationName": "AWP66112",
  "TaskName": "social",
  "TotalReadoutTime": 0.03969,
  "TxRefAmp": 288.042,
  "WipMemBlock": "2520dfee-735c-48b0-8520-d9207a7c34d7||Sequence: R016 ve11c/master r/e634e98; Dec 19 2017 11:00:25 by eja",
  "dcmmeta_affine": [
    [-2.6818034648895264, -0.06366871297359467, 0.04470270499587059, 113.54895782470703],
    [-0.06381966173648834, 2.6821539402008057, -0.008665688335895538, -94.49252319335938],
    [0.04420289024710655, 0.009663919918239117, 2.699615955352783, -64.56947326660156],
    [0.0, 0.0, 0.0, 1.0]
],
  "dcmmeta_reorient_transform": [
    [0.0, -1.0, 0.0, 81.0],
    [1.0, 0.0, 0.0, 0.0],
    [0.0, 0.0, 1.0, 0.0],
    [0.0, 0.0, 0.0, 1.0]
],
  "dcmmeta_shape": [82, 82, 56, 872],
  "dcmmeta_slice_dim": 2,
  "dcmmeta_version": 0.6,
  "global": {
    "const": {
      "AccessionNumber": "A003639",
      "AcquisitionMatrix": [82, 0, 0, 82],
      "AngioFlag": "N",
      "BitsAllocated": 16,
      "BitsStored": 16,
      "BodyPartExamined": "BRAIN",
      "Columns": 656,
      "EchoNumbers": 1,
      "EchoTime": 27.2,
      "EchoTrainLength": 82,
      "FlipAngle": 44.0,
      "HighBit": 15,
      "ImageOrientationPatient": [0.99958127078322, 0.02378732782278, 0.01647562243002, -0.0237310660344, 0.99971188952284, -0.0036020065998],
      "ImagePositionPatient": [-859.79646849447, -910.85636139402, -73.699383854714],
      "ImageType": [
        "ORIGINAL",
        "PRIMARY",
        "M",
        "MB",
        "ND",
        "NORM",
        "MOSAIC"
],
      "ImagedNucleus": "1H",
      "ImagingFrequency": 123.252146,
      "InPlanePhaseEncodingDirection": "COL",
      "MRAcquisitionType": "2D",
      "MagneticFieldStrength": 3.0,
      "Manufacturer": "SIEMENS",
      "ManufacturerModelName": "Prisma",
      "Modality": "MR",
      "NumberOfAverages": 1.0,
      "NumberOfPhaseEncodingSteps": 82,
      "PercentPhaseFieldOfView": 100.0,
      "PercentSampling": 100.0,
      "PerformedProcedureStepStartTime": "113113.917000",
      "PhotometricInterpretation": "MONOCHROME2",
      "PixelBandwidth": 3050.0,
      "PixelRepresentation": 0,
      "PixelSpacing": [2.6829268932343, 2.6829268932343],
      "ProtocolName": "func_run-02_task-social_acq-ap-mb8",
      "RepetitionTime": 460.0,
      "Rows": 656,
      "SAR": 0.09272025075896,
      "SamplesPerPixel": 1,
      "ScanOptions": "FS",
      "ScanningSequence": "EP",
      "SequenceName": "epfid2d1_82",
      "SequenceVariant": [
        "SK",
        "SS"
],
      "SeriesDescription": "func_run-02_task-social_acq-ap-mb8",
      "SeriesNumber": 10,
      "SeriesTime": "114643.945000",
      "SliceLocation": -62.377038893198,
      "SliceThickness": 2.7000000476837,
      "SmallestImagePixelValue": 0,
      "SoftwareVersions": "syngo MR E11",
      "SpacingBetweenSlices": 2.6999999591645,
      "SpecificCharacterSet": "ISO_IR 100",
      "StudyID": "3",
      "StudyTime": "113113.871000",
      "TransmitCoilName": "Body",
      "VariableFlipAngleFlag": "N",
      "WindowCenterWidthExplanation": "Algo1",
      "dBdt": 0.0},
    "slices": {}
  },
  "time": {
    "samples": {
      "AcquisitionNumber": [1, 2, 3, 4, 5, 6, 7, 8, 9, 10, 11, 12, 13, 14, 15, 16, 17, 18, 19, 20, 21, 22, 23, 24, 25, 26, 27, 28, 29, 30, 31, 32, 33, 34, 35, 36, 37, 38, 39, 40, 41, 42, 43, 44, 45, 46, 47, 48, 49, 50, 51, 52, 53, 54, 55, 56, 57, 58, 59, 60, 61, 62, 63, 64, 65, 66, 67, 68, 69, 70, 71, 72, 73, 74, 75, 76, 77, 78, 79, 80, 81, 82, 83, 84, 85, 86, 87, 88, 89, 90, 91, 92, 93, 94, 95, 96, 97, 98, 99, 100, 101, 102, 103, 104, 105, 106, 107, 108, 109, 110, 111, 112, 113, 114, 115, 116, 117, 118, 119, 120, 121, 122, 123, 124, 125, 126, 127, 128, 129, 130, 131, 132, 133, 134, 135, 136, 137, 138, 139, 140, 141, 142, 143, 144, 145, 146, 147, 148, 149, 150, 151, 152, 153, 154, 155, 156, 157, 158, 159, 160, 161, 162, 163, 164, 165, 166, 167, 168, 169, 170, 171, 172, 173, 174, 175, 176, 177, 178, 179, 180, 181, 182, 183, 184, 185, 186, 187, 188, 189, 190, 191, 192, 193, 194, 195, 196, 197, 198, 199, 200, 201, 202, 203, 204, 205, 206, 207, 208, 209, 210, 211, 212, 213, 214, 215, 216, 217, 218, 219, 220, 221, 222, 223, 224, 225, 226, 227, 228, 229, 230, 231, 232, 233, 234, 235, 236, 237, 238, 239, 240, 241, 242, 243, 244, 245, 246, 247, 248, 249, 250, 251, 252, 253, 254, 255, 256, 257, 258, 259, 260, 261, 262, 263, 264, 265, 266, 267, 268, 269, 270, 271, 272, 273, 274, 275, 276, 277, 278, 279, 280, 281, 282, 283, 284, 285, 286, 287, 288, 289, 290, 291, 292, 293, 294, 295, 296, 297, 298, 299, 300, 301, 302, 303, 304, 305, 306, 307, 308, 309, 310, 311, 312, 313, 314, 315, 316, 317, 318, 319, 320, 321, 322, 323, 324, 325, 326, 327, 328, 329, 330, 331, 332, 333, 334, 335, 336, 337, 338, 339, 340, 341, 342, 343, 344, 345, 346, 347, 348, 349, 350, 351, 352, 353, 354, 355, 356, 357, 358, 359, 360, 361, 362, 363, 364, 365, 366, 367, 368, 369, 370, 371, 372, 373, 374, 375, 376, 377, 378, 379, 380, 381, 382, 383, 384, 385, 386, 387, 388, 389, 390, 391, 392, 393, 394, 395, 396, 397, 398, 399, 400, 401, 402, 403, 404, 405, 406, 407, 408, 409, 410, 411, 412, 413, 414, 415, 416, 417, 418, 419, 420, 421, 422, 423, 424, 425, 426, 427, 428, 429, 430, 431, 432, 433, 434, 435, 436, 437, 438, 439, 440, 441, 442, 443, 444, 445, 446, 447, 448, 449, 450, 451, 452, 453, 454, 455, 456, 457, 458, 459, 460, 461, 462, 463, 464, 465, 466, 467, 468, 469, 470, 471, 472, 473, 474, 475, 476, 477, 478, 479, 480, 481, 482, 483, 484, 485, 486, 487, 488, 489, 490, 491, 492, 493, 494, 495, 496, 497, 498, 499, 500, 501, 502, 503, 504, 505, 506, 507, 508, 509, 510, 511, 512, 513, 514, 515, 516, 517, 518, 519, 520, 521, 522, 523, 524, 525, 526, 527, 528, 529, 530, 531, 532, 533, 534, 535, 536, 537, 538, 539, 540, 541, 542, 543, 544, 545, 546, 547, 548, 549, 550, 551, 552, 553, 554, 555, 556, 557, 558, 559, 560, 561, 562, 563, 564, 565, 566, 567, 568, 569, 570, 571, 572, 573, 574, 575, 576, 577, 578, 579, 580, 581, 582, 583, 584, 585, 586, 587, 588, 589, 590, 591, 592, 593, 594, 595, 596, 597, 598, 599, 600, 601, 602, 603, 604, 605, 606, 607, 608, 609, 610, 611, 612, 613, 614, 615, 616, 617, 618, 619, 620, 621, 622, 623, 624, 625, 626, 627, 628, 629, 630, 631, 632, 633, 634, 635, 636, 637, 638, 639, 640, 641, 642, 643, 644, 645, 646, 647, 648, 649, 650, 651, 652, 653, 654, 655, 656, 657, 658, 659, 660, 661, 662, 663, 664, 665, 666, 667, 668, 669, 670, 671, 672, 673, 674, 675, 676, 677, 678, 679, 680, 681, 682, 683, 684, 685, 686, 687, 688, 689, 690, 691, 692, 693, 694, 695, 696, 697, 698, 699, 700, 701, 702, 703, 704, 705, 706, 707, 708, 709, 710, 711, 712, 713, 714, 715, 716, 717, 718, 719, 720, 721, 722, 723, 724, 725, 726, 727, 728, 729, 730, 731, 732, 733, 734, 735, 736, 737, 738, 739, 740, 741, 742, 743, 744, 745, 746, 747, 748, 749, 750, 751, 752, 753, 754, 755, 756, 757, 758, 759, 760, 761, 762, 763, 764, 765, 766, 767, 768, 769, 770, 771, 772, 773, 774, 775, 776, 777, 778, 779, 780, 781, 782, 783, 784, 785, 786, 787, 788, 789, 790, 791, 792, 793, 794, 795, 796, 797, 798, 799, 800, 801, 802, 803, 804, 805, 806, 807, 808, 809, 810, 811, 812, 813, 814, 815, 816, 817, 818, 819, 820, 821, 822, 823, 824, 825, 826, 827, 828, 829, 830, 831, 832, 833, 834, 835, 836, 837, 838, 839, 840, 841, 842, 843, 844, 845, 846, 847, 848, 849, 850, 851, 852, 853, 854, 855, 856, 857, 858, 859, 860, 861, 862, 863, 864, 865, 866, 867, 868, 869, 870, 871, 872],
      "AcquisitionTime": ["114619.155000", "114619.615000", "114620.075000", "114620.535000", "114620.995000", "114621.455000", "114621.915000", "114622.375000", "114622.835000", "114623.295000", "114623.755000", "114624.215000", "114624.675000", "114625.135000", "114625.595000", "114626.055000", "114626.515000", "114626.975000", "114627.435000", "114627.895000", "114628.355000", "114628.815000", "114629.275000", "114629.735000", "114630.195000", "114630.655000", "114631.115000", "114631.575000", "114632.035000", "114632.495000", "114632.955000", "114633.415000", "114633.875000", "114634.335000", "114634.795000", "114635.255000", "114635.715000", "114636.175000", "114636.635000", "114637.095000", "114637.555000", "114638.015000", "114638.475000", "114638.935000", "114639.395000", "114639.855000", "114640.315000", "114640.775000", "114641.235000", "114641.695000", "114642.155000", "114642.615000", "114643.075000", "114643.535000", "114643.995000", "114644.455000", "114644.915000", "114645.375000", "114645.835000", "114646.295000", "114646.755000", "114647.215000", "114647.675000", "114648.135000", "114648.595000", "114649.055000", "114649.515000", "114649.975000", "114650.435000", "114650.895000", "114651.355000", "114651.815000", "114652.275000", "114652.735000", "114653.195000", "114653.655000", "114654.115000", "114654.575000", "114655.035000", "114655.495000", "114655.955000", "114656.415000", "114656.875000", "114657.335000", "114657.795000", "114658.255000", "114658.715000", "114659.175000", "114659.635000", "114700.095000", "114700.555000", "114701.015000", "114701.475000", "114701.935000", "114702.395000", "114702.855000", "114703.315000", "114703.775000", "114704.235000", "114704.695000", "114705.155000", "114705.615000", "114706.075000", "114706.535000", "114706.995000", "114707.455000", "114707.915000", "114708.375000", "114708.835000", "114709.295000", "114709.755000", "114710.215000", "114710.675000", "114711.135000", "114711.595000", "114712.055000", "114712.515000", "114712.975000", "114713.435000", "114713.895000", "114714.355000", "114714.815000", "114715.275000", "114715.735000", "114716.195000", "114716.655000", "114717.115000", "114717.575000", "114718.035000", "114718.495000", "114718.955000", "114719.415000", "114719.875000", "114720.335000", "114720.795000", "114721.255000", "114721.715000", "114722.175000", "114722.635000", "114723.095000", "114723.555000", "114724.015000", "114724.475000", "114724.935000", "114725.395000", "114725.855000", "114726.315000", "114726.775000", "114727.235000", "114727.695000", "114728.155000", "114728.615000", "114729.075000", "114729.535000", "114729.995000", "114730.455000", "114730.915000", "114731.375000", "114731.835000", "114732.295000", "114732.755000", "114733.215000", "114733.675000", "114734.135000", "114734.595000", "114735.055000", "114735.515000", "114735.975000", "114736.435000", "114736.895000", "114737.355000", "114737.815000", "114738.275000", "114738.735000", "114739.195000", "114739.655000", "114740.115000", "114740.575000", "114741.035000", "114741.495000", "114741.955000", "114742.415000", "114742.875000", "114743.335000", "114743.795000", "114744.255000", "114744.715000", "114745.175000", "114745.635000", "114746.095000", "114746.555000", "114747.015000", "114747.475000", "114747.935000", "114748.395000", "114748.855000", "114749.315000", "114749.775000", "114750.235000", "114750.695000", "114751.155000", "114751.615000", "114752.075000", "114752.535000", "114752.995000", "114753.455000", "114753.915000", "114754.375000", "114754.835000", "114755.295000", "114755.755000", "114756.215000", "114756.675000", "114757.135000", "114757.595000", "114758.055000", "114758.515000", "114758.975000", "114759.435000", "114759.895000", "114800.355000", "114800.815000", "114801.275000", "114801.735000", "114802.195000", "114802.655000", "114803.115000", "114803.575000", "114804.035000", "114804.495000", "114804.955000", "114805.415000", "114805.875000", "114806.335000", "114806.795000", "114807.255000", "114807.715000", "114808.175000", "114808.635000", "114809.095000", "114809.555000", "114810.015000", "114810.475000", "114810.935000", "114811.395000", "114811.855000", "114812.315000", "114812.775000", "114813.235000", "114813.695000", "114814.155000", "114814.615000", "114815.075000", "114815.535000", "114815.995000", "114816.455000", "114816.915000", "114817.375000", "114817.835000", "114818.295000", "114818.755000", "114819.215000", "114819.675000", "114820.135000", "114820.595000", "114821.055000", "114821.515000", "114821.975000", "114822.435000", "114822.895000", "114823.355000", "114823.815000", "114824.275000", "114824.735000", "114825.195000", "114825.655000", "114826.115000", "114826.575000", "114827.035000", "114827.495000", "114827.955000", "114828.415000", "114828.875000", "114829.335000", "114829.795000", "114830.255000", "114830.715000", "114831.175000", "114831.635000", "114832.095000", "114832.555000", "114833.015000", "114833.475000", "114833.935000", "114834.395000", "114834.855000", "114835.315000", "114835.775000", "114836.235000", "114836.695000", "114837.155000", "114837.615000", "114838.075000", "114838.535000", "114838.995000", "114839.455000", "114839.915000", "114840.375000", "114840.835000", "114841.295000", "114841.755000", "114842.215000", "114842.675000", "114843.135000", "114843.595000", "114844.055000", "114844.515000", "114844.975000", "114845.435000", "114845.895000", "114846.355000", "114846.815000", "114847.275000", "114847.735000", "114848.195000", "114848.655000", "114849.115000", "114849.575000", "114850.035000", "114850.495000", "114850.955000", "114851.415000", "114851.875000", "114852.335000", "114852.795000", "114853.255000", "114853.715000", "114854.175000", "114854.635000", "114855.095000", "114855.555000", "114856.015000", "114856.475000", "114856.935000", "114857.395000", "114857.855000", "114858.315000", "114858.775000", "114859.235000", "114859.695000", "114900.155000", "114900.615000", "114901.075000", "114901.535000", "114901.995000", "114902.455000", "114902.915000", "114903.375000", "114903.835000", "114904.295000", "114904.755000", "114905.215000", "114905.675000", "114906.135000", "114906.595000", "114907.055000", "114907.515000", "114907.975000", "114908.435000", "114908.895000", "114909.355000", "114909.815000", "114910.275000", "114910.735000", "114911.195000", "114911.655000", "114912.115000", "114912.575000", "114913.035000", "114913.495000", "114913.955000", "114914.415000", "114914.875000", "114915.335000", "114915.795000", "114916.255000", "114916.715000", "114917.175000", "114917.635000", "114918.095000", "114918.555000", "114919.015000", "114919.475000", "114919.935000", "114920.395000", "114920.855000", "114921.315000", "114921.775000", "114922.235000", "114922.695000", "114923.155000", "114923.615000", "114924.075000", "114924.535000", "114924.995000", "114925.455000", "114925.915000", "114926.375000", "114926.835000", "114927.295000", "114927.755000", "114928.215000", "114928.675000", "114929.135000", "114929.595000", "114930.055000", "114930.515000", "114930.975000", "114931.435000", "114931.895000", "114932.355000", "114932.815000", "114933.275000", "114933.735000", "114934.195000", "114934.655000", "114935.115000", "114935.575000", "114936.035000", "114936.495000", "114936.955000", "114937.415000", "114937.875000", "114938.335000", "114938.795000", "114939.255000", "114939.715000", "114940.175000", "114940.635000", "114941.095000", "114941.555000", "114942.015000", "114942.475000", "114942.935000", "114943.395000", "114943.855000", "114944.315000", "114944.775000", "114945.235000", "114945.695000", "114946.155000", "114946.615000", "114947.075000", "114947.535000", "114947.995000", "114948.455000", "114948.915000", "114949.375000", "114949.835000", "114950.295000", "114950.755000", "114951.215000", "114951.675000", "114952.135000", "114952.595000", "114953.055000", "114953.515000", "114953.975000", "114954.435000", "114954.895000", "114955.355000", "114955.815000", "114956.275000", "114956.735000", "114957.195000", "114957.655000", "114958.115000", "114958.575000", "114959.035000", "114959.495000", "114959.955000", "115000.415000", "115000.875000", "115001.335000", "115001.795000", "115002.255000", "115002.715000", "115003.175000", "115003.635000", "115004.095000", "115004.555000", "115005.015000", "115005.475000", "115005.935000", "115006.395000", "115006.855000", "115007.315000", "115007.775000", "115008.235000", "115008.695000", "115009.155000", "115009.615000", "115010.075000", "115010.535000", "115010.995000", "115011.455000", "115011.915000", "115012.375000", "115012.835000", "115013.295000", "115013.755000", "115014.215000", "115014.675000", "115015.135000", "115015.595000", "115016.055000", "115016.515000", "115016.975000", "115017.435000", "115017.895000", "115018.355000", "115018.815000", "115019.275000", "115019.735000", "115020.195000", "115020.655000", "115021.115000", "115021.575000", "115022.035000", "115022.495000", "115022.955000", "115023.415000", "115023.875000", "115024.335000", "115024.795000", "115025.255000", "115025.715000", "115026.175000", "115026.635000", "115027.095000", "115027.555000", "115028.015000", "115028.475000", "115028.935000", "115029.395000", "115029.855000", "115030.315000", "115030.775000", "115031.235000", "115031.695000", "115032.155000", "115032.615000", "115033.075000", "115033.535000", "115033.995000", "115034.455000", "115034.915000", "115035.375000", "115035.835000", "115036.295000", "115036.755000", "115037.215000", "115037.675000", "115038.135000", "115038.595000", "115039.055000", "115039.515000", "115039.975000", "115040.435000", "115040.895000", "115041.355000", "115041.815000", "115042.275000", "115042.735000", "115043.195000", "115043.655000", "115044.115000", "115044.575000", "115045.035000", "115045.495000", "115045.955000", "115046.415000", "115046.875000", "115047.335000", "115047.795000", "115048.255000", "115048.715000", "115049.175000", "115049.635000", "115050.095000", "115050.555000", "115051.015000", "115051.475000", "115051.935000", "115052.395000", "115052.855000", "115053.315000", "115053.775000", "115054.235000", "115054.695000", "115055.155000", "115055.615000", "115056.075000", "115056.535000", "115056.995000", "115057.455000", "115057.915000", "115058.375000", "115058.835000", "115059.295000", "115059.755000", "115100.215000", "115100.675000", "115101.135000", "115101.595000", "115102.055000", "115102.515000", "115102.975000", "115103.435000", "115103.895000", "115104.355000", "115104.815000", "115105.275000", "115105.735000", "115106.195000", "115106.655000", "115107.115000", "115107.575000", "115108.035000", "115108.495000", "115108.955000", "115109.415000", "115109.875000", "115110.335000", "115110.795000", "115111.255000", "115111.715000", "115112.175000", "115112.635000", "115113.095000", "115113.555000", "115114.015000", "115114.475000", "115114.935000", "115115.395000", "115115.855000", "115116.315000", "115116.775000", "115117.235000", "115117.695000", "115118.155000", "115118.615000", "115119.075000", "115119.535000", "115119.995000", "115120.455000", "115120.915000", "115121.375000", "115121.835000", "115122.295000", "115122.755000", "115123.215000", "115123.675000", "115124.135000", "115124.595000", "115125.055000", "115125.515000", "115125.975000", "115126.435000", "115126.895000", "115127.355000", "115127.815000", "115128.275000", "115128.735000", "115129.195000", "115129.655000", "115130.115000", "115130.575000", "115131.035000", "115131.495000", "115131.955000", "115132.415000", "115132.875000", "115133.335000", "115133.795000", "115134.255000", "115134.715000", "115135.175000", "115135.635000", "115136.095000", "115136.555000", "115137.015000", "115137.475000", "115137.935000", "115138.395000", "115138.855000", "115139.315000", "115139.775000", "115140.235000", "115140.695000", "115141.155000", "115141.615000", "115142.075000", "115142.535000", "115142.995000", "115143.455000", "115143.915000", "115144.375000", "115144.835000", "115145.295000", "115145.755000", "115146.215000", "115146.675000", "115147.135000", "115147.595000", "115148.055000", "115148.515000", "115148.975000", "115149.435000", "115149.895000", "115150.355000", "115150.815000", "115151.275000", "115151.735000", "115152.195000", "115152.655000", "115153.115000", "115153.575000", "115154.035000", "115154.495000", "115154.955000", "115155.415000", "115155.875000", "115156.335000", "115156.795000", "115157.255000", "115157.715000", "115158.175000", "115158.635000", "115159.095000", "115159.555000", "115200.015000", "115200.475000", "115200.935000", "115201.395000", "115201.855000", "115202.315000", "115202.775000", "115203.235000", "115203.695000", "115204.155000", "115204.615000", "115205.075000", "115205.535000", "115205.995000", "115206.455000", "115206.915000", "115207.375000", "115207.835000", "115208.295000", "115208.755000", "115209.215000", "115209.675000", "115210.135000", "115210.595000", "115211.055000", "115211.515000", "115211.975000", "115212.435000", "115212.895000", "115213.355000", "115213.815000", "115214.275000", "115214.735000", "115215.195000", "115215.655000", "115216.115000", "115216.575000", "115217.035000", "115217.495000", "115217.955000", "115218.415000", "115218.875000", "115219.335000", "115219.795000", "115220.255000", "115220.715000", "115221.175000", "115221.635000", "115222.095000", "115222.555000", "115223.015000", "115223.475000", "115223.935000", "115224.395000", "115224.855000", "115225.315000", "115225.775000", "115226.235000", "115226.695000", "115227.155000", "115227.615000", "115228.075000", "115228.535000", "115228.995000", "115229.455000", "115229.915000", "115230.375000", "115230.835000", "115231.295000", "115231.755000", "115232.215000", "115232.675000", "115233.135000", "115233.595000", "115234.055000", "115234.515000", "115234.975000", "115235.435000", "115235.895000", "115236.355000", "115236.815000", "115237.275000", "115237.735000", "115238.195000", "115238.655000", "115239.115000", "115239.575000", "115240.035000", "115240.495000", "115240.955000", "115241.415000", "115241.875000", "115242.335000", "115242.795000", "115243.255000", "115243.715000", "115244.175000", "115244.635000", "115245.095000", "115245.555000", "115246.015000", "115246.475000", "115246.935000", "115247.395000", "115247.855000", "115248.315000", "115248.775000", "115249.235000", "115249.695000", "115250.155000", "115250.615000", "115251.075000", "115251.535000", "115251.995000", "115252.455000", "115252.915000", "115253.375000", "115253.835000", "115254.295000", "115254.755000", "115255.215000", "115255.675000", "115256.135000", "115256.595000", "115257.055000", "115257.515000", "115257.975000", "115258.435000", "115258.895000", "115259.355000", "115259.815000"],
