{
  "AcquisitionMatrixPE": 82,
  "AcquisitionNumber": 1,
  "AcquisitionTime": "12:16:46.382500",
  "BandwidthPerPixelPhaseEncode": 24.888,
  "BaseResolution": 82,
  "BodyPartExamined": "BRAIN",
  "ConsistencyInfo": "N4_VE11C_LATEST_20160120",
  "ConversionSoftware": "dcm2niix",
  "ConversionSoftwareVersion": "v1.0.20201102",
  "DerivedVendorReportedEchoSpacing": 0.00049,
  "DeviceSerialNumber": "66112",
  "DwellTime": 2e-06,
  "EchoTime": 0.0272,
  "EchoTrainLength": 82,
  "EffectiveEchoSpacing": 0.00049,
  "FlipAngle": 44,
  "ImageComments": "Unaliased MB8/PE3",
  "ImageOrientationPatientDICOM": [0.999581, 0.0237873, 0.0164756, -0.0237311, 0.999712, -0.00360201],
  "ImageType": [
    "ORIGINAL",
    "PRIMARY",
    "M",
    "MB",
    "ND",
    "NORM",
    "MOSAIC"
],
  "ImagingFrequency": 123.252,
  "InPlanePhaseEncodingDirectionDICOM": "COL",
  "InstitutionAddress": "Maynard 3,Hanover,NH,US,03755",
  "InstitutionName": "Dartmouth College - PBS",
  "InstitutionalDepartmentName": "Department",
  "MRAcquisitionType": "2D",
  "MagneticFieldStrength": 3,
  "Manufacturer": "Siemens",
  "ManufacturersModelName": "Prisma",
  "Modality": "MR",
  "MultibandAccelerationFactor": 8,
  "PartialFourier": 1,
  "PatientPosition": "HFS",
  "PercentPhaseFOV": 100,
  "PercentSampling": 100,
  "PhaseEncodingDirection": "j-",
  "PhaseEncodingSteps": 82,
  "PhaseResolution": 1,
  "PixelBandwidth": 3050,
  "ProcedureStepDescription": "Wager_Wager^1076_spacetop",
  "ProtocolName": "func_run-05_task-social_acq-ap-mb8",
  "PulseSequenceDetails": "%CustomerSeq%\\cmrr_mbep2d_bold",
  "ReceiveCoilActiveElements": "HEA;HEP",
  "ReceiveCoilName": "Head_32",
  "ReconMatrixPE": 82,
  "RepetitionTime": 0.46,
  "SAR": 0.0927202,
  "ScanOptions": "FS",
  "ScanningSequence": "EP",
  "SequenceName": "epfid2d1_82",
  "SequenceVariant": "SK\\SS",
  "SeriesDescription": "func_run-05_task-social_acq-ap-mb8",
  "SeriesNumber": 18,
  "ShimSetting": [4140, -7712, -7222, 600, -56, -11, -122, 73],
  "SliceThickness": 2.7,
  "SliceTiming": [0, 0.2525, 0.0625, 0.315, 0.125, 0.3775, 0.1875, 0, 0.2525, 0.0625, 0.315, 0.125, 0.3775, 0.1875, 0, 0.2525, 0.0625, 0.315, 0.125, 0.3775, 0.1875, 0, 0.2525, 0.0625, 0.315, 0.125, 0.3775, 0.1875, 0, 0.2525, 0.0625, 0.315, 0.125, 0.3775, 0.1875, 0, 0.2525, 0.0625, 0.315, 0.125, 0.3775, 0.1875, 0, 0.2525, 0.0625, 0.315, 0.125, 0.3775, 0.1875, 0, 0.2525, 0.0625, 0.315, 0.125, 0.3775, 0.1875],
  "SoftwareVersions": "syngo MR E11",
  "SpacingBetweenSlices": 2.7,
  "StationName": "AWP66112",
  "TaskName": "social",
  "TotalReadoutTime": 0.03969,
  "TxRefAmp": 288.042,
  "WipMemBlock": "2f45466b-6f09-419d-b22c-db3dc9695d0b||Sequence: R016 ve11c/master r/e634e98; Dec 19 2017 11:00:25 by eja",
  "dcmmeta_affine": [
    [-2.6818034648895264, -0.06366871297359467, 0.04470270499587059, 113.54895782470703],
    [-0.06381966173648834, 2.6821539402008057, -0.008665688335895538, -94.49252319335938],
    [0.04420289024710655, 0.009663919918239117, 2.699615955352783, -64.56947326660156],
    [0.0, 0.0, 0.0, 1.0]
],
  "dcmmeta_reorient_transform": [
    [0.0, -1.0, 0.0, 81.0],
    [1.0, 0.0, 0.0, 0.0],
    [0.0, 0.0, 1.0, 0.0],
    [0.0, 0.0, 0.0, 1.0]
],
  "dcmmeta_shape": [82, 82, 56, 872],
  "dcmmeta_slice_dim": 2,
  "dcmmeta_version": 0.6,
  "global": {
    "const": {
      "AccessionNumber": "A003639",
      "AcquisitionMatrix": [82, 0, 0, 82],
      "AngioFlag": "N",
      "BitsAllocated": 16,
      "BitsStored": 16,
      "BodyPartExamined": "BRAIN",
      "Columns": 656,
      "EchoNumbers": 1,
      "EchoTime": 27.2,
      "EchoTrainLength": 82,
      "FlipAngle": 44.0,
      "HighBit": 15,
      "ImageOrientationPatient": [0.99958127078322, 0.02378732782278, 0.01647562243002, -0.0237310660344, 0.99971188952284, -0.0036020065998],
      "ImagePositionPatient": [-859.79646849447, -910.85636139402, -73.699383854714],
      "ImageType": [
        "ORIGINAL",
        "PRIMARY",
        "M",
        "MB",
        "ND",
        "NORM",
        "MOSAIC"
],
      "ImagedNucleus": "1H",
      "ImagingFrequency": 123.252147,
      "InPlanePhaseEncodingDirection": "COL",
      "MRAcquisitionType": "2D",
      "MagneticFieldStrength": 3.0,
      "Manufacturer": "SIEMENS",
      "ManufacturerModelName": "Prisma",
      "Modality": "MR",
      "NumberOfAverages": 1.0,
      "NumberOfPhaseEncodingSteps": 82,
      "PercentPhaseFieldOfView": 100.0,
      "PercentSampling": 100.0,
      "PerformedProcedureStepStartTime": "113113.917000",
      "PhotometricInterpretation": "MONOCHROME2",
      "PixelBandwidth": 3050.0,
      "PixelRepresentation": 0,
      "PixelSpacing": [2.6829268932343, 2.6829268932343],
      "ProtocolName": "func_run-05_task-social_acq-ap-mb8",
      "RepetitionTime": 460.0,
      "Rows": 656,
      "SAR": 0.09272025075896,
      "SamplesPerPixel": 1,
      "ScanOptions": "FS",
      "ScanningSequence": "EP",
      "SequenceName": "epfid2d1_82",
      "SequenceVariant": [
        "SK",
        "SS"
],
      "SeriesDescription": "func_run-05_task-social_acq-ap-mb8",
      "SeriesNumber": 18,
      "SeriesTime": "121704.014000",
      "SliceLocation": -62.377038893198,
      "SliceThickness": 2.7000000476837,
      "SmallestImagePixelValue": 0,
      "SoftwareVersions": "syngo MR E11",
      "SpacingBetweenSlices": 2.6999999591645,
      "SpecificCharacterSet": "ISO_IR 100",
      "StudyID": "3",
      "StudyTime": "113113.871000",
      "TransmitCoilName": "Body",
      "VariableFlipAngleFlag": "N",
      "WindowCenterWidthExplanation": "Algo1",
      "dBdt": 0.0},
    "slices": {}
  },
  "time": {
    "samples": {
      "AcquisitionNumber": [1, 2, 3, 4, 5, 6, 7, 8, 9, 10, 11, 12, 13, 14, 15, 16, 17, 18, 19, 20, 21, 22, 23, 24, 25, 26, 27, 28, 29, 30, 31, 32, 33, 34, 35, 36, 37, 38, 39, 40, 41, 42, 43, 44, 45, 46, 47, 48, 49, 50, 51, 52, 53, 54, 55, 56, 57, 58, 59, 60, 61, 62, 63, 64, 65, 66, 67, 68, 69, 70, 71, 72, 73, 74, 75, 76, 77, 78, 79, 80, 81, 82, 83, 84, 85, 86, 87, 88, 89, 90, 91, 92, 93, 94, 95, 96, 97, 98, 99, 100, 101, 102, 103, 104, 105, 106, 107, 108, 109, 110, 111, 112, 113, 114, 115, 116, 117, 118, 119, 120, 121, 122, 123, 124, 125, 126, 127, 128, 129, 130, 131, 132, 133, 134, 135, 136, 137, 138, 139, 140, 141, 142, 143, 144, 145, 146, 147, 148, 149, 150, 151, 152, 153, 154, 155, 156, 157, 158, 159, 160, 161, 162, 163, 164, 165, 166, 167, 168, 169, 170, 171, 172, 173, 174, 175, 176, 177, 178, 179, 180, 181, 182, 183, 184, 185, 186, 187, 188, 189, 190, 191, 192, 193, 194, 195, 196, 197, 198, 199, 200, 201, 202, 203, 204, 205, 206, 207, 208, 209, 210, 211, 212, 213, 214, 215, 216, 217, 218, 219, 220, 221, 222, 223, 224, 225, 226, 227, 228, 229, 230, 231, 232, 233, 234, 235, 236, 237, 238, 239, 240, 241, 242, 243, 244, 245, 246, 247, 248, 249, 250, 251, 252, 253, 254, 255, 256, 257, 258, 259, 260, 261, 262, 263, 264, 265, 266, 267, 268, 269, 270, 271, 272, 273, 274, 275, 276, 277, 278, 279, 280, 281, 282, 283, 284, 285, 286, 287, 288, 289, 290, 291, 292, 293, 294, 295, 296, 297, 298, 299, 300, 301, 302, 303, 304, 305, 306, 307, 308, 309, 310, 311, 312, 313, 314, 315, 316, 317, 318, 319, 320, 321, 322, 323, 324, 325, 326, 327, 328, 329, 330, 331, 332, 333, 334, 335, 336, 337, 338, 339, 340, 341, 342, 343, 344, 345, 346, 347, 348, 349, 350, 351, 352, 353, 354, 355, 356, 357, 358, 359, 360, 361, 362, 363, 364, 365, 366, 367, 368, 369, 370, 371, 372, 373, 374, 375, 376, 377, 378, 379, 380, 381, 382, 383, 384, 385, 386, 387, 388, 389, 390, 391, 392, 393, 394, 395, 396, 397, 398, 399, 400, 401, 402, 403, 404, 405, 406, 407, 408, 409, 410, 411, 412, 413, 414, 415, 416, 417, 418, 419, 420, 421, 422, 423, 424, 425, 426, 427, 428, 429, 430, 431, 432, 433, 434, 435, 436, 437, 438, 439, 440, 441, 442, 443, 444, 445, 446, 447, 448, 449, 450, 451, 452, 453, 454, 455, 456, 457, 458, 459, 460, 461, 462, 463, 464, 465, 466, 467, 468, 469, 470, 471, 472, 473, 474, 475, 476, 477, 478, 479, 480, 481, 482, 483, 484, 485, 486, 487, 488, 489, 490, 491, 492, 493, 494, 495, 496, 497, 498, 499, 500, 501, 502, 503, 504, 505, 506, 507, 508, 509, 510, 511, 512, 513, 514, 515, 516, 517, 518, 519, 520, 521, 522, 523, 524, 525, 526, 527, 528, 529, 530, 531, 532, 533, 534, 535, 536, 537, 538, 539, 540, 541, 542, 543, 544, 545, 546, 547, 548, 549, 550, 551, 552, 553, 554, 555, 556, 557, 558, 559, 560, 561, 562, 563, 564, 565, 566, 567, 568, 569, 570, 571, 572, 573, 574, 575, 576, 577, 578, 579, 580, 581, 582, 583, 584, 585, 586, 587, 588, 589, 590, 591, 592, 593, 594, 595, 596, 597, 598, 599, 600, 601, 602, 603, 604, 605, 606, 607, 608, 609, 610, 611, 612, 613, 614, 615, 616, 617, 618, 619, 620, 621, 622, 623, 624, 625, 626, 627, 628, 629, 630, 631, 632, 633, 634, 635, 636, 637, 638, 639, 640, 641, 642, 643, 644, 645, 646, 647, 648, 649, 650, 651, 652, 653, 654, 655, 656, 657, 658, 659, 660, 661, 662, 663, 664, 665, 666, 667, 668, 669, 670, 671, 672, 673, 674, 675, 676, 677, 678, 679, 680, 681, 682, 683, 684, 685, 686, 687, 688, 689, 690, 691, 692, 693, 694, 695, 696, 697, 698, 699, 700, 701, 702, 703, 704, 705, 706, 707, 708, 709, 710, 711, 712, 713, 714, 715, 716, 717, 718, 719, 720, 721, 722, 723, 724, 725, 726, 727, 728, 729, 730, 731, 732, 733, 734, 735, 736, 737, 738, 739, 740, 741, 742, 743, 744, 745, 746, 747, 748, 749, 750, 751, 752, 753, 754, 755, 756, 757, 758, 759, 760, 761, 762, 763, 764, 765, 766, 767, 768, 769, 770, 771, 772, 773, 774, 775, 776, 777, 778, 779, 780, 781, 782, 783, 784, 785, 786, 787, 788, 789, 790, 791, 792, 793, 794, 795, 796, 797, 798, 799, 800, 801, 802, 803, 804, 805, 806, 807, 808, 809, 810, 811, 812, 813, 814, 815, 816, 817, 818, 819, 820, 821, 822, 823, 824, 825, 826, 827, 828, 829, 830, 831, 832, 833, 834, 835, 836, 837, 838, 839, 840, 841, 842, 843, 844, 845, 846, 847, 848, 849, 850, 851, 852, 853, 854, 855, 856, 857, 858, 859, 860, 861, 862, 863, 864, 865, 866, 867, 868, 869, 870, 871, 872],
      "AcquisitionTime": ["121646.382500", "121646.842500", "121647.302500", "121647.762500", "121648.222500", "121648.682500", "121649.142500", "121649.602500", "121650.062500", "121650.522500", "121650.982500", "121651.442500", "121651.902500", "121652.362500", "121652.822500", "121653.282500", "121653.742500", "121654.202500", "121654.662500", "121655.122500", "121655.582500", "121656.042500", "121656.502500", "121656.962500", "121657.422500", "121657.882500", "121658.342500", "121658.802500", "121659.262500", "121659.722500", "121700.182500", "121700.642500", "121701.102500", "121701.562500", "121702.022500", "121702.482500", "121702.942500", "121703.402500", "121703.862500", "121704.322500", "121704.782500", "121705.242500", "121705.702500", "121706.162500", "121706.622500", "121707.082500", "121707.542500", "121708.002500", "121708.462500", "121708.922500", "121709.382500", "121709.842500", "121710.302500", "121710.762500", "121711.222500", "121711.682500", "121712.142500", "121712.602500", "121713.062500", "121713.522500", "121713.982500", "121714.442500", "121714.902500", "121715.362500", "121715.822500", "121716.282500", "121716.742500", "121717.202500", "121717.662500", "121718.122500", "121718.582500", "121719.042500", "121719.502500", "121719.962500", "121720.422500", "121720.882500", "121721.342500", "121721.802500", "121722.262500", "121722.722500", "121723.182500", "121723.642500", "121724.102500", "121724.562500", "121725.022500", "121725.482500", "121725.942500", "121726.402500", "121726.862500", "121727.322500", "121727.782500", "121728.242500", "121728.702500", "121729.162500", "121729.622500", "121730.082500", "121730.542500", "121731.002500", "121731.462500", "121731.922500", "121732.382500", "121732.842500", "121733.302500", "121733.762500", "121734.222500", "121734.682500", "121735.142500", "121735.602500", "121736.062500", "121736.522500", "121736.982500", "121737.442500", "121737.902500", "121738.362500", "121738.822500", "121739.282500", "121739.742500", "121740.202500", "121740.662500", "121741.122500", "121741.582500", "121742.042500", "121742.502500", "121742.962500", "121743.422500", "121743.882500", "121744.342500", "121744.802500", "121745.262500", "121745.722500", "121746.182500", "121746.642500", "121747.102500", "121747.562500", "121748.022500", "121748.482500", "121748.942500", "121749.402500", "121749.862500", "121750.322500", "121750.782500", "121751.242500", "121751.702500", "121752.162500", "121752.622500", "121753.082500", "121753.542500", "121754.002500", "121754.462500", "121754.922500", "121755.382500", "121755.842500", "121756.302500", "121756.762500", "121757.222500", "121757.682500", "121758.142500", "121758.602500", "121759.062500", "121759.522500", "121759.982500", "121800.442500", "121800.902500", "121801.362500", "121801.822500", "121802.282500", "121802.742500", "121803.202500", "121803.662500", "121804.122500", "121804.582500", "121805.042500", "121805.502500", "121805.962500", "121806.422500", "121806.882500", "121807.342500", "121807.802500", "121808.262500", "121808.722500", "121809.182500", "121809.642500", "121810.102500", "121810.562500", "121811.022500", "121811.482500", "121811.942500", "121812.402500", "121812.862500", "121813.322500", "121813.782500", "121814.242500", "121814.702500", "121815.162500", "121815.622500", "121816.082500", "121816.542500", "121817.002500", "121817.462500", "121817.922500", "121818.382500", "121818.842500", "121819.302500", "121819.762500", "121820.222500", "121820.682500", "121821.142500", "121821.602500", "121822.062500", "121822.522500", "121822.982500", "121823.442500", "121823.902500", "121824.362500", "121824.822500", "121825.282500", "121825.742500", "121826.202500", "121826.662500", "121827.122500", "121827.582500", "121828.042500", "121828.502500", "121828.962500", "121829.422500", "121829.882500", "121830.342500", "121830.802500", "121831.262500", "121831.722500", "121832.182500", "121832.642500", "121833.102500", "121833.562500", "121834.022500", "121834.482500", "121834.942500", "121835.402500", "121835.862500", "121836.322500", "121836.782500", "121837.242500", "121837.702500", "121838.162500", "121838.622500", "121839.082500", "121839.542500", "121840.002500", "121840.462500", "121840.922500", "121841.382500", "121841.842500", "121842.302500", "121842.762500", "121843.222500", "121843.682500", "121844.142500", "121844.602500", "121845.062500", "121845.522500", "121845.982500", "121846.442500", "121846.902500", "121847.362500", "121847.822500", "121848.282500", "121848.742500", "121849.202500", "121849.662500", "121850.122500", "121850.582500", "121851.042500", "121851.502500", "121851.962500", "121852.422500", "121852.882500", "121853.342500", "121853.802500", "121854.262500", "121854.722500", "121855.182500", "121855.642500", "121856.102500", "121856.562500", "121857.022500", "121857.482500", "121857.942500", "121858.402500", "121858.862500", "121859.322500", "121859.782500", "121900.242500", "121900.702500", "121901.162500", "121901.622500", "121902.082500", "121902.542500", "121903.002500", "121903.462500", "121903.922500", "121904.382500", "121904.842500", "121905.302500", "121905.762500", "121906.222500", "121906.682500", "121907.142500", "121907.602500", "121908.062500", "121908.522500", "121908.982500", "121909.442500", "121909.902500", "121910.362500", "121910.822500", "121911.282500", "121911.742500", "121912.202500", "121912.662500", "121913.122500", "121913.582500", "121914.042500", "121914.502500", "121914.962500", "121915.422500", "121915.882500", "121916.342500", "121916.802500", "121917.262500", "121917.722500", "121918.182500", "121918.642500", "121919.102500", "121919.562500", "121920.022500", "121920.482500", "121920.942500", "121921.402500", "121921.862500", "121922.322500", "121922.782500", "121923.242500", "121923.702500", "121924.162500", "121924.622500", "121925.082500", "121925.542500", "121926.002500", "121926.462500", "121926.922500", "121927.382500", "121927.842500", "121928.302500", "121928.762500", "121929.222500", "121929.682500", "121930.142500", "121930.602500", "121931.062500", "121931.522500", "121931.982500", "121932.442500", "121932.902500", "121933.362500", "121933.822500", "121934.282500", "121934.742500", "121935.202500", "121935.662500", "121936.122500", "121936.582500", "121937.042500", "121937.502500", "121937.962500", "121938.422500", "121938.882500", "121939.342500", "121939.802500", "121940.262500", "121940.722500", "121941.182500", "121941.642500", "121942.102500", "121942.562500", "121943.022500", "121943.482500", "121943.942500", "121944.402500", "121944.862500", "121945.322500", "121945.782500", "121946.242500", "121946.702500", "121947.162500", "121947.622500", "121948.082500", "121948.542500", "121949.002500", "121949.462500", "121949.922500", "121950.382500", "121950.842500", "121951.302500", "121951.762500", "121952.222500", "121952.682500", "121953.142500", "121953.602500", "121954.062500", "121954.522500", "121954.982500", "121955.442500", "121955.902500", "121956.362500", "121956.822500", "121957.282500", "121957.742500", "121958.202500", "121958.662500", "121959.122500", "121959.582500", "122000.042500", "122000.502500", "122000.962500", "122001.422500", "122001.882500", "122002.342500", "122002.802500", "122003.262500", "122003.722500", "122004.182500", "122004.642500", "122005.102500", "122005.562500", "122006.022500", "122006.482500", "122006.942500", "122007.402500", "122007.862500", "122008.322500", "122008.782500", "122009.242500", "122009.702500", "122010.162500", "122010.622500", "122011.082500", "122011.542500", "122012.002500", "122012.462500", "122012.922500", "122013.382500", "122013.842500", "122014.302500", "122014.762500", "122015.222500", "122015.682500", "122016.142500", "122016.602500", "122017.062500", "122017.522500", "122017.982500", "122018.442500", "122018.902500", "122019.362500", "122019.822500", "122020.282500", "122020.742500", "122021.202500", "122021.662500", "122022.122500", "122022.582500", "122023.042500", "122023.502500", "122023.962500", "122024.422500", "122024.882500", "122025.342500", "122025.802500", "122026.262500", "122026.722500", "122027.182500", "122027.642500", "122028.102500", "122028.562500", "122029.022500", "122029.482500", "122029.942500", "122030.402500", "122030.862500", "122031.322500", "122031.782500", "122032.242500", "122032.702500", "122033.162500", "122033.622500", "122034.082500", "122034.542500", "122035.002500", "122035.462500", "122035.922500", "122036.382500", "122036.842500", "122037.302500", "122037.762500", "122038.222500", "122038.682500", "122039.142500", "122039.602500", "122040.062500", "122040.522500", "122040.982500", "122041.442500", "122041.902500", "122042.362500", "122042.822500", "122043.282500", "122043.742500", "122044.202500", "122044.662500", "122045.122500", "122045.582500", "122046.042500", "122046.502500", "122046.962500", "122047.422500", "122047.882500", "122048.342500", "122048.802500", "122049.262500", "122049.722500", "122050.182500", "122050.642500", "122051.102500", "122051.562500", "122052.022500", "122052.482500", "122052.942500", "122053.402500", "122053.862500", "122054.322500", "122054.782500", "122055.242500", "122055.702500", "122056.162500", "122056.622500", "122057.082500", "122057.542500", "122058.002500", "122058.462500", "122058.922500", "122059.382500", "122059.842500", "122100.302500", "122100.762500", "122101.222500", "122101.682500", "122102.142500", "122102.602500", "122103.062500", "122103.522500", "122103.982500", "122104.442500", "122104.902500", "122105.362500", "122105.822500", "122106.282500", "122106.742500", "122107.202500", "122107.662500", "122108.122500", "122108.582500", "122109.042500", "122109.502500", "122109.962500", "122110.422500", "122110.882500", "122111.342500", "122111.802500", "122112.262500", "122112.722500", "122113.182500", "122113.642500", "122114.102500", "122114.562500", "122115.022500", "122115.482500", "122115.942500", "122116.402500", "122116.862500", "122117.322500", "122117.782500", "122118.242500", "122118.702500", "122119.162500", "122119.622500", "122120.082500", "122120.542500", "122121.002500", "122121.462500", "122121.922500", "122122.382500", "122122.842500", "122123.302500", "122123.762500", "122124.222500", "122124.682500", "122125.142500", "122125.602500", "122126.062500", "122126.522500", "122126.982500", "122127.442500", "122127.902500", "122128.362500", "122128.822500", "122129.282500", "122129.742500", "122130.202500", "122130.662500", "122131.122500", "122131.582500", "122132.042500", "122132.502500", "122132.962500", "122133.422500", "122133.882500", "122134.342500", "122134.802500", "122135.262500", "122135.722500", "122136.182500", "122136.642500", "122137.102500", "122137.562500", "122138.022500", "122138.482500", "122138.942500", "122139.402500", "122139.862500", "122140.322500", "122140.782500", "122141.242500", "122141.702500", "122142.162500", "122142.622500", "122143.082500", "122143.542500", "122144.002500", "122144.462500", "122144.922500", "122145.382500", "122145.842500", "122146.302500", "122146.762500", "122147.222500", "122147.682500", "122148.142500", "122148.602500", "122149.062500", "122149.522500", "122149.982500", "122150.442500", "122150.902500", "122151.362500", "122151.822500", "122152.282500", "122152.742500", "122153.202500", "122153.662500", "122154.122500", "122154.582500", "122155.042500", "122155.502500", "122155.962500", "122156.422500", "122156.882500", "122157.342500", "122157.802500", "122158.262500", "122158.722500", "122159.182500", "122159.642500", "122200.102500", "122200.562500", "122201.022500", "122201.482500", "122201.942500", "122202.402500", "122202.862500", "122203.322500", "122203.782500", "122204.242500", "122204.702500", "122205.162500", "122205.622500", "122206.082500", "122206.542500", "122207.002500", "122207.462500", "122207.922500", "122208.382500", "122208.842500", "122209.302500", "122209.762500", "122210.222500", "122210.682500", "122211.142500", "122211.602500", "122212.062500", "122212.522500", "122212.982500", "122213.442500", "122213.902500", "122214.362500", "122214.822500", "122215.282500", "122215.742500", "122216.202500", "122216.662500", "122217.122500", "122217.582500", "122218.042500", "122218.502500", "122218.962500", "122219.422500", "122219.882500", "122220.342500", "122220.802500", "122221.262500", "122221.722500", "122222.182500", "122222.642500", "122223.102500", "122223.562500", "122224.022500", "122224.482500", "122224.942500", "122225.402500", "122225.862500", "122226.322500", "122226.782500", "122227.242500", "122227.702500", "122228.162500", "122228.622500", "122229.082500", "122229.542500", "122230.002500", "122230.462500", "122230.922500", "122231.382500", "122231.842500", "122232.302500", "122232.762500", "122233.222500", "122233.682500", "122234.142500", "122234.602500", "122235.062500", "122235.522500", "122235.982500", "122236.442500", "122236.902500", "122237.362500", "122237.822500", "122238.282500", "122238.742500", "122239.202500", "122239.662500", "122240.122500", "122240.582500", "122241.042500", "122241.502500", "122241.962500", "122242.422500", "122242.882500", "122243.342500", "122243.802500", "122244.262500", "122244.722500", "122245.182500", "122245.642500", "122246.102500", "122246.562500", "122247.022500", "122247.482500", "122247.942500", "122248.402500", "122248.862500", "122249.322500", "122249.782500", "122250.242500", "122250.702500", "122251.162500", "122251.622500", "122252.082500", "122252.542500", "122253.002500", "122253.462500", "122253.922500", "122254.382500", "122254.842500", "122255.302500", "122255.762500", "122256.222500", "122256.682500", "122257.142500", "122257.602500", "122258.062500", "122258.522500", "122258.982500", "122259.442500", "122259.902500", "122300.362500", "122300.822500", "122301.282500", "122301.742500", "122302.202500", "122302.662500", "122303.122500", "122303.582500", "122304.042500", "122304.502500", "122304.962500", "122305.422500", "122305.882500", "122306.342500", "122306.802500", "122307.262500", "122307.722500", "122308.182500", "122308.642500", "122309.102500", "122309.562500", "122310.022500", "122310.482500", "122310.942500", "122311.402500", "122311.862500", "122312.322500", "122312.782500", "122313.242500", "122313.702500", "122314.162500", "122314.622500", "122315.082500", "122315.542500", "122316.002500", "122316.462500", "122316.922500", "122317.382500", "122317.842500", "122318.302500", "122318.762500", "122319.222500", "122319.682500", "122320.142500", "122320.602500", "122321.062500", "122321.522500", "122321.982500", "122322.442500", "122322.902500", "122323.362500", "122323.822500", "122324.282500", "122324.742500", "122325.202500", "122325.662500", "122326.122500", "122326.582500", "122327.042500"],
