{
  "AcquisitionMatrixPE": 82,
  "AcquisitionNumber": 1,
  "AcquisitionTime": "16:38:7.812500",
  "BandwidthPerPixelPhaseEncode": 24.888,
  "BaseResolution": 82,
  "BodyPartExamined": "BRAIN",
  "ConsistencyInfo": "N4_VE11E_LATEST_20181129",
  "ConversionSoftware": "dcm2niix",
  "ConversionSoftwareVersion": "v1.0.20201102",
  "DerivedVendorReportedEchoSpacing": 0.00049,
  "DeviceSerialNumber": "66112",
  "DwellTime": 2e-06,
  "EchoTime": 0.0272,
  "EchoTrainLength": 82,
  "EffectiveEchoSpacing": 0.00049,
  "FlipAngle": 44,
  "ImageComments": "Unaliased MB8/PE3",
  "ImageOrientationPatientDICOM": [0.996609, 0.0805125, -0.0169784, -0.0731864, 0.96166, 0.2643],
  "ImageType": [
    "ORIGINAL",
    "PRIMARY",
    "M",
    "MB",
    "ND",
    "NORM",
    "MOSAIC"
],
  "ImagingFrequency": 123.259,
  "InPlanePhaseEncodingDirectionDICOM": "COL",
  "InstitutionAddress": "Maynard 3,Hanover,NH,US,03755",
  "InstitutionName": "Dartmouth College - PBS",
  "InstitutionalDepartmentName": "Department",
  "MRAcquisitionType": "2D",
  "MagneticFieldStrength": 3,
  "Manufacturer": "Siemens",
  "ManufacturersModelName": "Prisma",
  "Modality": "MR",
  "MultibandAccelerationFactor": 8,
  "PartialFourier": 1,
  "PatientPosition": "HFS",
  "PercentPhaseFOV": 100,
  "PercentSampling": 100,
  "PhaseEncodingDirection": "j-",
  "PhaseEncodingSteps": 82,
  "PhaseResolution": 1,
  "PixelBandwidth": 3050,
  "ProcedureStepDescription": "Wager_Wager^1076_spacetop",
  "ProtocolName": "func_run-03_task-social_acq-ap-mb8",
  "PulseSequenceDetails": "%CustomerSeq%\\cmrr_mbep2d_bold",
  "ReceiveCoilActiveElements": "HEA;HEP",
  "ReceiveCoilName": "Head_32",
  "ReconMatrixPE": 82,
  "RepetitionTime": 0.46,
  "SAR": 0.0973247,
  "ScanOptions": "FS",
  "ScanningSequence": "EP",
  "SequenceName": "epfid2d1_82",
  "SequenceVariant": "SK\\SS",
  "SeriesDescription": "func_run-03_task-social_acq-ap-mb8",
  "SeriesNumber": 24,
  "ShimSetting": [4228, -7828, -7241, 322, -94, -140, 119, 100],
  "SliceThickness": 2.7,
  "SliceTiming": [0, 0.2525, 0.0625, 0.315, 0.1275, 0.3775, 0.19, 0, 0.2525, 0.0625, 0.315, 0.1275, 0.3775, 0.19, 0, 0.2525, 0.0625, 0.315, 0.1275, 0.3775, 0.19, 0, 0.2525, 0.0625, 0.315, 0.1275, 0.3775, 0.19, 0, 0.2525, 0.0625, 0.315, 0.1275, 0.3775, 0.19, 0, 0.2525, 0.0625, 0.315, 0.1275, 0.3775, 0.19, 0, 0.2525, 0.0625, 0.315, 0.1275, 0.3775, 0.19, 0, 0.2525, 0.0625, 0.315, 0.1275, 0.3775, 0.19],
  "SoftwareVersions": "syngo MR E11",
  "SpacingBetweenSlices": 2.7,
  "StationName": "AWP66112",
  "TaskName": "social",
  "TotalReadoutTime": 0.03969,
  "TxRefAmp": 230.222,
  "WipMemBlock": "1c7ca4c8-0ec8-46f4-98b2-adae3999fa39||Sequence: R016 ve11e/master r/434b28f1; Aug  7 2019 18:53:46 by eja",
  "dcmmeta_affine": [
    [-2.6738290786743164, -0.1963537186384201, -0.10153857618570328, 122.36677551269531],
    [-0.21600909531116486, 2.5800623893737793, 0.707835853099823, -112.43775939941406],
    [-0.04555172473192215, -0.7090982794761658, 2.603585720062256, -30.849742889404297],
    [0.0, 0.0, 0.0, 1.0]
],
  "dcmmeta_reorient_transform": [
    [0.0, -1.0, 0.0, 81.0],
    [1.0, 0.0, 0.0, 0.0],
    [0.0, 0.0, 1.0, 0.0],
    [0.0, 0.0, 0.0, 1.0]
],
  "dcmmeta_shape": [82, 82, 56, 872],
  "dcmmeta_slice_dim": 2,
  "dcmmeta_version": 0.6,
  "global": {
    "const": {
      "AccessionNumber": "A004324",
      "AcquisitionMatrix": [82, 0, 0, 82],
      "AngioFlag": "N",
      "BitsAllocated": 16,
      "BitsStored": 16,
      "BodyPartExamined": "BRAIN",
      "Columns": 656,
      "EchoNumbers": 1,
      "EchoTime": 27.2,
      "EchoTrainLength": 82,
      "FlipAngle": 44.0,
      "HighBit": 15,
      "ImageOrientationPatient": [0.99660898847696, 0.08051247753365, -0.016978370014, -0.0731863822103, 0.96165956541374, 0.26430027186372],
      "ImagePositionPatient": [-817.49754874165, -899.01978300163, -278.72457383023],
      "ImageType": [
        "ORIGINAL",
        "PRIMARY",
        "M",
        "MB",
        "ND",
        "NORM",
        "MOSAIC"
],
      "ImagedNucleus": "1H",
      "ImagingFrequency": 123.259115,
      "InPlanePhaseEncodingDirection": "COL",
      "MRAcquisitionType": "2D",
      "MagneticFieldStrength": 3.0,
      "Manufacturer": "SIEMENS",
      "ManufacturerModelName": "Prisma",
      "Modality": "MR",
      "NumberOfAverages": 1.0,
      "NumberOfPhaseEncodingSteps": 82,
      "PercentPhaseFieldOfView": 100.0,
      "PercentSampling": 100.0,
      "PerformedProcedureStepStartTime": "152250.319000",
      "PhotometricInterpretation": "MONOCHROME2",
      "PixelBandwidth": 3050.0,
      "PixelRepresentation": 0,
      "PixelSpacing": [2.6829268932343, 2.6829268932343],
      "ProtocolName": "func_run-03_task-social_acq-ap-mb8",
      "RepetitionTime": 460.0,
      "Rows": 656,
      "SAR": 0.09732472231693,
      "SamplesPerPixel": 1,
      "ScanOptions": "FS",
      "ScanningSequence": "EP",
      "SequenceName": "epfid2d1_82",
      "SequenceVariant": [
        "SK",
        "SS"
],
      "SeriesDescription": "func_run-03_task-social_acq-ap-mb8",
      "SeriesNumber": 24,
      "SeriesTime": "163818.335000",
      "SliceLocation": -63.826805121739,
      "SliceThickness": 2.7000000476837,
      "SmallestImagePixelValue": 0,
      "SoftwareVersions": "syngo MR E11",
      "SpacingBetweenSlices": 2.6999999573141,
      "SpecificCharacterSet": "ISO_IR 100",
      "StudyID": "1",
      "StudyTime": "152250.260000",
      "TransmitCoilName": "Body",
      "VariableFlipAngleFlag": "N",
      "WindowCenterWidthExplanation": "Algo1"
    },
    "slices": {}
  },
  "time": {
    "samples": {
      "AcquisitionNumber": [1, 2, 3, 4, 5, 6, 7, 8, 9, 10, 11, 12, 13, 14, 15, 16, 17, 18, 19, 20, 21, 22, 23, 24, 25, 26, 27, 28, 29, 30, 31, 32, 33, 34, 35, 36, 37, 38, 39, 40, 41, 42, 43, 44, 45, 46, 47, 48, 49, 50, 51, 52, 53, 54, 55, 56, 57, 58, 59, 60, 61, 62, 63, 64, 65, 66, 67, 68, 69, 70, 71, 72, 73, 74, 75, 76, 77, 78, 79, 80, 81, 82, 83, 84, 85, 86, 87, 88, 89, 90, 91, 92, 93, 94, 95, 96, 97, 98, 99, 100, 101, 102, 103, 104, 105, 106, 107, 108, 109, 110, 111, 112, 113, 114, 115, 116, 117, 118, 119, 120, 121, 122, 123, 124, 125, 126, 127, 128, 129, 130, 131, 132, 133, 134, 135, 136, 137, 138, 139, 140, 141, 142, 143, 144, 145, 146, 147, 148, 149, 150, 151, 152, 153, 154, 155, 156, 157, 158, 159, 160, 161, 162, 163, 164, 165, 166, 167, 168, 169, 170, 171, 172, 173, 174, 175, 176, 177, 178, 179, 180, 181, 182, 183, 184, 185, 186, 187, 188, 189, 190, 191, 192, 193, 194, 195, 196, 197, 198, 199, 200, 201, 202, 203, 204, 205, 206, 207, 208, 209, 210, 211, 212, 213, 214, 215, 216, 217, 218, 219, 220, 221, 222, 223, 224, 225, 226, 227, 228, 229, 230, 231, 232, 233, 234, 235, 236, 237, 238, 239, 240, 241, 242, 243, 244, 245, 246, 247, 248, 249, 250, 251, 252, 253, 254, 255, 256, 257, 258, 259, 260, 261, 262, 263, 264, 265, 266, 267, 268, 269, 270, 271, 272, 273, 274, 275, 276, 277, 278, 279, 280, 281, 282, 283, 284, 285, 286, 287, 288, 289, 290, 291, 292, 293, 294, 295, 296, 297, 298, 299, 300, 301, 302, 303, 304, 305, 306, 307, 308, 309, 310, 311, 312, 313, 314, 315, 316, 317, 318, 319, 320, 321, 322, 323, 324, 325, 326, 327, 328, 329, 330, 331, 332, 333, 334, 335, 336, 337, 338, 339, 340, 341, 342, 343, 344, 345, 346, 347, 348, 349, 350, 351, 352, 353, 354, 355, 356, 357, 358, 359, 360, 361, 362, 363, 364, 365, 366, 367, 368, 369, 370, 371, 372, 373, 374, 375, 376, 377, 378, 379, 380, 381, 382, 383, 384, 385, 386, 387, 388, 389, 390, 391, 392, 393, 394, 395, 396, 397, 398, 399, 400, 401, 402, 403, 404, 405, 406, 407, 408, 409, 410, 411, 412, 413, 414, 415, 416, 417, 418, 419, 420, 421, 422, 423, 424, 425, 426, 427, 428, 429, 430, 431, 432, 433, 434, 435, 436, 437, 438, 439, 440, 441, 442, 443, 444, 445, 446, 447, 448, 449, 450, 451, 452, 453, 454, 455, 456, 457, 458, 459, 460, 461, 462, 463, 464, 465, 466, 467, 468, 469, 470, 471, 472, 473, 474, 475, 476, 477, 478, 479, 480, 481, 482, 483, 484, 485, 486, 487, 488, 489, 490, 491, 492, 493, 494, 495, 496, 497, 498, 499, 500, 501, 502, 503, 504, 505, 506, 507, 508, 509, 510, 511, 512, 513, 514, 515, 516, 517, 518, 519, 520, 521, 522, 523, 524, 525, 526, 527, 528, 529, 530, 531, 532, 533, 534, 535, 536, 537, 538, 539, 540, 541, 542, 543, 544, 545, 546, 547, 548, 549, 550, 551, 552, 553, 554, 555, 556, 557, 558, 559, 560, 561, 562, 563, 564, 565, 566, 567, 568, 569, 570, 571, 572, 573, 574, 575, 576, 577, 578, 579, 580, 581, 582, 583, 584, 585, 586, 587, 588, 589, 590, 591, 592, 593, 594, 595, 596, 597, 598, 599, 600, 601, 602, 603, 604, 605, 606, 607, 608, 609, 610, 611, 612, 613, 614, 615, 616, 617, 618, 619, 620, 621, 622, 623, 624, 625, 626, 627, 628, 629, 630, 631, 632, 633, 634, 635, 636, 637, 638, 639, 640, 641, 642, 643, 644, 645, 646, 647, 648, 649, 650, 651, 652, 653, 654, 655, 656, 657, 658, 659, 660, 661, 662, 663, 664, 665, 666, 667, 668, 669, 670, 671, 672, 673, 674, 675, 676, 677, 678, 679, 680, 681, 682, 683, 684, 685, 686, 687, 688, 689, 690, 691, 692, 693, 694, 695, 696, 697, 698, 699, 700, 701, 702, 703, 704, 705, 706, 707, 708, 709, 710, 711, 712, 713, 714, 715, 716, 717, 718, 719, 720, 721, 722, 723, 724, 725, 726, 727, 728, 729, 730, 731, 732, 733, 734, 735, 736, 737, 738, 739, 740, 741, 742, 743, 744, 745, 746, 747, 748, 749, 750, 751, 752, 753, 754, 755, 756, 757, 758, 759, 760, 761, 762, 763, 764, 765, 766, 767, 768, 769, 770, 771, 772, 773, 774, 775, 776, 777, 778, 779, 780, 781, 782, 783, 784, 785, 786, 787, 788, 789, 790, 791, 792, 793, 794, 795, 796, 797, 798, 799, 800, 801, 802, 803, 804, 805, 806, 807, 808, 809, 810, 811, 812, 813, 814, 815, 816, 817, 818, 819, 820, 821, 822, 823, 824, 825, 826, 827, 828, 829, 830, 831, 832, 833, 834, 835, 836, 837, 838, 839, 840, 841, 842, 843, 844, 845, 846, 847, 848, 849, 850, 851, 852, 853, 854, 855, 856, 857, 858, 859, 860, 861, 862, 863, 864, 865, 866, 867, 868, 869, 870, 871, 872],
      "AcquisitionTime": ["163807.812500", "163808.272500", "163808.732500", "163809.192500", "163809.652500", "163810.112500", "163810.572500", "163811.032500", "163811.492500", "163811.952500", "163812.412500", "163812.872500", "163813.332500", "163813.792500", "163814.252500", "163814.712500", "163815.172500", "163815.632500", "163816.092500", "163816.552500", "163817.012500", "163817.472500", "163817.932500", "163818.392500", "163818.852500", "163819.312500", "163819.772500", "163820.232500", "163820.692500", "163821.152500", "163821.612500", "163822.072500", "163822.532500", "163822.992500", "163823.452500", "163823.912500", "163824.372500", "163824.832500", "163825.292500", "163825.752500", "163826.212500", "163826.672500", "163827.132500", "163827.592500", "163828.052500", "163828.512500", "163828.972500", "163829.432500", "163829.892500", "163830.352500", "163830.812500", "163831.272500", "163831.732500", "163832.192500", "163832.652500", "163833.112500", "163833.572500", "163834.032500", "163834.492500", "163834.952500", "163835.412500", "163835.872500", "163836.332500", "163836.792500", "163837.252500", "163837.712500", "163838.172500", "163838.632500", "163839.092500", "163839.552500", "163840.012500", "163840.472500", "163840.932500", "163841.392500", "163841.852500", "163842.312500", "163842.772500", "163843.232500", "163843.692500", "163844.152500", "163844.612500", "163845.072500", "163845.532500", "163845.992500", "163846.452500", "163846.912500", "163847.372500", "163847.832500", "163848.292500", "163848.752500", "163849.212500", "163849.672500", "163850.132500", "163850.592500", "163851.052500", "163851.512500", "163851.972500", "163852.432500", "163852.892500", "163853.352500", "163853.812500", "163854.272500", "163854.732500", "163855.192500", "163855.652500", "163856.112500", "163856.572500", "163857.032500", "163857.492500", "163857.952500", "163858.412500", "163858.872500", "163859.332500", "163859.792500", "163900.252500", "163900.712500", "163901.172500", "163901.632500", "163902.092500", "163902.552500", "163903.012500", "163903.472500", "163903.932500", "163904.392500", "163904.852500", "163905.312500", "163905.772500", "163906.232500", "163906.692500", "163907.152500", "163907.612500", "163908.072500", "163908.532500", "163908.992500", "163909.452500", "163909.912500", "163910.372500", "163910.832500", "163911.292500", "163911.752500", "163912.212500", "163912.672500", "163913.132500", "163913.592500", "163914.052500", "163914.512500", "163914.972500", "163915.432500", "163915.892500", "163916.352500", "163916.812500", "163917.272500", "163917.732500", "163918.192500", "163918.652500", "163919.112500", "163919.572500", "163920.032500", "163920.492500", "163920.952500", "163921.412500", "163921.872500", "163922.332500", "163922.792500", "163923.252500", "163923.712500", "163924.172500", "163924.632500", "163925.092500", "163925.552500", "163926.012500", "163926.472500", "163926.932500", "163927.392500", "163927.852500", "163928.312500", "163928.772500", "163929.232500", "163929.692500", "163930.152500", "163930.612500", "163931.072500", "163931.532500", "163931.992500", "163932.452500", "163932.912500", "163933.372500", "163933.832500", "163934.292500", "163934.752500", "163935.212500", "163935.672500", "163936.132500", "163936.592500", "163937.052500", "163937.512500", "163937.972500", "163938.432500", "163938.892500", "163939.352500", "163939.812500", "163940.272500", "163940.732500", "163941.192500", "163941.652500", "163942.112500", "163942.572500", "163943.032500", "163943.492500", "163943.952500", "163944.412500", "163944.872500", "163945.332500", "163945.792500", "163946.252500", "163946.712500", "163947.172500", "163947.632500", "163948.092500", "163948.552500", "163949.012500", "163949.472500", "163949.932500", "163950.392500", "163950.852500", "163951.312500", "163951.772500", "163952.232500", "163952.692500", "163953.152500", "163953.612500", "163954.072500", "163954.532500", "163954.992500", "163955.452500", "163955.912500", "163956.372500", "163956.832500", "163957.292500", "163957.752500", "163958.212500", "163958.672500", "163959.132500", "163959.592500", "164000.052500", "164000.512500", "164000.972500", "164001.432500", "164001.892500", "164002.352500", "164002.812500", "164003.272500", "164003.732500", "164004.192500", "164004.652500", "164005.112500", "164005.572500", "164006.032500", "164006.492500", "164006.952500", "164007.412500", "164007.872500", "164008.332500", "164008.792500", "164009.252500", "164009.712500", "164010.172500", "164010.632500", "164011.092500", "164011.552500", "164012.012500", "164012.472500", "164012.932500", "164013.392500", "164013.852500", "164014.312500", "164014.772500", "164015.232500", "164015.692500", "164016.152500", "164016.612500", "164017.072500", "164017.532500", "164017.992500", "164018.452500", "164018.912500", "164019.372500", "164019.832500", "164020.292500", "164020.752500", "164021.212500", "164021.672500", "164022.132500", "164022.592500", "164023.052500", "164023.512500", "164023.972500", "164024.432500", "164024.892500", "164025.352500", "164025.812500", "164026.272500", "164026.732500", "164027.192500", "164027.652500", "164028.112500", "164028.572500", "164029.032500", "164029.492500", "164029.952500", "164030.412500", "164030.872500", "164031.332500", "164031.792500", "164032.252500", "164032.712500", "164033.172500", "164033.632500", "164034.092500", "164034.552500", "164035.012500", "164035.472500", "164035.932500", "164036.392500", "164036.852500", "164037.312500", "164037.772500", "164038.232500", "164038.692500", "164039.152500", "164039.612500", "164040.072500", "164040.532500", "164040.992500", "164041.452500", "164041.912500", "164042.372500", "164042.832500", "164043.292500", "164043.752500", "164044.212500", "164044.672500", "164045.132500", "164045.592500", "164046.052500", "164046.512500", "164046.972500", "164047.432500", "164047.892500", "164048.352500", "164048.812500", "164049.272500", "164049.732500", "164050.192500", "164050.652500", "164051.112500", "164051.572500", "164052.032500", "164052.492500", "164052.952500", "164053.412500", "164053.872500", "164054.332500", "164054.792500", "164055.252500", "164055.712500", "164056.172500", "164056.632500", "164057.092500", "164057.552500", "164058.012500", "164058.472500", "164058.932500", "164059.392500", "164059.852500", "164100.312500", "164100.772500", "164101.232500", "164101.692500", "164102.152500", "164102.612500", "164103.072500", "164103.532500", "164103.992500", "164104.452500", "164104.912500", "164105.372500", "164105.832500", "164106.292500", "164106.752500", "164107.212500", "164107.672500", "164108.132500", "164108.592500", "164109.052500", "164109.512500", "164109.972500", "164110.432500", "164110.892500", "164111.352500", "164111.812500", "164112.272500", "164112.732500", "164113.192500", "164113.652500", "164114.112500", "164114.572500", "164115.032500", "164115.492500", "164115.952500", "164116.412500", "164116.872500", "164117.332500", "164117.792500", "164118.252500", "164118.712500", "164119.172500", "164119.632500", "164120.092500", "164120.552500", "164121.012500", "164121.472500", "164121.932500", "164122.392500", "164122.852500", "164123.312500", "164123.772500", "164124.232500", "164124.692500", "164125.152500", "164125.612500", "164126.072500", "164126.532500", "164126.992500", "164127.452500", "164127.912500", "164128.372500", "164128.832500", "164129.292500", "164129.752500", "164130.212500", "164130.672500", "164131.132500", "164131.592500", "164132.052500", "164132.512500", "164132.972500", "164133.432500", "164133.892500", "164134.352500", "164134.812500", "164135.272500", "164135.732500", "164136.192500", "164136.652500", "164137.112500", "164137.572500", "164138.032500", "164138.492500", "164138.952500", "164139.412500", "164139.872500", "164140.332500", "164140.792500", "164141.252500", "164141.712500", "164142.172500", "164142.632500", "164143.092500", "164143.552500", "164144.012500", "164144.472500", "164144.932500", "164145.392500", "164145.852500", "164146.312500", "164146.772500", "164147.232500", "164147.692500", "164148.152500", "164148.612500", "164149.072500", "164149.532500", "164149.992500", "164150.452500", "164150.912500", "164151.372500", "164151.832500", "164152.292500", "164152.752500", "164153.212500", "164153.672500", "164154.132500", "164154.592500", "164155.052500", "164155.512500", "164155.972500", "164156.432500", "164156.892500", "164157.352500", "164157.812500", "164158.272500", "164158.732500", "164159.192500", "164159.652500", "164200.112500", "164200.572500", "164201.032500", "164201.492500", "164201.952500", "164202.412500", "164202.872500", "164203.332500", "164203.792500", "164204.252500", "164204.712500", "164205.172500", "164205.632500", "164206.092500", "164206.552500", "164207.012500", "164207.472500", "164207.932500", "164208.392500", "164208.852500", "164209.312500", "164209.772500", "164210.232500", "164210.692500", "164211.152500", "164211.612500", "164212.072500", "164212.532500", "164212.992500", "164213.452500", "164213.912500", "164214.372500", "164214.832500", "164215.292500", "164215.752500", "164216.212500", "164216.672500", "164217.132500", "164217.592500", "164218.052500", "164218.512500", "164218.972500", "164219.432500", "164219.892500", "164220.352500", "164220.812500", "164221.272500", "164221.732500", "164222.192500", "164222.652500", "164223.112500", "164223.572500", "164224.032500", "164224.492500", "164224.952500", "164225.412500", "164225.872500", "164226.332500", "164226.792500", "164227.252500", "164227.712500", "164228.172500", "164228.632500", "164229.092500", "164229.552500", "164230.012500", "164230.472500", "164230.932500", "164231.392500", "164231.852500", "164232.312500", "164232.772500", "164233.232500", "164233.692500", "164234.152500", "164234.612500", "164235.072500", "164235.532500", "164235.992500", "164236.452500", "164236.912500", "164237.372500", "164237.832500", "164238.292500", "164238.752500", "164239.212500", "164239.672500", "164240.132500", "164240.592500", "164241.052500", "164241.512500", "164241.972500", "164242.432500", "164242.892500", "164243.352500", "164243.812500", "164244.272500", "164244.732500", "164245.192500", "164245.652500", "164246.112500", "164246.572500", "164247.032500", "164247.492500", "164247.952500", "164248.412500", "164248.872500", "164249.332500", "164249.792500", "164250.252500", "164250.712500", "164251.172500", "164251.632500", "164252.092500", "164252.552500", "164253.012500", "164253.472500", "164253.932500", "164254.392500", "164254.852500", "164255.312500", "164255.772500", "164256.232500", "164256.692500", "164257.152500", "164257.612500", "164258.072500", "164258.532500", "164258.992500", "164259.452500", "164259.912500", "164300.372500", "164300.832500", "164301.292500", "164301.752500", "164302.212500", "164302.672500", "164303.132500", "164303.592500", "164304.052500", "164304.512500", "164304.972500", "164305.432500", "164305.892500", "164306.352500", "164306.812500", "164307.272500", "164307.732500", "164308.192500", "164308.652500", "164309.112500", "164309.572500", "164310.032500", "164310.492500", "164310.952500", "164311.412500", "164311.872500", "164312.332500", "164312.792500", "164313.252500", "164313.712500", "164314.172500", "164314.632500", "164315.092500", "164315.552500", "164316.012500", "164316.472500", "164316.932500", "164317.392500", "164317.852500", "164318.312500", "164318.772500", "164319.232500", "164319.692500", "164320.152500", "164320.612500", "164321.072500", "164321.532500", "164321.992500", "164322.452500", "164322.912500", "164323.372500", "164323.832500", "164324.292500", "164324.752500", "164325.212500", "164325.672500", "164326.132500", "164326.592500", "164327.052500", "164327.512500", "164327.972500", "164328.432500", "164328.892500", "164329.352500", "164329.812500", "164330.272500", "164330.732500", "164331.192500", "164331.652500", "164332.112500", "164332.572500", "164333.032500", "164333.492500", "164333.952500", "164334.412500", "164334.872500", "164335.332500", "164335.792500", "164336.252500", "164336.712500", "164337.172500", "164337.632500", "164338.092500", "164338.552500", "164339.012500", "164339.472500", "164339.932500", "164340.392500", "164340.852500", "164341.312500", "164341.772500", "164342.232500", "164342.692500", "164343.152500", "164343.612500", "164344.072500", "164344.532500", "164344.992500", "164345.452500", "164345.912500", "164346.372500", "164346.832500", "164347.292500", "164347.752500", "164348.212500", "164348.672500", "164349.132500", "164349.592500", "164350.052500", "164350.512500", "164350.972500", "164351.432500", "164351.892500", "164352.352500", "164352.812500", "164353.272500", "164353.732500", "164354.192500", "164354.652500", "164355.112500", "164355.572500", "164356.032500", "164356.492500", "164356.952500", "164357.412500", "164357.872500", "164358.332500", "164358.792500", "164359.252500", "164359.712500", "164400.172500", "164400.632500", "164401.092500", "164401.552500", "164402.012500", "164402.472500", "164402.932500", "164403.392500", "164403.852500", "164404.312500", "164404.772500", "164405.232500", "164405.692500", "164406.152500", "164406.612500", "164407.072500", "164407.532500", "164407.992500", "164408.452500", "164408.912500", "164409.372500", "164409.832500", "164410.292500", "164410.752500", "164411.212500", "164411.672500", "164412.132500", "164412.592500", "164413.052500", "164413.512500", "164413.972500", "164414.432500", "164414.892500", "164415.352500", "164415.812500", "164416.272500", "164416.732500", "164417.192500", "164417.652500", "164418.112500", "164418.572500", "164419.032500", "164419.492500", "164419.952500", "164420.412500", "164420.872500", "164421.332500", "164421.792500", "164422.252500", "164422.712500", "164423.172500", "164423.632500", "164424.092500", "164424.552500", "164425.012500", "164425.472500", "164425.932500", "164426.392500", "164426.852500", "164427.312500", "164427.772500", "164428.232500", "164428.692500", "164429.152500", "164429.612500", "164430.072500", "164430.532500", "164430.992500", "164431.452500", "164431.912500", "164432.372500", "164432.832500", "164433.292500", "164433.752500", "164434.212500", "164434.672500", "164435.132500", "164435.592500", "164436.052500", "164436.512500", "164436.972500", "164437.432500", "164437.892500", "164438.352500", "164438.812500", "164439.272500", "164439.732500", "164440.192500", "164440.652500", "164441.112500", "164441.572500", "164442.032500", "164442.492500", "164442.952500", "164443.412500", "164443.872500", "164444.332500", "164444.792500", "164445.252500", "164445.712500", "164446.172500", "164446.632500", "164447.092500", "164447.552500", "164448.012500", "164448.472500"],
