{
  "AcquisitionMatrixPE": 82,
  "AcquisitionNumber": 1,
  "AcquisitionTime": "17:21:9.120000",
  "BandwidthPerPixelPhaseEncode": 24.888,
  "BaseResolution": 82,
  "BodyPartExamined": "BRAIN",
  "ConsistencyInfo": "N4_VE11E_LATEST_20181129",
  "ConversionSoftware": "dcm2niix",
  "ConversionSoftwareVersion": "v1.0.20201102",
  "DerivedVendorReportedEchoSpacing": 0.00049,
  "DeviceSerialNumber": "66112",
  "DwellTime": 2e-06,
  "EchoTime": 0.0272,
  "EchoTrainLength": 82,
  "EffectiveEchoSpacing": 0.00049,
  "FlipAngle": 44,
  "ImageComments": "Unaliased MB8/PE3",
  "ImageOrientationPatientDICOM": [0.995657, 0.0688544, -0.0626549, -0.0534001, 0.973706, 0.221463],
  "ImageType": [
    "ORIGINAL",
    "PRIMARY",
    "M",
    "MB",
    "ND",
    "NORM",
    "MOSAIC"
],
  "ImagingFrequency": 123.259,
  "InPlanePhaseEncodingDirectionDICOM": "COL",
  "InstitutionAddress": "Maynard 3,Hanover,NH,US,03755",
  "InstitutionName": "Dartmouth College - PBS",
  "InstitutionalDepartmentName": "Department",
  "MRAcquisitionType": "2D",
  "MagneticFieldStrength": 3,
  "Manufacturer": "Siemens",
  "ManufacturersModelName": "Prisma",
  "Modality": "MR",
  "MultibandAccelerationFactor": 8,
  "PartialFourier": 1,
  "PatientPosition": "HFS",
  "PercentPhaseFOV": 100,
  "PercentSampling": 100,
  "PhaseEncodingDirection": "j-",
  "PhaseEncodingSteps": 82,
  "PhaseResolution": 1,
  "PixelBandwidth": 3050,
  "ProcedureStepDescription": "Wager_Wager^1076_spacetop",
  "ProtocolName": "func_run-02_task-alignvideo_acq-ap-mb8",
  "PulseSequenceDetails": "%CustomerSeq%\\cmrr_mbep2d_bold",
  "ReceiveCoilActiveElements": "HEA;HEP",
  "ReceiveCoilName": "Head_32",
  "ReconMatrixPE": 82,
  "RepetitionTime": 0.46,
  "SAR": 0.09736,
  "ScanOptions": "FS",
  "ScanningSequence": "EP",
  "SequenceName": "epfid2d1_82",
  "SequenceVariant": "SK\\SS",
  "SeriesDescription": "func_run-02_task-alignvideo_acq-ap-mb8",
  "SeriesNumber": 40,
  "ShimSetting": [4228, -7827, -7236, 340, -97, -128, 114, 99],
  "SliceThickness": 2.7,
  "SliceTiming": [0, 0.25, 0.0625, 0.315, 0.125, 0.3775, 0.1875, 0, 0.25, 0.0625, 0.315, 0.125, 0.3775, 0.1875, 0, 0.25, 0.0625, 0.315, 0.125, 0.3775, 0.1875, 0, 0.25, 0.0625, 0.315, 0.125, 0.3775, 0.1875, 0, 0.25, 0.0625, 0.315, 0.125, 0.3775, 0.1875, 0, 0.25, 0.0625, 0.315, 0.125, 0.3775, 0.1875, 0, 0.25, 0.0625, 0.315, 0.125, 0.3775, 0.1875, 0, 0.25, 0.0625, 0.315, 0.125, 0.3775, 0.1875],
  "SoftwareVersions": "syngo MR E11",
  "SpacingBetweenSlices": 2.7,
  "StationName": "AWP66112",
  "TaskName": "alignvideo",
  "TotalReadoutTime": 0.03969,
  "TxRefAmp": 230.222,
  "WipMemBlock": "25fd2105-474b-47c6-8369-3dde9921f504||Sequence: R016 ve11e/master r/434b28f1; Aug  7 2019 18:53:46 by eja",
  "dcmmeta_affine": [
    [-2.6712756156921387, -0.14326845109462738, -0.2058914452791214, 122.80208587646484],
    [-0.18473125994205475, 2.6123809814453125, 0.5863197445869446, -111.78254699707031],
    [-0.16809843480587006, -0.5941689610481262, 2.6275155544281006, -28.24738311767578],
    [0.0, 0.0, 0.0, 1.0]
],
  "dcmmeta_reorient_transform": [
    [0.0, -1.0, 0.0, 81.0],
    [1.0, 0.0, 0.0, 0.0],
    [0.0, 0.0, 1.0, 0.0],
    [0.0, 0.0, 0.0, 1.0]
],
  "dcmmeta_shape": [82, 82, 56, 926],
  "dcmmeta_slice_dim": 2,
  "dcmmeta_version": 0.6,
  "global": {
    "const": {
      "AccessionNumber": "A004324",
      "AcquisitionMatrix": [82, 0, 0, 82],
      "AngioFlag": "N",
      "BitsAllocated": 16,
      "BitsStored": 16,
      "BodyPartExamined": "BRAIN",
      "Columns": 656,
      "EchoNumbers": 1,
      "EchoTime": 27.2,
      "EchoTrainLength": 82,
      "FlipAngle": 44.0,
      "HighBit": 15,
      "ImageOrientationPatient": [0.99565729148642, 0.06885437798024, -0.0626548684691, -0.0534000599428, 0.97370559306901, 0.2214629802568],
      "ImagePositionPatient": [-836.73542384524, -902.59150165072, -198.65731922588],
      "ImageType": [
        "ORIGINAL",
        "PRIMARY",
        "M",
        "MB",
        "ND",
        "NORM",
        "MOSAIC"
],
      "ImagedNucleus": "1H",
      "ImagingFrequency": 123.259127,
      "InPlanePhaseEncodingDirection": "COL",
      "MRAcquisitionType": "2D",
      "MagneticFieldStrength": 3.0,
      "Manufacturer": "SIEMENS",
      "ManufacturerModelName": "Prisma",
      "Modality": "MR",
      "NumberOfAverages": 1.0,
      "NumberOfPhaseEncodingSteps": 82,
      "PercentPhaseFieldOfView": 100.0,
      "PercentSampling": 100.0,
      "PerformedProcedureStepStartTime": "152250.319000",
      "PhotometricInterpretation": "MONOCHROME2",
      "PixelBandwidth": 3050.0,
      "PixelRepresentation": 0,
      "PixelSpacing": [2.6829268932343, 2.6829268932343],
      "ProtocolName": "func_run-02_task-alignvideo_acq-ap-mb8",
      "RepetitionTime": 460.0,
      "Rows": 656,
      "SAR": 0.09735997215309,
      "SamplesPerPixel": 1,
      "ScanOptions": "FS",
      "ScanningSequence": "EP",
      "SequenceName": "epfid2d1_82",
      "SequenceVariant": [
        "SK",
        "SS"
],
      "SeriesDescription": "func_run-02_task-alignvideo_acq-ap-mb8",
      "SeriesNumber": 40,
      "SeriesTime": "172138.274000",
      "SliceLocation": -61.127648039156,
      "SliceThickness": 2.7000000476837,
      "SmallestImagePixelValue": 0,
      "SoftwareVersions": "syngo MR E11",
      "SpacingBetweenSlices": 2.7000000185829,
      "SpecificCharacterSet": "ISO_IR 100",
      "StudyID": "1",
      "StudyTime": "152250.260000",
      "TransmitCoilName": "Body",
      "VariableFlipAngleFlag": "N",
      "WindowCenterWidthExplanation": "Algo1"
    },
    "slices": {}
  },
  "time": {
    "samples": {
      "AcquisitionNumber": [1, 2, 3, 4, 5, 6, 7, 8, 9, 10, 11, 12, 13, 14, 15, 16, 17, 18, 19, 20, 21, 22, 23, 24, 25, 26, 27, 28, 29, 30, 31, 32, 33, 34, 35, 36, 37, 38, 39, 40, 41, 42, 43, 44, 45, 46, 47, 48, 49, 50, 51, 52, 53, 54, 55, 56, 57, 58, 59, 60, 61, 62, 63, 64, 65, 66, 67, 68, 69, 70, 71, 72, 73, 74, 75, 76, 77, 78, 79, 80, 81, 82, 83, 84, 85, 86, 87, 88, 89, 90, 91, 92, 93, 94, 95, 96, 97, 98, 99, 100, 101, 102, 103, 104, 105, 106, 107, 108, 109, 110, 111, 112, 113, 114, 115, 116, 117, 118, 119, 120, 121, 122, 123, 124, 125, 126, 127, 128, 129, 130, 131, 132, 133, 134, 135, 136, 137, 138, 139, 140, 141, 142, 143, 144, 145, 146, 147, 148, 149, 150, 151, 152, 153, 154, 155, 156, 157, 158, 159, 160, 161, 162, 163, 164, 165, 166, 167, 168, 169, 170, 171, 172, 173, 174, 175, 176, 177, 178, 179, 180, 181, 182, 183, 184, 185, 186, 187, 188, 189, 190, 191, 192, 193, 194, 195, 196, 197, 198, 199, 200, 201, 202, 203, 204, 205, 206, 207, 208, 209, 210, 211, 212, 213, 214, 215, 216, 217, 218, 219, 220, 221, 222, 223, 224, 225, 226, 227, 228, 229, 230, 231, 232, 233, 234, 235, 236, 237, 238, 239, 240, 241, 242, 243, 244, 245, 246, 247, 248, 249, 250, 251, 252, 253, 254, 255, 256, 257, 258, 259, 260, 261, 262, 263, 264, 265, 266, 267, 268, 269, 270, 271, 272, 273, 274, 275, 276, 277, 278, 279, 280, 281, 282, 283, 284, 285, 286, 287, 288, 289, 290, 291, 292, 293, 294, 295, 296, 297, 298, 299, 300, 301, 302, 303, 304, 305, 306, 307, 308, 309, 310, 311, 312, 313, 314, 315, 316, 317, 318, 319, 320, 321, 322, 323, 324, 325, 326, 327, 328, 329, 330, 331, 332, 333, 334, 335, 336, 337, 338, 339, 340, 341, 342, 343, 344, 345, 346, 347, 348, 349, 350, 351, 352, 353, 354, 355, 356, 357, 358, 359, 360, 361, 362, 363, 364, 365, 366, 367, 368, 369, 370, 371, 372, 373, 374, 375, 376, 377, 378, 379, 380, 381, 382, 383, 384, 385, 386, 387, 388, 389, 390, 391, 392, 393, 394, 395, 396, 397, 398, 399, 400, 401, 402, 403, 404, 405, 406, 407, 408, 409, 410, 411, 412, 413, 414, 415, 416, 417, 418, 419, 420, 421, 422, 423, 424, 425, 426, 427, 428, 429, 430, 431, 432, 433, 434, 435, 436, 437, 438, 439, 440, 441, 442, 443, 444, 445, 446, 447, 448, 449, 450, 451, 452, 453, 454, 455, 456, 457, 458, 459, 460, 461, 462, 463, 464, 465, 466, 467, 468, 469, 470, 471, 472, 473, 474, 475, 476, 477, 478, 479, 480, 481, 482, 483, 484, 485, 486, 487, 488, 489, 490, 491, 492, 493, 494, 495, 496, 497, 498, 499, 500, 501, 502, 503, 504, 505, 506, 507, 508, 509, 510, 511, 512, 513, 514, 515, 516, 517, 518, 519, 520, 521, 522, 523, 524, 525, 526, 527, 528, 529, 530, 531, 532, 533, 534, 535, 536, 537, 538, 539, 540, 541, 542, 543, 544, 545, 546, 547, 548, 549, 550, 551, 552, 553, 554, 555, 556, 557, 558, 559, 560, 561, 562, 563, 564, 565, 566, 567, 568, 569, 570, 571, 572, 573, 574, 575, 576, 577, 578, 579, 580, 581, 582, 583, 584, 585, 586, 587, 588, 589, 590, 591, 592, 593, 594, 595, 596, 597, 598, 599, 600, 601, 602, 603, 604, 605, 606, 607, 608, 609, 610, 611, 612, 613, 614, 615, 616, 617, 618, 619, 620, 621, 622, 623, 624, 625, 626, 627, 628, 629, 630, 631, 632, 633, 634, 635, 636, 637, 638, 639, 640, 641, 642, 643, 644, 645, 646, 647, 648, 649, 650, 651, 652, 653, 654, 655, 656, 657, 658, 659, 660, 661, 662, 663, 664, 665, 666, 667, 668, 669, 670, 671, 672, 673, 674, 675, 676, 677, 678, 679, 680, 681, 682, 683, 684, 685, 686, 687, 688, 689, 690, 691, 692, 693, 694, 695, 696, 697, 698, 699, 700, 701, 702, 703, 704, 705, 706, 707, 708, 709, 710, 711, 712, 713, 714, 715, 716, 717, 718, 719, 720, 721, 722, 723, 724, 725, 726, 727, 728, 729, 730, 731, 732, 733, 734, 735, 736, 737, 738, 739, 740, 741, 742, 743, 744, 745, 746, 747, 748, 749, 750, 751, 752, 753, 754, 755, 756, 757, 758, 759, 760, 761, 762, 763, 764, 765, 766, 767, 768, 769, 770, 771, 772, 773, 774, 775, 776, 777, 778, 779, 780, 781, 782, 783, 784, 785, 786, 787, 788, 789, 790, 791, 792, 793, 794, 795, 796, 797, 798, 799, 800, 801, 802, 803, 804, 805, 806, 807, 808, 809, 810, 811, 812, 813, 814, 815, 816, 817, 818, 819, 820, 821, 822, 823, 824, 825, 826, 827, 828, 829, 830, 831, 832, 833, 834, 835, 836, 837, 838, 839, 840, 841, 842, 843, 844, 845, 846, 847, 848, 849, 850, 851, 852, 853, 854, 855, 856, 857, 858, 859, 860, 861, 862, 863, 864, 865, 866, 867, 868, 869, 870, 871, 872, 873, 874, 875, 876, 877, 878, 879, 880, 881, 882, 883, 884, 885, 886, 887, 888, 889, 890, 891, 892, 893, 894, 895, 896, 897, 898, 899, 900, 901, 902, 903, 904, 905, 906, 907, 908, 909, 910, 911, 912, 913, 914, 915, 916, 917, 918, 919, 920, 921, 922, 923, 924, 925, 926],
      "AcquisitionTime": ["172109.120000", "172109.580000", "172110.040000", "172110.500000", "172110.960000", "172111.420000", "172111.880000", "172112.340000", "172112.800000", "172113.260000", "172113.720000", "172114.180000", "172114.640000", "172115.100000", "172115.560000", "172116.020000", "172116.480000", "172116.940000", "172117.400000", "172117.860000", "172118.320000", "172118.780000", "172119.240000", "172119.700000", "172120.160000", "172120.620000", "172121.080000", "172121.540000", "172122.000000", "172122.460000", "172122.920000", "172123.380000", "172123.840000", "172124.300000", "172124.760000", "172125.220000", "172125.680000", "172126.140000", "172126.600000", "172127.060000", "172127.520000", "172127.980000", "172128.440000", "172128.900000", "172129.360000", "172129.820000", "172130.280000", "172130.740000", "172131.200000", "172131.660000", "172132.120000", "172132.580000", "172133.040000", "172133.500000", "172133.960000", "172134.420000", "172134.880000", "172135.340000", "172135.800000", "172136.260000", "172136.720000", "172137.180000", "172137.640000", "172138.100000", "172138.560000", "172139.020000", "172139.480000", "172139.940000", "172140.400000", "172140.860000", "172141.320000", "172141.780000", "172142.240000", "172142.700000", "172143.160000", "172143.620000", "172144.080000", "172144.540000", "172145.000000", "172145.460000", "172145.920000", "172146.380000", "172146.840000", "172147.300000", "172147.760000", "172148.220000", "172148.680000", "172149.140000", "172149.600000", "172150.060000", "172150.520000", "172150.980000", "172151.440000", "172151.900000", "172152.360000", "172152.820000", "172153.280000", "172153.740000", "172154.200000", "172154.660000", "172155.120000", "172155.580000", "172156.040000", "172156.500000", "172156.960000", "172157.420000", "172157.880000", "172158.340000", "172158.800000", "172159.260000", "172159.720000", "172200.180000", "172200.640000", "172201.100000", "172201.560000", "172202.020000", "172202.480000", "172202.940000", "172203.400000", "172203.860000", "172204.320000", "172204.780000", "172205.240000", "172205.700000", "172206.160000", "172206.620000", "172207.080000", "172207.540000", "172208.000000", "172208.460000", "172208.920000", "172209.380000", "172209.840000", "172210.300000", "172210.760000", "172211.220000", "172211.680000", "172212.140000", "172212.600000", "172213.060000", "172213.520000", "172213.980000", "172214.440000", "172214.900000", "172215.360000", "172215.820000", "172216.280000", "172216.740000", "172217.200000", "172217.660000", "172218.120000", "172218.580000", "172219.040000", "172219.500000", "172219.960000", "172220.420000", "172220.880000", "172221.340000", "172221.800000", "172222.260000", "172222.720000", "172223.180000", "172223.640000", "172224.100000", "172224.560000", "172225.020000", "172225.480000", "172225.940000", "172226.400000", "172226.860000", "172227.320000", "172227.780000", "172228.240000", "172228.700000", "172229.160000", "172229.620000", "172230.080000", "172230.540000", "172231.000000", "172231.460000", "172231.920000", "172232.380000", "172232.840000", "172233.300000", "172233.760000", "172234.220000", "172234.680000", "172235.140000", "172235.600000", "172236.060000", "172236.520000", "172236.980000", "172237.440000", "172237.900000", "172238.360000", "172238.820000", "172239.280000", "172239.740000", "172240.200000", "172240.660000", "172241.120000", "172241.580000", "172242.040000", "172242.500000", "172242.960000", "172243.420000", "172243.880000", "172244.340000", "172244.800000", "172245.260000", "172245.720000", "172246.180000", "172246.640000", "172247.100000", "172247.560000", "172248.020000", "172248.480000", "172248.940000", "172249.400000", "172249.860000", "172250.320000", "172250.780000", "172251.240000", "172251.700000", "172252.160000", "172252.620000", "172253.080000", "172253.540000", "172254.000000", "172254.460000", "172254.920000", "172255.380000", "172255.840000", "172256.300000", "172256.760000", "172257.220000", "172257.680000", "172258.140000", "172258.600000", "172259.060000", "172259.520000", "172259.980000", "172300.440000", "172300.900000", "172301.360000", "172301.820000", "172302.280000", "172302.740000", "172303.200000", "172303.660000", "172304.120000", "172304.580000", "172305.040000", "172305.500000", "172305.960000", "172306.420000", "172306.880000", "172307.340000", "172307.800000", "172308.260000", "172308.720000", "172309.180000", "172309.640000", "172310.100000", "172310.560000", "172311.020000", "172311.480000", "172311.940000", "172312.400000", "172312.860000", "172313.320000", "172313.780000", "172314.240000", "172314.700000", "172315.160000", "172315.620000", "172316.080000", "172316.540000", "172317.000000", "172317.460000", "172317.920000", "172318.380000", "172318.840000", "172319.300000", "172319.760000", "172320.220000", "172320.680000", "172321.140000", "172321.600000", "172322.060000", "172322.520000", "172322.980000", "172323.440000", "172323.900000", "172324.360000", "172324.820000", "172325.280000", "172325.740000", "172326.200000", "172326.660000", "172327.120000", "172327.580000", "172328.040000", "172328.500000", "172328.960000", "172329.420000", "172329.880000", "172330.340000", "172330.800000", "172331.260000", "172331.720000", "172332.180000", "172332.640000", "172333.100000", "172333.560000", "172334.020000", "172334.480000", "172334.940000", "172335.400000", "172335.860000", "172336.320000", "172336.780000", "172337.240000", "172337.700000", "172338.160000", "172338.620000", "172339.080000", "172339.540000", "172340.000000", "172340.460000", "172340.920000", "172341.380000", "172341.840000", "172342.300000", "172342.760000", "172343.220000", "172343.680000", "172344.140000", "172344.600000", "172345.060000", "172345.520000", "172345.980000", "172346.440000", "172346.900000", "172347.360000", "172347.820000", "172348.280000", "172348.740000", "172349.200000", "172349.660000", "172350.120000", "172350.580000", "172351.040000", "172351.500000", "172351.960000", "172352.420000", "172352.880000", "172353.340000", "172353.800000", "172354.260000", "172354.720000", "172355.180000", "172355.640000", "172356.100000", "172356.560000", "172357.020000", "172357.480000", "172357.940000", "172358.400000", "172358.860000", "172359.320000", "172359.780000", "172400.240000", "172400.700000", "172401.160000", "172401.620000", "172402.080000", "172402.540000", "172403.000000", "172403.460000", "172403.920000", "172404.380000", "172404.840000", "172405.300000", "172405.760000", "172406.220000", "172406.680000", "172407.140000", "172407.600000", "172408.060000", "172408.520000", "172408.980000", "172409.440000", "172409.900000", "172410.360000", "172410.820000", "172411.280000", "172411.740000", "172412.200000", "172412.660000", "172413.120000", "172413.580000", "172414.040000", "172414.500000", "172414.960000", "172415.420000", "172415.880000", "172416.340000", "172416.800000", "172417.260000", "172417.720000", "172418.180000", "172418.640000", "172419.100000", "172419.560000", "172420.020000", "172420.480000", "172420.940000", "172421.400000", "172421.860000", "172422.320000", "172422.780000", "172423.240000", "172423.700000", "172424.160000", "172424.620000", "172425.080000", "172425.540000", "172426.000000", "172426.460000", "172426.920000", "172427.380000", "172427.840000", "172428.300000", "172428.760000", "172429.220000", "172429.680000", "172430.140000", "172430.600000", "172431.060000", "172431.520000", "172431.980000", "172432.440000", "172432.900000", "172433.360000", "172433.820000", "172434.280000", "172434.740000", "172435.200000", "172435.660000", "172436.120000", "172436.580000", "172437.040000", "172437.500000", "172437.960000", "172438.420000", "172438.880000", "172439.340000", "172439.800000", "172440.260000", "172440.720000", "172441.180000", "172441.640000", "172442.100000", "172442.560000", "172443.020000", "172443.480000", "172443.940000", "172444.400000", "172444.860000", "172445.320000", "172445.780000", "172446.240000", "172446.700000", "172447.160000", "172447.620000", "172448.080000", "172448.540000", "172449.000000", "172449.460000", "172449.920000", "172450.380000", "172450.840000", "172451.300000", "172451.760000", "172452.220000", "172452.680000", "172453.140000", "172453.600000", "172454.060000", "172454.520000", "172454.980000", "172455.440000", "172455.900000", "172456.360000", "172456.820000", "172457.280000", "172457.740000", "172458.200000", "172458.660000", "172459.120000", "172459.580000", "172500.040000", "172500.500000", "172500.960000", "172501.420000", "172501.880000", "172502.340000", "172502.800000", "172503.260000", "172503.720000", "172504.180000", "172504.640000", "172505.100000", "172505.560000", "172506.020000", "172506.480000", "172506.940000", "172507.400000", "172507.860000", "172508.320000", "172508.780000", "172509.240000", "172509.700000", "172510.160000", "172510.620000", "172511.080000", "172511.540000", "172512.000000", "172512.460000", "172512.920000", "172513.380000", "172513.840000", "172514.300000", "172514.760000", "172515.220000", "172515.680000", "172516.140000", "172516.600000", "172517.060000", "172517.520000", "172517.980000", "172518.440000", "172518.900000", "172519.360000", "172519.820000", "172520.280000", "172520.740000", "172521.200000", "172521.660000", "172522.120000", "172522.580000", "172523.040000", "172523.500000", "172523.960000", "172524.420000", "172524.880000", "172525.340000", "172525.800000", "172526.260000", "172526.720000", "172527.180000", "172527.640000", "172528.100000", "172528.560000", "172529.020000", "172529.480000", "172529.940000", "172530.400000", "172530.860000", "172531.320000", "172531.780000", "172532.240000", "172532.700000", "172533.160000", "172533.620000", "172534.080000", "172534.540000", "172535.000000", "172535.460000", "172535.920000", "172536.380000", "172536.840000", "172537.300000", "172537.760000", "172538.220000", "172538.680000", "172539.140000", "172539.600000", "172540.060000", "172540.520000", "172540.980000", "172541.440000", "172541.900000", "172542.360000", "172542.820000", "172543.280000", "172543.740000", "172544.200000", "172544.660000", "172545.120000", "172545.580000", "172546.040000", "172546.500000", "172546.960000", "172547.420000", "172547.880000", "172548.340000", "172548.800000", "172549.260000", "172549.720000", "172550.180000", "172550.640000", "172551.100000", "172551.560000", "172552.020000", "172552.480000", "172552.940000", "172553.400000", "172553.860000", "172554.320000", "172554.780000", "172555.240000", "172555.700000", "172556.160000", "172556.620000", "172557.080000", "172557.540000", "172558.000000", "172558.460000", "172558.920000", "172559.380000", "172559.840000", "172600.300000", "172600.760000", "172601.220000", "172601.680000", "172602.140000", "172602.600000", "172603.060000", "172603.520000", "172603.980000", "172604.440000", "172604.900000", "172605.360000", "172605.820000", "172606.280000", "172606.740000", "172607.200000", "172607.660000", "172608.120000", "172608.580000", "172609.040000", "172609.500000", "172609.960000", "172610.420000", "172610.880000", "172611.340000", "172611.800000", "172612.260000", "172612.720000", "172613.180000", "172613.640000", "172614.100000", "172614.560000", "172615.020000", "172615.480000", "172615.940000", "172616.400000", "172616.860000", "172617.320000", "172617.780000", "172618.240000", "172618.700000", "172619.160000", "172619.620000", "172620.080000", "172620.540000", "172621.000000", "172621.460000", "172621.920000", "172622.380000", "172622.840000", "172623.300000", "172623.760000", "172624.220000", "172624.680000", "172625.140000", "172625.600000", "172626.060000", "172626.520000", "172626.980000", "172627.440000", "172627.900000", "172628.360000", "172628.820000", "172629.280000", "172629.740000", "172630.200000", "172630.660000", "172631.120000", "172631.580000", "172632.040000", "172632.500000", "172632.960000", "172633.420000", "172633.880000", "172634.340000", "172634.800000", "172635.260000", "172635.720000", "172636.180000", "172636.640000", "172637.100000", "172637.560000", "172638.020000", "172638.480000", "172638.940000", "172639.400000", "172639.860000", "172640.320000", "172640.780000", "172641.240000", "172641.700000", "172642.160000", "172642.620000", "172643.080000", "172643.540000", "172644.000000", "172644.460000", "172644.920000", "172645.380000", "172645.840000", "172646.300000", "172646.760000", "172647.220000", "172647.680000", "172648.140000", "172648.600000", "172649.060000", "172649.520000", "172649.980000", "172650.440000", "172650.900000", "172651.360000", "172651.820000", "172652.280000", "172652.740000", "172653.200000", "172653.660000", "172654.120000", "172654.580000", "172655.040000", "172655.500000", "172655.960000", "172656.420000", "172656.880000", "172657.340000", "172657.800000", "172658.260000", "172658.720000", "172659.180000", "172659.640000", "172700.100000", "172700.560000", "172701.020000", "172701.480000", "172701.940000", "172702.400000", "172702.860000", "172703.320000", "172703.780000", "172704.240000", "172704.700000", "172705.160000", "172705.620000", "172706.080000", "172706.540000", "172707.000000", "172707.460000", "172707.920000", "172708.380000", "172708.840000", "172709.300000", "172709.760000", "172710.220000", "172710.680000", "172711.140000", "172711.600000", "172712.060000", "172712.520000", "172712.980000", "172713.440000", "172713.900000", "172714.360000", "172714.820000", "172715.280000", "172715.740000", "172716.200000", "172716.660000", "172717.120000", "172717.580000", "172718.040000", "172718.500000", "172718.960000", "172719.420000", "172719.880000", "172720.340000", "172720.800000", "172721.260000", "172721.720000", "172722.180000", "172722.640000", "172723.100000", "172723.560000", "172724.020000", "172724.480000", "172724.940000", "172725.400000", "172725.860000", "172726.320000", "172726.780000", "172727.240000", "172727.700000", "172728.160000", "172728.620000", "172729.080000", "172729.540000", "172730.000000", "172730.460000", "172730.920000", "172731.380000", "172731.840000", "172732.300000", "172732.760000", "172733.220000", "172733.680000", "172734.140000", "172734.600000", "172735.060000", "172735.520000", "172735.980000", "172736.440000", "172736.900000", "172737.360000", "172737.820000", "172738.280000", "172738.740000", "172739.200000", "172739.660000", "172740.120000", "172740.580000", "172741.040000", "172741.500000", "172741.960000", "172742.420000", "172742.880000", "172743.340000", "172743.800000", "172744.260000", "172744.720000", "172745.180000", "172745.640000", "172746.100000", "172746.560000", "172747.020000", "172747.480000", "172747.940000", "172748.400000", "172748.860000", "172749.320000", "172749.780000", "172750.240000", "172750.700000", "172751.160000", "172751.620000", "172752.080000", "172752.540000", "172753.000000", "172753.460000", "172753.920000", "172754.380000", "172754.840000", "172755.300000", "172755.760000", "172756.220000", "172756.680000", "172757.140000", "172757.600000", "172758.060000", "172758.520000", "172758.980000", "172759.440000", "172759.900000", "172800.360000", "172800.820000", "172801.280000", "172801.740000", "172802.200000", "172802.660000", "172803.120000", "172803.580000", "172804.040000", "172804.500000", "172804.960000", "172805.420000", "172805.880000", "172806.340000", "172806.800000", "172807.260000", "172807.720000", "172808.180000", "172808.640000", "172809.100000", "172809.560000", "172810.020000", "172810.480000", "172810.940000", "172811.400000", "172811.860000", "172812.320000", "172812.780000", "172813.240000", "172813.700000", "172814.160000", "172814.620000"],
