{
  "AcquisitionMatrixPE": 82,
  "AcquisitionNumber": 1,
  "AcquisitionTime": "16:23:57.272500",
  "BandwidthPerPixelPhaseEncode": 24.888,
  "BaseResolution": 82,
  "BodyPartExamined": "BRAIN",
  "ConsistencyInfo": "N4_VE11E_LATEST_20181129",
  "ConversionSoftware": "dcm2niix",
  "ConversionSoftwareVersion": "v1.0.20201102",
  "DerivedVendorReportedEchoSpacing": 0.00049,
  "DeviceSerialNumber": "66112",
  "DwellTime": 2e-06,
  "EchoTime": 0.0272,
  "EchoTrainLength": 82,
  "EffectiveEchoSpacing": 0.00049,
  "FlipAngle": 44,
  "ImageComments": "Unaliased MB8/PE3",
  "ImageOrientationPatientDICOM": [0.996609, 0.0805125, -0.0169784, -0.0731864, 0.96166, 0.2643],
  "ImageType": [
    "ORIGINAL",
    "PRIMARY",
    "M",
    "MB",
    "ND",
    "NORM",
    "MOSAIC"
],
  "ImagingFrequency": 123.259,
  "InPlanePhaseEncodingDirectionDICOM": "COL",
  "InstitutionAddress": "Maynard 3,Hanover,NH,US,03755",
  "InstitutionName": "Dartmouth College - PBS",
  "InstitutionalDepartmentName": "Department",
  "MRAcquisitionType": "2D",
  "MagneticFieldStrength": 3,
  "Manufacturer": "Siemens",
  "ManufacturersModelName": "Prisma",
  "Modality": "MR",
  "MultibandAccelerationFactor": 8,
  "PartialFourier": 1,
  "PatientPosition": "HFS",
  "PercentPhaseFOV": 100,
  "PercentSampling": 100,
  "PhaseEncodingDirection": "j-",
  "PhaseEncodingSteps": 82,
  "PhaseResolution": 1,
  "PixelBandwidth": 3050,
  "ProcedureStepDescription": "Wager_Wager^1076_spacetop",
  "ProtocolName": "func_run-01_task-social_acq-ap-mb8",
  "PulseSequenceDetails": "%CustomerSeq%\\cmrr_mbep2d_bold",
  "ReceiveCoilActiveElements": "HEA;HEP",
  "ReceiveCoilName": "Head_32",
  "ReconMatrixPE": 82,
  "RepetitionTime": 0.46,
  "SAR": 0.0973247,
  "ScanOptions": "FS",
  "ScanningSequence": "EP",
  "SequenceName": "epfid2d1_82",
  "SequenceVariant": "SK\\SS",
  "SeriesDescription": "func_run-01_task-social_acq-ap-mb8",
  "SeriesNumber": 20,
  "ShimSetting": [4228, -7828, -7241, 322, -94, -140, 119, 100],
  "SliceThickness": 2.7,
  "SliceTiming": [0, 0.25, 0.0625, 0.3125, 0.125, 0.375, 0.1875, 0, 0.25, 0.0625, 0.3125, 0.125, 0.375, 0.1875, 0, 0.25, 0.0625, 0.3125, 0.125, 0.375, 0.1875, 0, 0.25, 0.0625, 0.3125, 0.125, 0.375, 0.1875, 0, 0.25, 0.0625, 0.3125, 0.125, 0.375, 0.1875, 0, 0.25, 0.0625, 0.3125, 0.125, 0.375, 0.1875, 0, 0.25, 0.0625, 0.3125, 0.125, 0.375, 0.1875, 0, 0.25, 0.0625, 0.3125, 0.125, 0.375, 0.1875],
  "SoftwareVersions": "syngo MR E11",
  "SpacingBetweenSlices": 2.7,
  "StationName": "AWP66112",
  "TaskName": "social",
  "TotalReadoutTime": 0.03969,
  "TxRefAmp": 230.222,
  "WipMemBlock": "bb538459-7ff1-49b9-90bc-63cdd6306b4b||Sequence: R016 ve11e/master r/434b28f1; Aug  7 2019 18:53:46 by eja",
  "dcmmeta_affine": [
    [-2.6738290786743164, -0.1963537186384201, -0.10153857618570328, 122.36677551269531],
    [-0.21600909531116486, 2.5800623893737793, 0.707835853099823, -112.43775939941406],
    [-0.04555172473192215, -0.7090982794761658, 2.603585720062256, -30.849742889404297],
    [0.0, 0.0, 0.0, 1.0]
],
  "dcmmeta_reorient_transform": [
    [0.0, -1.0, 0.0, 81.0],
    [1.0, 0.0, 0.0, 0.0],
    [0.0, 0.0, 1.0, 0.0],
    [0.0, 0.0, 0.0, 1.0]
],
  "dcmmeta_shape": [82, 82, 56, 872],
  "dcmmeta_slice_dim": 2,
  "dcmmeta_version": 0.6,
  "global": {
    "const": {
      "AccessionNumber": "A004324",
      "AcquisitionMatrix": [82, 0, 0, 82],
      "AngioFlag": "N",
      "BitsAllocated": 16,
      "BitsStored": 16,
      "BodyPartExamined": "BRAIN",
      "Columns": 656,
      "EchoNumbers": 1,
      "EchoTime": 27.2,
      "EchoTrainLength": 82,
      "FlipAngle": 44.0,
      "HighBit": 15,
      "ImageOrientationPatient": [0.99660898847696, 0.08051247753365, -0.016978370014, -0.0731863822103, 0.96165956541374, 0.26430027186372],
      "ImagePositionPatient": [-817.49754874165, -899.01978300163, -278.72457383023],
      "ImageType": [
        "ORIGINAL",
        "PRIMARY",
        "M",
        "MB",
        "ND",
        "NORM",
        "MOSAIC"
],
      "ImagedNucleus": "1H",
      "ImagingFrequency": 123.259105,
      "InPlanePhaseEncodingDirection": "COL",
      "MRAcquisitionType": "2D",
      "MagneticFieldStrength": 3.0,
      "Manufacturer": "SIEMENS",
      "ManufacturerModelName": "Prisma",
      "Modality": "MR",
      "NumberOfAverages": 1.0,
      "NumberOfPhaseEncodingSteps": 82,
      "PercentPhaseFieldOfView": 100.0,
      "PercentSampling": 100.0,
      "PerformedProcedureStepStartTime": "152250.319000",
      "PhotometricInterpretation": "MONOCHROME2",
      "PixelBandwidth": 3050.0,
      "PixelRepresentation": 0,
      "PixelSpacing": [2.6829268932343, 2.6829268932343],
      "ProtocolName": "func_run-01_task-social_acq-ap-mb8",
      "RepetitionTime": 460.0,
      "Rows": 656,
      "SAR": 0.09732472231693,
      "SamplesPerPixel": 1,
      "ScanOptions": "FS",
      "ScanningSequence": "EP",
      "SequenceName": "epfid2d1_82",
      "SequenceVariant": [
        "SK",
        "SS"
],
      "SeriesDescription": "func_run-01_task-social_acq-ap-mb8",
      "SeriesNumber": 20,
      "SeriesTime": "162418.174000",
      "SliceLocation": -63.826805121739,
      "SliceThickness": 2.7000000476837,
      "SmallestImagePixelValue": 0,
      "SoftwareVersions": "syngo MR E11",
      "SpacingBetweenSlices": 2.6999999573141,
      "SpecificCharacterSet": "ISO_IR 100",
      "StudyID": "1",
      "StudyTime": "152250.260000",
      "TransmitCoilName": "Body",
      "VariableFlipAngleFlag": "N",
      "WindowCenterWidthExplanation": "Algo1"
    },
    "slices": {}
  },
  "time": {
    "samples": {
      "AcquisitionNumber": [1, 2, 3, 4, 5, 6, 7, 8, 9, 10, 11, 12, 13, 14, 15, 16, 17, 18, 19, 20, 21, 22, 23, 24, 25, 26, 27, 28, 29, 30, 31, 32, 33, 34, 35, 36, 37, 38, 39, 40, 41, 42, 43, 44, 45, 46, 47, 48, 49, 50, 51, 52, 53, 54, 55, 56, 57, 58, 59, 60, 61, 62, 63, 64, 65, 66, 67, 68, 69, 70, 71, 72, 73, 74, 75, 76, 77, 78, 79, 80, 81, 82, 83, 84, 85, 86, 87, 88, 89, 90, 91, 92, 93, 94, 95, 96, 97, 98, 99, 100, 101, 102, 103, 104, 105, 106, 107, 108, 109, 110, 111, 112, 113, 114, 115, 116, 117, 118, 119, 120, 121, 122, 123, 124, 125, 126, 127, 128, 129, 130, 131, 132, 133, 134, 135, 136, 137, 138, 139, 140, 141, 142, 143, 144, 145, 146, 147, 148, 149, 150, 151, 152, 153, 154, 155, 156, 157, 158, 159, 160, 161, 162, 163, 164, 165, 166, 167, 168, 169, 170, 171, 172, 173, 174, 175, 176, 177, 178, 179, 180, 181, 182, 183, 184, 185, 186, 187, 188, 189, 190, 191, 192, 193, 194, 195, 196, 197, 198, 199, 200, 201, 202, 203, 204, 205, 206, 207, 208, 209, 210, 211, 212, 213, 214, 215, 216, 217, 218, 219, 220, 221, 222, 223, 224, 225, 226, 227, 228, 229, 230, 231, 232, 233, 234, 235, 236, 237, 238, 239, 240, 241, 242, 243, 244, 245, 246, 247, 248, 249, 250, 251, 252, 253, 254, 255, 256, 257, 258, 259, 260, 261, 262, 263, 264, 265, 266, 267, 268, 269, 270, 271, 272, 273, 274, 275, 276, 277, 278, 279, 280, 281, 282, 283, 284, 285, 286, 287, 288, 289, 290, 291, 292, 293, 294, 295, 296, 297, 298, 299, 300, 301, 302, 303, 304, 305, 306, 307, 308, 309, 310, 311, 312, 313, 314, 315, 316, 317, 318, 319, 320, 321, 322, 323, 324, 325, 326, 327, 328, 329, 330, 331, 332, 333, 334, 335, 336, 337, 338, 339, 340, 341, 342, 343, 344, 345, 346, 347, 348, 349, 350, 351, 352, 353, 354, 355, 356, 357, 358, 359, 360, 361, 362, 363, 364, 365, 366, 367, 368, 369, 370, 371, 372, 373, 374, 375, 376, 377, 378, 379, 380, 381, 382, 383, 384, 385, 386, 387, 388, 389, 390, 391, 392, 393, 394, 395, 396, 397, 398, 399, 400, 401, 402, 403, 404, 405, 406, 407, 408, 409, 410, 411, 412, 413, 414, 415, 416, 417, 418, 419, 420, 421, 422, 423, 424, 425, 426, 427, 428, 429, 430, 431, 432, 433, 434, 435, 436, 437, 438, 439, 440, 441, 442, 443, 444, 445, 446, 447, 448, 449, 450, 451, 452, 453, 454, 455, 456, 457, 458, 459, 460, 461, 462, 463, 464, 465, 466, 467, 468, 469, 470, 471, 472, 473, 474, 475, 476, 477, 478, 479, 480, 481, 482, 483, 484, 485, 486, 487, 488, 489, 490, 491, 492, 493, 494, 495, 496, 497, 498, 499, 500, 501, 502, 503, 504, 505, 506, 507, 508, 509, 510, 511, 512, 513, 514, 515, 516, 517, 518, 519, 520, 521, 522, 523, 524, 525, 526, 527, 528, 529, 530, 531, 532, 533, 534, 535, 536, 537, 538, 539, 540, 541, 542, 543, 544, 545, 546, 547, 548, 549, 550, 551, 552, 553, 554, 555, 556, 557, 558, 559, 560, 561, 562, 563, 564, 565, 566, 567, 568, 569, 570, 571, 572, 573, 574, 575, 576, 577, 578, 579, 580, 581, 582, 583, 584, 585, 586, 587, 588, 589, 590, 591, 592, 593, 594, 595, 596, 597, 598, 599, 600, 601, 602, 603, 604, 605, 606, 607, 608, 609, 610, 611, 612, 613, 614, 615, 616, 617, 618, 619, 620, 621, 622, 623, 624, 625, 626, 627, 628, 629, 630, 631, 632, 633, 634, 635, 636, 637, 638, 639, 640, 641, 642, 643, 644, 645, 646, 647, 648, 649, 650, 651, 652, 653, 654, 655, 656, 657, 658, 659, 660, 661, 662, 663, 664, 665, 666, 667, 668, 669, 670, 671, 672, 673, 674, 675, 676, 677, 678, 679, 680, 681, 682, 683, 684, 685, 686, 687, 688, 689, 690, 691, 692, 693, 694, 695, 696, 697, 698, 699, 700, 701, 702, 703, 704, 705, 706, 707, 708, 709, 710, 711, 712, 713, 714, 715, 716, 717, 718, 719, 720, 721, 722, 723, 724, 725, 726, 727, 728, 729, 730, 731, 732, 733, 734, 735, 736, 737, 738, 739, 740, 741, 742, 743, 744, 745, 746, 747, 748, 749, 750, 751, 752, 753, 754, 755, 756, 757, 758, 759, 760, 761, 762, 763, 764, 765, 766, 767, 768, 769, 770, 771, 772, 773, 774, 775, 776, 777, 778, 779, 780, 781, 782, 783, 784, 785, 786, 787, 788, 789, 790, 791, 792, 793, 794, 795, 796, 797, 798, 799, 800, 801, 802, 803, 804, 805, 806, 807, 808, 809, 810, 811, 812, 813, 814, 815, 816, 817, 818, 819, 820, 821, 822, 823, 824, 825, 826, 827, 828, 829, 830, 831, 832, 833, 834, 835, 836, 837, 838, 839, 840, 841, 842, 843, 844, 845, 846, 847, 848, 849, 850, 851, 852, 853, 854, 855, 856, 857, 858, 859, 860, 861, 862, 863, 864, 865, 866, 867, 868, 869, 870, 871, 872],
      "AcquisitionTime": ["162357.272500", "162357.732500", "162358.192500", "162358.652500", "162359.112500", "162359.572500", "162400.032500", "162400.492500", "162400.952500", "162401.412500", "162401.872500", "162402.332500", "162402.792500", "162403.252500", "162403.712500", "162404.172500", "162404.632500", "162405.092500", "162405.552500", "162406.012500", "162406.472500", "162406.932500", "162407.392500", "162407.852500", "162408.312500", "162408.772500", "162409.232500", "162409.692500", "162410.152500", "162410.612500", "162411.072500", "162411.532500", "162411.992500", "162412.452500", "162412.912500", "162413.372500", "162413.832500", "162414.292500", "162414.752500", "162415.212500", "162415.672500", "162416.132500", "162416.592500", "162417.052500", "162417.512500", "162417.972500", "162418.432500", "162418.892500", "162419.352500", "162419.812500", "162420.272500", "162420.732500", "162421.192500", "162421.652500", "162422.112500", "162422.572500", "162423.032500", "162423.492500", "162423.952500", "162424.412500", "162424.872500", "162425.332500", "162425.792500", "162426.252500", "162426.712500", "162427.172500", "162427.632500", "162428.092500", "162428.552500", "162429.012500", "162429.472500", "162429.932500", "162430.392500", "162430.852500", "162431.312500", "162431.772500", "162432.232500", "162432.692500", "162433.152500", "162433.612500", "162434.072500", "162434.532500", "162434.992500", "162435.452500", "162435.912500", "162436.372500", "162436.832500", "162437.292500", "162437.752500", "162438.212500", "162438.672500", "162439.132500", "162439.592500", "162440.052500", "162440.512500", "162440.972500", "162441.432500", "162441.892500", "162442.352500", "162442.812500", "162443.272500", "162443.732500", "162444.192500", "162444.652500", "162445.112500", "162445.572500", "162446.032500", "162446.492500", "162446.952500", "162447.412500", "162447.872500", "162448.332500", "162448.792500", "162449.252500", "162449.712500", "162450.172500", "162450.632500", "162451.092500", "162451.552500", "162452.012500", "162452.472500", "162452.932500", "162453.392500", "162453.852500", "162454.312500", "162454.772500", "162455.232500", "162455.692500", "162456.152500", "162456.612500", "162457.072500", "162457.532500", "162457.992500", "162458.452500", "162458.912500", "162459.372500", "162459.832500", "162500.292500", "162500.752500", "162501.212500", "162501.672500", "162502.132500", "162502.592500", "162503.052500", "162503.512500", "162503.972500", "162504.432500", "162504.892500", "162505.352500", "162505.812500", "162506.272500", "162506.732500", "162507.192500", "162507.652500", "162508.112500", "162508.572500", "162509.032500", "162509.492500", "162509.952500", "162510.412500", "162510.872500", "162511.332500", "162511.792500", "162512.252500", "162512.712500", "162513.172500", "162513.632500", "162514.092500", "162514.552500", "162515.012500", "162515.472500", "162515.932500", "162516.392500", "162516.852500", "162517.312500", "162517.772500", "162518.232500", "162518.692500", "162519.152500", "162519.612500", "162520.072500", "162520.532500", "162520.992500", "162521.452500", "162521.912500", "162522.372500", "162522.832500", "162523.292500", "162523.752500", "162524.212500", "162524.672500", "162525.132500", "162525.592500", "162526.052500", "162526.512500", "162526.972500", "162527.432500", "162527.892500", "162528.352500", "162528.812500", "162529.272500", "162529.732500", "162530.192500", "162530.652500", "162531.112500", "162531.572500", "162532.032500", "162532.492500", "162532.952500", "162533.412500", "162533.872500", "162534.332500", "162534.792500", "162535.252500", "162535.712500", "162536.172500", "162536.632500", "162537.092500", "162537.552500", "162538.012500", "162538.472500", "162538.932500", "162539.392500", "162539.852500", "162540.312500", "162540.772500", "162541.232500", "162541.692500", "162542.152500", "162542.612500", "162543.072500", "162543.532500", "162543.992500", "162544.452500", "162544.912500", "162545.372500", "162545.832500", "162546.292500", "162546.752500", "162547.212500", "162547.672500", "162548.132500", "162548.592500", "162549.052500", "162549.512500", "162549.972500", "162550.432500", "162550.892500", "162551.352500", "162551.812500", "162552.272500", "162552.732500", "162553.192500", "162553.652500", "162554.112500", "162554.572500", "162555.032500", "162555.492500", "162555.952500", "162556.412500", "162556.872500", "162557.332500", "162557.792500", "162558.252500", "162558.712500", "162559.172500", "162559.632500", "162600.092500", "162600.552500", "162601.012500", "162601.472500", "162601.932500", "162602.392500", "162602.852500", "162603.312500", "162603.772500", "162604.232500", "162604.692500", "162605.152500", "162605.612500", "162606.072500", "162606.532500", "162606.992500", "162607.452500", "162607.912500", "162608.372500", "162608.832500", "162609.292500", "162609.752500", "162610.212500", "162610.672500", "162611.132500", "162611.592500", "162612.052500", "162612.512500", "162612.972500", "162613.432500", "162613.892500", "162614.352500", "162614.812500", "162615.272500", "162615.732500", "162616.192500", "162616.652500", "162617.112500", "162617.572500", "162618.032500", "162618.492500", "162618.952500", "162619.412500", "162619.872500", "162620.332500", "162620.792500", "162621.252500", "162621.712500", "162622.172500", "162622.632500", "162623.092500", "162623.552500", "162624.012500", "162624.472500", "162624.932500", "162625.392500", "162625.852500", "162626.312500", "162626.772500", "162627.232500", "162627.692500", "162628.152500", "162628.612500", "162629.072500", "162629.532500", "162629.992500", "162630.452500", "162630.912500", "162631.372500", "162631.832500", "162632.292500", "162632.752500", "162633.212500", "162633.672500", "162634.132500", "162634.592500", "162635.052500", "162635.512500", "162635.972500", "162636.432500", "162636.892500", "162637.352500", "162637.812500", "162638.272500", "162638.732500", "162639.192500", "162639.652500", "162640.112500", "162640.572500", "162641.032500", "162641.492500", "162641.952500", "162642.412500", "162642.872500", "162643.332500", "162643.792500", "162644.252500", "162644.712500", "162645.172500", "162645.632500", "162646.092500", "162646.552500", "162647.012500", "162647.472500", "162647.932500", "162648.392500", "162648.852500", "162649.312500", "162649.772500", "162650.232500", "162650.692500", "162651.152500", "162651.612500", "162652.072500", "162652.532500", "162652.992500", "162653.452500", "162653.912500", "162654.372500", "162654.832500", "162655.292500", "162655.752500", "162656.212500", "162656.672500", "162657.132500", "162657.592500", "162658.052500", "162658.512500", "162658.972500", "162659.432500", "162659.892500", "162700.352500", "162700.812500", "162701.272500", "162701.732500", "162702.192500", "162702.652500", "162703.112500", "162703.572500", "162704.032500", "162704.492500", "162704.952500", "162705.412500", "162705.872500", "162706.332500", "162706.792500", "162707.252500", "162707.712500", "162708.172500", "162708.632500", "162709.092500", "162709.552500", "162710.012500", "162710.472500", "162710.932500", "162711.392500", "162711.852500", "162712.312500", "162712.772500", "162713.232500", "162713.692500", "162714.152500", "162714.612500", "162715.072500", "162715.532500", "162715.992500", "162716.452500", "162716.912500", "162717.372500", "162717.832500", "162718.292500", "162718.752500", "162719.212500", "162719.672500", "162720.132500", "162720.592500", "162721.052500", "162721.512500", "162721.972500", "162722.432500", "162722.892500", "162723.352500", "162723.812500", "162724.272500", "162724.732500", "162725.192500", "162725.652500", "162726.112500", "162726.572500", "162727.032500", "162727.492500", "162727.952500", "162728.412500", "162728.872500", "162729.332500", "162729.792500", "162730.252500", "162730.712500", "162731.172500", "162731.632500", "162732.092500", "162732.552500", "162733.012500", "162733.472500", "162733.932500", "162734.392500", "162734.852500", "162735.312500", "162735.772500", "162736.232500", "162736.692500", "162737.152500", "162737.612500", "162738.072500", "162738.532500", "162738.992500", "162739.452500", "162739.912500", "162740.372500", "162740.832500", "162741.292500", "162741.752500", "162742.212500", "162742.672500", "162743.132500", "162743.592500", "162744.052500", "162744.512500", "162744.972500", "162745.432500", "162745.892500", "162746.352500", "162746.812500", "162747.272500", "162747.732500", "162748.192500", "162748.652500", "162749.112500", "162749.572500", "162750.032500", "162750.492500", "162750.952500", "162751.412500", "162751.872500", "162752.332500", "162752.792500", "162753.252500", "162753.712500", "162754.172500", "162754.632500", "162755.092500", "162755.552500", "162756.012500", "162756.472500", "162756.932500", "162757.392500", "162757.852500", "162758.312500", "162758.772500", "162759.232500", "162759.692500", "162800.152500", "162800.612500", "162801.072500", "162801.532500", "162801.992500", "162802.452500", "162802.912500", "162803.372500", "162803.832500", "162804.292500", "162804.752500", "162805.212500", "162805.672500", "162806.132500", "162806.592500", "162807.052500", "162807.512500", "162807.972500", "162808.432500", "162808.892500", "162809.352500", "162809.812500", "162810.272500", "162810.732500", "162811.192500", "162811.652500", "162812.112500", "162812.572500", "162813.032500", "162813.492500", "162813.952500", "162814.412500", "162814.872500", "162815.332500", "162815.792500", "162816.252500", "162816.712500", "162817.172500", "162817.632500", "162818.092500", "162818.552500", "162819.012500", "162819.472500", "162819.932500", "162820.392500", "162820.852500", "162821.312500", "162821.772500", "162822.232500", "162822.692500", "162823.152500", "162823.612500", "162824.072500", "162824.532500", "162824.992500", "162825.452500", "162825.912500", "162826.372500", "162826.832500", "162827.292500", "162827.752500", "162828.212500", "162828.672500", "162829.132500", "162829.592500", "162830.052500", "162830.512500", "162830.972500", "162831.432500", "162831.892500", "162832.352500", "162832.812500", "162833.272500", "162833.732500", "162834.192500", "162834.652500", "162835.112500", "162835.572500", "162836.032500", "162836.492500", "162836.952500", "162837.412500", "162837.872500", "162838.332500", "162838.792500", "162839.252500", "162839.712500", "162840.172500", "162840.632500", "162841.092500", "162841.552500", "162842.012500", "162842.472500", "162842.932500", "162843.392500", "162843.852500", "162844.312500", "162844.772500", "162845.232500", "162845.692500", "162846.152500", "162846.612500", "162847.072500", "162847.532500", "162847.992500", "162848.452500", "162848.912500", "162849.372500", "162849.832500", "162850.292500", "162850.752500", "162851.212500", "162851.672500", "162852.132500", "162852.592500", "162853.052500", "162853.512500", "162853.972500", "162854.432500", "162854.892500", "162855.352500", "162855.812500", "162856.272500", "162856.732500", "162857.192500", "162857.652500", "162858.112500", "162858.572500", "162859.032500", "162859.492500", "162859.952500", "162900.412500", "162900.872500", "162901.332500", "162901.792500", "162902.252500", "162902.712500", "162903.172500", "162903.632500", "162904.092500", "162904.552500", "162905.012500", "162905.472500", "162905.932500", "162906.392500", "162906.852500", "162907.312500", "162907.772500", "162908.232500", "162908.692500", "162909.152500", "162909.612500", "162910.072500", "162910.532500", "162910.992500", "162911.452500", "162911.912500", "162912.372500", "162912.832500", "162913.292500", "162913.752500", "162914.212500", "162914.672500", "162915.132500", "162915.592500", "162916.052500", "162916.512500", "162916.972500", "162917.432500", "162917.892500", "162918.352500", "162918.812500", "162919.272500", "162919.732500", "162920.192500", "162920.652500", "162921.112500", "162921.572500", "162922.032500", "162922.492500", "162922.952500", "162923.412500", "162923.872500", "162924.332500", "162924.792500", "162925.252500", "162925.712500", "162926.172500", "162926.632500", "162927.092500", "162927.552500", "162928.012500", "162928.472500", "162928.932500", "162929.392500", "162929.852500", "162930.312500", "162930.772500", "162931.232500", "162931.692500", "162932.152500", "162932.612500", "162933.072500", "162933.532500", "162933.992500", "162934.452500", "162934.912500", "162935.372500", "162935.832500", "162936.292500", "162936.752500", "162937.212500", "162937.672500", "162938.132500", "162938.592500", "162939.052500", "162939.512500", "162939.972500", "162940.432500", "162940.892500", "162941.352500", "162941.812500", "162942.272500", "162942.732500", "162943.192500", "162943.652500", "162944.112500", "162944.572500", "162945.032500", "162945.492500", "162945.952500", "162946.412500", "162946.872500", "162947.332500", "162947.792500", "162948.252500", "162948.712500", "162949.172500", "162949.632500", "162950.092500", "162950.552500", "162951.012500", "162951.472500", "162951.932500", "162952.392500", "162952.852500", "162953.312500", "162953.772500", "162954.232500", "162954.692500", "162955.152500", "162955.612500", "162956.072500", "162956.532500", "162956.992500", "162957.452500", "162957.912500", "162958.372500", "162958.832500", "162959.292500", "162959.752500", "163000.212500", "163000.672500", "163001.132500", "163001.592500", "163002.052500", "163002.512500", "163002.972500", "163003.432500", "163003.892500", "163004.352500", "163004.812500", "163005.272500", "163005.732500", "163006.192500", "163006.652500", "163007.112500", "163007.572500", "163008.032500", "163008.492500", "163008.952500", "163009.412500", "163009.872500", "163010.332500", "163010.792500", "163011.252500", "163011.712500", "163012.172500", "163012.632500", "163013.092500", "163013.552500", "163014.012500", "163014.472500", "163014.932500", "163015.392500", "163015.852500", "163016.312500", "163016.772500", "163017.232500", "163017.692500", "163018.152500", "163018.612500", "163019.072500", "163019.532500", "163019.992500", "163020.452500", "163020.912500", "163021.372500", "163021.832500", "163022.292500", "163022.752500", "163023.212500", "163023.672500", "163024.132500", "163024.592500", "163025.052500", "163025.512500", "163025.972500", "163026.432500", "163026.892500", "163027.352500", "163027.812500", "163028.272500", "163028.732500", "163029.192500", "163029.652500", "163030.112500", "163030.572500", "163031.032500", "163031.492500", "163031.952500", "163032.412500", "163032.872500", "163033.332500", "163033.792500", "163034.252500", "163034.712500", "163035.172500", "163035.632500", "163036.092500", "163036.552500", "163037.012500", "163037.472500", "163037.932500"],
