{
  "AcquisitionMatrixPE": 82,
  "AcquisitionNumber": 1,
  "AcquisitionTime": "17:00:54.207500",
  "BandwidthPerPixelPhaseEncode": 24.888,
  "BaseResolution": 82,
  "BodyPartExamined": "BRAIN",
  "ConsistencyInfo": "N4_VE11E_LATEST_20181129",
  "ConversionSoftware": "dcm2niix",
  "ConversionSoftwareVersion": "v1.0.20201102",
  "DerivedVendorReportedEchoSpacing": 0.00049,
  "DeviceSerialNumber": "66112",
  "DwellTime": 2e-06,
  "EchoTime": 0.0272,
  "EchoTrainLength": 82,
  "EffectiveEchoSpacing": 0.00049,
  "FlipAngle": 44,
  "ImageComments": "Unaliased MB8/PE3",
  "ImageOrientationPatientDICOM": [0.996609, 0.0805125, -0.0169784, -0.0731864, 0.96166, 0.2643],
  "ImageType": [
    "ORIGINAL",
    "PRIMARY",
    "M",
    "MB",
    "ND",
    "NORM",
    "MOSAIC"
],
  "ImagingFrequency": 123.259,
  "InPlanePhaseEncodingDirectionDICOM": "COL",
  "InstitutionAddress": "Maynard 3,Hanover,NH,US,03755",
  "InstitutionName": "Dartmouth College - PBS",
  "InstitutionalDepartmentName": "Department",
  "MRAcquisitionType": "2D",
  "MagneticFieldStrength": 3,
  "Manufacturer": "Siemens",
  "ManufacturersModelName": "Prisma",
  "Modality": "MR",
  "MultibandAccelerationFactor": 8,
  "PartialFourier": 1,
  "PatientPosition": "HFS",
  "PercentPhaseFOV": 100,
  "PercentSampling": 100,
  "PhaseEncodingDirection": "j-",
  "PhaseEncodingSteps": 82,
  "PhaseResolution": 1,
  "PixelBandwidth": 3050,
  "ProcedureStepDescription": "Wager_Wager^1076_spacetop",
  "ProtocolName": "func_run-06_task-social_acq-ap-mb8",
  "PulseSequenceDetails": "%CustomerSeq%\\cmrr_mbep2d_bold",
  "ReceiveCoilActiveElements": "HEA;HEP",
  "ReceiveCoilName": "Head_32",
  "ReconMatrixPE": 82,
  "RepetitionTime": 0.46,
  "SAR": 0.0973247,
  "ScanOptions": "FS",
  "ScanningSequence": "EP",
  "SequenceName": "epfid2d1_82",
  "SequenceVariant": "SK\\SS",
  "SeriesDescription": "func_run-06_task-social_acq-ap-mb8",
  "SeriesNumber": 30,
  "ShimSetting": [4228, -7828, -7241, 322, -94, -140, 119, 100],
  "SliceThickness": 2.7,
  "SliceTiming": [0, 0.25, 0.0625, 0.3125, 0.125, 0.3775, 0.1875, 0, 0.25, 0.0625, 0.3125, 0.125, 0.3775, 0.1875, 0, 0.25, 0.0625, 0.3125, 0.125, 0.3775, 0.1875, 0, 0.25, 0.0625, 0.3125, 0.125, 0.3775, 0.1875, 0, 0.25, 0.0625, 0.3125, 0.125, 0.3775, 0.1875, 0, 0.25, 0.0625, 0.3125, 0.125, 0.3775, 0.1875, 0, 0.25, 0.0625, 0.3125, 0.125, 0.3775, 0.1875, 0, 0.25, 0.0625, 0.3125, 0.125, 0.3775, 0.1875],
  "SoftwareVersions": "syngo MR E11",
  "SpacingBetweenSlices": 2.7,
  "StationName": "AWP66112",
  "TaskName": "social",
  "TotalReadoutTime": 0.03969,
  "TxRefAmp": 230.222,
  "WipMemBlock": "63d112f4-474a-4515-945b-94a9fa0f9717||Sequence: R016 ve11e/master r/434b28f1; Aug  7 2019 18:53:46 by eja",
  "dcmmeta_affine": [
    [-2.6738290786743164, -0.1963537186384201, -0.10153857618570328, 122.36677551269531],
    [-0.21600909531116486, 2.5800623893737793, 0.707835853099823, -112.43775939941406],
    [-0.04555172473192215, -0.7090982794761658, 2.603585720062256, -30.849742889404297],
    [0.0, 0.0, 0.0, 1.0]
],
  "dcmmeta_reorient_transform": [
    [0.0, -1.0, 0.0, 81.0],
    [1.0, 0.0, 0.0, 0.0],
    [0.0, 0.0, 1.0, 0.0],
    [0.0, 0.0, 0.0, 1.0]
],
  "dcmmeta_shape": [82, 82, 56, 872],
  "dcmmeta_slice_dim": 2,
  "dcmmeta_version": 0.6,
  "global": {
    "const": {
      "AccessionNumber": "A004324",
      "AcquisitionMatrix": [82, 0, 0, 82],
      "AngioFlag": "N",
      "BitsAllocated": 16,
      "BitsStored": 16,
      "BodyPartExamined": "BRAIN",
      "Columns": 656,
      "EchoNumbers": 1,
      "EchoTime": 27.2,
      "EchoTrainLength": 82,
      "FlipAngle": 44.0,
      "HighBit": 15,
      "ImageOrientationPatient": [0.99660898847696, 0.08051247753365, -0.016978370014, -0.0731863822103, 0.96165956541374, 0.26430027186372],
      "ImagePositionPatient": [-817.49754874165, -899.01978300163, -278.72457383023],
      "ImageType": [
        "ORIGINAL",
        "PRIMARY",
        "M",
        "MB",
        "ND",
        "NORM",
        "MOSAIC"
],
      "ImagedNucleus": "1H",
      "ImagingFrequency": 123.259124,
      "InPlanePhaseEncodingDirection": "COL",
      "MRAcquisitionType": "2D",
      "MagneticFieldStrength": 3.0,
      "Manufacturer": "SIEMENS",
      "ManufacturerModelName": "Prisma",
      "Modality": "MR",
      "NumberOfAverages": 1.0,
      "NumberOfPhaseEncodingSteps": 82,
      "PercentPhaseFieldOfView": 100.0,
      "PercentSampling": 100.0,
      "PerformedProcedureStepStartTime": "152250.319000",
      "PhotometricInterpretation": "MONOCHROME2",
      "PixelBandwidth": 3050.0,
      "PixelRepresentation": 0,
      "PixelSpacing": [2.6829268932343, 2.6829268932343],
      "ProtocolName": "func_run-06_task-social_acq-ap-mb8",
      "RepetitionTime": 460.0,
      "Rows": 656,
      "SAR": 0.09732472231693,
      "SamplesPerPixel": 1,
      "ScanOptions": "FS",
      "ScanningSequence": "EP",
      "SequenceName": "epfid2d1_82",
      "SequenceVariant": [
        "SK",
        "SS"
],
      "SeriesDescription": "func_run-06_task-social_acq-ap-mb8",
      "SeriesNumber": 30,
      "SeriesTime": "170118.331000",
      "SliceLocation": -63.826805121739,
      "SliceThickness": 2.7000000476837,
      "SmallestImagePixelValue": 0,
      "SoftwareVersions": "syngo MR E11",
      "SpacingBetweenSlices": 2.6999999573141,
      "SpecificCharacterSet": "ISO_IR 100",
      "StudyID": "1",
      "StudyTime": "152250.260000",
      "TransmitCoilName": "Body",
      "VariableFlipAngleFlag": "N",
      "WindowCenterWidthExplanation": "Algo1"
    },
    "slices": {}
  },
  "time": {
    "samples": {
      "AcquisitionNumber": [1, 2, 3, 4, 5, 6, 7, 8, 9, 10, 11, 12, 13, 14, 15, 16, 17, 18, 19, 20, 21, 22, 23, 24, 25, 26, 27, 28, 29, 30, 31, 32, 33, 34, 35, 36, 37, 38, 39, 40, 41, 42, 43, 44, 45, 46, 47, 48, 49, 50, 51, 52, 53, 54, 55, 56, 57, 58, 59, 60, 61, 62, 63, 64, 65, 66, 67, 68, 69, 70, 71, 72, 73, 74, 75, 76, 77, 78, 79, 80, 81, 82, 83, 84, 85, 86, 87, 88, 89, 90, 91, 92, 93, 94, 95, 96, 97, 98, 99, 100, 101, 102, 103, 104, 105, 106, 107, 108, 109, 110, 111, 112, 113, 114, 115, 116, 117, 118, 119, 120, 121, 122, 123, 124, 125, 126, 127, 128, 129, 130, 131, 132, 133, 134, 135, 136, 137, 138, 139, 140, 141, 142, 143, 144, 145, 146, 147, 148, 149, 150, 151, 152, 153, 154, 155, 156, 157, 158, 159, 160, 161, 162, 163, 164, 165, 166, 167, 168, 169, 170, 171, 172, 173, 174, 175, 176, 177, 178, 179, 180, 181, 182, 183, 184, 185, 186, 187, 188, 189, 190, 191, 192, 193, 194, 195, 196, 197, 198, 199, 200, 201, 202, 203, 204, 205, 206, 207, 208, 209, 210, 211, 212, 213, 214, 215, 216, 217, 218, 219, 220, 221, 222, 223, 224, 225, 226, 227, 228, 229, 230, 231, 232, 233, 234, 235, 236, 237, 238, 239, 240, 241, 242, 243, 244, 245, 246, 247, 248, 249, 250, 251, 252, 253, 254, 255, 256, 257, 258, 259, 260, 261, 262, 263, 264, 265, 266, 267, 268, 269, 270, 271, 272, 273, 274, 275, 276, 277, 278, 279, 280, 281, 282, 283, 284, 285, 286, 287, 288, 289, 290, 291, 292, 293, 294, 295, 296, 297, 298, 299, 300, 301, 302, 303, 304, 305, 306, 307, 308, 309, 310, 311, 312, 313, 314, 315, 316, 317, 318, 319, 320, 321, 322, 323, 324, 325, 326, 327, 328, 329, 330, 331, 332, 333, 334, 335, 336, 337, 338, 339, 340, 341, 342, 343, 344, 345, 346, 347, 348, 349, 350, 351, 352, 353, 354, 355, 356, 357, 358, 359, 360, 361, 362, 363, 364, 365, 366, 367, 368, 369, 370, 371, 372, 373, 374, 375, 376, 377, 378, 379, 380, 381, 382, 383, 384, 385, 386, 387, 388, 389, 390, 391, 392, 393, 394, 395, 396, 397, 398, 399, 400, 401, 402, 403, 404, 405, 406, 407, 408, 409, 410, 411, 412, 413, 414, 415, 416, 417, 418, 419, 420, 421, 422, 423, 424, 425, 426, 427, 428, 429, 430, 431, 432, 433, 434, 435, 436, 437, 438, 439, 440, 441, 442, 443, 444, 445, 446, 447, 448, 449, 450, 451, 452, 453, 454, 455, 456, 457, 458, 459, 460, 461, 462, 463, 464, 465, 466, 467, 468, 469, 470, 471, 472, 473, 474, 475, 476, 477, 478, 479, 480, 481, 482, 483, 484, 485, 486, 487, 488, 489, 490, 491, 492, 493, 494, 495, 496, 497, 498, 499, 500, 501, 502, 503, 504, 505, 506, 507, 508, 509, 510, 511, 512, 513, 514, 515, 516, 517, 518, 519, 520, 521, 522, 523, 524, 525, 526, 527, 528, 529, 530, 531, 532, 533, 534, 535, 536, 537, 538, 539, 540, 541, 542, 543, 544, 545, 546, 547, 548, 549, 550, 551, 552, 553, 554, 555, 556, 557, 558, 559, 560, 561, 562, 563, 564, 565, 566, 567, 568, 569, 570, 571, 572, 573, 574, 575, 576, 577, 578, 579, 580, 581, 582, 583, 584, 585, 586, 587, 588, 589, 590, 591, 592, 593, 594, 595, 596, 597, 598, 599, 600, 601, 602, 603, 604, 605, 606, 607, 608, 609, 610, 611, 612, 613, 614, 615, 616, 617, 618, 619, 620, 621, 622, 623, 624, 625, 626, 627, 628, 629, 630, 631, 632, 633, 634, 635, 636, 637, 638, 639, 640, 641, 642, 643, 644, 645, 646, 647, 648, 649, 650, 651, 652, 653, 654, 655, 656, 657, 658, 659, 660, 661, 662, 663, 664, 665, 666, 667, 668, 669, 670, 671, 672, 673, 674, 675, 676, 677, 678, 679, 680, 681, 682, 683, 684, 685, 686, 687, 688, 689, 690, 691, 692, 693, 694, 695, 696, 697, 698, 699, 700, 701, 702, 703, 704, 705, 706, 707, 708, 709, 710, 711, 712, 713, 714, 715, 716, 717, 718, 719, 720, 721, 722, 723, 724, 725, 726, 727, 728, 729, 730, 731, 732, 733, 734, 735, 736, 737, 738, 739, 740, 741, 742, 743, 744, 745, 746, 747, 748, 749, 750, 751, 752, 753, 754, 755, 756, 757, 758, 759, 760, 761, 762, 763, 764, 765, 766, 767, 768, 769, 770, 771, 772, 773, 774, 775, 776, 777, 778, 779, 780, 781, 782, 783, 784, 785, 786, 787, 788, 789, 790, 791, 792, 793, 794, 795, 796, 797, 798, 799, 800, 801, 802, 803, 804, 805, 806, 807, 808, 809, 810, 811, 812, 813, 814, 815, 816, 817, 818, 819, 820, 821, 822, 823, 824, 825, 826, 827, 828, 829, 830, 831, 832, 833, 834, 835, 836, 837, 838, 839, 840, 841, 842, 843, 844, 845, 846, 847, 848, 849, 850, 851, 852, 853, 854, 855, 856, 857, 858, 859, 860, 861, 862, 863, 864, 865, 866, 867, 868, 869, 870, 871, 872],
      "AcquisitionTime": ["170054.207500", "170054.667500", "170055.127500", "170055.587500", "170056.047500", "170056.507500", "170056.967500", "170057.427500", "170057.887500", "170058.347500", "170058.807500", "170059.267500", "170059.727500", "170100.187500", "170100.647500", "170101.107500", "170101.567500", "170102.027500", "170102.487500", "170102.947500", "170103.407500", "170103.867500", "170104.327500", "170104.787500", "170105.247500", "170105.707500", "170106.167500", "170106.627500", "170107.087500", "170107.547500", "170108.007500", "170108.467500", "170108.927500", "170109.387500", "170109.847500", "170110.307500", "170110.767500", "170111.227500", "170111.687500", "170112.147500", "170112.607500", "170113.067500", "170113.527500", "170113.987500", "170114.447500", "170114.907500", "170115.367500", "170115.827500", "170116.287500", "170116.747500", "170117.207500", "170117.667500", "170118.127500", "170118.587500", "170119.047500", "170119.507500", "170119.967500", "170120.427500", "170120.887500", "170121.347500", "170121.807500", "170122.267500", "170122.727500", "170123.187500", "170123.647500", "170124.107500", "170124.567500", "170125.027500", "170125.487500", "170125.947500", "170126.407500", "170126.867500", "170127.327500", "170127.787500", "170128.247500", "170128.707500", "170129.167500", "170129.627500", "170130.087500", "170130.547500", "170131.007500", "170131.467500", "170131.927500", "170132.387500", "170132.847500", "170133.307500", "170133.767500", "170134.227500", "170134.687500", "170135.147500", "170135.607500", "170136.067500", "170136.527500", "170136.987500", "170137.447500", "170137.907500", "170138.367500", "170138.827500", "170139.287500", "170139.747500", "170140.207500", "170140.667500", "170141.127500", "170141.587500", "170142.047500", "170142.507500", "170142.967500", "170143.427500", "170143.887500", "170144.347500", "170144.807500", "170145.267500", "170145.727500", "170146.187500", "170146.647500", "170147.107500", "170147.567500", "170148.027500", "170148.487500", "170148.947500", "170149.407500", "170149.867500", "170150.327500", "170150.787500", "170151.247500", "170151.707500", "170152.167500", "170152.627500", "170153.087500", "170153.547500", "170154.007500", "170154.467500", "170154.927500", "170155.387500", "170155.847500", "170156.307500", "170156.767500", "170157.227500", "170157.687500", "170158.147500", "170158.607500", "170159.067500", "170159.527500", "170159.987500", "170200.447500", "170200.907500", "170201.367500", "170201.827500", "170202.287500", "170202.747500", "170203.207500", "170203.667500", "170204.127500", "170204.587500", "170205.047500", "170205.507500", "170205.967500", "170206.427500", "170206.887500", "170207.347500", "170207.807500", "170208.267500", "170208.727500", "170209.187500", "170209.647500", "170210.107500", "170210.567500", "170211.027500", "170211.487500", "170211.947500", "170212.407500", "170212.867500", "170213.327500", "170213.787500", "170214.247500", "170214.707500", "170215.167500", "170215.627500", "170216.087500", "170216.547500", "170217.007500", "170217.467500", "170217.927500", "170218.387500", "170218.847500", "170219.307500", "170219.767500", "170220.227500", "170220.687500", "170221.147500", "170221.607500", "170222.067500", "170222.527500", "170222.987500", "170223.447500", "170223.907500", "170224.367500", "170224.827500", "170225.287500", "170225.747500", "170226.207500", "170226.667500", "170227.127500", "170227.587500", "170228.047500", "170228.507500", "170228.967500", "170229.427500", "170229.887500", "170230.347500", "170230.807500", "170231.267500", "170231.727500", "170232.187500", "170232.647500", "170233.107500", "170233.567500", "170234.027500", "170234.487500", "170234.947500", "170235.407500", "170235.867500", "170236.327500", "170236.787500", "170237.247500", "170237.707500", "170238.167500", "170238.627500", "170239.087500", "170239.547500", "170240.007500", "170240.467500", "170240.927500", "170241.387500", "170241.847500", "170242.307500", "170242.767500", "170243.227500", "170243.687500", "170244.147500", "170244.607500", "170245.067500", "170245.527500", "170245.987500", "170246.447500", "170246.907500", "170247.367500", "170247.827500", "170248.287500", "170248.747500", "170249.207500", "170249.667500", "170250.127500", "170250.587500", "170251.047500", "170251.507500", "170251.967500", "170252.427500", "170252.887500", "170253.347500", "170253.807500", "170254.267500", "170254.727500", "170255.187500", "170255.647500", "170256.107500", "170256.567500", "170257.027500", "170257.487500", "170257.947500", "170258.407500", "170258.867500", "170259.327500", "170259.787500", "170300.247500", "170300.707500", "170301.167500", "170301.627500", "170302.087500", "170302.547500", "170303.007500", "170303.467500", "170303.927500", "170304.387500", "170304.847500", "170305.307500", "170305.767500", "170306.227500", "170306.687500", "170307.147500", "170307.607500", "170308.067500", "170308.527500", "170308.987500", "170309.447500", "170309.907500", "170310.367500", "170310.827500", "170311.287500", "170311.747500", "170312.207500", "170312.667500", "170313.127500", "170313.587500", "170314.047500", "170314.507500", "170314.967500", "170315.427500", "170315.887500", "170316.347500", "170316.807500", "170317.267500", "170317.727500", "170318.187500", "170318.647500", "170319.107500", "170319.567500", "170320.027500", "170320.487500", "170320.947500", "170321.407500", "170321.867500", "170322.327500", "170322.787500", "170323.247500", "170323.707500", "170324.167500", "170324.627500", "170325.087500", "170325.547500", "170326.007500", "170326.467500", "170326.927500", "170327.387500", "170327.847500", "170328.307500", "170328.767500", "170329.227500", "170329.687500", "170330.147500", "170330.607500", "170331.067500", "170331.527500", "170331.987500", "170332.447500", "170332.907500", "170333.367500", "170333.827500", "170334.287500", "170334.747500", "170335.207500", "170335.667500", "170336.127500", "170336.587500", "170337.047500", "170337.507500", "170337.967500", "170338.427500", "170338.887500", "170339.347500", "170339.807500", "170340.267500", "170340.727500", "170341.187500", "170341.647500", "170342.107500", "170342.567500", "170343.027500", "170343.487500", "170343.947500", "170344.407500", "170344.867500", "170345.327500", "170345.787500", "170346.247500", "170346.707500", "170347.167500", "170347.627500", "170348.087500", "170348.547500", "170349.007500", "170349.467500", "170349.927500", "170350.387500", "170350.847500", "170351.307500", "170351.767500", "170352.227500", "170352.687500", "170353.147500", "170353.607500", "170354.067500", "170354.527500", "170354.987500", "170355.447500", "170355.907500", "170356.367500", "170356.827500", "170357.287500", "170357.747500", "170358.207500", "170358.667500", "170359.127500", "170359.587500", "170400.047500", "170400.507500", "170400.967500", "170401.427500", "170401.887500", "170402.347500", "170402.807500", "170403.267500", "170403.727500", "170404.187500", "170404.647500", "170405.107500", "170405.567500", "170406.027500", "170406.487500", "170406.947500", "170407.407500", "170407.867500", "170408.327500", "170408.787500", "170409.247500", "170409.707500", "170410.167500", "170410.627500", "170411.087500", "170411.547500", "170412.007500", "170412.467500", "170412.927500", "170413.387500", "170413.847500", "170414.307500", "170414.767500", "170415.227500", "170415.687500", "170416.147500", "170416.607500", "170417.067500", "170417.527500", "170417.987500", "170418.447500", "170418.907500", "170419.367500", "170419.827500", "170420.287500", "170420.747500", "170421.207500", "170421.667500", "170422.127500", "170422.587500", "170423.047500", "170423.507500", "170423.967500", "170424.427500", "170424.887500", "170425.347500", "170425.807500", "170426.267500", "170426.727500", "170427.187500", "170427.647500", "170428.107500", "170428.567500", "170429.027500", "170429.487500", "170429.947500", "170430.407500", "170430.867500", "170431.327500", "170431.787500", "170432.247500", "170432.707500", "170433.167500", "170433.627500", "170434.087500", "170434.547500", "170435.007500", "170435.467500", "170435.927500", "170436.387500", "170436.847500", "170437.307500", "170437.767500", "170438.227500", "170438.687500", "170439.147500", "170439.607500", "170440.067500", "170440.527500", "170440.987500", "170441.447500", "170441.907500", "170442.367500", "170442.827500", "170443.287500", "170443.747500", "170444.207500", "170444.667500", "170445.127500", "170445.587500", "170446.047500", "170446.507500", "170446.967500", "170447.427500", "170447.887500", "170448.347500", "170448.807500", "170449.267500", "170449.727500", "170450.187500", "170450.647500", "170451.107500", "170451.567500", "170452.027500", "170452.487500", "170452.947500", "170453.407500", "170453.867500", "170454.327500", "170454.787500", "170455.247500", "170455.707500", "170456.167500", "170456.627500", "170457.087500", "170457.547500", "170458.007500", "170458.467500", "170458.927500", "170459.387500", "170459.847500", "170500.307500", "170500.767500", "170501.227500", "170501.687500", "170502.147500", "170502.607500", "170503.067500", "170503.527500", "170503.987500", "170504.447500", "170504.907500", "170505.367500", "170505.827500", "170506.287500", "170506.747500", "170507.207500", "170507.667500", "170508.127500", "170508.587500", "170509.047500", "170509.507500", "170509.967500", "170510.427500", "170510.887500", "170511.347500", "170511.807500", "170512.267500", "170512.727500", "170513.187500", "170513.647500", "170514.107500", "170514.567500", "170515.027500", "170515.487500", "170515.947500", "170516.407500", "170516.867500", "170517.327500", "170517.787500", "170518.247500", "170518.707500", "170519.167500", "170519.627500", "170520.087500", "170520.547500", "170521.007500", "170521.467500", "170521.927500", "170522.387500", "170522.847500", "170523.307500", "170523.767500", "170524.227500", "170524.687500", "170525.147500", "170525.607500", "170526.067500", "170526.527500", "170526.987500", "170527.447500", "170527.907500", "170528.367500", "170528.827500", "170529.287500", "170529.747500", "170530.207500", "170530.667500", "170531.127500", "170531.587500", "170532.047500", "170532.507500", "170532.967500", "170533.427500", "170533.887500", "170534.347500", "170534.807500", "170535.267500", "170535.727500", "170536.187500", "170536.647500", "170537.107500", "170537.567500", "170538.027500", "170538.487500", "170538.947500", "170539.407500", "170539.867500", "170540.327500", "170540.787500", "170541.247500", "170541.707500", "170542.167500", "170542.627500", "170543.087500", "170543.547500", "170544.007500", "170544.467500", "170544.927500", "170545.387500", "170545.847500", "170546.307500", "170546.767500", "170547.227500", "170547.687500", "170548.147500", "170548.607500", "170549.067500", "170549.527500", "170549.987500", "170550.447500", "170550.907500", "170551.367500", "170551.827500", "170552.287500", "170552.747500", "170553.207500", "170553.667500", "170554.127500", "170554.587500", "170555.047500", "170555.507500", "170555.967500", "170556.427500", "170556.887500", "170557.347500", "170557.807500", "170558.267500", "170558.727500", "170559.187500", "170559.647500", "170600.107500", "170600.567500", "170601.027500", "170601.487500", "170601.947500", "170602.407500", "170602.867500", "170603.327500", "170603.787500", "170604.247500", "170604.707500", "170605.167500", "170605.627500", "170606.087500", "170606.547500", "170607.007500", "170607.467500", "170607.927500", "170608.387500", "170608.847500", "170609.307500", "170609.767500", "170610.227500", "170610.687500", "170611.147500", "170611.607500", "170612.067500", "170612.527500", "170612.987500", "170613.447500", "170613.907500", "170614.367500", "170614.827500", "170615.287500", "170615.747500", "170616.207500", "170616.667500", "170617.127500", "170617.587500", "170618.047500", "170618.507500", "170618.967500", "170619.427500", "170619.887500", "170620.347500", "170620.807500", "170621.267500", "170621.727500", "170622.187500", "170622.647500", "170623.107500", "170623.567500", "170624.027500", "170624.487500", "170624.947500", "170625.407500", "170625.867500", "170626.327500", "170626.787500", "170627.247500", "170627.707500", "170628.167500", "170628.627500", "170629.087500", "170629.547500", "170630.007500", "170630.467500", "170630.927500", "170631.387500", "170631.847500", "170632.307500", "170632.767500", "170633.227500", "170633.687500", "170634.147500", "170634.607500", "170635.067500", "170635.527500", "170635.987500", "170636.447500", "170636.907500", "170637.367500", "170637.827500", "170638.287500", "170638.747500", "170639.207500", "170639.667500", "170640.127500", "170640.587500", "170641.047500", "170641.507500", "170641.967500", "170642.427500", "170642.887500", "170643.347500", "170643.807500", "170644.267500", "170644.727500", "170645.187500", "170645.647500", "170646.107500", "170646.567500", "170647.027500", "170647.487500", "170647.947500", "170648.407500", "170648.867500", "170649.327500", "170649.787500", "170650.247500", "170650.707500", "170651.167500", "170651.627500", "170652.087500", "170652.547500", "170653.007500", "170653.467500", "170653.927500", "170654.387500", "170654.847500", "170655.307500", "170655.767500", "170656.227500", "170656.687500", "170657.147500", "170657.607500", "170658.067500", "170658.527500", "170658.987500", "170659.447500", "170659.907500", "170700.367500", "170700.827500", "170701.287500", "170701.747500", "170702.207500", "170702.667500", "170703.127500", "170703.587500", "170704.047500", "170704.507500", "170704.967500", "170705.427500", "170705.887500", "170706.347500", "170706.807500", "170707.267500", "170707.727500", "170708.187500", "170708.647500", "170709.107500", "170709.567500", "170710.027500", "170710.487500", "170710.947500", "170711.407500", "170711.867500", "170712.327500", "170712.787500", "170713.247500", "170713.707500", "170714.167500", "170714.627500", "170715.087500", "170715.547500", "170716.007500", "170716.467500", "170716.927500", "170717.387500", "170717.847500", "170718.307500", "170718.767500", "170719.227500", "170719.687500", "170720.147500", "170720.607500", "170721.067500", "170721.527500", "170721.987500", "170722.447500", "170722.907500", "170723.367500", "170723.827500", "170724.287500", "170724.747500", "170725.207500", "170725.667500", "170726.127500", "170726.587500", "170727.047500", "170727.507500", "170727.967500", "170728.427500", "170728.887500", "170729.347500", "170729.807500", "170730.267500", "170730.727500", "170731.187500", "170731.647500", "170732.107500", "170732.567500", "170733.027500", "170733.487500", "170733.947500", "170734.407500", "170734.867500"],
