{
  "AcquisitionMatrixPE": 82,
  "AcquisitionNumber": 1,
  "AcquisitionTime": "15:57:24.985000",
  "BandwidthPerPixelPhaseEncode": 24.888,
  "BaseResolution": 82,
  "BodyPartExamined": "BRAIN",
  "ConsistencyInfo": "N4_VE11C_LATEST_20160120",
  "ConversionSoftware": "dcm2niix",
  "ConversionSoftwareVersion": "v1.0.20201102",
  "DerivedVendorReportedEchoSpacing": 0.00049,
  "DeviceSerialNumber": "66112",
  "DwellTime": 2e-06,
  "EchoTime": 0.0272,
  "EchoTrainLength": 82,
  "EffectiveEchoSpacing": 0.00049,
  "FlipAngle": 44,
  "ImageComments": "Unaliased MB8/PE3",
  "ImageOrientationPatientDICOM": [0.999698, 0.0101141, -0.0224029, -0.0104692, 0.999821, -0.0157909],
  "ImageType": [
    "ORIGINAL",
    "PRIMARY",
    "M",
    "MB",
    "ND",
    "NORM",
    "MOSAIC"
],
  "ImagingFrequency": 123.252,
  "InPlanePhaseEncodingDirectionDICOM": "COL",
  "InstitutionAddress": "Maynard 3,Hanover,NH,US,03755",
  "InstitutionName": "Dartmouth College - PBS",
  "InstitutionalDepartmentName": "Department",
  "MRAcquisitionType": "2D",
  "MagneticFieldStrength": 3,
  "Manufacturer": "Siemens",
  "ManufacturersModelName": "Prisma",
  "Modality": "MR",
  "MultibandAccelerationFactor": 8,
  "PartialFourier": 1,
  "PatientPosition": "HFS",
  "PercentPhaseFOV": 100,
  "PercentSampling": 100,
  "PhaseEncodingDirection": "j-",
  "PhaseEncodingSteps": 82,
  "PhaseResolution": 1,
  "PixelBandwidth": 3050,
  "ProcedureStepDescription": "Wager_Wager^1076_spacetop",
  "ProtocolName": "func_run-05_task-social_acq-ap-mb8",
  "PulseSequenceDetails": "%CustomerSeq%\\cmrr_mbep2d_bold",
  "ReceiveCoilActiveElements": "HEA;HEP",
  "ReceiveCoilName": "Head_32",
  "ReconMatrixPE": 82,
  "RepetitionTime": 0.46,
  "SAR": 0.0700845,
  "ScanOptions": "FS",
  "ScanningSequence": "EP",
  "SequenceName": "epfid2d1_82",
  "SequenceVariant": "SK\\SS",
  "SeriesDescription": "func_run-05_task-social_acq-ap-mb8",
  "SeriesNumber": 20,
  "ShimSetting": [4140, -7776, -7322, 568, -73, -90, -52, 96],
  "SliceThickness": 2.7,
  "SliceTiming": [0, 0.2525, 0.0625, 0.315, 0.125, 0.3775, 0.1875, 0, 0.2525, 0.0625, 0.315, 0.125, 0.3775, 0.1875, 0, 0.2525, 0.0625, 0.315, 0.125, 0.3775, 0.1875, 0, 0.2525, 0.0625, 0.315, 0.125, 0.3775, 0.1875, 0, 0.2525, 0.0625, 0.315, 0.125, 0.3775, 0.1875, 0, 0.2525, 0.0625, 0.315, 0.125, 0.3775, 0.1875, 0, 0.2525, 0.0625, 0.315, 0.125, 0.3775, 0.1875, 0, 0.2525, 0.0625, 0.315, 0.125, 0.3775, 0.1875],
  "SoftwareVersions": "syngo MR E11",
  "SpacingBetweenSlices": 2.7,
  "StationName": "AWP66112",
  "TaskName": "social",
  "TotalReadoutTime": 0.03969,
  "TxRefAmp": 253.883,
  "WipMemBlock": "e0b9d97a-c32d-4b01-8df2-f4332fa43b52||Sequence: R016 ve11c/master r/e634e98; Dec 19 2017 11:00:25 by eja",
  "dcmmeta_affine": [
    [-2.6821162700653076, -0.028088146820664406, -0.06004573032259941, 112.98143768310547],
    [-0.027135411277413368, 2.6824452877044678, -0.04325590655207634, -97.12892150878906],
    [-0.06010532006621361, 0.04236593097448349, 2.6989855766296387, -90.65601348876953],
    [0.0, 0.0, 0.0, 1.0]
],
  "dcmmeta_reorient_transform": [
    [0.0, -1.0, 0.0, 81.0],
    [1.0, 0.0, 0.0, 0.0],
    [0.0, 0.0, 1.0, 0.0],
    [0.0, 0.0, 0.0, 1.0]
],
  "dcmmeta_shape": [82, 82, 56, 872],
  "dcmmeta_slice_dim": 2,
  "dcmmeta_version": 0.6,
  "global": {
    "const": {
      "AccessionNumber": "A003452",
      "AcquisitionMatrix": [82, 0, 0, 82],
      "AngioFlag": "N",
      "BitsAllocated": 16,
      "BitsStored": 16,
      "BodyPartExamined": "BRAIN",
      "Columns": 656,
      "EchoNumbers": 1,
      "EchoTime": 27.2,
      "EchoTrainLength": 82,
      "FlipAngle": 44.0,
      "HighBit": 15,
      "ImageOrientationPatient": [0.99969786198689, 0.01011410771983, -0.022402891864, -0.0104692180862, 0.99982050478315, -0.0157909368889],
      "ImagePositionPatient": [-872.41237261682, -897.7988232705, -57.815127222836],
      "ImageType": [
        "ORIGINAL",
        "PRIMARY",
        "M",
        "MB",
        "ND",
        "NORM",
        "MOSAIC"
],
      "ImagedNucleus": "1H",
      "ImagingFrequency": 123.252186,
      "InPlanePhaseEncodingDirection": "COL",
      "MRAcquisitionType": "2D",
      "MagneticFieldStrength": 3.0,
      "Manufacturer": "SIEMENS",
      "ManufacturerModelName": "Prisma",
      "Modality": "MR",
      "NumberOfAverages": 1.0,
      "NumberOfPhaseEncodingSteps": 82,
      "PercentPhaseFieldOfView": 100.0,
      "PercentSampling": 100.0,
      "PerformedProcedureStepStartTime": "142548.282000",
      "PhotometricInterpretation": "MONOCHROME2",
      "PixelBandwidth": 3050.0,
      "PixelRepresentation": 0,
      "PixelSpacing": [2.6829268932343, 2.6829268932343],
      "ProtocolName": "func_run-05_task-social_acq-ap-mb8",
      "RepetitionTime": 460.0,
      "Rows": 656,
      "SAR": 0.07008448926488,
      "SamplesPerPixel": 1,
      "ScanOptions": "FS",
      "ScanningSequence": "EP",
      "SequenceName": "epfid2d1_82",
      "SequenceVariant": [
        "SK",
        "SS"
],
      "SeriesDescription": "func_run-05_task-social_acq-ap-mb8",
      "SeriesNumber": 20,
      "SeriesTime": "155752.441000",
      "SliceLocation": -91.578495901093,
      "SliceThickness": 2.7000000476837,
      "SmallestImagePixelValue": 0,
      "SoftwareVersions": "syngo MR E11",
      "SpacingBetweenSlices": 2.700000006185,
      "SpecificCharacterSet": "ISO_IR 100",
      "StudyID": "1",
      "StudyTime": "142548.166000",
      "TransmitCoilName": "Body",
      "VariableFlipAngleFlag": "N",
      "WindowCenterWidthExplanation": "Algo1",
      "dBdt": 0.0},
    "slices": {}
  },
  "time": {
    "samples": {
      "AcquisitionNumber": [1, 2, 3, 4, 5, 6, 7, 8, 9, 10, 11, 12, 13, 14, 15, 16, 17, 18, 19, 20, 21, 22, 23, 24, 25, 26, 27, 28, 29, 30, 31, 32, 33, 34, 35, 36, 37, 38, 39, 40, 41, 42, 43, 44, 45, 46, 47, 48, 49, 50, 51, 52, 53, 54, 55, 56, 57, 58, 59, 60, 61, 62, 63, 64, 65, 66, 67, 68, 69, 70, 71, 72, 73, 74, 75, 76, 77, 78, 79, 80, 81, 82, 83, 84, 85, 86, 87, 88, 89, 90, 91, 92, 93, 94, 95, 96, 97, 98, 99, 100, 101, 102, 103, 104, 105, 106, 107, 108, 109, 110, 111, 112, 113, 114, 115, 116, 117, 118, 119, 120, 121, 122, 123, 124, 125, 126, 127, 128, 129, 130, 131, 132, 133, 134, 135, 136, 137, 138, 139, 140, 141, 142, 143, 144, 145, 146, 147, 148, 149, 150, 151, 152, 153, 154, 155, 156, 157, 158, 159, 160, 161, 162, 163, 164, 165, 166, 167, 168, 169, 170, 171, 172, 173, 174, 175, 176, 177, 178, 179, 180, 181, 182, 183, 184, 185, 186, 187, 188, 189, 190, 191, 192, 193, 194, 195, 196, 197, 198, 199, 200, 201, 202, 203, 204, 205, 206, 207, 208, 209, 210, 211, 212, 213, 214, 215, 216, 217, 218, 219, 220, 221, 222, 223, 224, 225, 226, 227, 228, 229, 230, 231, 232, 233, 234, 235, 236, 237, 238, 239, 240, 241, 242, 243, 244, 245, 246, 247, 248, 249, 250, 251, 252, 253, 254, 255, 256, 257, 258, 259, 260, 261, 262, 263, 264, 265, 266, 267, 268, 269, 270, 271, 272, 273, 274, 275, 276, 277, 278, 279, 280, 281, 282, 283, 284, 285, 286, 287, 288, 289, 290, 291, 292, 293, 294, 295, 296, 297, 298, 299, 300, 301, 302, 303, 304, 305, 306, 307, 308, 309, 310, 311, 312, 313, 314, 315, 316, 317, 318, 319, 320, 321, 322, 323, 324, 325, 326, 327, 328, 329, 330, 331, 332, 333, 334, 335, 336, 337, 338, 339, 340, 341, 342, 343, 344, 345, 346, 347, 348, 349, 350, 351, 352, 353, 354, 355, 356, 357, 358, 359, 360, 361, 362, 363, 364, 365, 366, 367, 368, 369, 370, 371, 372, 373, 374, 375, 376, 377, 378, 379, 380, 381, 382, 383, 384, 385, 386, 387, 388, 389, 390, 391, 392, 393, 394, 395, 396, 397, 398, 399, 400, 401, 402, 403, 404, 405, 406, 407, 408, 409, 410, 411, 412, 413, 414, 415, 416, 417, 418, 419, 420, 421, 422, 423, 424, 425, 426, 427, 428, 429, 430, 431, 432, 433, 434, 435, 436, 437, 438, 439, 440, 441, 442, 443, 444, 445, 446, 447, 448, 449, 450, 451, 452, 453, 454, 455, 456, 457, 458, 459, 460, 461, 462, 463, 464, 465, 466, 467, 468, 469, 470, 471, 472, 473, 474, 475, 476, 477, 478, 479, 480, 481, 482, 483, 484, 485, 486, 487, 488, 489, 490, 491, 492, 493, 494, 495, 496, 497, 498, 499, 500, 501, 502, 503, 504, 505, 506, 507, 508, 509, 510, 511, 512, 513, 514, 515, 516, 517, 518, 519, 520, 521, 522, 523, 524, 525, 526, 527, 528, 529, 530, 531, 532, 533, 534, 535, 536, 537, 538, 539, 540, 541, 542, 543, 544, 545, 546, 547, 548, 549, 550, 551, 552, 553, 554, 555, 556, 557, 558, 559, 560, 561, 562, 563, 564, 565, 566, 567, 568, 569, 570, 571, 572, 573, 574, 575, 576, 577, 578, 579, 580, 581, 582, 583, 584, 585, 586, 587, 588, 589, 590, 591, 592, 593, 594, 595, 596, 597, 598, 599, 600, 601, 602, 603, 604, 605, 606, 607, 608, 609, 610, 611, 612, 613, 614, 615, 616, 617, 618, 619, 620, 621, 622, 623, 624, 625, 626, 627, 628, 629, 630, 631, 632, 633, 634, 635, 636, 637, 638, 639, 640, 641, 642, 643, 644, 645, 646, 647, 648, 649, 650, 651, 652, 653, 654, 655, 656, 657, 658, 659, 660, 661, 662, 663, 664, 665, 666, 667, 668, 669, 670, 671, 672, 673, 674, 675, 676, 677, 678, 679, 680, 681, 682, 683, 684, 685, 686, 687, 688, 689, 690, 691, 692, 693, 694, 695, 696, 697, 698, 699, 700, 701, 702, 703, 704, 705, 706, 707, 708, 709, 710, 711, 712, 713, 714, 715, 716, 717, 718, 719, 720, 721, 722, 723, 724, 725, 726, 727, 728, 729, 730, 731, 732, 733, 734, 735, 736, 737, 738, 739, 740, 741, 742, 743, 744, 745, 746, 747, 748, 749, 750, 751, 752, 753, 754, 755, 756, 757, 758, 759, 760, 761, 762, 763, 764, 765, 766, 767, 768, 769, 770, 771, 772, 773, 774, 775, 776, 777, 778, 779, 780, 781, 782, 783, 784, 785, 786, 787, 788, 789, 790, 791, 792, 793, 794, 795, 796, 797, 798, 799, 800, 801, 802, 803, 804, 805, 806, 807, 808, 809, 810, 811, 812, 813, 814, 815, 816, 817, 818, 819, 820, 821, 822, 823, 824, 825, 826, 827, 828, 829, 830, 831, 832, 833, 834, 835, 836, 837, 838, 839, 840, 841, 842, 843, 844, 845, 846, 847, 848, 849, 850, 851, 852, 853, 854, 855, 856, 857, 858, 859, 860, 861, 862, 863, 864, 865, 866, 867, 868, 869, 870, 871, 872],
      "AcquisitionTime": ["155724.985000", "155725.445000", "155725.905000", "155726.365000", "155726.825000", "155727.285000", "155727.745000", "155728.205000", "155728.665000", "155729.125000", "155729.585000", "155730.045000", "155730.505000", "155730.965000", "155731.425000", "155731.885000", "155732.345000", "155732.805000", "155733.265000", "155733.725000", "155734.185000", "155734.645000", "155735.105000", "155735.565000", "155736.025000", "155736.485000", "155736.945000", "155737.405000", "155737.865000", "155738.325000", "155738.785000", "155739.245000", "155739.705000", "155740.165000", "155740.625000", "155741.085000", "155741.545000", "155742.005000", "155742.465000", "155742.925000", "155743.385000", "155743.845000", "155744.305000", "155744.765000", "155745.225000", "155745.685000", "155746.145000", "155746.605000", "155747.065000", "155747.525000", "155747.985000", "155748.445000", "155748.905000", "155749.365000", "155749.825000", "155750.285000", "155750.745000", "155751.205000", "155751.665000", "155752.125000", "155752.585000", "155753.045000", "155753.505000", "155753.965000", "155754.425000", "155754.885000", "155755.345000", "155755.805000", "155756.265000", "155756.725000", "155757.185000", "155757.645000", "155758.105000", "155758.565000", "155759.025000", "155759.485000", "155759.945000", "155800.405000", "155800.865000", "155801.325000", "155801.785000", "155802.245000", "155802.705000", "155803.165000", "155803.625000", "155804.085000", "155804.545000", "155805.005000", "155805.465000", "155805.925000", "155806.385000", "155806.845000", "155807.305000", "155807.765000", "155808.225000", "155808.685000", "155809.145000", "155809.605000", "155810.065000", "155810.525000", "155810.985000", "155811.445000", "155811.905000", "155812.365000", "155812.825000", "155813.285000", "155813.745000", "155814.205000", "155814.665000", "155815.125000", "155815.585000", "155816.045000", "155816.505000", "155816.965000", "155817.425000", "155817.885000", "155818.345000", "155818.805000", "155819.265000", "155819.725000", "155820.185000", "155820.645000", "155821.105000", "155821.565000", "155822.025000", "155822.485000", "155822.945000", "155823.405000", "155823.865000", "155824.325000", "155824.785000", "155825.245000", "155825.705000", "155826.165000", "155826.625000", "155827.085000", "155827.545000", "155828.005000", "155828.465000", "155828.925000", "155829.385000", "155829.845000", "155830.305000", "155830.765000", "155831.225000", "155831.685000", "155832.145000", "155832.605000", "155833.065000", "155833.525000", "155833.985000", "155834.445000", "155834.905000", "155835.365000", "155835.825000", "155836.285000", "155836.745000", "155837.205000", "155837.665000", "155838.125000", "155838.585000", "155839.045000", "155839.505000", "155839.965000", "155840.425000", "155840.885000", "155841.345000", "155841.805000", "155842.265000", "155842.725000", "155843.185000", "155843.645000", "155844.105000", "155844.565000", "155845.025000", "155845.485000", "155845.945000", "155846.405000", "155846.865000", "155847.325000", "155847.785000", "155848.245000", "155848.705000", "155849.165000", "155849.625000", "155850.085000", "155850.545000", "155851.005000", "155851.465000", "155851.925000", "155852.385000", "155852.845000", "155853.305000", "155853.765000", "155854.225000", "155854.685000", "155855.145000", "155855.605000", "155856.065000", "155856.525000", "155856.985000", "155857.445000", "155857.905000", "155858.365000", "155858.825000", "155859.285000", "155859.745000", "155900.205000", "155900.665000", "155901.125000", "155901.585000", "155902.045000", "155902.505000", "155902.965000", "155903.425000", "155903.885000", "155904.345000", "155904.805000", "155905.265000", "155905.725000", "155906.185000", "155906.645000", "155907.105000", "155907.565000", "155908.025000", "155908.485000", "155908.945000", "155909.405000", "155909.865000", "155910.325000", "155910.785000", "155911.245000", "155911.705000", "155912.165000", "155912.625000", "155913.085000", "155913.545000", "155914.005000", "155914.465000", "155914.925000", "155915.385000", "155915.845000", "155916.305000", "155916.765000", "155917.225000", "155917.685000", "155918.145000", "155918.605000", "155919.065000", "155919.525000", "155919.985000", "155920.445000", "155920.905000", "155921.365000", "155921.825000", "155922.285000", "155922.745000", "155923.205000", "155923.665000", "155924.125000", "155924.585000", "155925.045000", "155925.505000", "155925.965000", "155926.425000", "155926.885000", "155927.345000", "155927.805000", "155928.265000", "155928.725000", "155929.185000", "155929.645000", "155930.105000", "155930.565000", "155931.025000", "155931.485000", "155931.945000", "155932.405000", "155932.865000", "155933.325000", "155933.785000", "155934.245000", "155934.705000", "155935.165000", "155935.625000", "155936.085000", "155936.545000", "155937.005000", "155937.465000", "155937.925000", "155938.385000", "155938.845000", "155939.305000", "155939.765000", "155940.225000", "155940.685000", "155941.145000", "155941.605000", "155942.065000", "155942.525000", "155942.985000", "155943.445000", "155943.905000", "155944.365000", "155944.825000", "155945.285000", "155945.745000", "155946.205000", "155946.665000", "155947.125000", "155947.585000", "155948.045000", "155948.505000", "155948.965000", "155949.425000", "155949.885000", "155950.345000", "155950.805000", "155951.265000", "155951.725000", "155952.185000", "155952.645000", "155953.105000", "155953.565000", "155954.025000", "155954.485000", "155954.945000", "155955.405000", "155955.865000", "155956.325000", "155956.785000", "155957.245000", "155957.705000", "155958.165000", "155958.625000", "155959.085000", "155959.545000", "160000.005000", "160000.465000", "160000.925000", "160001.385000", "160001.845000", "160002.305000", "160002.765000", "160003.225000", "160003.685000", "160004.145000", "160004.605000", "160005.065000", "160005.525000", "160005.985000", "160006.445000", "160006.905000", "160007.365000", "160007.825000", "160008.285000", "160008.745000", "160009.205000", "160009.665000", "160010.125000", "160010.585000", "160011.045000", "160011.505000", "160011.965000", "160012.425000", "160012.885000", "160013.345000", "160013.805000", "160014.265000", "160014.725000", "160015.185000", "160015.645000", "160016.105000", "160016.565000", "160017.025000", "160017.485000", "160017.945000", "160018.405000", "160018.865000", "160019.325000", "160019.785000", "160020.245000", "160020.705000", "160021.165000", "160021.625000", "160022.085000", "160022.545000", "160023.005000", "160023.465000", "160023.925000", "160024.385000", "160024.845000", "160025.305000", "160025.765000", "160026.225000", "160026.685000", "160027.145000", "160027.605000", "160028.065000", "160028.525000", "160028.985000", "160029.445000", "160029.905000", "160030.365000", "160030.825000", "160031.285000", "160031.745000", "160032.205000", "160032.665000", "160033.125000", "160033.585000", "160034.045000", "160034.505000", "160034.965000", "160035.425000", "160035.885000", "160036.345000", "160036.805000", "160037.265000", "160037.725000", "160038.185000", "160038.645000", "160039.105000", "160039.565000", "160040.025000", "160040.485000", "160040.945000", "160041.405000", "160041.865000", "160042.325000", "160042.785000", "160043.245000", "160043.705000", "160044.165000", "160044.625000", "160045.085000", "160045.545000", "160046.005000", "160046.465000", "160046.925000", "160047.385000", "160047.845000", "160048.305000", "160048.765000", "160049.225000", "160049.685000", "160050.145000", "160050.605000", "160051.065000", "160051.525000", "160051.985000", "160052.445000", "160052.905000", "160053.365000", "160053.825000", "160054.285000", "160054.745000", "160055.205000", "160055.665000", "160056.125000", "160056.585000", "160057.045000", "160057.505000", "160057.965000", "160058.425000", "160058.885000", "160059.345000", "160059.805000", "160100.265000", "160100.725000", "160101.185000", "160101.645000", "160102.105000", "160102.565000", "160103.025000", "160103.485000", "160103.945000", "160104.405000", "160104.865000", "160105.325000", "160105.785000", "160106.245000", "160106.705000", "160107.165000", "160107.625000", "160108.085000", "160108.545000", "160109.005000", "160109.465000", "160109.925000", "160110.385000", "160110.845000", "160111.305000", "160111.765000", "160112.225000", "160112.685000", "160113.145000", "160113.605000", "160114.065000", "160114.525000", "160114.985000", "160115.445000", "160115.905000", "160116.365000", "160116.825000", "160117.285000", "160117.745000", "160118.205000", "160118.665000", "160119.125000", "160119.585000", "160120.045000", "160120.505000", "160120.965000", "160121.425000", "160121.885000", "160122.345000", "160122.805000", "160123.265000", "160123.725000", "160124.185000", "160124.645000", "160125.105000", "160125.565000", "160126.025000", "160126.485000", "160126.945000", "160127.405000", "160127.865000", "160128.325000", "160128.785000", "160129.245000", "160129.705000", "160130.165000", "160130.625000", "160131.085000", "160131.545000", "160132.005000", "160132.465000", "160132.925000", "160133.385000", "160133.845000", "160134.305000", "160134.765000", "160135.225000", "160135.685000", "160136.145000", "160136.605000", "160137.065000", "160137.525000", "160137.985000", "160138.445000", "160138.905000", "160139.365000", "160139.825000", "160140.285000", "160140.745000", "160141.205000", "160141.665000", "160142.125000", "160142.585000", "160143.045000", "160143.505000", "160143.965000", "160144.425000", "160144.885000", "160145.345000", "160145.805000", "160146.265000", "160146.725000", "160147.185000", "160147.645000", "160148.105000", "160148.565000", "160149.025000", "160149.485000", "160149.945000", "160150.405000", "160150.865000", "160151.325000", "160151.785000", "160152.245000", "160152.705000", "160153.165000", "160153.625000", "160154.085000", "160154.545000", "160155.005000", "160155.465000", "160155.925000", "160156.385000", "160156.845000", "160157.305000", "160157.765000", "160158.225000", "160158.685000", "160159.145000", "160159.605000", "160200.065000", "160200.525000", "160200.985000", "160201.445000", "160201.905000", "160202.365000", "160202.825000", "160203.285000", "160203.745000", "160204.205000", "160204.665000", "160205.125000", "160205.585000", "160206.045000", "160206.505000", "160206.965000", "160207.425000", "160207.885000", "160208.345000", "160208.805000", "160209.265000", "160209.725000", "160210.185000", "160210.645000", "160211.105000", "160211.565000", "160212.025000", "160212.485000", "160212.945000", "160213.405000", "160213.865000", "160214.325000", "160214.785000", "160215.245000", "160215.705000", "160216.165000", "160216.625000", "160217.085000", "160217.545000", "160218.005000", "160218.465000", "160218.925000", "160219.385000", "160219.845000", "160220.305000", "160220.765000", "160221.225000", "160221.685000", "160222.145000", "160222.605000", "160223.065000", "160223.525000", "160223.985000", "160224.445000", "160224.905000", "160225.365000", "160225.825000", "160226.285000", "160226.745000", "160227.205000", "160227.665000", "160228.125000", "160228.585000", "160229.045000", "160229.505000", "160229.965000", "160230.425000", "160230.885000", "160231.345000", "160231.805000", "160232.265000", "160232.725000", "160233.185000", "160233.645000", "160234.105000", "160234.565000", "160235.025000", "160235.485000", "160235.945000", "160236.405000", "160236.865000", "160237.325000", "160237.785000", "160238.245000", "160238.705000", "160239.165000", "160239.625000", "160240.085000", "160240.545000", "160241.005000", "160241.465000", "160241.925000", "160242.385000", "160242.845000", "160243.305000", "160243.765000", "160244.225000", "160244.685000", "160245.145000", "160245.605000", "160246.065000", "160246.525000", "160246.985000", "160247.445000", "160247.905000", "160248.365000", "160248.825000", "160249.285000", "160249.745000", "160250.205000", "160250.665000", "160251.125000", "160251.585000", "160252.045000", "160252.505000", "160252.965000", "160253.425000", "160253.885000", "160254.345000", "160254.805000", "160255.265000", "160255.725000", "160256.185000", "160256.645000", "160257.105000", "160257.565000", "160258.025000", "160258.485000", "160258.945000", "160259.405000", "160259.865000", "160300.325000", "160300.785000", "160301.245000", "160301.705000", "160302.165000", "160302.625000", "160303.085000", "160303.545000", "160304.005000", "160304.465000", "160304.925000", "160305.385000", "160305.845000", "160306.305000", "160306.765000", "160307.225000", "160307.685000", "160308.145000", "160308.605000", "160309.065000", "160309.525000", "160309.985000", "160310.445000", "160310.905000", "160311.365000", "160311.825000", "160312.285000", "160312.745000", "160313.205000", "160313.665000", "160314.125000", "160314.585000", "160315.045000", "160315.505000", "160315.965000", "160316.425000", "160316.885000", "160317.345000", "160317.805000", "160318.265000", "160318.725000", "160319.185000", "160319.645000", "160320.105000", "160320.565000", "160321.025000", "160321.485000", "160321.945000", "160322.405000", "160322.865000", "160323.325000", "160323.785000", "160324.245000", "160324.705000", "160325.165000", "160325.625000", "160326.085000", "160326.545000", "160327.005000", "160327.465000", "160327.925000", "160328.385000", "160328.845000", "160329.305000", "160329.765000", "160330.225000", "160330.685000", "160331.145000", "160331.605000", "160332.065000", "160332.525000", "160332.985000", "160333.445000", "160333.905000", "160334.365000", "160334.825000", "160335.285000", "160335.745000", "160336.205000", "160336.665000", "160337.125000", "160337.585000", "160338.045000", "160338.505000", "160338.965000", "160339.425000", "160339.885000", "160340.345000", "160340.805000", "160341.265000", "160341.725000", "160342.185000", "160342.645000", "160343.105000", "160343.565000", "160344.025000", "160344.485000", "160344.945000", "160345.405000", "160345.865000", "160346.325000", "160346.785000", "160347.245000", "160347.705000", "160348.165000", "160348.625000", "160349.085000", "160349.545000", "160350.005000", "160350.465000", "160350.925000", "160351.385000", "160351.845000", "160352.305000", "160352.765000", "160353.225000", "160353.685000", "160354.145000", "160354.605000", "160355.065000", "160355.525000", "160355.985000", "160356.445000", "160356.905000", "160357.365000", "160357.825000", "160358.285000", "160358.745000", "160359.205000", "160359.665000", "160400.125000", "160400.585000", "160401.045000", "160401.505000", "160401.965000", "160402.425000", "160402.885000", "160403.345000", "160403.805000", "160404.265000", "160404.725000", "160405.185000", "160405.645000"],
