{
  "AcquisitionMatrixPE": 82,
  "AcquisitionNumber": 1,
  "AcquisitionTime": "19:20:4.220000",
  "BandwidthPerPixelPhaseEncode": 24.888,
  "BaseResolution": 82,
  "BodyPartExamined": "BRAIN",
  "ConsistencyInfo": "N4_VE11C_LATEST_20160120",
  "ConversionSoftware": "dcm2niix",
  "ConversionSoftwareVersion": "v1.0.20201102",
  "DerivedVendorReportedEchoSpacing": 0.00049,
  "DeviceSerialNumber": "66112",
  "DwellTime": 2e-06,
  "EchoTime": 0.0272,
  "EchoTrainLength": 82,
  "EffectiveEchoSpacing": 0.00049,
  "FlipAngle": 44,
  "ImageComments": "Unaliased MB8/PE3",
  "ImageOrientationPatientDICOM": [0.998494, 0.0319738, 0.0445729, -0.0383583, 0.987841, 0.150662],
  "ImageType": [
    "ORIGINAL",
    "PRIMARY",
    "M",
    "MB",
    "ND",
    "NORM",
    "MOSAIC"
],
  "ImagingFrequency": 123.252,
  "InPlanePhaseEncodingDirectionDICOM": "COL",
  "InstitutionAddress": "Maynard 3,Hanover,NH,US,03755",
  "InstitutionName": "Dartmouth College - PBS",
  "InstitutionalDepartmentName": "Department",
  "MRAcquisitionType": "2D",
  "MagneticFieldStrength": 3,
  "Manufacturer": "Siemens",
  "ManufacturersModelName": "Prisma",
  "Modality": "MR",
  "MultibandAccelerationFactor": 8,
  "PartialFourier": 1,
  "PatientPosition": "HFS",
  "PercentPhaseFOV": 100,
  "PercentSampling": 100,
  "PhaseEncodingDirection": "j-",
  "PhaseEncodingSteps": 82,
  "PhaseResolution": 1,
  "PixelBandwidth": 3050,
  "ProcedureStepDescription": "Wager_Wager^1076_spacetop",
  "ProtocolName": "func_run-02_task-narratives_acq-ap-mb8",
  "PulseSequenceDetails": "%CustomerSeq%\\cmrr_mbep2d_bold",
  "ReceiveCoilActiveElements": "HEA;HEP",
  "ReceiveCoilName": "Head_32",
  "ReconMatrixPE": 82,
  "RepetitionTime": 0.46,
  "SAR": 0.100469,
  "ScanOptions": "FS",
  "ScanningSequence": "EP",
  "SequenceName": "epfid2d1_82",
  "SequenceVariant": "SK\\SS",
  "SeriesDescription": "func_run-02_task-narratives_acq-ap-mb8",
  "SeriesNumber": 10,
  "ShimSetting": [4150, -7760, -7242, 668, -41, -201, 4, 74],
  "SliceThickness": 2.7,
  "SliceTiming": [0, 0.25, 0.0625, 0.315, 0.125, 0.3775, 0.1875, 0, 0.25, 0.0625, 0.315, 0.125, 0.3775, 0.1875, 0, 0.25, 0.0625, 0.315, 0.125, 0.3775, 0.1875, 0, 0.25, 0.0625, 0.315, 0.125, 0.3775, 0.1875, 0, 0.25, 0.0625, 0.315, 0.125, 0.3775, 0.1875, 0, 0.25, 0.0625, 0.315, 0.125, 0.3775, 0.1875, 0, 0.25, 0.0625, 0.315, 0.125, 0.3775, 0.1875, 0, 0.25, 0.0625, 0.315, 0.125, 0.3775, 0.1875],
  "SoftwareVersions": "syngo MR E11",
  "SpacingBetweenSlices": 2.7,
  "StationName": "AWP66112",
  "TaskName": "narratives",
  "TotalReadoutTime": 0.03969,
  "TxRefAmp": 238.862,
  "WipMemBlock": "401ee62d-79bf-4512-a2ea-d2c323a30302||Sequence: R016 ve11c/master r/e634e98; Dec 19 2017 11:00:25 by eja",
  "dcmmeta_affine": [
    [-2.678887367248535, -0.10291248559951782, 0.10587693005800247, 115.00968170166016],
    [-0.08578350394964218, 2.6503047943115234, 0.4107922613620758, -106.03362274169922],
    [0.11958584189414978, -0.4042161703109741, 2.6664657592773438, -50.08103561401367],
    [0.0, 0.0, 0.0, 1.0]
],
  "dcmmeta_reorient_transform": [
    [0.0, -1.0, 0.0, 81.0],
    [1.0, 0.0, 0.0, 0.0],
    [0.0, 0.0, 1.0, 0.0],
    [0.0, 0.0, 0.0, 1.0]
],
  "dcmmeta_shape": [82, 82, 56, 1098],
  "dcmmeta_slice_dim": 2,
  "dcmmeta_version": 0.6,
  "global": {
    "const": {
      "AccessionNumber": "A003829",
      "AcquisitionMatrix": [82, 0, 0, 82],
      "AngioFlag": "N",
      "BitsAllocated": 16,
      "BitsStored": 16,
      "BodyPartExamined": "BRAIN",
      "Columns": 656,
      "EchoNumbers": 1,
      "EchoTime": 27.2,
      "EchoTrainLength": 82,
      "FlipAngle": 44.0,
      "HighBit": 15,
      "ImageOrientationPatient": [0.99849433102123, 0.03197384992418, 0.04457290476831, -0.038358289143, 0.9878408210264, 0.15066238405092],
      "ImagePositionPatient": [-845.97853769463, -893.89837239628, -233.15371887114],
      "ImageType": [
        "ORIGINAL",
        "PRIMARY",
        "M",
        "MB",
        "ND",
        "NORM",
        "MOSAIC"
],
      "ImagedNucleus": "1H",
      "ImagingFrequency": 123.252214,
      "InPlanePhaseEncodingDirection": "COL",
      "MRAcquisitionType": "2D",
      "MagneticFieldStrength": 3.0,
      "Manufacturer": "SIEMENS",
      "ManufacturerModelName": "Prisma",
      "Modality": "MR",
      "NumberOfAverages": 1.0,
      "NumberOfPhaseEncodingSteps": 82,
      "PercentPhaseFieldOfView": 100.0,
      "PercentSampling": 100.0,
      "PerformedProcedureStepStartTime": "185954.234000",
      "PhotometricInterpretation": "MONOCHROME2",
      "PixelBandwidth": 3050.0,
      "PixelRepresentation": 0,
      "PixelSpacing": [2.6829268932343, 2.6829268932343],
      "ProtocolName": "func_run-02_task-narratives_acq-ap-mb8",
      "RepetitionTime": 460.0,
      "Rows": 656,
      "SAR": 0.10046929301508,
      "SamplesPerPixel": 1,
      "ScanOptions": "FS",
      "ScanningSequence": "EP",
      "SequenceName": "epfid2d1_82",
      "SequenceVariant": [
        "SK",
        "SS"
],
      "SeriesDescription": "func_run-02_task-narratives_acq-ap-mb8",
      "SeriesNumber": 10,
      "SeriesTime": "192021.352000",
      "SliceLocation": -61.081585934408,
      "SliceThickness": 2.7000000476837,
      "SmallestImagePixelValue": 0,
      "SoftwareVersions": "syngo MR E11",
      "SpacingBetweenSlices": 2.7000000378788,
      "SpecificCharacterSet": "ISO_IR 100",
      "StudyID": "3",
      "StudyTime": "185954.192000",
      "TransmitCoilName": "Body",
      "VariableFlipAngleFlag": "N",
      "WindowCenterWidthExplanation": "Algo1",
      "dBdt": 0.0},
    "slices": {}
  },
  "time": {
    "samples": {
      "AcquisitionNumber": [1, 2, 3, 4, 5, 6, 7, 8, 9, 10, 11, 12, 13, 14, 15, 16, 17, 18, 19, 20, 21, 22, 23, 24, 25, 26, 27, 28, 29, 30, 31, 32, 33, 34, 35, 36, 37, 38, 39, 40, 41, 42, 43, 44, 45, 46, 47, 48, 49, 50, 51, 52, 53, 54, 55, 56, 57, 58, 59, 60, 61, 62, 63, 64, 65, 66, 67, 68, 69, 70, 71, 72, 73, 74, 75, 76, 77, 78, 79, 80, 81, 82, 83, 84, 85, 86, 87, 88, 89, 90, 91, 92, 93, 94, 95, 96, 97, 98, 99, 100, 101, 102, 103, 104, 105, 106, 107, 108, 109, 110, 111, 112, 113, 114, 115, 116, 117, 118, 119, 120, 121, 122, 123, 124, 125, 126, 127, 128, 129, 130, 131, 132, 133, 134, 135, 136, 137, 138, 139, 140, 141, 142, 143, 144, 145, 146, 147, 148, 149, 150, 151, 152, 153, 154, 155, 156, 157, 158, 159, 160, 161, 162, 163, 164, 165, 166, 167, 168, 169, 170, 171, 172, 173, 174, 175, 176, 177, 178, 179, 180, 181, 182, 183, 184, 185, 186, 187, 188, 189, 190, 191, 192, 193, 194, 195, 196, 197, 198, 199, 200, 201, 202, 203, 204, 205, 206, 207, 208, 209, 210, 211, 212, 213, 214, 215, 216, 217, 218, 219, 220, 221, 222, 223, 224, 225, 226, 227, 228, 229, 230, 231, 232, 233, 234, 235, 236, 237, 238, 239, 240, 241, 242, 243, 244, 245, 246, 247, 248, 249, 250, 251, 252, 253, 254, 255, 256, 257, 258, 259, 260, 261, 262, 263, 264, 265, 266, 267, 268, 269, 270, 271, 272, 273, 274, 275, 276, 277, 278, 279, 280, 281, 282, 283, 284, 285, 286, 287, 288, 289, 290, 291, 292, 293, 294, 295, 296, 297, 298, 299, 300, 301, 302, 303, 304, 305, 306, 307, 308, 309, 310, 311, 312, 313, 314, 315, 316, 317, 318, 319, 320, 321, 322, 323, 324, 325, 326, 327, 328, 329, 330, 331, 332, 333, 334, 335, 336, 337, 338, 339, 340, 341, 342, 343, 344, 345, 346, 347, 348, 349, 350, 351, 352, 353, 354, 355, 356, 357, 358, 359, 360, 361, 362, 363, 364, 365, 366, 367, 368, 369, 370, 371, 372, 373, 374, 375, 376, 377, 378, 379, 380, 381, 382, 383, 384, 385, 386, 387, 388, 389, 390, 391, 392, 393, 394, 395, 396, 397, 398, 399, 400, 401, 402, 403, 404, 405, 406, 407, 408, 409, 410, 411, 412, 413, 414, 415, 416, 417, 418, 419, 420, 421, 422, 423, 424, 425, 426, 427, 428, 429, 430, 431, 432, 433, 434, 435, 436, 437, 438, 439, 440, 441, 442, 443, 444, 445, 446, 447, 448, 449, 450, 451, 452, 453, 454, 455, 456, 457, 458, 459, 460, 461, 462, 463, 464, 465, 466, 467, 468, 469, 470, 471, 472, 473, 474, 475, 476, 477, 478, 479, 480, 481, 482, 483, 484, 485, 486, 487, 488, 489, 490, 491, 492, 493, 494, 495, 496, 497, 498, 499, 500, 501, 502, 503, 504, 505, 506, 507, 508, 509, 510, 511, 512, 513, 514, 515, 516, 517, 518, 519, 520, 521, 522, 523, 524, 525, 526, 527, 528, 529, 530, 531, 532, 533, 534, 535, 536, 537, 538, 539, 540, 541, 542, 543, 544, 545, 546, 547, 548, 549, 550, 551, 552, 553, 554, 555, 556, 557, 558, 559, 560, 561, 562, 563, 564, 565, 566, 567, 568, 569, 570, 571, 572, 573, 574, 575, 576, 577, 578, 579, 580, 581, 582, 583, 584, 585, 586, 587, 588, 589, 590, 591, 592, 593, 594, 595, 596, 597, 598, 599, 600, 601, 602, 603, 604, 605, 606, 607, 608, 609, 610, 611, 612, 613, 614, 615, 616, 617, 618, 619, 620, 621, 622, 623, 624, 625, 626, 627, 628, 629, 630, 631, 632, 633, 634, 635, 636, 637, 638, 639, 640, 641, 642, 643, 644, 645, 646, 647, 648, 649, 650, 651, 652, 653, 654, 655, 656, 657, 658, 659, 660, 661, 662, 663, 664, 665, 666, 667, 668, 669, 670, 671, 672, 673, 674, 675, 676, 677, 678, 679, 680, 681, 682, 683, 684, 685, 686, 687, 688, 689, 690, 691, 692, 693, 694, 695, 696, 697, 698, 699, 700, 701, 702, 703, 704, 705, 706, 707, 708, 709, 710, 711, 712, 713, 714, 715, 716, 717, 718, 719, 720, 721, 722, 723, 724, 725, 726, 727, 728, 729, 730, 731, 732, 733, 734, 735, 736, 737, 738, 739, 740, 741, 742, 743, 744, 745, 746, 747, 748, 749, 750, 751, 752, 753, 754, 755, 756, 757, 758, 759, 760, 761, 762, 763, 764, 765, 766, 767, 768, 769, 770, 771, 772, 773, 774, 775, 776, 777, 778, 779, 780, 781, 782, 783, 784, 785, 786, 787, 788, 789, 790, 791, 792, 793, 794, 795, 796, 797, 798, 799, 800, 801, 802, 803, 804, 805, 806, 807, 808, 809, 810, 811, 812, 813, 814, 815, 816, 817, 818, 819, 820, 821, 822, 823, 824, 825, 826, 827, 828, 829, 830, 831, 832, 833, 834, 835, 836, 837, 838, 839, 840, 841, 842, 843, 844, 845, 846, 847, 848, 849, 850, 851, 852, 853, 854, 855, 856, 857, 858, 859, 860, 861, 862, 863, 864, 865, 866, 867, 868, 869, 870, 871, 872, 873, 874, 875, 876, 877, 878, 879, 880, 881, 882, 883, 884, 885, 886, 887, 888, 889, 890, 891, 892, 893, 894, 895, 896, 897, 898, 899, 900, 901, 902, 903, 904, 905, 906, 907, 908, 909, 910, 911, 912, 913, 914, 915, 916, 917, 918, 919, 920, 921, 922, 923, 924, 925, 926, 927, 928, 929, 930, 931, 932, 933, 934, 935, 936, 937, 938, 939, 940, 941, 942, 943, 944, 945, 946, 947, 948, 949, 950, 951, 952, 953, 954, 955, 956, 957, 958, 959, 960, 961, 962, 963, 964, 965, 966, 967, 968, 969, 970, 971, 972, 973, 974, 975, 976, 977, 978, 979, 980, 981, 982, 983, 984, 985, 986, 987, 988, 989, 990, 991, 992, 993, 994, 995, 996, 997, 998, 999, 1000, 1001, 1002, 1003, 1004, 1005, 1006, 1007, 1008, 1009, 1010, 1011, 1012, 1013, 1014, 1015, 1016, 1017, 1018, 1019, 1020, 1021, 1022, 1023, 1024, 1025, 1026, 1027, 1028, 1029, 1030, 1031, 1032, 1033, 1034, 1035, 1036, 1037, 1038, 1039, 1040, 1041, 1042, 1043, 1044, 1045, 1046, 1047, 1048, 1049, 1050, 1051, 1052, 1053, 1054, 1055, 1056, 1057, 1058, 1059, 1060, 1061, 1062, 1063, 1064, 1065, 1066, 1067, 1068, 1069, 1070, 1071, 1072, 1073, 1074, 1075, 1076, 1077, 1078, 1079, 1080, 1081, 1082, 1083, 1084, 1085, 1086, 1087, 1088, 1089, 1090, 1091, 1092, 1093, 1094, 1095, 1096, 1097, 1098],
      "AcquisitionTime": ["192004.220000", "192004.680000", "192005.140000", "192005.600000", "192006.060000", "192006.520000", "192006.980000", "192007.440000", "192007.900000", "192008.360000", "192008.820000", "192009.280000", "192009.740000", "192010.200000", "192010.660000", "192011.120000", "192011.580000", "192012.040000", "192012.500000", "192012.960000", "192013.420000", "192013.880000", "192014.340000", "192014.800000", "192015.260000", "192015.720000", "192016.180000", "192016.640000", "192017.100000", "192017.560000", "192018.020000", "192018.480000", "192018.940000", "192019.400000", "192019.860000", "192020.320000", "192020.780000", "192021.240000", "192021.700000", "192022.160000", "192022.620000", "192023.080000", "192023.540000", "192024.000000", "192024.460000", "192024.920000", "192025.380000", "192025.840000", "192026.300000", "192026.760000", "192027.220000", "192027.680000", "192028.140000", "192028.600000", "192029.060000", "192029.520000", "192029.980000", "192030.440000", "192030.900000", "192031.360000", "192031.820000", "192032.280000", "192032.740000", "192033.200000", "192033.660000", "192034.120000", "192034.580000", "192035.040000", "192035.500000", "192035.960000", "192036.420000", "192036.880000", "192037.340000", "192037.800000", "192038.260000", "192038.720000", "192039.180000", "192039.640000", "192040.100000", "192040.560000", "192041.020000", "192041.480000", "192041.940000", "192042.400000", "192042.860000", "192043.320000", "192043.780000", "192044.240000", "192044.700000", "192045.160000", "192045.620000", "192046.080000", "192046.540000", "192047.000000", "192047.460000", "192047.920000", "192048.380000", "192048.840000", "192049.300000", "192049.760000", "192050.220000", "192050.680000", "192051.140000", "192051.600000", "192052.060000", "192052.520000", "192052.980000", "192053.440000", "192053.900000", "192054.360000", "192054.820000", "192055.280000", "192055.740000", "192056.200000", "192056.660000", "192057.120000", "192057.580000", "192058.040000", "192058.500000", "192058.960000", "192059.420000", "192059.880000", "192100.340000", "192100.800000", "192101.260000", "192101.720000", "192102.180000", "192102.640000", "192103.100000", "192103.560000", "192104.020000", "192104.480000", "192104.940000", "192105.400000", "192105.860000", "192106.320000", "192106.780000", "192107.240000", "192107.700000", "192108.160000", "192108.620000", "192109.080000", "192109.540000", "192110.000000", "192110.460000", "192110.920000", "192111.380000", "192111.840000", "192112.300000", "192112.760000", "192113.220000", "192113.680000", "192114.140000", "192114.600000", "192115.060000", "192115.520000", "192115.980000", "192116.440000", "192116.900000", "192117.360000", "192117.820000", "192118.280000", "192118.740000", "192119.200000", "192119.660000", "192120.120000", "192120.580000", "192121.040000", "192121.500000", "192121.960000", "192122.420000", "192122.880000", "192123.340000", "192123.800000", "192124.260000", "192124.720000", "192125.180000", "192125.640000", "192126.100000", "192126.560000", "192127.020000", "192127.480000", "192127.940000", "192128.400000", "192128.860000", "192129.320000", "192129.780000", "192130.240000", "192130.700000", "192131.160000", "192131.620000", "192132.080000", "192132.540000", "192133.000000", "192133.460000", "192133.920000", "192134.380000", "192134.840000", "192135.300000", "192135.760000", "192136.220000", "192136.680000", "192137.140000", "192137.600000", "192138.060000", "192138.520000", "192138.980000", "192139.440000", "192139.900000", "192140.360000", "192140.820000", "192141.280000", "192141.740000", "192142.200000", "192142.660000", "192143.120000", "192143.580000", "192144.040000", "192144.500000", "192144.960000", "192145.420000", "192145.880000", "192146.340000", "192146.800000", "192147.260000", "192147.720000", "192148.180000", "192148.640000", "192149.100000", "192149.560000", "192150.020000", "192150.480000", "192150.940000", "192151.400000", "192151.860000", "192152.320000", "192152.780000", "192153.240000", "192153.700000", "192154.160000", "192154.620000", "192155.080000", "192155.540000", "192156.000000", "192156.460000", "192156.920000", "192157.380000", "192157.840000", "192158.300000", "192158.760000", "192159.220000", "192159.680000", "192200.140000", "192200.600000", "192201.060000", "192201.520000", "192201.980000", "192202.440000", "192202.900000", "192203.360000", "192203.820000", "192204.280000", "192204.740000", "192205.200000", "192205.660000", "192206.120000", "192206.580000", "192207.040000", "192207.500000", "192207.960000", "192208.420000", "192208.880000", "192209.340000", "192209.800000", "192210.260000", "192210.720000", "192211.180000", "192211.640000", "192212.100000", "192212.560000", "192213.020000", "192213.480000", "192213.940000", "192214.400000", "192214.860000", "192215.320000", "192215.780000", "192216.240000", "192216.700000", "192217.160000", "192217.620000", "192218.080000", "192218.540000", "192219.000000", "192219.460000", "192219.920000", "192220.380000", "192220.840000", "192221.300000", "192221.760000", "192222.220000", "192222.680000", "192223.140000", "192223.600000", "192224.060000", "192224.520000", "192224.980000", "192225.440000", "192225.900000", "192226.360000", "192226.820000", "192227.280000", "192227.740000", "192228.200000", "192228.660000", "192229.120000", "192229.580000", "192230.040000", "192230.500000", "192230.960000", "192231.420000", "192231.880000", "192232.340000", "192232.800000", "192233.260000", "192233.720000", "192234.180000", "192234.640000", "192235.100000", "192235.560000", "192236.020000", "192236.480000", "192236.940000", "192237.400000", "192237.860000", "192238.320000", "192238.780000", "192239.240000", "192239.700000", "192240.160000", "192240.620000", "192241.080000", "192241.540000", "192242.000000", "192242.460000", "192242.920000", "192243.380000", "192243.840000", "192244.300000", "192244.760000", "192245.220000", "192245.680000", "192246.140000", "192246.600000", "192247.060000", "192247.520000", "192247.980000", "192248.440000", "192248.900000", "192249.360000", "192249.820000", "192250.280000", "192250.740000", "192251.200000", "192251.660000", "192252.120000", "192252.580000", "192253.040000", "192253.500000", "192253.960000", "192254.420000", "192254.880000", "192255.340000", "192255.800000", "192256.260000", "192256.720000", "192257.180000", "192257.640000", "192258.100000", "192258.560000", "192259.020000", "192259.480000", "192259.940000", "192300.400000", "192300.860000", "192301.320000", "192301.780000", "192302.240000", "192302.700000", "192303.160000", "192303.620000", "192304.080000", "192304.540000", "192305.000000", "192305.460000", "192305.920000", "192306.380000", "192306.840000", "192307.300000", "192307.760000", "192308.220000", "192308.680000", "192309.140000", "192309.600000", "192310.060000", "192310.520000", "192310.980000", "192311.440000", "192311.900000", "192312.360000", "192312.820000", "192313.280000", "192313.740000", "192314.200000", "192314.660000", "192315.120000", "192315.580000", "192316.040000", "192316.500000", "192316.960000", "192317.420000", "192317.880000", "192318.340000", "192318.800000", "192319.260000", "192319.720000", "192320.180000", "192320.640000", "192321.100000", "192321.560000", "192322.020000", "192322.480000", "192322.940000", "192323.400000", "192323.860000", "192324.320000", "192324.780000", "192325.240000", "192325.700000", "192326.160000", "192326.620000", "192327.080000", "192327.540000", "192328.000000", "192328.460000", "192328.920000", "192329.380000", "192329.840000", "192330.300000", "192330.760000", "192331.220000", "192331.680000", "192332.140000", "192332.600000", "192333.060000", "192333.520000", "192333.980000", "192334.440000", "192334.900000", "192335.360000", "192335.820000", "192336.280000", "192336.740000", "192337.200000", "192337.660000", "192338.120000", "192338.580000", "192339.040000", "192339.500000", "192339.960000", "192340.420000", "192340.880000", "192341.340000", "192341.800000", "192342.260000", "192342.720000", "192343.180000", "192343.640000", "192344.100000", "192344.560000", "192345.020000", "192345.480000", "192345.940000", "192346.400000", "192346.860000", "192347.320000", "192347.780000", "192348.240000", "192348.700000", "192349.160000", "192349.620000", "192350.080000", "192350.540000", "192351.000000", "192351.460000", "192351.920000", "192352.380000", "192352.840000", "192353.300000", "192353.760000", "192354.220000", "192354.680000", "192355.140000", "192355.600000", "192356.060000", "192356.520000", "192356.980000", "192357.440000", "192357.900000", "192358.360000", "192358.820000", "192359.280000", "192359.740000", "192400.200000", "192400.660000", "192401.120000", "192401.580000", "192402.040000", "192402.500000", "192402.960000", "192403.420000", "192403.880000", "192404.340000", "192404.800000", "192405.260000", "192405.720000", "192406.180000", "192406.640000", "192407.100000", "192407.560000", "192408.020000", "192408.480000", "192408.940000", "192409.400000", "192409.860000", "192410.320000", "192410.780000", "192411.240000", "192411.700000", "192412.160000", "192412.620000", "192413.080000", "192413.540000", "192414.000000", "192414.460000", "192414.920000", "192415.380000", "192415.840000", "192416.300000", "192416.760000", "192417.220000", "192417.680000", "192418.140000", "192418.600000", "192419.060000", "192419.520000", "192419.980000", "192420.440000", "192420.900000", "192421.360000", "192421.820000", "192422.280000", "192422.740000", "192423.200000", "192423.660000", "192424.120000", "192424.580000", "192425.040000", "192425.500000", "192425.960000", "192426.420000", "192426.880000", "192427.340000", "192427.800000", "192428.260000", "192428.720000", "192429.180000", "192429.640000", "192430.100000", "192430.560000", "192431.020000", "192431.480000", "192431.940000", "192432.400000", "192432.860000", "192433.320000", "192433.780000", "192434.240000", "192434.700000", "192435.160000", "192435.620000", "192436.080000", "192436.540000", "192437.000000", "192437.460000", "192437.920000", "192438.380000", "192438.840000", "192439.300000", "192439.760000", "192440.220000", "192440.680000", "192441.140000", "192441.600000", "192442.060000", "192442.520000", "192442.980000", "192443.440000", "192443.900000", "192444.360000", "192444.820000", "192445.280000", "192445.740000", "192446.200000", "192446.660000", "192447.120000", "192447.580000", "192448.040000", "192448.500000", "192448.960000", "192449.420000", "192449.880000", "192450.340000", "192450.800000", "192451.260000", "192451.720000", "192452.180000", "192452.640000", "192453.100000", "192453.560000", "192454.020000", "192454.480000", "192454.940000", "192455.400000", "192455.860000", "192456.320000", "192456.780000", "192457.240000", "192457.700000", "192458.160000", "192458.620000", "192459.080000", "192459.540000", "192500.000000", "192500.460000", "192500.920000", "192501.380000", "192501.840000", "192502.300000", "192502.760000", "192503.220000", "192503.680000", "192504.140000", "192504.600000", "192505.060000", "192505.520000", "192505.980000", "192506.440000", "192506.900000", "192507.360000", "192507.820000", "192508.280000", "192508.740000", "192509.200000", "192509.660000", "192510.120000", "192510.580000", "192511.040000", "192511.500000", "192511.960000", "192512.420000", "192512.880000", "192513.340000", "192513.800000", "192514.260000", "192514.720000", "192515.180000", "192515.640000", "192516.100000", "192516.560000", "192517.020000", "192517.480000", "192517.940000", "192518.400000", "192518.860000", "192519.320000", "192519.780000", "192520.240000", "192520.700000", "192521.160000", "192521.620000", "192522.080000", "192522.540000", "192523.000000", "192523.460000", "192523.920000", "192524.380000", "192524.840000", "192525.300000", "192525.760000", "192526.220000", "192526.680000", "192527.140000", "192527.600000", "192528.060000", "192528.520000", "192528.980000", "192529.440000", "192529.900000", "192530.360000", "192530.820000", "192531.280000", "192531.740000", "192532.200000", "192532.660000", "192533.120000", "192533.580000", "192534.040000", "192534.500000", "192534.960000", "192535.420000", "192535.880000", "192536.340000", "192536.800000", "192537.260000", "192537.720000", "192538.180000", "192538.640000", "192539.100000", "192539.560000", "192540.020000", "192540.480000", "192540.940000", "192541.400000", "192541.860000", "192542.320000", "192542.780000", "192543.240000", "192543.700000", "192544.160000", "192544.620000", "192545.080000", "192545.540000", "192546.000000", "192546.460000", "192546.920000", "192547.380000", "192547.840000", "192548.300000", "192548.760000", "192549.220000", "192549.680000", "192550.140000", "192550.600000", "192551.060000", "192551.520000", "192551.980000", "192552.440000", "192552.900000", "192553.360000", "192553.820000", "192554.280000", "192554.740000", "192555.200000", "192555.660000", "192556.120000", "192556.580000", "192557.040000", "192557.500000", "192557.960000", "192558.420000", "192558.880000", "192559.340000", "192559.800000", "192600.260000", "192600.720000", "192601.180000", "192601.640000", "192602.100000", "192602.560000", "192603.020000", "192603.480000", "192603.940000", "192604.400000", "192604.860000", "192605.320000", "192605.780000", "192606.240000", "192606.700000", "192607.160000", "192607.620000", "192608.080000", "192608.540000", "192609.000000", "192609.460000", "192609.920000", "192610.380000", "192610.840000", "192611.300000", "192611.760000", "192612.220000", "192612.680000", "192613.140000", "192613.600000", "192614.060000", "192614.520000", "192614.980000", "192615.440000", "192615.900000", "192616.360000", "192616.820000", "192617.280000", "192617.740000", "192618.200000", "192618.660000", "192619.120000", "192619.580000", "192620.040000", "192620.500000", "192620.960000", "192621.420000", "192621.880000", "192622.340000", "192622.800000", "192623.260000", "192623.720000", "192624.180000", "192624.640000", "192625.100000", "192625.560000", "192626.020000", "192626.480000", "192626.940000", "192627.400000", "192627.860000", "192628.320000", "192628.780000", "192629.240000", "192629.700000", "192630.160000", "192630.620000", "192631.080000", "192631.540000", "192632.000000", "192632.460000", "192632.920000", "192633.380000", "192633.840000", "192634.300000", "192634.760000", "192635.220000", "192635.680000", "192636.140000", "192636.600000", "192637.060000", "192637.520000", "192637.980000", "192638.440000", "192638.900000", "192639.360000", "192639.820000", "192640.280000", "192640.740000", "192641.200000", "192641.660000", "192642.120000", "192642.580000", "192643.040000", "192643.500000", "192643.960000", "192644.420000", "192644.880000", "192645.340000", "192645.800000", "192646.260000", "192646.720000", "192647.180000", "192647.640000", "192648.100000", "192648.560000", "192649.020000", "192649.480000", "192649.940000", "192650.400000", "192650.860000", "192651.320000", "192651.780000", "192652.240000", "192652.700000", "192653.160000", "192653.620000", "192654.080000", "192654.540000", "192655.000000", "192655.460000", "192655.920000", "192656.380000", "192656.840000", "192657.300000", "192657.760000", "192658.220000", "192658.680000", "192659.140000", "192659.600000", "192700.060000", "192700.520000", "192700.980000", "192701.440000", "192701.900000", "192702.360000", "192702.820000", "192703.280000", "192703.740000", "192704.200000", "192704.660000", "192705.120000", "192705.580000", "192706.040000", "192706.500000", "192706.960000", "192707.420000", "192707.880000", "192708.340000", "192708.800000", "192709.260000", "192709.720000", "192710.180000", "192710.640000", "192711.100000", "192711.560000", "192712.020000", "192712.480000", "192712.940000", "192713.400000", "192713.860000", "192714.320000", "192714.780000", "192715.240000", "192715.700000", "192716.160000", "192716.620000", "192717.080000", "192717.540000", "192718.000000", "192718.460000", "192718.920000", "192719.380000", "192719.840000", "192720.300000", "192720.760000", "192721.220000", "192721.680000", "192722.140000", "192722.600000", "192723.060000", "192723.520000", "192723.980000", "192724.440000", "192724.900000", "192725.360000", "192725.820000", "192726.280000", "192726.740000", "192727.200000", "192727.660000", "192728.120000", "192728.580000", "192729.040000", "192729.500000", "192729.960000", "192730.420000", "192730.880000", "192731.340000", "192731.800000", "192732.260000", "192732.720000", "192733.180000", "192733.640000", "192734.100000", "192734.560000", "192735.020000", "192735.480000", "192735.940000", "192736.400000", "192736.860000", "192737.320000", "192737.780000", "192738.240000", "192738.700000", "192739.160000", "192739.620000", "192740.080000", "192740.540000", "192741.000000", "192741.460000", "192741.920000", "192742.380000", "192742.840000", "192743.300000", "192743.760000", "192744.220000", "192744.680000", "192745.140000", "192745.600000", "192746.060000", "192746.520000", "192746.980000", "192747.440000", "192747.900000", "192748.360000", "192748.820000", "192749.280000", "192749.740000", "192750.200000", "192750.660000", "192751.120000", "192751.580000", "192752.040000", "192752.500000", "192752.960000", "192753.420000", "192753.880000", "192754.340000", "192754.800000", "192755.260000", "192755.720000", "192756.180000", "192756.640000", "192757.100000", "192757.560000", "192758.020000", "192758.480000", "192758.940000", "192759.400000", "192759.860000", "192800.320000", "192800.780000", "192801.240000", "192801.700000", "192802.160000", "192802.620000", "192803.080000", "192803.540000", "192804.000000", "192804.460000", "192804.920000", "192805.380000", "192805.840000", "192806.300000", "192806.760000", "192807.220000", "192807.680000", "192808.140000", "192808.600000", "192809.060000", "192809.520000", "192809.980000", "192810.440000", "192810.900000", "192811.360000", "192811.820000", "192812.280000", "192812.740000", "192813.200000", "192813.660000", "192814.120000", "192814.580000", "192815.040000", "192815.500000", "192815.960000", "192816.420000", "192816.880000", "192817.340000", "192817.800000", "192818.260000", "192818.720000", "192819.180000", "192819.640000", "192820.100000", "192820.560000", "192821.020000", "192821.480000", "192821.940000", "192822.400000", "192822.860000", "192823.320000", "192823.780000", "192824.240000", "192824.700000", "192825.160000", "192825.620000", "192826.080000", "192826.540000", "192827.000000", "192827.460000", "192827.920000", "192828.380000", "192828.840000"],
