{
  "AcquisitionMatrixPE": 82,
  "AcquisitionNumber": 1,
  "AcquisitionTime": "20:48:11.677500",
  "BandwidthPerPixelPhaseEncode": 24.888,
  "BaseResolution": 82,
  "BodyPartExamined": "BRAIN",
  "ConsistencyInfo": "N4_VE11C_LATEST_20160120",
  "ConversionSoftware": "dcm2niix",
  "ConversionSoftwareVersion": "v1.0.20201102",
  "DerivedVendorReportedEchoSpacing": 0.00049,
  "DeviceSerialNumber": "66112",
  "DwellTime": 2e-06,
  "EchoTime": 0.0272,
  "EchoTrainLength": 82,
  "EffectiveEchoSpacing": 0.00049,
  "FlipAngle": 44,
  "ImageComments": "Unaliased MB8/PE3",
  "ImageOrientationPatientDICOM": [0.998444, 0.0392077, 0.0396552, -0.0451644, 0.985654, 0.162626],
  "ImageType": [
    "ORIGINAL",
    "PRIMARY",
    "M",
    "MB",
    "ND",
    "NORM",
    "MOSAIC"
],
  "ImagingFrequency": 123.252,
  "InPlanePhaseEncodingDirectionDICOM": "COL",
  "InstitutionAddress": "Maynard 3,Hanover,NH,US,03755",
  "InstitutionName": "Dartmouth College - PBS",
  "InstitutionalDepartmentName": "Department",
  "MRAcquisitionType": "2D",
  "MagneticFieldStrength": 3,
  "Manufacturer": "Siemens",
  "ManufacturersModelName": "Prisma",
  "Modality": "MR",
  "MultibandAccelerationFactor": 8,
  "PartialFourier": 1,
  "PatientPosition": "HFS",
  "PercentPhaseFOV": 100,
  "PercentSampling": 100,
  "PhaseEncodingDirection": "j-",
  "PhaseEncodingSteps": 82,
  "PhaseResolution": 1,
  "PixelBandwidth": 3050,
  "ProcedureStepDescription": "Wager_Wager^1076_spacetop",
  "ProtocolName": "func_run-04_task-alignvideo_acq-ap-mb8",
  "PulseSequenceDetails": "%CustomerSeq%\\cmrr_mbep2d_bold",
  "ReceiveCoilActiveElements": "HEA;HEP",
  "ReceiveCoilName": "Head_32",
  "ReconMatrixPE": 82,
  "RepetitionTime": 0.46,
  "SAR": 0.100369,
  "ScanOptions": "FS",
  "ScanningSequence": "EP",
  "SequenceName": "epfid2d1_82",
  "SequenceVariant": "SK\\SS",
  "SeriesDescription": "func_run-04_task-alignvideo_acq-ap-mb8",
  "SeriesNumber": 34,
  "ShimSetting": [4150, -7759, -7242, 666, -42, -195, 5, 74],
  "SliceThickness": 2.7,
  "SliceTiming": [0, 0.2525, 0.0625, 0.315, 0.125, 0.3775, 0.1875, 0, 0.2525, 0.0625, 0.315, 0.125, 0.3775, 0.1875, 0, 0.2525, 0.0625, 0.315, 0.125, 0.3775, 0.1875, 0, 0.2525, 0.0625, 0.315, 0.125, 0.3775, 0.1875, 0, 0.2525, 0.0625, 0.315, 0.125, 0.3775, 0.1875, 0, 0.2525, 0.0625, 0.315, 0.125, 0.3775, 0.1875, 0, 0.2525, 0.0625, 0.315, 0.125, 0.3775, 0.1875, 0, 0.2525, 0.0625, 0.315, 0.125, 0.3775, 0.1875],
  "SoftwareVersions": "syngo MR E11",
  "SpacingBetweenSlices": 2.7,
  "StationName": "AWP66112",
  "TaskName": "alignvideo",
  "TotalReadoutTime": 0.03969,
  "TxRefAmp": 238.862,
  "WipMemBlock": "e5193fa5-16c6-471a-8b63-1fe9a31b93fd||Sequence: R016 ve11c/master r/e634e98; Dec 19 2017 11:00:25 by eja",
  "dcmmeta_affine": [
    [-2.6787519454956055, -0.12117280811071396, 0.08831733465194702, 115.96089172363281],
    [-0.10519128292798996, 2.6444365978240967, 0.44324198365211487, -105.52169799804688],
    [0.1063920184969902, -0.4363130033016205, 2.661904811859131, -47.50556182861328],
    [0.0, 0.0, 0.0, 1.0]
],
  "dcmmeta_reorient_transform": [
    [0.0, -1.0, 0.0, 81.0],
    [1.0, 0.0, 0.0, 0.0],
    [0.0, 0.0, 1.0, 0.0],
    [0.0, 0.0, 0.0, 1.0]
],
  "dcmmeta_shape": [82, 82, 56, 914],
  "dcmmeta_slice_dim": 2,
  "dcmmeta_version": 0.6,
  "global": {
    "const": {
      "AccessionNumber": "A003829",
      "AcquisitionMatrix": [82, 0, 0, 82],
      "AngioFlag": "N",
      "BitsAllocated": 16,
      "BitsStored": 16,
      "BodyPartExamined": "BRAIN",
      "Columns": 656,
      "EchoNumbers": 1,
      "EchoTime": 27.2,
      "EchoTrainLength": 82,
      "FlipAngle": 44.0,
      "HighBit": 15,
      "ImageOrientationPatient": [0.99844390123914, 0.03920766044155, 0.03965520698565, -0.0451644101166, 0.98565361155666, 0.1626257485275],
      "ImagePositionPatient": [-840.17111878251, -897.82086392987, -238.60325339638],
      "ImageType": [
        "ORIGINAL",
        "PRIMARY",
        "M",
        "MB",
        "ND",
        "NORM",
        "MOSAIC"
],
      "ImagedNucleus": "1H",
      "ImagingFrequency": 123.252221,
      "InPlanePhaseEncodingDirection": "COL",
      "MRAcquisitionType": "2D",
      "MagneticFieldStrength": 3.0,
      "Manufacturer": "SIEMENS",
      "ManufacturerModelName": "Prisma",
      "Modality": "MR",
      "NumberOfAverages": 1.0,
      "NumberOfPhaseEncodingSteps": 82,
      "PercentPhaseFieldOfView": 100.0,
      "PercentSampling": 100.0,
      "PerformedProcedureStepStartTime": "185954.234000",
      "PhotometricInterpretation": "MONOCHROME2",
      "PixelBandwidth": 3050.0,
      "PixelRepresentation": 0,
      "PixelSpacing": [2.6829268932343, 2.6829268932343],
      "ProtocolName": "func_run-04_task-alignvideo_acq-ap-mb8",
      "RepetitionTime": 460.0,
      "Rows": 656,
      "SAR": 0.10036931669431,
      "SamplesPerPixel": 1,
      "ScanOptions": "FS",
      "ScanningSequence": "EP",
      "SequenceName": "epfid2d1_82",
      "SequenceVariant": [
        "SK",
        "SS"
],
      "SeriesDescription": "func_run-04_task-alignvideo_acq-ap-mb8",
      "SeriesNumber": 34,
      "SeriesTime": "204841.364000",
      "SliceLocation": -60.365024100927,
      "SliceThickness": 2.7000000476837,
      "SmallestImagePixelValue": 0,
      "SoftwareVersions": "syngo MR E11",
      "SpacingBetweenSlices": 2.7000000736418,
      "SpecificCharacterSet": "ISO_IR 100",
      "StudyID": "3",
      "StudyTime": "185954.192000",
      "TransmitCoilName": "Body",
      "VariableFlipAngleFlag": "N",
      "WindowCenterWidthExplanation": "Algo1",
      "dBdt": 0.0},
    "slices": {}
  },
  "time": {
    "samples": {
      "AcquisitionNumber": [1, 2, 3, 4, 5, 6, 7, 8, 9, 10, 11, 12, 13, 14, 15, 16, 17, 18, 19, 20, 21, 22, 23, 24, 25, 26, 27, 28, 29, 30, 31, 32, 33, 34, 35, 36, 37, 38, 39, 40, 41, 42, 43, 44, 45, 46, 47, 48, 49, 50, 51, 52, 53, 54, 55, 56, 57, 58, 59, 60, 61, 62, 63, 64, 65, 66, 67, 68, 69, 70, 71, 72, 73, 74, 75, 76, 77, 78, 79, 80, 81, 82, 83, 84, 85, 86, 87, 88, 89, 90, 91, 92, 93, 94, 95, 96, 97, 98, 99, 100, 101, 102, 103, 104, 105, 106, 107, 108, 109, 110, 111, 112, 113, 114, 115, 116, 117, 118, 119, 120, 121, 122, 123, 124, 125, 126, 127, 128, 129, 130, 131, 132, 133, 134, 135, 136, 137, 138, 139, 140, 141, 142, 143, 144, 145, 146, 147, 148, 149, 150, 151, 152, 153, 154, 155, 156, 157, 158, 159, 160, 161, 162, 163, 164, 165, 166, 167, 168, 169, 170, 171, 172, 173, 174, 175, 176, 177, 178, 179, 180, 181, 182, 183, 184, 185, 186, 187, 188, 189, 190, 191, 192, 193, 194, 195, 196, 197, 198, 199, 200, 201, 202, 203, 204, 205, 206, 207, 208, 209, 210, 211, 212, 213, 214, 215, 216, 217, 218, 219, 220, 221, 222, 223, 224, 225, 226, 227, 228, 229, 230, 231, 232, 233, 234, 235, 236, 237, 238, 239, 240, 241, 242, 243, 244, 245, 246, 247, 248, 249, 250, 251, 252, 253, 254, 255, 256, 257, 258, 259, 260, 261, 262, 263, 264, 265, 266, 267, 268, 269, 270, 271, 272, 273, 274, 275, 276, 277, 278, 279, 280, 281, 282, 283, 284, 285, 286, 287, 288, 289, 290, 291, 292, 293, 294, 295, 296, 297, 298, 299, 300, 301, 302, 303, 304, 305, 306, 307, 308, 309, 310, 311, 312, 313, 314, 315, 316, 317, 318, 319, 320, 321, 322, 323, 324, 325, 326, 327, 328, 329, 330, 331, 332, 333, 334, 335, 336, 337, 338, 339, 340, 341, 342, 343, 344, 345, 346, 347, 348, 349, 350, 351, 352, 353, 354, 355, 356, 357, 358, 359, 360, 361, 362, 363, 364, 365, 366, 367, 368, 369, 370, 371, 372, 373, 374, 375, 376, 377, 378, 379, 380, 381, 382, 383, 384, 385, 386, 387, 388, 389, 390, 391, 392, 393, 394, 395, 396, 397, 398, 399, 400, 401, 402, 403, 404, 405, 406, 407, 408, 409, 410, 411, 412, 413, 414, 415, 416, 417, 418, 419, 420, 421, 422, 423, 424, 425, 426, 427, 428, 429, 430, 431, 432, 433, 434, 435, 436, 437, 438, 439, 440, 441, 442, 443, 444, 445, 446, 447, 448, 449, 450, 451, 452, 453, 454, 455, 456, 457, 458, 459, 460, 461, 462, 463, 464, 465, 466, 467, 468, 469, 470, 471, 472, 473, 474, 475, 476, 477, 478, 479, 480, 481, 482, 483, 484, 485, 486, 487, 488, 489, 490, 491, 492, 493, 494, 495, 496, 497, 498, 499, 500, 501, 502, 503, 504, 505, 506, 507, 508, 509, 510, 511, 512, 513, 514, 515, 516, 517, 518, 519, 520, 521, 522, 523, 524, 525, 526, 527, 528, 529, 530, 531, 532, 533, 534, 535, 536, 537, 538, 539, 540, 541, 542, 543, 544, 545, 546, 547, 548, 549, 550, 551, 552, 553, 554, 555, 556, 557, 558, 559, 560, 561, 562, 563, 564, 565, 566, 567, 568, 569, 570, 571, 572, 573, 574, 575, 576, 577, 578, 579, 580, 581, 582, 583, 584, 585, 586, 587, 588, 589, 590, 591, 592, 593, 594, 595, 596, 597, 598, 599, 600, 601, 602, 603, 604, 605, 606, 607, 608, 609, 610, 611, 612, 613, 614, 615, 616, 617, 618, 619, 620, 621, 622, 623, 624, 625, 626, 627, 628, 629, 630, 631, 632, 633, 634, 635, 636, 637, 638, 639, 640, 641, 642, 643, 644, 645, 646, 647, 648, 649, 650, 651, 652, 653, 654, 655, 656, 657, 658, 659, 660, 661, 662, 663, 664, 665, 666, 667, 668, 669, 670, 671, 672, 673, 674, 675, 676, 677, 678, 679, 680, 681, 682, 683, 684, 685, 686, 687, 688, 689, 690, 691, 692, 693, 694, 695, 696, 697, 698, 699, 700, 701, 702, 703, 704, 705, 706, 707, 708, 709, 710, 711, 712, 713, 714, 715, 716, 717, 718, 719, 720, 721, 722, 723, 724, 725, 726, 727, 728, 729, 730, 731, 732, 733, 734, 735, 736, 737, 738, 739, 740, 741, 742, 743, 744, 745, 746, 747, 748, 749, 750, 751, 752, 753, 754, 755, 756, 757, 758, 759, 760, 761, 762, 763, 764, 765, 766, 767, 768, 769, 770, 771, 772, 773, 774, 775, 776, 777, 778, 779, 780, 781, 782, 783, 784, 785, 786, 787, 788, 789, 790, 791, 792, 793, 794, 795, 796, 797, 798, 799, 800, 801, 802, 803, 804, 805, 806, 807, 808, 809, 810, 811, 812, 813, 814, 815, 816, 817, 818, 819, 820, 821, 822, 823, 824, 825, 826, 827, 828, 829, 830, 831, 832, 833, 834, 835, 836, 837, 838, 839, 840, 841, 842, 843, 844, 845, 846, 847, 848, 849, 850, 851, 852, 853, 854, 855, 856, 857, 858, 859, 860, 861, 862, 863, 864, 865, 866, 867, 868, 869, 870, 871, 872, 873, 874, 875, 876, 877, 878, 879, 880, 881, 882, 883, 884, 885, 886, 887, 888, 889, 890, 891, 892, 893, 894, 895, 896, 897, 898, 899, 900, 901, 902, 903, 904, 905, 906, 907, 908, 909, 910, 911, 912, 913, 914],
      "AcquisitionTime": ["204811.677500", "204812.137500", "204812.597500", "204813.057500", "204813.517500", "204813.977500", "204814.437500", "204814.897500", "204815.357500", "204815.817500", "204816.277500", "204816.737500", "204817.197500", "204817.657500", "204818.117500", "204818.577500", "204819.037500", "204819.497500", "204819.957500", "204820.417500", "204820.877500", "204821.337500", "204821.797500", "204822.257500", "204822.717500", "204823.177500", "204823.637500", "204824.097500", "204824.557500", "204825.017500", "204825.477500", "204825.937500", "204826.397500", "204826.857500", "204827.317500", "204827.777500", "204828.237500", "204828.697500", "204829.157500", "204829.617500", "204830.077500", "204830.537500", "204830.997500", "204831.457500", "204831.917500", "204832.377500", "204832.837500", "204833.297500", "204833.757500", "204834.217500", "204834.677500", "204835.137500", "204835.597500", "204836.057500", "204836.517500", "204836.977500", "204837.437500", "204837.897500", "204838.357500", "204838.817500", "204839.277500", "204839.737500", "204840.197500", "204840.657500", "204841.117500", "204841.577500", "204842.037500", "204842.497500", "204842.957500", "204843.417500", "204843.877500", "204844.337500", "204844.797500", "204845.257500", "204845.717500", "204846.177500", "204846.637500", "204847.097500", "204847.557500", "204848.017500", "204848.477500", "204848.937500", "204849.397500", "204849.857500", "204850.317500", "204850.777500", "204851.237500", "204851.697500", "204852.157500", "204852.617500", "204853.077500", "204853.537500", "204853.997500", "204854.457500", "204854.917500", "204855.377500", "204855.837500", "204856.297500", "204856.757500", "204857.217500", "204857.677500", "204858.137500", "204858.597500", "204859.057500", "204859.517500", "204859.977500", "204900.437500", "204900.897500", "204901.357500", "204901.817500", "204902.277500", "204902.737500", "204903.197500", "204903.657500", "204904.117500", "204904.577500", "204905.037500", "204905.497500", "204905.957500", "204906.417500", "204906.877500", "204907.337500", "204907.797500", "204908.257500", "204908.717500", "204909.177500", "204909.637500", "204910.097500", "204910.557500", "204911.017500", "204911.477500", "204911.937500", "204912.397500", "204912.857500", "204913.317500", "204913.777500", "204914.237500", "204914.697500", "204915.157500", "204915.617500", "204916.077500", "204916.537500", "204916.997500", "204917.457500", "204917.917500", "204918.377500", "204918.837500", "204919.297500", "204919.757500", "204920.217500", "204920.677500", "204921.137500", "204921.597500", "204922.057500", "204922.517500", "204922.977500", "204923.437500", "204923.897500", "204924.357500", "204924.817500", "204925.277500", "204925.737500", "204926.197500", "204926.657500", "204927.117500", "204927.577500", "204928.037500", "204928.497500", "204928.957500", "204929.417500", "204929.877500", "204930.337500", "204930.797500", "204931.257500", "204931.717500", "204932.177500", "204932.637500", "204933.097500", "204933.557500", "204934.017500", "204934.477500", "204934.937500", "204935.397500", "204935.857500", "204936.317500", "204936.777500", "204937.237500", "204937.697500", "204938.157500", "204938.617500", "204939.077500", "204939.537500", "204939.997500", "204940.457500", "204940.917500", "204941.377500", "204941.837500", "204942.297500", "204942.757500", "204943.217500", "204943.677500", "204944.137500", "204944.597500", "204945.057500", "204945.517500", "204945.977500", "204946.437500", "204946.897500", "204947.357500", "204947.817500", "204948.277500", "204948.737500", "204949.197500", "204949.657500", "204950.117500", "204950.577500", "204951.037500", "204951.497500", "204951.957500", "204952.417500", "204952.877500", "204953.337500", "204953.797500", "204954.257500", "204954.717500", "204955.177500", "204955.637500", "204956.097500", "204956.557500", "204957.017500", "204957.477500", "204957.937500", "204958.397500", "204958.857500", "204959.317500", "204959.777500", "205000.237500", "205000.697500", "205001.157500", "205001.617500", "205002.077500", "205002.537500", "205002.997500", "205003.457500", "205003.917500", "205004.377500", "205004.837500", "205005.297500", "205005.757500", "205006.217500", "205006.677500", "205007.137500", "205007.597500", "205008.057500", "205008.517500", "205008.977500", "205009.437500", "205009.897500", "205010.357500", "205010.817500", "205011.277500", "205011.737500", "205012.197500", "205012.657500", "205013.117500", "205013.577500", "205014.037500", "205014.497500", "205014.957500", "205015.417500", "205015.877500", "205016.337500", "205016.797500", "205017.257500", "205017.717500", "205018.177500", "205018.637500", "205019.097500", "205019.557500", "205020.017500", "205020.477500", "205020.937500", "205021.397500", "205021.857500", "205022.317500", "205022.777500", "205023.237500", "205023.697500", "205024.157500", "205024.617500", "205025.077500", "205025.537500", "205025.997500", "205026.457500", "205026.917500", "205027.377500", "205027.837500", "205028.297500", "205028.757500", "205029.217500", "205029.677500", "205030.137500", "205030.597500", "205031.057500", "205031.517500", "205031.977500", "205032.437500", "205032.897500", "205033.357500", "205033.817500", "205034.277500", "205034.737500", "205035.197500", "205035.657500", "205036.117500", "205036.577500", "205037.037500", "205037.497500", "205037.957500", "205038.417500", "205038.877500", "205039.337500", "205039.797500", "205040.257500", "205040.717500", "205041.177500", "205041.637500", "205042.097500", "205042.557500", "205043.017500", "205043.477500", "205043.937500", "205044.397500", "205044.857500", "205045.317500", "205045.777500", "205046.237500", "205046.697500", "205047.157500", "205047.617500", "205048.077500", "205048.537500", "205048.997500", "205049.457500", "205049.917500", "205050.377500", "205050.837500", "205051.297500", "205051.757500", "205052.217500", "205052.677500", "205053.137500", "205053.597500", "205054.057500", "205054.517500", "205054.977500", "205055.437500", "205055.897500", "205056.357500", "205056.817500", "205057.277500", "205057.737500", "205058.197500", "205058.657500", "205059.117500", "205059.577500", "205100.037500", "205100.497500", "205100.957500", "205101.417500", "205101.877500", "205102.337500", "205102.797500", "205103.257500", "205103.717500", "205104.177500", "205104.637500", "205105.097500", "205105.557500", "205106.017500", "205106.477500", "205106.937500", "205107.397500", "205107.857500", "205108.317500", "205108.777500", "205109.237500", "205109.697500", "205110.157500", "205110.617500", "205111.077500", "205111.537500", "205111.997500", "205112.457500", "205112.917500", "205113.377500", "205113.837500", "205114.297500", "205114.757500", "205115.217500", "205115.677500", "205116.137500", "205116.597500", "205117.057500", "205117.517500", "205117.977500", "205118.437500", "205118.897500", "205119.357500", "205119.817500", "205120.277500", "205120.737500", "205121.197500", "205121.657500", "205122.117500", "205122.577500", "205123.037500", "205123.497500", "205123.957500", "205124.417500", "205124.877500", "205125.337500", "205125.797500", "205126.257500", "205126.717500", "205127.177500", "205127.637500", "205128.097500", "205128.557500", "205129.017500", "205129.477500", "205129.937500", "205130.397500", "205130.857500", "205131.317500", "205131.777500", "205132.237500", "205132.697500", "205133.157500", "205133.617500", "205134.077500", "205134.537500", "205134.997500", "205135.457500", "205135.917500", "205136.377500", "205136.837500", "205137.297500", "205137.757500", "205138.217500", "205138.677500", "205139.137500", "205139.597500", "205140.057500", "205140.517500", "205140.977500", "205141.437500", "205141.897500", "205142.357500", "205142.817500", "205143.277500", "205143.737500", "205144.197500", "205144.657500", "205145.117500", "205145.577500", "205146.037500", "205146.497500", "205146.957500", "205147.417500", "205147.877500", "205148.337500", "205148.797500", "205149.257500", "205149.717500", "205150.177500", "205150.637500", "205151.097500", "205151.557500", "205152.017500", "205152.477500", "205152.937500", "205153.397500", "205153.857500", "205154.317500", "205154.777500", "205155.237500", "205155.697500", "205156.157500", "205156.617500", "205157.077500", "205157.537500", "205157.997500", "205158.457500", "205158.917500", "205159.377500", "205159.837500", "205200.297500", "205200.757500", "205201.217500", "205201.677500", "205202.137500", "205202.597500", "205203.057500", "205203.517500", "205203.977500", "205204.437500", "205204.897500", "205205.357500", "205205.817500", "205206.277500", "205206.737500", "205207.197500", "205207.657500", "205208.117500", "205208.577500", "205209.037500", "205209.497500", "205209.957500", "205210.417500", "205210.877500", "205211.337500", "205211.797500", "205212.257500", "205212.717500", "205213.177500", "205213.637500", "205214.097500", "205214.557500", "205215.017500", "205215.477500", "205215.937500", "205216.397500", "205216.857500", "205217.317500", "205217.777500", "205218.237500", "205218.697500", "205219.157500", "205219.617500", "205220.077500", "205220.537500", "205220.997500", "205221.457500", "205221.917500", "205222.377500", "205222.837500", "205223.297500", "205223.757500", "205224.217500", "205224.677500", "205225.137500", "205225.597500", "205226.057500", "205226.517500", "205226.977500", "205227.437500", "205227.897500", "205228.357500", "205228.817500", "205229.277500", "205229.737500", "205230.197500", "205230.657500", "205231.117500", "205231.577500", "205232.037500", "205232.497500", "205232.957500", "205233.417500", "205233.877500", "205234.337500", "205234.797500", "205235.257500", "205235.717500", "205236.177500", "205236.637500", "205237.097500", "205237.557500", "205238.017500", "205238.477500", "205238.937500", "205239.397500", "205239.857500", "205240.317500", "205240.777500", "205241.237500", "205241.697500", "205242.157500", "205242.617500", "205243.077500", "205243.537500", "205243.997500", "205244.457500", "205244.917500", "205245.377500", "205245.837500", "205246.297500", "205246.757500", "205247.217500", "205247.677500", "205248.137500", "205248.597500", "205249.057500", "205249.517500", "205249.977500", "205250.437500", "205250.897500", "205251.357500", "205251.817500", "205252.277500", "205252.737500", "205253.197500", "205253.657500", "205254.117500", "205254.577500", "205255.037500", "205255.497500", "205255.957500", "205256.417500", "205256.877500", "205257.337500", "205257.797500", "205258.257500", "205258.717500", "205259.177500", "205259.637500", "205300.097500", "205300.557500", "205301.017500", "205301.477500", "205301.937500", "205302.397500", "205302.857500", "205303.317500", "205303.777500", "205304.237500", "205304.697500", "205305.157500", "205305.617500", "205306.077500", "205306.537500", "205306.997500", "205307.457500", "205307.917500", "205308.377500", "205308.837500", "205309.297500", "205309.757500", "205310.217500", "205310.677500", "205311.137500", "205311.597500", "205312.057500", "205312.517500", "205312.977500", "205313.437500", "205313.897500", "205314.357500", "205314.817500", "205315.277500", "205315.737500", "205316.197500", "205316.657500", "205317.117500", "205317.577500", "205318.037500", "205318.497500", "205318.957500", "205319.417500", "205319.877500", "205320.337500", "205320.797500", "205321.257500", "205321.717500", "205322.177500", "205322.637500", "205323.097500", "205323.557500", "205324.017500", "205324.477500", "205324.937500", "205325.397500", "205325.857500", "205326.317500", "205326.777500", "205327.237500", "205327.697500", "205328.157500", "205328.617500", "205329.077500", "205329.537500", "205329.997500", "205330.457500", "205330.917500", "205331.377500", "205331.837500", "205332.297500", "205332.757500", "205333.217500", "205333.677500", "205334.137500", "205334.597500", "205335.057500", "205335.517500", "205335.977500", "205336.437500", "205336.897500", "205337.357500", "205337.817500", "205338.277500", "205338.737500", "205339.197500", "205339.657500", "205340.117500", "205340.577500", "205341.037500", "205341.497500", "205341.957500", "205342.417500", "205342.877500", "205343.337500", "205343.797500", "205344.257500", "205344.717500", "205345.177500", "205345.637500", "205346.097500", "205346.557500", "205347.017500", "205347.477500", "205347.937500", "205348.397500", "205348.857500", "205349.317500", "205349.777500", "205350.237500", "205350.697500", "205351.157500", "205351.617500", "205352.077500", "205352.537500", "205352.997500", "205353.457500", "205353.917500", "205354.377500", "205354.837500", "205355.297500", "205355.757500", "205356.217500", "205356.677500", "205357.137500", "205357.597500", "205358.057500", "205358.517500", "205358.977500", "205359.437500", "205359.897500", "205400.357500", "205400.817500", "205401.277500", "205401.737500", "205402.197500", "205402.657500", "205403.117500", "205403.577500", "205404.037500", "205404.497500", "205404.957500", "205405.417500", "205405.877500", "205406.337500", "205406.797500", "205407.257500", "205407.717500", "205408.177500", "205408.637500", "205409.097500", "205409.557500", "205410.017500", "205410.477500", "205410.937500", "205411.397500", "205411.857500", "205412.317500", "205412.777500", "205413.237500", "205413.697500", "205414.157500", "205414.617500", "205415.077500", "205415.537500", "205415.997500", "205416.457500", "205416.917500", "205417.377500", "205417.837500", "205418.297500", "205418.757500", "205419.217500", "205419.677500", "205420.137500", "205420.597500", "205421.057500", "205421.517500", "205421.977500", "205422.437500", "205422.897500", "205423.357500", "205423.817500", "205424.277500", "205424.737500", "205425.197500", "205425.657500", "205426.117500", "205426.577500", "205427.037500", "205427.497500", "205427.957500", "205428.417500", "205428.877500", "205429.337500", "205429.797500", "205430.257500", "205430.717500", "205431.177500", "205431.637500", "205432.097500", "205432.557500", "205433.017500", "205433.477500", "205433.937500", "205434.397500", "205434.857500", "205435.317500", "205435.777500", "205436.237500", "205436.697500", "205437.157500", "205437.617500", "205438.077500", "205438.537500", "205438.997500", "205439.457500", "205439.917500", "205440.377500", "205440.837500", "205441.297500", "205441.757500", "205442.217500", "205442.677500", "205443.137500", "205443.597500", "205444.057500", "205444.517500", "205444.977500", "205445.437500", "205445.897500", "205446.357500", "205446.817500", "205447.277500", "205447.737500", "205448.197500", "205448.657500", "205449.117500", "205449.577500", "205450.037500", "205450.497500", "205450.957500", "205451.417500", "205451.877500", "205452.337500", "205452.797500", "205453.257500", "205453.717500", "205454.177500", "205454.637500", "205455.097500", "205455.557500", "205456.017500", "205456.477500", "205456.937500", "205457.397500", "205457.857500", "205458.317500", "205458.777500", "205459.237500", "205459.697500", "205500.157500", "205500.617500", "205501.077500", "205501.537500", "205501.997500", "205502.457500", "205502.917500", "205503.377500", "205503.837500", "205504.297500", "205504.757500", "205505.217500", "205505.677500", "205506.137500", "205506.597500", "205507.057500", "205507.517500", "205507.977500", "205508.437500", "205508.897500", "205509.357500", "205509.817500", "205510.277500", "205510.737500", "205511.197500", "205511.657500"],
