{
  "AcquisitionMatrixPE": 82,
  "AcquisitionNumber": 1,
  "AcquisitionTime": "18:28:38.937500",
  "BandwidthPerPixelPhaseEncode": 24.888,
  "BaseResolution": 82,
  "BodyPartExamined": "BRAIN",
  "ConsistencyInfo": "N4_VE11E_LATEST_20181129",
  "ConversionSoftware": "dcm2niix",
  "ConversionSoftwareVersion": "v1.0.20201102",
  "DerivedVendorReportedEchoSpacing": 0.00049,
  "DeviceSerialNumber": "66112",
  "DwellTime": 2e-06,
  "EchoTime": 0.0272,
  "EchoTrainLength": 82,
  "EffectiveEchoSpacing": 0.00049,
  "FlipAngle": 44,
  "ImageComments": "Unaliased MB8/PE3",
  "ImageOrientationPatientDICOM": [0.997429, 0.0712687, -0.00744754, -0.0709717, 0.996881, 0.0345231],
  "ImageType": [
    "ORIGINAL",
    "PRIMARY",
    "M",
    "MB",
    "ND",
    "NORM",
    "MOSAIC"
],
  "ImagingFrequency": 123.252,
  "InPlanePhaseEncodingDirectionDICOM": "COL",
  "InstitutionAddress": "Maynard 3,Hanover,NH,US,03755",
  "InstitutionName": "Dartmouth College - PBS",
  "InstitutionalDepartmentName": "Department",
  "MRAcquisitionType": "2D",
  "MagneticFieldStrength": 3,
  "Manufacturer": "Siemens",
  "ManufacturersModelName": "Prisma",
  "Modality": "MR",
  "MultibandAccelerationFactor": 8,
  "PartialFourier": 1,
  "PatientPosition": "HFS",
  "PercentPhaseFOV": 100,
  "PercentSampling": 100,
  "PhaseEncodingDirection": "j-",
  "PhaseEncodingSteps": 82,
  "PhaseResolution": 1,
  "PixelBandwidth": 3050,
  "ProcedureStepDescription": "Wager_Wager^1076_spacetop",
  "ProtocolName": "func_run-03_task-faces_acq-ap-mb8",
  "PulseSequenceDetails": "%CustomerSeq%\\cmrr_mbep2d_bold",
  "ReceiveCoilActiveElements": "HEA;HEP",
  "ReceiveCoilName": "Head_32",
  "ReconMatrixPE": 82,
  "RepetitionTime": 0.46,
  "SAR": 0.0924975,
  "ScanOptions": "FS",
  "ScanningSequence": "EP",
  "SequenceName": "epfid2d1_82",
  "SequenceVariant": "SK\\SS",
  "SeriesDescription": "func_run-03_task-faces_acq-ap-mb8",
  "SeriesNumber": 20,
  "ShimSetting": [4160, -7779, -7202, 826, -32, -262, 67, 60],
  "SliceThickness": 2.7,
  "SliceTiming": [0, 0.25, 0.0625, 0.3125, 0.125, 0.3775, 0.1875, 0, 0.25, 0.0625, 0.3125, 0.125, 0.3775, 0.1875, 0, 0.25, 0.0625, 0.3125, 0.125, 0.3775, 0.1875, 0, 0.25, 0.0625, 0.3125, 0.125, 0.3775, 0.1875, 0, 0.25, 0.0625, 0.3125, 0.125, 0.3775, 0.1875, 0, 0.25, 0.0625, 0.3125, 0.125, 0.3775, 0.1875, 0, 0.25, 0.0625, 0.3125, 0.125, 0.3775, 0.1875, 0, 0.25, 0.0625, 0.3125, 0.125, 0.3775, 0.1875],
  "SoftwareVersions": "syngo MR E11",
  "SpacingBetweenSlices": 2.7,
  "StationName": "AWP66112",
  "TaskName": "faces",
  "TotalReadoutTime": 0.03969,
  "TxRefAmp": 229.28,
  "WipMemBlock": "c718e4fc-b486-47e2-9788-aa2f7bb43f08||Sequence: R016 ve11e/master r/434b28f1; Aug  7 2019 18:53:46 by eja",
  "dcmmeta_affine": [
    [-2.676029920578003, -0.19041197001934052, -0.026688745245337486, 118.06438446044922],
    [-0.19120873510837555, 2.674558162689209, 0.09154562652111053, -97.58012390136719],
    [-0.01998119242489338, -0.09262295067310333, 2.6983156204223633, -50.086769104003906],
    [0.0, 0.0, 0.0, 1.0]
],
  "dcmmeta_reorient_transform": [
    [0.0, -1.0, 0.0, 81.0],
    [1.0, 0.0, 0.0, 0.0],
    [0.0, 0.0, 1.0, 0.0],
    [0.0, 0.0, 0.0, 1.0]
],
  "dcmmeta_shape": [82, 82, 56, 914],
  "dcmmeta_slice_dim": 2,
  "dcmmeta_version": 0.6,
  "global": {
    "const": {
      "AccessionNumber": "A003917",
      "AcquisitionMatrix": [82, 0, 0, 82],
      "AngioFlag": "N",
      "BitsAllocated": 16,
      "BitsStored": 16,
      "BodyPartExamined": "BRAIN",
      "Columns": 656,
      "EchoNumbers": 1,
      "EchoTime": 27.2,
      "EchoTrainLength": 82,
      "FlipAngle": 44.0,
      "HighBit": 15,
      "ImageOrientationPatient": [0.99742934864573, 0.07126870758079, -0.0074475351573, -0.0709717320646, 0.99688071944786, 0.03452310010504],
      "ImagePositionPatient": [-816.01339891864, -941.53415898205, -78.43741385979],
      "ImageType": [
        "ORIGINAL",
        "PRIMARY",
        "M",
        "MB",
        "ND",
        "NORM",
        "MOSAIC"
],
      "ImagedNucleus": "1H",
      "ImagingFrequency": 123.252205,
      "InPlanePhaseEncodingDirection": "COL",
      "MRAcquisitionType": "2D",
      "MagneticFieldStrength": 3.0,
      "Manufacturer": "SIEMENS",
      "ManufacturerModelName": "Prisma",
      "Modality": "MR",
      "NumberOfAverages": 1.0,
      "NumberOfPhaseEncodingSteps": 82,
      "PercentPhaseFieldOfView": 100.0,
      "PercentSampling": 100.0,
      "PerformedProcedureStepStartTime": "171756.406000",
      "PhotometricInterpretation": "MONOCHROME2",
      "PixelBandwidth": 3050.0,
      "PixelRepresentation": 0,
      "PixelSpacing": [2.6829268932343, 2.6829268932343],
      "ProtocolName": "func_run-03_task-faces_acq-ap-mb8",
      "RepetitionTime": 460.0,
      "Rows": 656,
      "SAR": 0.09249746998852,
      "SamplesPerPixel": 1,
      "ScanOptions": "FS",
      "ScanningSequence": "EP",
      "SequenceName": "epfid2d1_82",
      "SequenceVariant": [
        "SK",
        "SS"
],
      "SeriesDescription": "func_run-03_task-faces_acq-ap-mb8",
      "SeriesNumber": 20,
      "SeriesTime": "182853.584000",
      "SliceLocation": -54.5310871025,
      "SliceThickness": 2.7000000476837,
      "SmallestImagePixelValue": 0,
      "SoftwareVersions": "syngo MR E11",
      "SpacingBetweenSlices": 2.6999999626791,
      "SpecificCharacterSet": "ISO_IR 100",
      "StudyID": "1",
      "StudyTime": "171756.340000",
      "TransmitCoilName": "Body",
      "VariableFlipAngleFlag": "N",
      "WindowCenterWidthExplanation": "Algo1"
    },
    "slices": {}
  },
  "time": {
    "samples": {
      "AcquisitionNumber": [1, 2, 3, 4, 5, 6, 7, 8, 9, 10, 11, 12, 13, 14, 15, 16, 17, 18, 19, 20, 21, 22, 23, 24, 25, 26, 27, 28, 29, 30, 31, 32, 33, 34, 35, 36, 37, 38, 39, 40, 41, 42, 43, 44, 45, 46, 47, 48, 49, 50, 51, 52, 53, 54, 55, 56, 57, 58, 59, 60, 61, 62, 63, 64, 65, 66, 67, 68, 69, 70, 71, 72, 73, 74, 75, 76, 77, 78, 79, 80, 81, 82, 83, 84, 85, 86, 87, 88, 89, 90, 91, 92, 93, 94, 95, 96, 97, 98, 99, 100, 101, 102, 103, 104, 105, 106, 107, 108, 109, 110, 111, 112, 113, 114, 115, 116, 117, 118, 119, 120, 121, 122, 123, 124, 125, 126, 127, 128, 129, 130, 131, 132, 133, 134, 135, 136, 137, 138, 139, 140, 141, 142, 143, 144, 145, 146, 147, 148, 149, 150, 151, 152, 153, 154, 155, 156, 157, 158, 159, 160, 161, 162, 163, 164, 165, 166, 167, 168, 169, 170, 171, 172, 173, 174, 175, 176, 177, 178, 179, 180, 181, 182, 183, 184, 185, 186, 187, 188, 189, 190, 191, 192, 193, 194, 195, 196, 197, 198, 199, 200, 201, 202, 203, 204, 205, 206, 207, 208, 209, 210, 211, 212, 213, 214, 215, 216, 217, 218, 219, 220, 221, 222, 223, 224, 225, 226, 227, 228, 229, 230, 231, 232, 233, 234, 235, 236, 237, 238, 239, 240, 241, 242, 243, 244, 245, 246, 247, 248, 249, 250, 251, 252, 253, 254, 255, 256, 257, 258, 259, 260, 261, 262, 263, 264, 265, 266, 267, 268, 269, 270, 271, 272, 273, 274, 275, 276, 277, 278, 279, 280, 281, 282, 283, 284, 285, 286, 287, 288, 289, 290, 291, 292, 293, 294, 295, 296, 297, 298, 299, 300, 301, 302, 303, 304, 305, 306, 307, 308, 309, 310, 311, 312, 313, 314, 315, 316, 317, 318, 319, 320, 321, 322, 323, 324, 325, 326, 327, 328, 329, 330, 331, 332, 333, 334, 335, 336, 337, 338, 339, 340, 341, 342, 343, 344, 345, 346, 347, 348, 349, 350, 351, 352, 353, 354, 355, 356, 357, 358, 359, 360, 361, 362, 363, 364, 365, 366, 367, 368, 369, 370, 371, 372, 373, 374, 375, 376, 377, 378, 379, 380, 381, 382, 383, 384, 385, 386, 387, 388, 389, 390, 391, 392, 393, 394, 395, 396, 397, 398, 399, 400, 401, 402, 403, 404, 405, 406, 407, 408, 409, 410, 411, 412, 413, 414, 415, 416, 417, 418, 419, 420, 421, 422, 423, 424, 425, 426, 427, 428, 429, 430, 431, 432, 433, 434, 435, 436, 437, 438, 439, 440, 441, 442, 443, 444, 445, 446, 447, 448, 449, 450, 451, 452, 453, 454, 455, 456, 457, 458, 459, 460, 461, 462, 463, 464, 465, 466, 467, 468, 469, 470, 471, 472, 473, 474, 475, 476, 477, 478, 479, 480, 481, 482, 483, 484, 485, 486, 487, 488, 489, 490, 491, 492, 493, 494, 495, 496, 497, 498, 499, 500, 501, 502, 503, 504, 505, 506, 507, 508, 509, 510, 511, 512, 513, 514, 515, 516, 517, 518, 519, 520, 521, 522, 523, 524, 525, 526, 527, 528, 529, 530, 531, 532, 533, 534, 535, 536, 537, 538, 539, 540, 541, 542, 543, 544, 545, 546, 547, 548, 549, 550, 551, 552, 553, 554, 555, 556, 557, 558, 559, 560, 561, 562, 563, 564, 565, 566, 567, 568, 569, 570, 571, 572, 573, 574, 575, 576, 577, 578, 579, 580, 581, 582, 583, 584, 585, 586, 587, 588, 589, 590, 591, 592, 593, 594, 595, 596, 597, 598, 599, 600, 601, 602, 603, 604, 605, 606, 607, 608, 609, 610, 611, 612, 613, 614, 615, 616, 617, 618, 619, 620, 621, 622, 623, 624, 625, 626, 627, 628, 629, 630, 631, 632, 633, 634, 635, 636, 637, 638, 639, 640, 641, 642, 643, 644, 645, 646, 647, 648, 649, 650, 651, 652, 653, 654, 655, 656, 657, 658, 659, 660, 661, 662, 663, 664, 665, 666, 667, 668, 669, 670, 671, 672, 673, 674, 675, 676, 677, 678, 679, 680, 681, 682, 683, 684, 685, 686, 687, 688, 689, 690, 691, 692, 693, 694, 695, 696, 697, 698, 699, 700, 701, 702, 703, 704, 705, 706, 707, 708, 709, 710, 711, 712, 713, 714, 715, 716, 717, 718, 719, 720, 721, 722, 723, 724, 725, 726, 727, 728, 729, 730, 731, 732, 733, 734, 735, 736, 737, 738, 739, 740, 741, 742, 743, 744, 745, 746, 747, 748, 749, 750, 751, 752, 753, 754, 755, 756, 757, 758, 759, 760, 761, 762, 763, 764, 765, 766, 767, 768, 769, 770, 771, 772, 773, 774, 775, 776, 777, 778, 779, 780, 781, 782, 783, 784, 785, 786, 787, 788, 789, 790, 791, 792, 793, 794, 795, 796, 797, 798, 799, 800, 801, 802, 803, 804, 805, 806, 807, 808, 809, 810, 811, 812, 813, 814, 815, 816, 817, 818, 819, 820, 821, 822, 823, 824, 825, 826, 827, 828, 829, 830, 831, 832, 833, 834, 835, 836, 837, 838, 839, 840, 841, 842, 843, 844, 845, 846, 847, 848, 849, 850, 851, 852, 853, 854, 855, 856, 857, 858, 859, 860, 861, 862, 863, 864, 865, 866, 867, 868, 869, 870, 871, 872, 873, 874, 875, 876, 877, 878, 879, 880, 881, 882, 883, 884, 885, 886, 887, 888, 889, 890, 891, 892, 893, 894, 895, 896, 897, 898, 899, 900, 901, 902, 903, 904, 905, 906, 907, 908, 909, 910, 911, 912, 913, 914],
      "AcquisitionTime": ["182838.937500", "182839.397500", "182839.857500", "182840.317500", "182840.777500", "182841.237500", "182841.697500", "182842.157500", "182842.617500", "182843.077500", "182843.537500", "182843.997500", "182844.457500", "182844.917500", "182845.377500", "182845.837500", "182846.297500", "182846.757500", "182847.217500", "182847.677500", "182848.137500", "182848.597500", "182849.057500", "182849.517500", "182849.977500", "182850.437500", "182850.897500", "182851.357500", "182851.817500", "182852.277500", "182852.737500", "182853.197500", "182853.657500", "182854.117500", "182854.577500", "182855.037500", "182855.497500", "182855.957500", "182856.417500", "182856.877500", "182857.337500", "182857.797500", "182858.257500", "182858.717500", "182859.177500", "182859.637500", "182900.097500", "182900.557500", "182901.017500", "182901.477500", "182901.937500", "182902.397500", "182902.857500", "182903.317500", "182903.777500", "182904.237500", "182904.697500", "182905.157500", "182905.617500", "182906.077500", "182906.537500", "182906.997500", "182907.457500", "182907.917500", "182908.377500", "182908.837500", "182909.297500", "182909.757500", "182910.217500", "182910.677500", "182911.137500", "182911.597500", "182912.057500", "182912.517500", "182912.977500", "182913.437500", "182913.897500", "182914.357500", "182914.817500", "182915.277500", "182915.737500", "182916.197500", "182916.657500", "182917.117500", "182917.577500", "182918.037500", "182918.497500", "182918.957500", "182919.417500", "182919.877500", "182920.337500", "182920.797500", "182921.257500", "182921.717500", "182922.177500", "182922.637500", "182923.097500", "182923.557500", "182924.017500", "182924.477500", "182924.937500", "182925.397500", "182925.857500", "182926.317500", "182926.777500", "182927.237500", "182927.697500", "182928.157500", "182928.617500", "182929.077500", "182929.537500", "182929.997500", "182930.457500", "182930.917500", "182931.377500", "182931.837500", "182932.297500", "182932.757500", "182933.217500", "182933.677500", "182934.137500", "182934.597500", "182935.057500", "182935.517500", "182935.977500", "182936.437500", "182936.897500", "182937.357500", "182937.817500", "182938.277500", "182938.737500", "182939.197500", "182939.657500", "182940.117500", "182940.577500", "182941.037500", "182941.497500", "182941.957500", "182942.417500", "182942.877500", "182943.337500", "182943.797500", "182944.257500", "182944.717500", "182945.177500", "182945.637500", "182946.097500", "182946.557500", "182947.017500", "182947.477500", "182947.937500", "182948.397500", "182948.857500", "182949.317500", "182949.777500", "182950.237500", "182950.697500", "182951.157500", "182951.617500", "182952.077500", "182952.537500", "182952.997500", "182953.457500", "182953.917500", "182954.377500", "182954.837500", "182955.297500", "182955.757500", "182956.217500", "182956.677500", "182957.137500", "182957.597500", "182958.057500", "182958.517500", "182958.977500", "182959.437500", "182959.897500", "183000.357500", "183000.817500", "183001.277500", "183001.737500", "183002.197500", "183002.657500", "183003.117500", "183003.577500", "183004.037500", "183004.497500", "183004.957500", "183005.417500", "183005.877500", "183006.337500", "183006.797500", "183007.257500", "183007.717500", "183008.177500", "183008.637500", "183009.097500", "183009.557500", "183010.017500", "183010.477500", "183010.937500", "183011.397500", "183011.857500", "183012.317500", "183012.777500", "183013.237500", "183013.697500", "183014.157500", "183014.617500", "183015.077500", "183015.537500", "183015.997500", "183016.457500", "183016.917500", "183017.377500", "183017.837500", "183018.297500", "183018.757500", "183019.217500", "183019.677500", "183020.137500", "183020.597500", "183021.057500", "183021.517500", "183021.977500", "183022.437500", "183022.897500", "183023.357500", "183023.817500", "183024.277500", "183024.737500", "183025.197500", "183025.657500", "183026.117500", "183026.577500", "183027.037500", "183027.497500", "183027.957500", "183028.417500", "183028.877500", "183029.337500", "183029.797500", "183030.257500", "183030.717500", "183031.177500", "183031.637500", "183032.097500", "183032.557500", "183033.017500", "183033.477500", "183033.937500", "183034.397500", "183034.857500", "183035.317500", "183035.777500", "183036.237500", "183036.697500", "183037.157500", "183037.617500", "183038.077500", "183038.537500", "183038.997500", "183039.457500", "183039.917500", "183040.377500", "183040.837500", "183041.297500", "183041.757500", "183042.217500", "183042.677500", "183043.137500", "183043.597500", "183044.057500", "183044.517500", "183044.977500", "183045.437500", "183045.897500", "183046.357500", "183046.817500", "183047.277500", "183047.737500", "183048.197500", "183048.657500", "183049.117500", "183049.577500", "183050.037500", "183050.497500", "183050.957500", "183051.417500", "183051.877500", "183052.337500", "183052.797500", "183053.257500", "183053.717500", "183054.177500", "183054.637500", "183055.097500", "183055.557500", "183056.017500", "183056.477500", "183056.937500", "183057.397500", "183057.857500", "183058.317500", "183058.777500", "183059.237500", "183059.697500", "183100.157500", "183100.617500", "183101.077500", "183101.537500", "183101.997500", "183102.457500", "183102.917500", "183103.377500", "183103.837500", "183104.297500", "183104.757500", "183105.217500", "183105.677500", "183106.137500", "183106.597500", "183107.057500", "183107.517500", "183107.977500", "183108.437500", "183108.897500", "183109.357500", "183109.817500", "183110.277500", "183110.737500", "183111.197500", "183111.657500", "183112.117500", "183112.577500", "183113.037500", "183113.497500", "183113.957500", "183114.417500", "183114.877500", "183115.337500", "183115.797500", "183116.257500", "183116.717500", "183117.177500", "183117.637500", "183118.097500", "183118.557500", "183119.017500", "183119.477500", "183119.937500", "183120.397500", "183120.857500", "183121.317500", "183121.777500", "183122.237500", "183122.697500", "183123.157500", "183123.617500", "183124.077500", "183124.537500", "183124.997500", "183125.457500", "183125.917500", "183126.377500", "183126.837500", "183127.297500", "183127.757500", "183128.217500", "183128.677500", "183129.137500", "183129.597500", "183130.057500", "183130.517500", "183130.977500", "183131.437500", "183131.897500", "183132.357500", "183132.817500", "183133.277500", "183133.737500", "183134.197500", "183134.657500", "183135.117500", "183135.577500", "183136.037500", "183136.497500", "183136.957500", "183137.417500", "183137.877500", "183138.337500", "183138.797500", "183139.257500", "183139.717500", "183140.177500", "183140.637500", "183141.097500", "183141.557500", "183142.017500", "183142.477500", "183142.937500", "183143.397500", "183143.857500", "183144.317500", "183144.777500", "183145.237500", "183145.697500", "183146.157500", "183146.617500", "183147.077500", "183147.537500", "183147.997500", "183148.457500", "183148.917500", "183149.377500", "183149.837500", "183150.297500", "183150.757500", "183151.217500", "183151.677500", "183152.137500", "183152.597500", "183153.057500", "183153.517500", "183153.977500", "183154.437500", "183154.897500", "183155.357500", "183155.817500", "183156.277500", "183156.737500", "183157.197500", "183157.657500", "183158.117500", "183158.577500", "183159.037500", "183159.497500", "183159.957500", "183200.417500", "183200.877500", "183201.337500", "183201.797500", "183202.257500", "183202.717500", "183203.177500", "183203.637500", "183204.097500", "183204.557500", "183205.017500", "183205.477500", "183205.937500", "183206.397500", "183206.857500", "183207.317500", "183207.777500", "183208.237500", "183208.697500", "183209.157500", "183209.617500", "183210.077500", "183210.537500", "183210.997500", "183211.457500", "183211.917500", "183212.377500", "183212.837500", "183213.297500", "183213.757500", "183214.217500", "183214.677500", "183215.137500", "183215.597500", "183216.057500", "183216.517500", "183216.977500", "183217.437500", "183217.897500", "183218.357500", "183218.817500", "183219.277500", "183219.737500", "183220.197500", "183220.657500", "183221.117500", "183221.577500", "183222.037500", "183222.497500", "183222.957500", "183223.417500", "183223.877500", "183224.337500", "183224.797500", "183225.257500", "183225.717500", "183226.177500", "183226.637500", "183227.097500", "183227.557500", "183228.017500", "183228.477500", "183228.937500", "183229.397500", "183229.857500", "183230.317500", "183230.777500", "183231.237500", "183231.697500", "183232.157500", "183232.617500", "183233.077500", "183233.537500", "183233.997500", "183234.457500", "183234.917500", "183235.377500", "183235.837500", "183236.297500", "183236.757500", "183237.217500", "183237.677500", "183238.137500", "183238.597500", "183239.057500", "183239.517500", "183239.977500", "183240.437500", "183240.897500", "183241.357500", "183241.817500", "183242.277500", "183242.737500", "183243.197500", "183243.657500", "183244.117500", "183244.577500", "183245.037500", "183245.497500", "183245.957500", "183246.417500", "183246.877500", "183247.337500", "183247.797500", "183248.257500", "183248.717500", "183249.177500", "183249.637500", "183250.097500", "183250.557500", "183251.017500", "183251.477500", "183251.937500", "183252.397500", "183252.857500", "183253.317500", "183253.777500", "183254.237500", "183254.697500", "183255.157500", "183255.617500", "183256.077500", "183256.537500", "183256.997500", "183257.457500", "183257.917500", "183258.377500", "183258.837500", "183259.297500", "183259.757500", "183300.217500", "183300.677500", "183301.137500", "183301.597500", "183302.057500", "183302.517500", "183302.977500", "183303.437500", "183303.897500", "183304.357500", "183304.817500", "183305.277500", "183305.737500", "183306.197500", "183306.657500", "183307.117500", "183307.577500", "183308.037500", "183308.497500", "183308.957500", "183309.417500", "183309.877500", "183310.337500", "183310.797500", "183311.257500", "183311.717500", "183312.177500", "183312.637500", "183313.097500", "183313.557500", "183314.017500", "183314.477500", "183314.937500", "183315.397500", "183315.857500", "183316.317500", "183316.777500", "183317.237500", "183317.697500", "183318.157500", "183318.617500", "183319.077500", "183319.537500", "183319.997500", "183320.457500", "183320.917500", "183321.377500", "183321.837500", "183322.297500", "183322.757500", "183323.217500", "183323.677500", "183324.137500", "183324.597500", "183325.057500", "183325.517500", "183325.977500", "183326.437500", "183326.897500", "183327.357500", "183327.817500", "183328.277500", "183328.737500", "183329.197500", "183329.657500", "183330.117500", "183330.577500", "183331.037500", "183331.497500", "183331.957500", "183332.417500", "183332.877500", "183333.337500", "183333.797500", "183334.257500", "183334.717500", "183335.177500", "183335.637500", "183336.097500", "183336.557500", "183337.017500", "183337.477500", "183337.937500", "183338.397500", "183338.857500", "183339.317500", "183339.777500", "183340.237500", "183340.697500", "183341.157500", "183341.617500", "183342.077500", "183342.537500", "183342.997500", "183343.457500", "183343.917500", "183344.377500", "183344.837500", "183345.297500", "183345.757500", "183346.217500", "183346.677500", "183347.137500", "183347.597500", "183348.057500", "183348.517500", "183348.977500", "183349.437500", "183349.897500", "183350.357500", "183350.817500", "183351.277500", "183351.737500", "183352.197500", "183352.657500", "183353.117500", "183353.577500", "183354.037500", "183354.497500", "183354.957500", "183355.417500", "183355.877500", "183356.337500", "183356.797500", "183357.257500", "183357.717500", "183358.177500", "183358.637500", "183359.097500", "183359.557500", "183400.017500", "183400.477500", "183400.937500", "183401.397500", "183401.857500", "183402.317500", "183402.777500", "183403.237500", "183403.697500", "183404.157500", "183404.617500", "183405.077500", "183405.537500", "183405.997500", "183406.457500", "183406.917500", "183407.377500", "183407.837500", "183408.297500", "183408.757500", "183409.217500", "183409.677500", "183410.137500", "183410.597500", "183411.057500", "183411.517500", "183411.977500", "183412.437500", "183412.897500", "183413.357500", "183413.817500", "183414.277500", "183414.737500", "183415.197500", "183415.657500", "183416.117500", "183416.577500", "183417.037500", "183417.497500", "183417.957500", "183418.417500", "183418.877500", "183419.337500", "183419.797500", "183420.257500", "183420.717500", "183421.177500", "183421.637500", "183422.097500", "183422.557500", "183423.017500", "183423.477500", "183423.937500", "183424.397500", "183424.857500", "183425.317500", "183425.777500", "183426.237500", "183426.697500", "183427.157500", "183427.617500", "183428.077500", "183428.537500", "183428.997500", "183429.457500", "183429.917500", "183430.377500", "183430.837500", "183431.297500", "183431.757500", "183432.217500", "183432.677500", "183433.137500", "183433.597500", "183434.057500", "183434.517500", "183434.977500", "183435.437500", "183435.897500", "183436.357500", "183436.817500", "183437.277500", "183437.737500", "183438.197500", "183438.657500", "183439.117500", "183439.577500", "183440.037500", "183440.497500", "183440.957500", "183441.417500", "183441.877500", "183442.337500", "183442.797500", "183443.257500", "183443.717500", "183444.177500", "183444.637500", "183445.097500", "183445.557500", "183446.017500", "183446.477500", "183446.937500", "183447.397500", "183447.857500", "183448.317500", "183448.777500", "183449.237500", "183449.697500", "183450.157500", "183450.617500", "183451.077500", "183451.537500", "183451.997500", "183452.457500", "183452.917500", "183453.377500", "183453.837500", "183454.297500", "183454.757500", "183455.217500", "183455.677500", "183456.137500", "183456.597500", "183457.057500", "183457.517500", "183457.977500", "183458.437500", "183458.897500", "183459.357500", "183459.817500", "183500.277500", "183500.737500", "183501.197500", "183501.657500", "183502.117500", "183502.577500", "183503.037500", "183503.497500", "183503.957500", "183504.417500", "183504.877500", "183505.337500", "183505.797500", "183506.257500", "183506.717500", "183507.177500", "183507.637500", "183508.097500", "183508.557500", "183509.017500", "183509.477500", "183509.937500", "183510.397500", "183510.857500", "183511.317500", "183511.777500", "183512.237500", "183512.697500", "183513.157500", "183513.617500", "183514.077500", "183514.537500", "183514.997500", "183515.457500", "183515.917500", "183516.377500", "183516.837500", "183517.297500", "183517.757500", "183518.217500", "183518.677500", "183519.137500", "183519.597500", "183520.057500", "183520.517500", "183520.977500", "183521.437500", "183521.897500", "183522.357500", "183522.817500", "183523.277500", "183523.737500", "183524.197500", "183524.657500", "183525.117500", "183525.577500", "183526.037500", "183526.497500", "183526.957500", "183527.417500", "183527.877500", "183528.337500", "183528.797500", "183529.257500", "183529.717500", "183530.177500", "183530.637500", "183531.097500", "183531.557500", "183532.017500", "183532.477500", "183532.937500", "183533.397500", "183533.857500", "183534.317500", "183534.777500", "183535.237500", "183535.697500", "183536.157500", "183536.617500", "183537.077500", "183537.537500", "183537.997500", "183538.457500", "183538.917500"],
