{
  "AcquisitionMatrixPE": 82,
  "AcquisitionNumber": 1,
  "AcquisitionTime": "17:32:12.627500",
  "BandwidthPerPixelPhaseEncode": 24.888,
  "BaseResolution": 82,
  "BodyPartExamined": "BRAIN",
  "ConsistencyInfo": "N4_VE11E_LATEST_20181129",
  "ConversionSoftware": "dcm2niix",
  "ConversionSoftwareVersion": "v1.0.20201102",
  "DerivedVendorReportedEchoSpacing": 0.00049,
  "DeviceSerialNumber": "66112",
  "DwellTime": 2e-06,
  "EchoTime": 0.0272,
  "EchoTrainLength": 82,
  "EffectiveEchoSpacing": 0.00049,
  "FlipAngle": 44,
  "ImageComments": "Unaliased MB8/PE3",
  "ImageOrientationPatientDICOM": [0.997429, 0.0712687, -0.00744754, -0.0709717, 0.996881, 0.0345231],
  "ImageType": [
    "ORIGINAL",
    "PRIMARY",
    "M",
    "MB",
    "ND",
    "NORM",
    "MOSAIC"
],
  "ImagingFrequency": 123.252,
  "InPlanePhaseEncodingDirectionDICOM": "COL",
  "InstitutionAddress": "Maynard 3,Hanover,NH,US,03755",
  "InstitutionName": "Dartmouth College - PBS",
  "InstitutionalDepartmentName": "Department",
  "MRAcquisitionType": "2D",
  "MagneticFieldStrength": 3,
  "Manufacturer": "Siemens",
  "ManufacturersModelName": "Prisma",
  "Modality": "MR",
  "MultibandAccelerationFactor": 8,
  "PartialFourier": 1,
  "PatientPosition": "HFS",
  "PercentPhaseFOV": 100,
  "PercentSampling": 100,
  "PhaseEncodingDirection": "j-",
  "PhaseEncodingSteps": 82,
  "PhaseResolution": 1,
  "PixelBandwidth": 3050,
  "ProcedureStepDescription": "Wager_Wager^1076_spacetop",
  "ProtocolName": "func_run-01_task-narratives_acq-ap-mb8",
  "PulseSequenceDetails": "%CustomerSeq%\\cmrr_mbep2d_bold",
  "ReceiveCoilActiveElements": "HEA;HEP",
  "ReceiveCoilName": "Head_32",
  "ReconMatrixPE": 82,
  "RepetitionTime": 0.46,
  "SAR": 0.0925276,
  "ScanOptions": "FS",
  "ScanningSequence": "EP",
  "SequenceName": "epfid2d1_82",
  "SequenceVariant": "SK\\SS",
  "SeriesDescription": "func_run-01_task-narratives_acq-ap-mb8",
  "SeriesNumber": 8,
  "ShimSetting": [4160, -7779, -7202, 826, -32, -262, 67, 60],
  "SliceThickness": 2.7,
  "SliceTiming": [0, 0.25, 0.0625, 0.3125, 0.125, 0.3775, 0.1875, 0, 0.25, 0.0625, 0.3125, 0.125, 0.3775, 0.1875, 0, 0.25, 0.0625, 0.3125, 0.125, 0.3775, 0.1875, 0, 0.25, 0.0625, 0.3125, 0.125, 0.3775, 0.1875, 0, 0.25, 0.0625, 0.3125, 0.125, 0.3775, 0.1875, 0, 0.25, 0.0625, 0.3125, 0.125, 0.3775, 0.1875, 0, 0.25, 0.0625, 0.3125, 0.125, 0.3775, 0.1875, 0, 0.25, 0.0625, 0.3125, 0.125, 0.3775, 0.1875],
  "SoftwareVersions": "syngo MR E11",
  "SpacingBetweenSlices": 2.7,
  "StationName": "AWP66112",
  "TaskName": "narratives",
  "TotalReadoutTime": 0.03969,
  "TxRefAmp": 229.28,
  "WipMemBlock": "59539748-192e-4162-8f73-832b998bd748||Sequence: R016 ve11e/master r/434b28f1; Aug  7 2019 18:53:46 by eja",
  "dcmmeta_affine": [
    [-2.676029920578003, -0.19041197001934052, -0.026688745245337486, 118.06438446044922],
    [-0.19120873510837555, 2.674558162689209, 0.09154562652111053, -97.58012390136719],
    [-0.01998119242489338, -0.09262295067310333, 2.6983156204223633, -50.086769104003906],
    [0.0, 0.0, 0.0, 1.0]
],
  "dcmmeta_reorient_transform": [
    [0.0, -1.0, 0.0, 81.0],
    [1.0, 0.0, 0.0, 0.0],
    [0.0, 0.0, 1.0, 0.0],
    [0.0, 0.0, 0.0, 1.0]
],
  "dcmmeta_shape": [82, 82, 56, 967],
  "dcmmeta_slice_dim": 2,
  "dcmmeta_version": 0.6,
  "global": {
    "const": {
      "AccessionNumber": "A003917",
      "AcquisitionMatrix": [82, 0, 0, 82],
      "AngioFlag": "N",
      "BitsAllocated": 16,
      "BitsStored": 16,
      "BodyPartExamined": "BRAIN",
      "Columns": 656,
      "EchoNumbers": 1,
      "EchoTime": 27.2,
      "EchoTrainLength": 82,
      "FlipAngle": 44.0,
      "HighBit": 15,
      "ImageOrientationPatient": [0.99742934864573, 0.07126870758079, -0.0074475351573, -0.0709717320646, 0.99688071944786, 0.03452310010504],
      "ImagePositionPatient": [-816.01339891864, -941.53415898205, -78.43741385979],
      "ImageType": [
        "ORIGINAL",
        "PRIMARY",
        "M",
        "MB",
        "ND",
        "NORM",
        "MOSAIC"
],
      "ImagedNucleus": "1H",
      "ImagingFrequency": 123.252192,
      "InPlanePhaseEncodingDirection": "COL",
      "MRAcquisitionType": "2D",
      "MagneticFieldStrength": 3.0,
      "Manufacturer": "SIEMENS",
      "ManufacturerModelName": "Prisma",
      "Modality": "MR",
      "NumberOfAverages": 1.0,
      "NumberOfPhaseEncodingSteps": 82,
      "PercentPhaseFieldOfView": 100.0,
      "PercentSampling": 100.0,
      "PerformedProcedureStepStartTime": "171756.406000",
      "PhotometricInterpretation": "MONOCHROME2",
      "PixelBandwidth": 3050.0,
      "PixelRepresentation": 0,
      "PixelSpacing": [2.6829268932343, 2.6829268932343],
      "ProtocolName": "func_run-01_task-narratives_acq-ap-mb8",
      "RepetitionTime": 460.0,
      "Rows": 656,
      "SAR": 0.09252754983703,
      "SamplesPerPixel": 1,
      "ScanOptions": "FS",
      "ScanningSequence": "EP",
      "SequenceName": "epfid2d1_82",
      "SequenceVariant": [
        "SK",
        "SS"
],
      "SeriesDescription": "func_run-01_task-narratives_acq-ap-mb8",
      "SeriesNumber": 8,
      "SeriesTime": "173233.583000",
      "SliceLocation": -54.5310871025,
      "SliceThickness": 2.7000000476837,
      "SmallestImagePixelValue": 0,
      "SoftwareVersions": "syngo MR E11",
      "SpacingBetweenSlices": 2.6999999626791,
      "SpecificCharacterSet": "ISO_IR 100",
      "StudyID": "1",
      "StudyTime": "171756.340000",
      "TransmitCoilName": "Body",
      "VariableFlipAngleFlag": "N",
      "WindowCenterWidthExplanation": "Algo1"
    },
    "slices": {}
  },
  "time": {
    "samples": {
      "AcquisitionNumber": [1, 2, 3, 4, 5, 6, 7, 8, 9, 10, 11, 12, 13, 14, 15, 16, 17, 18, 19, 20, 21, 22, 23, 24, 25, 26, 27, 28, 29, 30, 31, 32, 33, 34, 35, 36, 37, 38, 39, 40, 41, 42, 43, 44, 45, 46, 47, 48, 49, 50, 51, 52, 53, 54, 55, 56, 57, 58, 59, 60, 61, 62, 63, 64, 65, 66, 67, 68, 69, 70, 71, 72, 73, 74, 75, 76, 77, 78, 79, 80, 81, 82, 83, 84, 85, 86, 87, 88, 89, 90, 91, 92, 93, 94, 95, 96, 97, 98, 99, 100, 101, 102, 103, 104, 105, 106, 107, 108, 109, 110, 111, 112, 113, 114, 115, 116, 117, 118, 119, 120, 121, 122, 123, 124, 125, 126, 127, 128, 129, 130, 131, 132, 133, 134, 135, 136, 137, 138, 139, 140, 141, 142, 143, 144, 145, 146, 147, 148, 149, 150, 151, 152, 153, 154, 155, 156, 157, 158, 159, 160, 161, 162, 163, 164, 165, 166, 167, 168, 169, 170, 171, 172, 173, 174, 175, 176, 177, 178, 179, 180, 181, 182, 183, 184, 185, 186, 187, 188, 189, 190, 191, 192, 193, 194, 195, 196, 197, 198, 199, 200, 201, 202, 203, 204, 205, 206, 207, 208, 209, 210, 211, 212, 213, 214, 215, 216, 217, 218, 219, 220, 221, 222, 223, 224, 225, 226, 227, 228, 229, 230, 231, 232, 233, 234, 235, 236, 237, 238, 239, 240, 241, 242, 243, 244, 245, 246, 247, 248, 249, 250, 251, 252, 253, 254, 255, 256, 257, 258, 259, 260, 261, 262, 263, 264, 265, 266, 267, 268, 269, 270, 271, 272, 273, 274, 275, 276, 277, 278, 279, 280, 281, 282, 283, 284, 285, 286, 287, 288, 289, 290, 291, 292, 293, 294, 295, 296, 297, 298, 299, 300, 301, 302, 303, 304, 305, 306, 307, 308, 309, 310, 311, 312, 313, 314, 315, 316, 317, 318, 319, 320, 321, 322, 323, 324, 325, 326, 327, 328, 329, 330, 331, 332, 333, 334, 335, 336, 337, 338, 339, 340, 341, 342, 343, 344, 345, 346, 347, 348, 349, 350, 351, 352, 353, 354, 355, 356, 357, 358, 359, 360, 361, 362, 363, 364, 365, 366, 367, 368, 369, 370, 371, 372, 373, 374, 375, 376, 377, 378, 379, 380, 381, 382, 383, 384, 385, 386, 387, 388, 389, 390, 391, 392, 393, 394, 395, 396, 397, 398, 399, 400, 401, 402, 403, 404, 405, 406, 407, 408, 409, 410, 411, 412, 413, 414, 415, 416, 417, 418, 419, 420, 421, 422, 423, 424, 425, 426, 427, 428, 429, 430, 431, 432, 433, 434, 435, 436, 437, 438, 439, 440, 441, 442, 443, 444, 445, 446, 447, 448, 449, 450, 451, 452, 453, 454, 455, 456, 457, 458, 459, 460, 461, 462, 463, 464, 465, 466, 467, 468, 469, 470, 471, 472, 473, 474, 475, 476, 477, 478, 479, 480, 481, 482, 483, 484, 485, 486, 487, 488, 489, 490, 491, 492, 493, 494, 495, 496, 497, 498, 499, 500, 501, 502, 503, 504, 505, 506, 507, 508, 509, 510, 511, 512, 513, 514, 515, 516, 517, 518, 519, 520, 521, 522, 523, 524, 525, 526, 527, 528, 529, 530, 531, 532, 533, 534, 535, 536, 537, 538, 539, 540, 541, 542, 543, 544, 545, 546, 547, 548, 549, 550, 551, 552, 553, 554, 555, 556, 557, 558, 559, 560, 561, 562, 563, 564, 565, 566, 567, 568, 569, 570, 571, 572, 573, 574, 575, 576, 577, 578, 579, 580, 581, 582, 583, 584, 585, 586, 587, 588, 589, 590, 591, 592, 593, 594, 595, 596, 597, 598, 599, 600, 601, 602, 603, 604, 605, 606, 607, 608, 609, 610, 611, 612, 613, 614, 615, 616, 617, 618, 619, 620, 621, 622, 623, 624, 625, 626, 627, 628, 629, 630, 631, 632, 633, 634, 635, 636, 637, 638, 639, 640, 641, 642, 643, 644, 645, 646, 647, 648, 649, 650, 651, 652, 653, 654, 655, 656, 657, 658, 659, 660, 661, 662, 663, 664, 665, 666, 667, 668, 669, 670, 671, 672, 673, 674, 675, 676, 677, 678, 679, 680, 681, 682, 683, 684, 685, 686, 687, 688, 689, 690, 691, 692, 693, 694, 695, 696, 697, 698, 699, 700, 701, 702, 703, 704, 705, 706, 707, 708, 709, 710, 711, 712, 713, 714, 715, 716, 717, 718, 719, 720, 721, 722, 723, 724, 725, 726, 727, 728, 729, 730, 731, 732, 733, 734, 735, 736, 737, 738, 739, 740, 741, 742, 743, 744, 745, 746, 747, 748, 749, 750, 751, 752, 753, 754, 755, 756, 757, 758, 759, 760, 761, 762, 763, 764, 765, 766, 767, 768, 769, 770, 771, 772, 773, 774, 775, 776, 777, 778, 779, 780, 781, 782, 783, 784, 785, 786, 787, 788, 789, 790, 791, 792, 793, 794, 795, 796, 797, 798, 799, 800, 801, 802, 803, 804, 805, 806, 807, 808, 809, 810, 811, 812, 813, 814, 815, 816, 817, 818, 819, 820, 821, 822, 823, 824, 825, 826, 827, 828, 829, 830, 831, 832, 833, 834, 835, 836, 837, 838, 839, 840, 841, 842, 843, 844, 845, 846, 847, 848, 849, 850, 851, 852, 853, 854, 855, 856, 857, 858, 859, 860, 861, 862, 863, 864, 865, 866, 867, 868, 869, 870, 871, 872, 873, 874, 875, 876, 877, 878, 879, 880, 881, 882, 883, 884, 885, 886, 887, 888, 889, 890, 891, 892, 893, 894, 895, 896, 897, 898, 899, 900, 901, 902, 903, 904, 905, 906, 907, 908, 909, 910, 911, 912, 913, 914, 915, 916, 917, 918, 919, 920, 921, 922, 923, 924, 925, 926, 927, 928, 929, 930, 931, 932, 933, 934, 935, 936, 937, 938, 939, 940, 941, 942, 943, 944, 945, 946, 947, 948, 949, 950, 951, 952, 953, 954, 955, 956, 957, 958, 959, 960, 961, 962, 963, 964, 965, 966, 967],
      "AcquisitionTime": ["173212.627500", "173213.087500", "173213.547500", "173214.007500", "173214.467500", "173214.927500", "173215.387500", "173215.847500", "173216.307500", "173216.767500", "173217.227500", "173217.687500", "173218.147500", "173218.607500", "173219.067500", "173219.527500", "173219.987500", "173220.447500", "173220.907500", "173221.367500", "173221.827500", "173222.287500", "173222.747500", "173223.207500", "173223.667500", "173224.127500", "173224.587500", "173225.047500", "173225.507500", "173225.967500", "173226.427500", "173226.887500", "173227.347500", "173227.807500", "173228.267500", "173228.727500", "173229.187500", "173229.647500", "173230.107500", "173230.567500", "173231.027500", "173231.487500", "173231.947500", "173232.407500", "173232.867500", "173233.327500", "173233.787500", "173234.247500", "173234.707500", "173235.167500", "173235.627500", "173236.087500", "173236.547500", "173237.007500", "173237.467500", "173237.927500", "173238.387500", "173238.847500", "173239.307500", "173239.767500", "173240.227500", "173240.687500", "173241.147500", "173241.607500", "173242.067500", "173242.527500", "173242.987500", "173243.447500", "173243.907500", "173244.367500", "173244.827500", "173245.287500", "173245.747500", "173246.207500", "173246.667500", "173247.127500", "173247.587500", "173248.047500", "173248.507500", "173248.967500", "173249.427500", "173249.887500", "173250.347500", "173250.807500", "173251.267500", "173251.727500", "173252.187500", "173252.647500", "173253.107500", "173253.567500", "173254.027500", "173254.487500", "173254.947500", "173255.407500", "173255.867500", "173256.327500", "173256.787500", "173257.247500", "173257.707500", "173258.167500", "173258.627500", "173259.087500", "173259.547500", "173300.007500", "173300.467500", "173300.927500", "173301.387500", "173301.847500", "173302.307500", "173302.767500", "173303.227500", "173303.687500", "173304.147500", "173304.607500", "173305.067500", "173305.527500", "173305.987500", "173306.447500", "173306.907500", "173307.367500", "173307.827500", "173308.287500", "173308.747500", "173309.207500", "173309.667500", "173310.127500", "173310.587500", "173311.047500", "173311.507500", "173311.967500", "173312.427500", "173312.887500", "173313.347500", "173313.807500", "173314.267500", "173314.727500", "173315.187500", "173315.647500", "173316.107500", "173316.567500", "173317.027500", "173317.487500", "173317.947500", "173318.407500", "173318.867500", "173319.327500", "173319.787500", "173320.247500", "173320.707500", "173321.167500", "173321.627500", "173322.087500", "173322.547500", "173323.007500", "173323.467500", "173323.927500", "173324.387500", "173324.847500", "173325.307500", "173325.767500", "173326.227500", "173326.687500", "173327.147500", "173327.607500", "173328.067500", "173328.527500", "173328.987500", "173329.447500", "173329.907500", "173330.367500", "173330.827500", "173331.287500", "173331.747500", "173332.207500", "173332.667500", "173333.127500", "173333.587500", "173334.047500", "173334.507500", "173334.967500", "173335.427500", "173335.887500", "173336.347500", "173336.807500", "173337.267500", "173337.727500", "173338.187500", "173338.647500", "173339.107500", "173339.567500", "173340.027500", "173340.487500", "173340.947500", "173341.407500", "173341.867500", "173342.327500", "173342.787500", "173343.247500", "173343.707500", "173344.167500", "173344.627500", "173345.087500", "173345.547500", "173346.007500", "173346.467500", "173346.927500", "173347.387500", "173347.847500", "173348.307500", "173348.767500", "173349.227500", "173349.687500", "173350.147500", "173350.607500", "173351.067500", "173351.527500", "173351.987500", "173352.447500", "173352.907500", "173353.367500", "173353.827500", "173354.287500", "173354.747500", "173355.207500", "173355.667500", "173356.127500", "173356.587500", "173357.047500", "173357.507500", "173357.967500", "173358.427500", "173358.887500", "173359.347500", "173359.807500", "173400.267500", "173400.727500", "173401.187500", "173401.647500", "173402.107500", "173402.567500", "173403.027500", "173403.487500", "173403.947500", "173404.407500", "173404.867500", "173405.327500", "173405.787500", "173406.247500", "173406.707500", "173407.167500", "173407.627500", "173408.087500", "173408.547500", "173409.007500", "173409.467500", "173409.927500", "173410.387500", "173410.847500", "173411.307500", "173411.767500", "173412.227500", "173412.687500", "173413.147500", "173413.607500", "173414.067500", "173414.527500", "173414.987500", "173415.447500", "173415.907500", "173416.367500", "173416.827500", "173417.287500", "173417.747500", "173418.207500", "173418.667500", "173419.127500", "173419.587500", "173420.047500", "173420.507500", "173420.967500", "173421.427500", "173421.887500", "173422.347500", "173422.807500", "173423.267500", "173423.727500", "173424.187500", "173424.647500", "173425.107500", "173425.567500", "173426.027500", "173426.487500", "173426.947500", "173427.407500", "173427.867500", "173428.327500", "173428.787500", "173429.247500", "173429.707500", "173430.167500", "173430.627500", "173431.087500", "173431.547500", "173432.007500", "173432.467500", "173432.927500", "173433.387500", "173433.847500", "173434.307500", "173434.767500", "173435.227500", "173435.687500", "173436.147500", "173436.607500", "173437.067500", "173437.527500", "173437.987500", "173438.447500", "173438.907500", "173439.367500", "173439.827500", "173440.287500", "173440.747500", "173441.207500", "173441.667500", "173442.127500", "173442.587500", "173443.047500", "173443.507500", "173443.967500", "173444.427500", "173444.887500", "173445.347500", "173445.807500", "173446.267500", "173446.727500", "173447.187500", "173447.647500", "173448.107500", "173448.567500", "173449.027500", "173449.487500", "173449.947500", "173450.407500", "173450.867500", "173451.327500", "173451.787500", "173452.247500", "173452.707500", "173453.167500", "173453.627500", "173454.087500", "173454.547500", "173455.007500", "173455.467500", "173455.927500", "173456.387500", "173456.847500", "173457.307500", "173457.767500", "173458.227500", "173458.687500", "173459.147500", "173459.607500", "173500.067500", "173500.527500", "173500.987500", "173501.447500", "173501.907500", "173502.367500", "173502.827500", "173503.287500", "173503.747500", "173504.207500", "173504.667500", "173505.127500", "173505.587500", "173506.047500", "173506.507500", "173506.967500", "173507.427500", "173507.887500", "173508.347500", "173508.807500", "173509.267500", "173509.727500", "173510.187500", "173510.647500", "173511.107500", "173511.567500", "173512.027500", "173512.487500", "173512.947500", "173513.407500", "173513.867500", "173514.327500", "173514.787500", "173515.247500", "173515.707500", "173516.167500", "173516.627500", "173517.087500", "173517.547500", "173518.007500", "173518.467500", "173518.927500", "173519.387500", "173519.847500", "173520.307500", "173520.767500", "173521.227500", "173521.687500", "173522.147500", "173522.607500", "173523.067500", "173523.527500", "173523.987500", "173524.447500", "173524.907500", "173525.367500", "173525.827500", "173526.287500", "173526.747500", "173527.207500", "173527.667500", "173528.127500", "173528.587500", "173529.047500", "173529.507500", "173529.967500", "173530.427500", "173530.887500", "173531.347500", "173531.807500", "173532.267500", "173532.727500", "173533.187500", "173533.647500", "173534.107500", "173534.567500", "173535.027500", "173535.487500", "173535.947500", "173536.407500", "173536.867500", "173537.327500", "173537.787500", "173538.247500", "173538.707500", "173539.167500", "173539.627500", "173540.087500", "173540.547500", "173541.007500", "173541.467500", "173541.927500", "173542.387500", "173542.847500", "173543.307500", "173543.767500", "173544.227500", "173544.687500", "173545.147500", "173545.607500", "173546.067500", "173546.527500", "173546.987500", "173547.447500", "173547.907500", "173548.367500", "173548.827500", "173549.287500", "173549.747500", "173550.207500", "173550.667500", "173551.127500", "173551.587500", "173552.047500", "173552.507500", "173552.967500", "173553.427500", "173553.887500", "173554.347500", "173554.807500", "173555.267500", "173555.727500", "173556.187500", "173556.647500", "173557.107500", "173557.567500", "173558.027500", "173558.487500", "173558.947500", "173559.407500", "173559.867500", "173600.327500", "173600.787500", "173601.247500", "173601.707500", "173602.167500", "173602.627500", "173603.087500", "173603.547500", "173604.007500", "173604.467500", "173604.927500", "173605.387500", "173605.847500", "173606.307500", "173606.767500", "173607.227500", "173607.687500", "173608.147500", "173608.607500", "173609.067500", "173609.527500", "173609.987500", "173610.447500", "173610.907500", "173611.367500", "173611.827500", "173612.287500", "173612.747500", "173613.207500", "173613.667500", "173614.127500", "173614.587500", "173615.047500", "173615.507500", "173615.967500", "173616.427500", "173616.887500", "173617.347500", "173617.807500", "173618.267500", "173618.727500", "173619.187500", "173619.647500", "173620.107500", "173620.567500", "173621.027500", "173621.487500", "173621.947500", "173622.407500", "173622.867500", "173623.327500", "173623.787500", "173624.247500", "173624.707500", "173625.167500", "173625.627500", "173626.087500", "173626.547500", "173627.007500", "173627.467500", "173627.927500", "173628.387500", "173628.847500", "173629.307500", "173629.767500", "173630.227500", "173630.687500", "173631.147500", "173631.607500", "173632.067500", "173632.527500", "173632.987500", "173633.447500", "173633.907500", "173634.367500", "173634.827500", "173635.287500", "173635.747500", "173636.207500", "173636.667500", "173637.127500", "173637.587500", "173638.047500", "173638.507500", "173638.967500", "173639.427500", "173639.887500", "173640.347500", "173640.807500", "173641.267500", "173641.727500", "173642.187500", "173642.647500", "173643.107500", "173643.567500", "173644.027500", "173644.487500", "173644.947500", "173645.407500", "173645.867500", "173646.327500", "173646.787500", "173647.247500", "173647.707500", "173648.167500", "173648.627500", "173649.087500", "173649.547500", "173650.007500", "173650.467500", "173650.927500", "173651.387500", "173651.847500", "173652.307500", "173652.767500", "173653.227500", "173653.687500", "173654.147500", "173654.607500", "173655.067500", "173655.527500", "173655.987500", "173656.447500", "173656.907500", "173657.367500", "173657.827500", "173658.287500", "173658.747500", "173659.207500", "173659.667500", "173700.127500", "173700.587500", "173701.047500", "173701.507500", "173701.967500", "173702.427500", "173702.887500", "173703.347500", "173703.807500", "173704.267500", "173704.727500", "173705.187500", "173705.647500", "173706.107500", "173706.567500", "173707.027500", "173707.487500", "173707.947500", "173708.407500", "173708.867500", "173709.327500", "173709.787500", "173710.247500", "173710.707500", "173711.167500", "173711.627500", "173712.087500", "173712.547500", "173713.007500", "173713.467500", "173713.927500", "173714.387500", "173714.847500", "173715.307500", "173715.767500", "173716.227500", "173716.687500", "173717.147500", "173717.607500", "173718.067500", "173718.527500", "173718.987500", "173719.447500", "173719.907500", "173720.367500", "173720.827500", "173721.287500", "173721.747500", "173722.207500", "173722.667500", "173723.127500", "173723.587500", "173724.047500", "173724.507500", "173724.967500", "173725.427500", "173725.887500", "173726.347500", "173726.807500", "173727.267500", "173727.727500", "173728.187500", "173728.647500", "173729.107500", "173729.567500", "173730.027500", "173730.487500", "173730.947500", "173731.407500", "173731.867500", "173732.327500", "173732.787500", "173733.247500", "173733.707500", "173734.167500", "173734.627500", "173735.087500", "173735.547500", "173736.007500", "173736.467500", "173736.927500", "173737.387500", "173737.847500", "173738.307500", "173738.767500", "173739.227500", "173739.687500", "173740.147500", "173740.607500", "173741.067500", "173741.527500", "173741.987500", "173742.447500", "173742.907500", "173743.367500", "173743.827500", "173744.287500", "173744.747500", "173745.207500", "173745.667500", "173746.127500", "173746.587500", "173747.047500", "173747.507500", "173747.967500", "173748.427500", "173748.887500", "173749.347500", "173749.807500", "173750.267500", "173750.727500", "173751.187500", "173751.647500", "173752.107500", "173752.567500", "173753.027500", "173753.487500", "173753.947500", "173754.407500", "173754.867500", "173755.327500", "173755.787500", "173756.247500", "173756.707500", "173757.167500", "173757.627500", "173758.087500", "173758.547500", "173759.007500", "173759.467500", "173759.927500", "173800.387500", "173800.847500", "173801.307500", "173801.767500", "173802.227500", "173802.687500", "173803.147500", "173803.607500", "173804.067500", "173804.527500", "173804.987500", "173805.447500", "173805.907500", "173806.367500", "173806.827500", "173807.287500", "173807.747500", "173808.207500", "173808.667500", "173809.127500", "173809.587500", "173810.047500", "173810.507500", "173810.967500", "173811.427500", "173811.887500", "173812.347500", "173812.807500", "173813.267500", "173813.727500", "173814.187500", "173814.647500", "173815.107500", "173815.567500", "173816.027500", "173816.487500", "173816.947500", "173817.407500", "173817.867500", "173818.327500", "173818.787500", "173819.247500", "173819.707500", "173820.167500", "173820.627500", "173821.087500", "173821.547500", "173822.007500", "173822.467500", "173822.927500", "173823.387500", "173823.847500", "173824.307500", "173824.767500", "173825.227500", "173825.687500", "173826.147500", "173826.607500", "173827.067500", "173827.527500", "173827.987500", "173828.447500", "173828.907500", "173829.367500", "173829.827500", "173830.287500", "173830.747500", "173831.207500", "173831.667500", "173832.127500", "173832.587500", "173833.047500", "173833.507500", "173833.967500", "173834.427500", "173834.887500", "173835.347500", "173835.807500", "173836.267500", "173836.727500", "173837.187500", "173837.647500", "173838.107500", "173838.567500", "173839.027500", "173839.487500", "173839.947500", "173840.407500", "173840.867500", "173841.327500", "173841.787500", "173842.247500", "173842.707500", "173843.167500", "173843.627500", "173844.087500", "173844.547500", "173845.007500", "173845.467500", "173845.927500", "173846.387500", "173846.847500", "173847.307500", "173847.767500", "173848.227500", "173848.687500", "173849.147500", "173849.607500", "173850.067500", "173850.527500", "173850.987500", "173851.447500", "173851.907500", "173852.367500", "173852.827500", "173853.287500", "173853.747500", "173854.207500", "173854.667500", "173855.127500", "173855.587500", "173856.047500", "173856.507500", "173856.967500", "173857.427500", "173857.887500", "173858.347500", "173858.807500", "173859.267500", "173859.727500", "173900.187500", "173900.647500", "173901.107500", "173901.567500", "173902.027500", "173902.487500", "173902.947500", "173903.407500", "173903.867500", "173904.327500", "173904.787500", "173905.247500", "173905.707500", "173906.167500", "173906.627500", "173907.087500", "173907.547500", "173908.007500", "173908.467500", "173908.927500", "173909.387500", "173909.847500", "173910.307500", "173910.767500", "173911.227500", "173911.687500", "173912.147500", "173912.607500", "173913.067500", "173913.527500", "173913.987500", "173914.447500", "173914.907500", "173915.367500", "173915.827500", "173916.287500", "173916.747500", "173917.207500", "173917.667500", "173918.127500", "173918.587500", "173919.047500", "173919.507500", "173919.967500", "173920.427500", "173920.887500", "173921.347500", "173921.807500", "173922.267500", "173922.727500", "173923.187500", "173923.647500", "173924.107500", "173924.567500", "173925.027500", "173925.487500", "173925.947500", "173926.407500", "173926.867500", "173927.327500", "173927.787500", "173928.247500", "173928.707500", "173929.167500", "173929.627500", "173930.087500", "173930.547500", "173931.007500", "173931.467500", "173931.927500", "173932.387500", "173932.847500", "173933.307500", "173933.767500", "173934.227500", "173934.687500", "173935.147500", "173935.607500", "173936.067500", "173936.527500", "173936.987500"],
