{
  "AcquisitionMatrixPE": 82,
  "AcquisitionNumber": 1,
  "AcquisitionTime": "21:34:5.175000",
  "BandwidthPerPixelPhaseEncode": 24.888,
  "BaseResolution": 82,
  "BodyPartExamined": "BRAIN",
  "ConsistencyInfo": "N4_VE11E_LATEST_20181129",
  "ConversionSoftware": "dcm2niix",
  "ConversionSoftwareVersion": "v1.0.20201102",
  "DerivedVendorReportedEchoSpacing": 0.00049,
  "DeviceSerialNumber": "66112",
  "DwellTime": 2e-06,
  "EchoTime": 0.0272,
  "EchoTrainLength": 82,
  "EffectiveEchoSpacing": 0.00049,
  "FlipAngle": 44,
  "ImageComments": "Unaliased MB8/PE3",
  "ImageOrientationPatientDICOM": [0.998135, -0.0542214, -0.0280411, 0.0551054, 0.997975, 0.0317771],
  "ImageType": [
    "ORIGINAL",
    "PRIMARY",
    "M",
    "MB",
    "ND",
    "NORM",
    "MOSAIC"
],
  "ImagingFrequency": 123.259,
  "InPlanePhaseEncodingDirectionDICOM": "COL",
  "InstitutionAddress": "Maynard 3,Hanover,NH,US,03755",
  "InstitutionName": "Dartmouth College - PBS",
  "InstitutionalDepartmentName": "Department",
  "MRAcquisitionType": "2D",
  "MagneticFieldStrength": 3,
  "Manufacturer": "Siemens",
  "ManufacturersModelName": "Prisma",
  "Modality": "MR",
  "MultibandAccelerationFactor": 8,
  "PartialFourier": 1,
  "PatientPosition": "HFS",
  "PercentPhaseFOV": 100,
  "PercentSampling": 100,
  "PhaseEncodingDirection": "j-",
  "PhaseEncodingSteps": 82,
  "PhaseResolution": 1,
  "PixelBandwidth": 3050,
  "ProcedureStepDescription": "Wager_Wager^1076_spacetop",
  "ProtocolName": "func_run-05_task-social_acq-ap-mb8",
  "PulseSequenceDetails": "%CustomerSeq%\\cmrr_mbep2d_bold",
  "ReceiveCoilActiveElements": "HEA;HEP",
  "ReceiveCoilName": "Head_32",
  "ReconMatrixPE": 82,
  "RepetitionTime": 0.46,
  "SAR": 0.0944895,
  "ScanOptions": "FS",
  "ScanningSequence": "EP",
  "SequenceName": "epfid2d1_82",
  "SequenceVariant": "SK\\SS",
  "SeriesDescription": "func_run-05_task-social_acq-ap-mb8",
  "SeriesNumber": 22,
  "ShimSetting": [4222, -7785, -7257, 341, -85, -2, -23, 87],
  "SliceThickness": 2.7,
  "SliceTiming": [0, 0.25, 0.0625, 0.3125, 0.125, 0.375, 0.1875, 0, 0.25, 0.0625, 0.3125, 0.125, 0.375, 0.1875, 0, 0.25, 0.0625, 0.3125, 0.125, 0.375, 0.1875, 0, 0.25, 0.0625, 0.3125, 0.125, 0.375, 0.1875, 0, 0.25, 0.0625, 0.3125, 0.125, 0.375, 0.1875, 0, 0.25, 0.0625, 0.3125, 0.125, 0.375, 0.1875, 0, 0.25, 0.0625, 0.3125, 0.125, 0.375, 0.1875, 0, 0.25, 0.0625, 0.3125, 0.125, 0.375, 0.1875],
  "SoftwareVersions": "syngo MR E11",
  "SpacingBetweenSlices": 2.7,
  "StationName": "AWP66112",
  "TaskName": "social",
  "TotalReadoutTime": 0.03969,
  "TxRefAmp": 241.594,
  "WipMemBlock": "126f2d12-d965-45c1-86b9-bf6b2e1c9460||Sequence: R016 ve11e/master r/434b28f1; Aug  7 2019 18:53:46 by eja",
  "dcmmeta_affine": [
    [-2.6779236793518066, 0.14784380793571472, -0.07090552151203156, 109.75798034667969],
    [0.14547204971313477, 2.6774933338165283, 0.08981021493673325, -115.38445281982422],
    [-0.07523220032453537, -0.08525560051202774, 2.6975741386413574, -81.8042221069336],
    [0.0, 0.0, 0.0, 1.0]
],
  "dcmmeta_reorient_transform": [
    [0.0, -1.0, 0.0, 81.0],
    [1.0, 0.0, 0.0, 0.0],
    [0.0, 0.0, 1.0, 0.0],
    [0.0, 0.0, 0.0, 1.0]
],
  "dcmmeta_shape": [82, 82, 56, 872],
  "dcmmeta_slice_dim": 2,
  "dcmmeta_version": 0.6,
  "global": {
    "const": {
      "AccessionNumber": "A004464",
      "AcquisitionMatrix": [82, 0, 0, 82],
      "AngioFlag": "N",
      "BitsAllocated": 16,
      "BitsStored": 16,
      "BodyPartExamined": "BRAIN",
      "Columns": 656,
      "EchoNumbers": 1,
      "EchoTime": 27.2,
      "EchoTrainLength": 82,
      "FlipAngle": 44.0,
      "HighBit": 15,
      "ImageOrientationPatient": [0.99813512962076, -0.0542213994539, -0.0280410923149, 0.05510541645422, 0.9979747541253, 0.03177708617797],
      "ImagePositionPatient": [-932.72856803081, -828.1826019527, -91.586640132024],
      "ImageType": [
        "ORIGINAL",
        "PRIMARY",
        "M",
        "MB",
        "ND",
        "NORM",
        "MOSAIC"
],
      "ImagedNucleus": "1H",
      "ImagingFrequency": 123.259123,
      "InPlanePhaseEncodingDirection": "COL",
      "MRAcquisitionType": "2D",
      "MagneticFieldStrength": 3.0,
      "Manufacturer": "SIEMENS",
      "ManufacturerModelName": "Prisma",
      "Modality": "MR",
      "NumberOfAverages": 1.0,
      "NumberOfPhaseEncodingSteps": 82,
      "PercentPhaseFieldOfView": 100.0,
      "PercentSampling": 100.0,
      "PerformedProcedureStepStartTime": "202635.875000",
      "PhotometricInterpretation": "MONOCHROME2",
      "PixelBandwidth": 3050.0,
      "PixelRepresentation": 0,
      "PixelSpacing": [2.6829268932343, 2.6829268932343],
      "ProtocolName": "func_run-05_task-social_acq-ap-mb8",
      "RepetitionTime": 460.0,
      "Rows": 656,
      "SAR": 0.09448953242611,
      "SamplesPerPixel": 1,
      "ScanOptions": "FS",
      "ScanningSequence": "EP",
      "SequenceName": "epfid2d1_82",
      "SequenceVariant": [
        "SK",
        "SS"
],
      "SeriesDescription": "func_run-05_task-social_acq-ap-mb8",
      "SeriesNumber": 22,
      "SeriesTime": "213433.822000",
      "SliceLocation": -88.451150258554,
      "SliceThickness": 2.7000000476837,
      "SmallestImagePixelValue": 0,
      "SoftwareVersions": "syngo MR E11",
      "SpacingBetweenSlices": 2.7000000053412,
      "SpecificCharacterSet": "ISO_IR 100",
      "StudyID": "1",
      "StudyTime": "202635.813000",
      "TransmitCoilName": "Body",
      "VariableFlipAngleFlag": "N",
      "WindowCenterWidthExplanation": "Algo1"
    },
    "slices": {}
  },
  "time": {
    "samples": {
      "AcquisitionNumber": [1, 2, 3, 4, 5, 6, 7, 8, 9, 10, 11, 12, 13, 14, 15, 16, 17, 18, 19, 20, 21, 22, 23, 24, 25, 26, 27, 28, 29, 30, 31, 32, 33, 34, 35, 36, 37, 38, 39, 40, 41, 42, 43, 44, 45, 46, 47, 48, 49, 50, 51, 52, 53, 54, 55, 56, 57, 58, 59, 60, 61, 62, 63, 64, 65, 66, 67, 68, 69, 70, 71, 72, 73, 74, 75, 76, 77, 78, 79, 80, 81, 82, 83, 84, 85, 86, 87, 88, 89, 90, 91, 92, 93, 94, 95, 96, 97, 98, 99, 100, 101, 102, 103, 104, 105, 106, 107, 108, 109, 110, 111, 112, 113, 114, 115, 116, 117, 118, 119, 120, 121, 122, 123, 124, 125, 126, 127, 128, 129, 130, 131, 132, 133, 134, 135, 136, 137, 138, 139, 140, 141, 142, 143, 144, 145, 146, 147, 148, 149, 150, 151, 152, 153, 154, 155, 156, 157, 158, 159, 160, 161, 162, 163, 164, 165, 166, 167, 168, 169, 170, 171, 172, 173, 174, 175, 176, 177, 178, 179, 180, 181, 182, 183, 184, 185, 186, 187, 188, 189, 190, 191, 192, 193, 194, 195, 196, 197, 198, 199, 200, 201, 202, 203, 204, 205, 206, 207, 208, 209, 210, 211, 212, 213, 214, 215, 216, 217, 218, 219, 220, 221, 222, 223, 224, 225, 226, 227, 228, 229, 230, 231, 232, 233, 234, 235, 236, 237, 238, 239, 240, 241, 242, 243, 244, 245, 246, 247, 248, 249, 250, 251, 252, 253, 254, 255, 256, 257, 258, 259, 260, 261, 262, 263, 264, 265, 266, 267, 268, 269, 270, 271, 272, 273, 274, 275, 276, 277, 278, 279, 280, 281, 282, 283, 284, 285, 286, 287, 288, 289, 290, 291, 292, 293, 294, 295, 296, 297, 298, 299, 300, 301, 302, 303, 304, 305, 306, 307, 308, 309, 310, 311, 312, 313, 314, 315, 316, 317, 318, 319, 320, 321, 322, 323, 324, 325, 326, 327, 328, 329, 330, 331, 332, 333, 334, 335, 336, 337, 338, 339, 340, 341, 342, 343, 344, 345, 346, 347, 348, 349, 350, 351, 352, 353, 354, 355, 356, 357, 358, 359, 360, 361, 362, 363, 364, 365, 366, 367, 368, 369, 370, 371, 372, 373, 374, 375, 376, 377, 378, 379, 380, 381, 382, 383, 384, 385, 386, 387, 388, 389, 390, 391, 392, 393, 394, 395, 396, 397, 398, 399, 400, 401, 402, 403, 404, 405, 406, 407, 408, 409, 410, 411, 412, 413, 414, 415, 416, 417, 418, 419, 420, 421, 422, 423, 424, 425, 426, 427, 428, 429, 430, 431, 432, 433, 434, 435, 436, 437, 438, 439, 440, 441, 442, 443, 444, 445, 446, 447, 448, 449, 450, 451, 452, 453, 454, 455, 456, 457, 458, 459, 460, 461, 462, 463, 464, 465, 466, 467, 468, 469, 470, 471, 472, 473, 474, 475, 476, 477, 478, 479, 480, 481, 482, 483, 484, 485, 486, 487, 488, 489, 490, 491, 492, 493, 494, 495, 496, 497, 498, 499, 500, 501, 502, 503, 504, 505, 506, 507, 508, 509, 510, 511, 512, 513, 514, 515, 516, 517, 518, 519, 520, 521, 522, 523, 524, 525, 526, 527, 528, 529, 530, 531, 532, 533, 534, 535, 536, 537, 538, 539, 540, 541, 542, 543, 544, 545, 546, 547, 548, 549, 550, 551, 552, 553, 554, 555, 556, 557, 558, 559, 560, 561, 562, 563, 564, 565, 566, 567, 568, 569, 570, 571, 572, 573, 574, 575, 576, 577, 578, 579, 580, 581, 582, 583, 584, 585, 586, 587, 588, 589, 590, 591, 592, 593, 594, 595, 596, 597, 598, 599, 600, 601, 602, 603, 604, 605, 606, 607, 608, 609, 610, 611, 612, 613, 614, 615, 616, 617, 618, 619, 620, 621, 622, 623, 624, 625, 626, 627, 628, 629, 630, 631, 632, 633, 634, 635, 636, 637, 638, 639, 640, 641, 642, 643, 644, 645, 646, 647, 648, 649, 650, 651, 652, 653, 654, 655, 656, 657, 658, 659, 660, 661, 662, 663, 664, 665, 666, 667, 668, 669, 670, 671, 672, 673, 674, 675, 676, 677, 678, 679, 680, 681, 682, 683, 684, 685, 686, 687, 688, 689, 690, 691, 692, 693, 694, 695, 696, 697, 698, 699, 700, 701, 702, 703, 704, 705, 706, 707, 708, 709, 710, 711, 712, 713, 714, 715, 716, 717, 718, 719, 720, 721, 722, 723, 724, 725, 726, 727, 728, 729, 730, 731, 732, 733, 734, 735, 736, 737, 738, 739, 740, 741, 742, 743, 744, 745, 746, 747, 748, 749, 750, 751, 752, 753, 754, 755, 756, 757, 758, 759, 760, 761, 762, 763, 764, 765, 766, 767, 768, 769, 770, 771, 772, 773, 774, 775, 776, 777, 778, 779, 780, 781, 782, 783, 784, 785, 786, 787, 788, 789, 790, 791, 792, 793, 794, 795, 796, 797, 798, 799, 800, 801, 802, 803, 804, 805, 806, 807, 808, 809, 810, 811, 812, 813, 814, 815, 816, 817, 818, 819, 820, 821, 822, 823, 824, 825, 826, 827, 828, 829, 830, 831, 832, 833, 834, 835, 836, 837, 838, 839, 840, 841, 842, 843, 844, 845, 846, 847, 848, 849, 850, 851, 852, 853, 854, 855, 856, 857, 858, 859, 860, 861, 862, 863, 864, 865, 866, 867, 868, 869, 870, 871, 872],
      "AcquisitionTime": ["213405.175000", "213405.635000", "213406.095000", "213406.555000", "213407.015000", "213407.475000", "213407.935000", "213408.395000", "213408.855000", "213409.315000", "213409.775000", "213410.235000", "213410.695000", "213411.155000", "213411.615000", "213412.075000", "213412.535000", "213412.995000", "213413.455000", "213413.915000", "213414.375000", "213414.835000", "213415.295000", "213415.755000", "213416.215000", "213416.675000", "213417.135000", "213417.595000", "213418.055000", "213418.515000", "213418.975000", "213419.435000", "213419.895000", "213420.355000", "213420.815000", "213421.275000", "213421.735000", "213422.195000", "213422.655000", "213423.115000", "213423.575000", "213424.035000", "213424.495000", "213424.955000", "213425.415000", "213425.875000", "213426.335000", "213426.795000", "213427.255000", "213427.715000", "213428.175000", "213428.635000", "213429.095000", "213429.555000", "213430.015000", "213430.475000", "213430.935000", "213431.395000", "213431.855000", "213432.315000", "213432.775000", "213433.235000", "213433.695000", "213434.155000", "213434.615000", "213435.075000", "213435.535000", "213435.995000", "213436.455000", "213436.915000", "213437.375000", "213437.835000", "213438.295000", "213438.755000", "213439.215000", "213439.675000", "213440.135000", "213440.595000", "213441.055000", "213441.515000", "213441.975000", "213442.435000", "213442.895000", "213443.355000", "213443.815000", "213444.275000", "213444.735000", "213445.195000", "213445.655000", "213446.115000", "213446.575000", "213447.035000", "213447.495000", "213447.955000", "213448.415000", "213448.875000", "213449.335000", "213449.795000", "213450.255000", "213450.715000", "213451.175000", "213451.635000", "213452.095000", "213452.555000", "213453.015000", "213453.475000", "213453.935000", "213454.395000", "213454.855000", "213455.315000", "213455.775000", "213456.235000", "213456.695000", "213457.155000", "213457.615000", "213458.075000", "213458.535000", "213458.995000", "213459.455000", "213459.915000", "213500.375000", "213500.835000", "213501.295000", "213501.755000", "213502.215000", "213502.675000", "213503.135000", "213503.595000", "213504.055000", "213504.515000", "213504.975000", "213505.435000", "213505.895000", "213506.355000", "213506.815000", "213507.275000", "213507.735000", "213508.195000", "213508.655000", "213509.115000", "213509.575000", "213510.035000", "213510.495000", "213510.955000", "213511.415000", "213511.875000", "213512.335000", "213512.795000", "213513.255000", "213513.715000", "213514.175000", "213514.635000", "213515.095000", "213515.555000", "213516.015000", "213516.475000", "213516.935000", "213517.395000", "213517.855000", "213518.315000", "213518.775000", "213519.235000", "213519.695000", "213520.155000", "213520.615000", "213521.075000", "213521.535000", "213521.995000", "213522.455000", "213522.915000", "213523.375000", "213523.835000", "213524.295000", "213524.755000", "213525.215000", "213525.675000", "213526.135000", "213526.595000", "213527.055000", "213527.515000", "213527.975000", "213528.435000", "213528.895000", "213529.355000", "213529.815000", "213530.275000", "213530.735000", "213531.195000", "213531.655000", "213532.115000", "213532.575000", "213533.035000", "213533.495000", "213533.955000", "213534.415000", "213534.875000", "213535.335000", "213535.795000", "213536.255000", "213536.715000", "213537.175000", "213537.635000", "213538.095000", "213538.555000", "213539.015000", "213539.475000", "213539.935000", "213540.395000", "213540.855000", "213541.315000", "213541.775000", "213542.235000", "213542.695000", "213543.155000", "213543.615000", "213544.075000", "213544.535000", "213544.995000", "213545.455000", "213545.915000", "213546.375000", "213546.835000", "213547.295000", "213547.755000", "213548.215000", "213548.675000", "213549.135000", "213549.595000", "213550.055000", "213550.515000", "213550.975000", "213551.435000", "213551.895000", "213552.355000", "213552.815000", "213553.275000", "213553.735000", "213554.195000", "213554.655000", "213555.115000", "213555.575000", "213556.035000", "213556.495000", "213556.955000", "213557.415000", "213557.875000", "213558.335000", "213558.795000", "213559.255000", "213559.715000", "213600.175000", "213600.635000", "213601.095000", "213601.555000", "213602.015000", "213602.475000", "213602.935000", "213603.395000", "213603.855000", "213604.315000", "213604.775000", "213605.235000", "213605.695000", "213606.155000", "213606.615000", "213607.075000", "213607.535000", "213607.995000", "213608.455000", "213608.915000", "213609.375000", "213609.835000", "213610.295000", "213610.755000", "213611.215000", "213611.675000", "213612.135000", "213612.595000", "213613.055000", "213613.515000", "213613.975000", "213614.435000", "213614.895000", "213615.355000", "213615.815000", "213616.275000", "213616.735000", "213617.195000", "213617.655000", "213618.115000", "213618.575000", "213619.035000", "213619.495000", "213619.955000", "213620.415000", "213620.875000", "213621.335000", "213621.795000", "213622.255000", "213622.715000", "213623.175000", "213623.635000", "213624.095000", "213624.555000", "213625.015000", "213625.475000", "213625.935000", "213626.395000", "213626.855000", "213627.315000", "213627.775000", "213628.235000", "213628.695000", "213629.155000", "213629.615000", "213630.075000", "213630.535000", "213630.995000", "213631.455000", "213631.915000", "213632.375000", "213632.835000", "213633.295000", "213633.755000", "213634.215000", "213634.675000", "213635.135000", "213635.595000", "213636.055000", "213636.515000", "213636.975000", "213637.435000", "213637.895000", "213638.355000", "213638.815000", "213639.275000", "213639.735000", "213640.195000", "213640.655000", "213641.115000", "213641.575000", "213642.035000", "213642.495000", "213642.955000", "213643.415000", "213643.875000", "213644.335000", "213644.795000", "213645.255000", "213645.715000", "213646.175000", "213646.635000", "213647.095000", "213647.555000", "213648.015000", "213648.475000", "213648.935000", "213649.395000", "213649.855000", "213650.315000", "213650.775000", "213651.235000", "213651.695000", "213652.155000", "213652.615000", "213653.075000", "213653.535000", "213653.995000", "213654.455000", "213654.915000", "213655.375000", "213655.835000", "213656.295000", "213656.755000", "213657.215000", "213657.675000", "213658.135000", "213658.595000", "213659.055000", "213659.515000", "213659.975000", "213700.435000", "213700.895000", "213701.355000", "213701.815000", "213702.275000", "213702.735000", "213703.195000", "213703.655000", "213704.115000", "213704.575000", "213705.035000", "213705.495000", "213705.955000", "213706.415000", "213706.875000", "213707.335000", "213707.795000", "213708.255000", "213708.715000", "213709.175000", "213709.635000", "213710.095000", "213710.555000", "213711.015000", "213711.475000", "213711.935000", "213712.395000", "213712.855000", "213713.315000", "213713.775000", "213714.235000", "213714.695000", "213715.155000", "213715.615000", "213716.075000", "213716.535000", "213716.995000", "213717.455000", "213717.915000", "213718.375000", "213718.835000", "213719.295000", "213719.755000", "213720.215000", "213720.675000", "213721.135000", "213721.595000", "213722.055000", "213722.515000", "213722.975000", "213723.435000", "213723.895000", "213724.355000", "213724.815000", "213725.275000", "213725.735000", "213726.195000", "213726.655000", "213727.115000", "213727.575000", "213728.035000", "213728.495000", "213728.955000", "213729.415000", "213729.875000", "213730.335000", "213730.795000", "213731.255000", "213731.715000", "213732.175000", "213732.635000", "213733.095000", "213733.555000", "213734.015000", "213734.475000", "213734.935000", "213735.395000", "213735.855000", "213736.315000", "213736.775000", "213737.235000", "213737.695000", "213738.155000", "213738.615000", "213739.075000", "213739.535000", "213739.995000", "213740.455000", "213740.915000", "213741.375000", "213741.835000", "213742.295000", "213742.755000", "213743.215000", "213743.675000", "213744.135000", "213744.595000", "213745.055000", "213745.515000", "213745.975000", "213746.435000", "213746.895000", "213747.355000", "213747.815000", "213748.275000", "213748.735000", "213749.195000", "213749.655000", "213750.115000", "213750.575000", "213751.035000", "213751.495000", "213751.955000", "213752.415000", "213752.875000", "213753.335000", "213753.795000", "213754.255000", "213754.715000", "213755.175000", "213755.635000", "213756.095000", "213756.555000", "213757.015000", "213757.475000", "213757.935000", "213758.395000", "213758.855000", "213759.315000", "213759.775000", "213800.235000", "213800.695000", "213801.155000", "213801.615000", "213802.075000", "213802.535000", "213802.995000", "213803.455000", "213803.915000", "213804.375000", "213804.835000", "213805.295000", "213805.755000", "213806.215000", "213806.675000", "213807.135000", "213807.595000", "213808.055000", "213808.515000", "213808.975000", "213809.435000", "213809.895000", "213810.355000", "213810.815000", "213811.275000", "213811.735000", "213812.195000", "213812.655000", "213813.115000", "213813.575000", "213814.035000", "213814.495000", "213814.955000", "213815.415000", "213815.875000", "213816.335000", "213816.795000", "213817.255000", "213817.715000", "213818.175000", "213818.635000", "213819.095000", "213819.555000", "213820.015000", "213820.475000", "213820.935000", "213821.395000", "213821.855000", "213822.315000", "213822.775000", "213823.235000", "213823.695000", "213824.155000", "213824.615000", "213825.075000", "213825.535000", "213825.995000", "213826.455000", "213826.915000", "213827.375000", "213827.835000", "213828.295000", "213828.755000", "213829.215000", "213829.675000", "213830.135000", "213830.595000", "213831.055000", "213831.515000", "213831.975000", "213832.435000", "213832.895000", "213833.355000", "213833.815000", "213834.275000", "213834.735000", "213835.195000", "213835.655000", "213836.115000", "213836.575000", "213837.035000", "213837.495000", "213837.955000", "213838.415000", "213838.875000", "213839.335000", "213839.795000", "213840.255000", "213840.715000", "213841.175000", "213841.635000", "213842.095000", "213842.555000", "213843.015000", "213843.475000", "213843.935000", "213844.395000", "213844.855000", "213845.315000", "213845.775000", "213846.235000", "213846.695000", "213847.155000", "213847.615000", "213848.075000", "213848.535000", "213848.995000", "213849.455000", "213849.915000", "213850.375000", "213850.835000", "213851.295000", "213851.755000", "213852.215000", "213852.675000", "213853.135000", "213853.595000", "213854.055000", "213854.515000", "213854.975000", "213855.435000", "213855.895000", "213856.355000", "213856.815000", "213857.275000", "213857.735000", "213858.195000", "213858.655000", "213859.115000", "213859.575000", "213900.035000", "213900.495000", "213900.955000", "213901.415000", "213901.875000", "213902.335000", "213902.795000", "213903.255000", "213903.715000", "213904.175000", "213904.635000", "213905.095000", "213905.555000", "213906.015000", "213906.475000", "213906.935000", "213907.395000", "213907.855000", "213908.315000", "213908.775000", "213909.235000", "213909.695000", "213910.155000", "213910.615000", "213911.075000", "213911.535000", "213911.995000", "213912.455000", "213912.915000", "213913.375000", "213913.835000", "213914.295000", "213914.755000", "213915.215000", "213915.675000", "213916.135000", "213916.595000", "213917.055000", "213917.515000", "213917.975000", "213918.435000", "213918.895000", "213919.355000", "213919.815000", "213920.275000", "213920.735000", "213921.195000", "213921.655000", "213922.115000", "213922.575000", "213923.035000", "213923.495000", "213923.955000", "213924.415000", "213924.875000", "213925.335000", "213925.795000", "213926.255000", "213926.715000", "213927.175000", "213927.635000", "213928.095000", "213928.555000", "213929.015000", "213929.475000", "213929.935000", "213930.395000", "213930.855000", "213931.315000", "213931.775000", "213932.235000", "213932.695000", "213933.155000", "213933.615000", "213934.075000", "213934.535000", "213934.995000", "213935.455000", "213935.915000", "213936.375000", "213936.835000", "213937.295000", "213937.755000", "213938.215000", "213938.675000", "213939.135000", "213939.595000", "213940.055000", "213940.515000", "213940.975000", "213941.435000", "213941.895000", "213942.355000", "213942.815000", "213943.275000", "213943.735000", "213944.195000", "213944.655000", "213945.115000", "213945.575000", "213946.035000", "213946.495000", "213946.955000", "213947.415000", "213947.875000", "213948.335000", "213948.795000", "213949.255000", "213949.715000", "213950.175000", "213950.635000", "213951.095000", "213951.555000", "213952.015000", "213952.475000", "213952.935000", "213953.395000", "213953.855000", "213954.315000", "213954.775000", "213955.235000", "213955.695000", "213956.155000", "213956.615000", "213957.075000", "213957.535000", "213957.995000", "213958.455000", "213958.915000", "213959.375000", "213959.835000", "214000.295000", "214000.755000", "214001.215000", "214001.675000", "214002.135000", "214002.595000", "214003.055000", "214003.515000", "214003.975000", "214004.435000", "214004.895000", "214005.355000", "214005.815000", "214006.275000", "214006.735000", "214007.195000", "214007.655000", "214008.115000", "214008.575000", "214009.035000", "214009.495000", "214009.955000", "214010.415000", "214010.875000", "214011.335000", "214011.795000", "214012.255000", "214012.715000", "214013.175000", "214013.635000", "214014.095000", "214014.555000", "214015.015000", "214015.475000", "214015.935000", "214016.395000", "214016.855000", "214017.315000", "214017.775000", "214018.235000", "214018.695000", "214019.155000", "214019.615000", "214020.075000", "214020.535000", "214020.995000", "214021.455000", "214021.915000", "214022.375000", "214022.835000", "214023.295000", "214023.755000", "214024.215000", "214024.675000", "214025.135000", "214025.595000", "214026.055000", "214026.515000", "214026.975000", "214027.435000", "214027.895000", "214028.355000", "214028.815000", "214029.275000", "214029.735000", "214030.195000", "214030.655000", "214031.115000", "214031.575000", "214032.035000", "214032.495000", "214032.955000", "214033.415000", "214033.875000", "214034.335000", "214034.795000", "214035.255000", "214035.715000", "214036.175000", "214036.635000", "214037.095000", "214037.555000", "214038.015000", "214038.475000", "214038.935000", "214039.395000", "214039.855000", "214040.315000", "214040.775000", "214041.235000", "214041.695000", "214042.155000", "214042.615000", "214043.075000", "214043.535000", "214043.995000", "214044.455000", "214044.915000", "214045.375000", "214045.835000"],
