{
  "AcquisitionMatrixPE": 82,
  "AcquisitionNumber": 1,
  "AcquisitionTime": "21:17:41.085000",
  "BandwidthPerPixelPhaseEncode": 24.888,
  "BaseResolution": 82,
  "BodyPartExamined": "BRAIN",
  "ConsistencyInfo": "N4_VE11E_LATEST_20181129",
  "ConversionSoftware": "dcm2niix",
  "ConversionSoftwareVersion": "v1.0.20201102",
  "DerivedVendorReportedEchoSpacing": 0.00049,
  "DeviceSerialNumber": "66112",
  "DwellTime": 2e-06,
  "EchoTime": 0.0272,
  "EchoTrainLength": 82,
  "EffectiveEchoSpacing": 0.00049,
  "FlipAngle": 44,
  "ImageComments": "Unaliased MB8/PE3",
  "ImageOrientationPatientDICOM": [0.998135, -0.0542214, -0.0280411, 0.0551054, 0.997975, 0.0317771],
  "ImageType": [
    "ORIGINAL",
    "PRIMARY",
    "M",
    "MB",
    "ND",
    "NORM",
    "MOSAIC"
],
  "ImagingFrequency": 123.259,
  "InPlanePhaseEncodingDirectionDICOM": "COL",
  "InstitutionAddress": "Maynard 3,Hanover,NH,US,03755",
  "InstitutionName": "Dartmouth College - PBS",
  "InstitutionalDepartmentName": "Department",
  "MRAcquisitionType": "2D",
  "MagneticFieldStrength": 3,
  "Manufacturer": "Siemens",
  "ManufacturersModelName": "Prisma",
  "Modality": "MR",
  "MultibandAccelerationFactor": 8,
  "PartialFourier": 1,
  "PatientPosition": "HFS",
  "PercentPhaseFOV": 100,
  "PercentSampling": 100,
  "PhaseEncodingDirection": "j-",
  "PhaseEncodingSteps": 82,
  "PhaseResolution": 1,
  "PixelBandwidth": 3050,
  "ProcedureStepDescription": "Wager_Wager^1076_spacetop",
  "ProtocolName": "func_run-03_task-social_acq-ap-mb8",
  "PulseSequenceDetails": "%CustomerSeq%\\cmrr_mbep2d_bold",
  "ReceiveCoilActiveElements": "HEA;HEP",
  "ReceiveCoilName": "Head_32",
  "ReconMatrixPE": 82,
  "RepetitionTime": 0.46,
  "SAR": 0.0944895,
  "ScanOptions": "FS",
  "ScanningSequence": "EP",
  "SequenceName": "epfid2d1_82",
  "SequenceVariant": "SK\\SS",
  "SeriesDescription": "func_run-03_task-social_acq-ap-mb8",
  "SeriesNumber": 18,
  "ShimSetting": [4222, -7785, -7257, 341, -85, -2, -23, 87],
  "SliceThickness": 2.7,
  "SliceTiming": [0, 0.25, 0.0625, 0.3125, 0.125, 0.375, 0.1875, 0, 0.25, 0.0625, 0.3125, 0.125, 0.375, 0.1875, 0, 0.25, 0.0625, 0.3125, 0.125, 0.375, 0.1875, 0, 0.25, 0.0625, 0.3125, 0.125, 0.375, 0.1875, 0, 0.25, 0.0625, 0.3125, 0.125, 0.375, 0.1875, 0, 0.25, 0.0625, 0.3125, 0.125, 0.375, 0.1875, 0, 0.25, 0.0625, 0.3125, 0.125, 0.375, 0.1875, 0, 0.25, 0.0625, 0.3125, 0.125, 0.375, 0.1875],
  "SoftwareVersions": "syngo MR E11",
  "SpacingBetweenSlices": 2.7,
  "StationName": "AWP66112",
  "TaskName": "social",
  "TotalReadoutTime": 0.03969,
  "TxRefAmp": 241.594,
  "WipMemBlock": "b8024407-0d41-44bf-8a62-61b3ca17414f||Sequence: R016 ve11e/master r/434b28f1; Aug  7 2019 18:53:46 by eja",
  "dcmmeta_affine": [
    [-2.6779236793518066, 0.14784380793571472, -0.07090552151203156, 109.75798034667969],
    [0.14547204971313477, 2.6774933338165283, 0.08981021493673325, -115.38445281982422],
    [-0.07523220032453537, -0.08525560051202774, 2.6975741386413574, -81.8042221069336],
    [0.0, 0.0, 0.0, 1.0]
],
  "dcmmeta_reorient_transform": [
    [0.0, -1.0, 0.0, 81.0],
    [1.0, 0.0, 0.0, 0.0],
    [0.0, 0.0, 1.0, 0.0],
    [0.0, 0.0, 0.0, 1.0]
],
  "dcmmeta_shape": [82, 82, 56, 872],
  "dcmmeta_slice_dim": 2,
  "dcmmeta_version": 0.6,
  "global": {
    "const": {
      "AccessionNumber": "A004464",
      "AcquisitionMatrix": [82, 0, 0, 82],
      "AngioFlag": "N",
      "BitsAllocated": 16,
      "BitsStored": 16,
      "BodyPartExamined": "BRAIN",
      "Columns": 656,
      "EchoNumbers": 1,
      "EchoTime": 27.2,
      "EchoTrainLength": 82,
      "FlipAngle": 44.0,
      "HighBit": 15,
      "ImageOrientationPatient": [0.99813512962076, -0.0542213994539, -0.0280410923149, 0.05510541645422, 0.9979747541253, 0.03177708617797],
      "ImagePositionPatient": [-932.72856803081, -828.1826019527, -91.586640132024],
      "ImageType": [
        "ORIGINAL",
        "PRIMARY",
        "M",
        "MB",
        "ND",
        "NORM",
        "MOSAIC"
],
      "ImagedNucleus": "1H",
      "ImagingFrequency": 123.259119,
      "InPlanePhaseEncodingDirection": "COL",
      "MRAcquisitionType": "2D",
      "MagneticFieldStrength": 3.0,
      "Manufacturer": "SIEMENS",
      "ManufacturerModelName": "Prisma",
      "Modality": "MR",
      "NumberOfAverages": 1.0,
      "NumberOfPhaseEncodingSteps": 82,
      "PercentPhaseFieldOfView": 100.0,
      "PercentSampling": 100.0,
      "PerformedProcedureStepStartTime": "202635.875000",
      "PhotometricInterpretation": "MONOCHROME2",
      "PixelBandwidth": 3050.0,
      "PixelRepresentation": 0,
      "PixelSpacing": [2.6829268932343, 2.6829268932343],
      "ProtocolName": "func_run-03_task-social_acq-ap-mb8",
      "RepetitionTime": 460.0,
      "Rows": 656,
      "SAR": 0.09448953242611,
      "SamplesPerPixel": 1,
      "ScanOptions": "FS",
      "ScanningSequence": "EP",
      "SequenceName": "epfid2d1_82",
      "SequenceVariant": [
        "SK",
        "SS"
],
      "SeriesDescription": "func_run-03_task-social_acq-ap-mb8",
      "SeriesNumber": 18,
      "SeriesTime": "211753.930000",
      "SliceLocation": -88.451150258554,
      "SliceThickness": 2.7000000476837,
      "SmallestImagePixelValue": 0,
      "SoftwareVersions": "syngo MR E11",
      "SpacingBetweenSlices": 2.7000000053412,
      "SpecificCharacterSet": "ISO_IR 100",
      "StudyID": "1",
      "StudyTime": "202635.813000",
      "TransmitCoilName": "Body",
      "VariableFlipAngleFlag": "N",
      "WindowCenterWidthExplanation": "Algo1"
    },
    "slices": {}
  },
  "time": {
    "samples": {
      "AcquisitionNumber": [1, 2, 3, 4, 5, 6, 7, 8, 9, 10, 11, 12, 13, 14, 15, 16, 17, 18, 19, 20, 21, 22, 23, 24, 25, 26, 27, 28, 29, 30, 31, 32, 33, 34, 35, 36, 37, 38, 39, 40, 41, 42, 43, 44, 45, 46, 47, 48, 49, 50, 51, 52, 53, 54, 55, 56, 57, 58, 59, 60, 61, 62, 63, 64, 65, 66, 67, 68, 69, 70, 71, 72, 73, 74, 75, 76, 77, 78, 79, 80, 81, 82, 83, 84, 85, 86, 87, 88, 89, 90, 91, 92, 93, 94, 95, 96, 97, 98, 99, 100, 101, 102, 103, 104, 105, 106, 107, 108, 109, 110, 111, 112, 113, 114, 115, 116, 117, 118, 119, 120, 121, 122, 123, 124, 125, 126, 127, 128, 129, 130, 131, 132, 133, 134, 135, 136, 137, 138, 139, 140, 141, 142, 143, 144, 145, 146, 147, 148, 149, 150, 151, 152, 153, 154, 155, 156, 157, 158, 159, 160, 161, 162, 163, 164, 165, 166, 167, 168, 169, 170, 171, 172, 173, 174, 175, 176, 177, 178, 179, 180, 181, 182, 183, 184, 185, 186, 187, 188, 189, 190, 191, 192, 193, 194, 195, 196, 197, 198, 199, 200, 201, 202, 203, 204, 205, 206, 207, 208, 209, 210, 211, 212, 213, 214, 215, 216, 217, 218, 219, 220, 221, 222, 223, 224, 225, 226, 227, 228, 229, 230, 231, 232, 233, 234, 235, 236, 237, 238, 239, 240, 241, 242, 243, 244, 245, 246, 247, 248, 249, 250, 251, 252, 253, 254, 255, 256, 257, 258, 259, 260, 261, 262, 263, 264, 265, 266, 267, 268, 269, 270, 271, 272, 273, 274, 275, 276, 277, 278, 279, 280, 281, 282, 283, 284, 285, 286, 287, 288, 289, 290, 291, 292, 293, 294, 295, 296, 297, 298, 299, 300, 301, 302, 303, 304, 305, 306, 307, 308, 309, 310, 311, 312, 313, 314, 315, 316, 317, 318, 319, 320, 321, 322, 323, 324, 325, 326, 327, 328, 329, 330, 331, 332, 333, 334, 335, 336, 337, 338, 339, 340, 341, 342, 343, 344, 345, 346, 347, 348, 349, 350, 351, 352, 353, 354, 355, 356, 357, 358, 359, 360, 361, 362, 363, 364, 365, 366, 367, 368, 369, 370, 371, 372, 373, 374, 375, 376, 377, 378, 379, 380, 381, 382, 383, 384, 385, 386, 387, 388, 389, 390, 391, 392, 393, 394, 395, 396, 397, 398, 399, 400, 401, 402, 403, 404, 405, 406, 407, 408, 409, 410, 411, 412, 413, 414, 415, 416, 417, 418, 419, 420, 421, 422, 423, 424, 425, 426, 427, 428, 429, 430, 431, 432, 433, 434, 435, 436, 437, 438, 439, 440, 441, 442, 443, 444, 445, 446, 447, 448, 449, 450, 451, 452, 453, 454, 455, 456, 457, 458, 459, 460, 461, 462, 463, 464, 465, 466, 467, 468, 469, 470, 471, 472, 473, 474, 475, 476, 477, 478, 479, 480, 481, 482, 483, 484, 485, 486, 487, 488, 489, 490, 491, 492, 493, 494, 495, 496, 497, 498, 499, 500, 501, 502, 503, 504, 505, 506, 507, 508, 509, 510, 511, 512, 513, 514, 515, 516, 517, 518, 519, 520, 521, 522, 523, 524, 525, 526, 527, 528, 529, 530, 531, 532, 533, 534, 535, 536, 537, 538, 539, 540, 541, 542, 543, 544, 545, 546, 547, 548, 549, 550, 551, 552, 553, 554, 555, 556, 557, 558, 559, 560, 561, 562, 563, 564, 565, 566, 567, 568, 569, 570, 571, 572, 573, 574, 575, 576, 577, 578, 579, 580, 581, 582, 583, 584, 585, 586, 587, 588, 589, 590, 591, 592, 593, 594, 595, 596, 597, 598, 599, 600, 601, 602, 603, 604, 605, 606, 607, 608, 609, 610, 611, 612, 613, 614, 615, 616, 617, 618, 619, 620, 621, 622, 623, 624, 625, 626, 627, 628, 629, 630, 631, 632, 633, 634, 635, 636, 637, 638, 639, 640, 641, 642, 643, 644, 645, 646, 647, 648, 649, 650, 651, 652, 653, 654, 655, 656, 657, 658, 659, 660, 661, 662, 663, 664, 665, 666, 667, 668, 669, 670, 671, 672, 673, 674, 675, 676, 677, 678, 679, 680, 681, 682, 683, 684, 685, 686, 687, 688, 689, 690, 691, 692, 693, 694, 695, 696, 697, 698, 699, 700, 701, 702, 703, 704, 705, 706, 707, 708, 709, 710, 711, 712, 713, 714, 715, 716, 717, 718, 719, 720, 721, 722, 723, 724, 725, 726, 727, 728, 729, 730, 731, 732, 733, 734, 735, 736, 737, 738, 739, 740, 741, 742, 743, 744, 745, 746, 747, 748, 749, 750, 751, 752, 753, 754, 755, 756, 757, 758, 759, 760, 761, 762, 763, 764, 765, 766, 767, 768, 769, 770, 771, 772, 773, 774, 775, 776, 777, 778, 779, 780, 781, 782, 783, 784, 785, 786, 787, 788, 789, 790, 791, 792, 793, 794, 795, 796, 797, 798, 799, 800, 801, 802, 803, 804, 805, 806, 807, 808, 809, 810, 811, 812, 813, 814, 815, 816, 817, 818, 819, 820, 821, 822, 823, 824, 825, 826, 827, 828, 829, 830, 831, 832, 833, 834, 835, 836, 837, 838, 839, 840, 841, 842, 843, 844, 845, 846, 847, 848, 849, 850, 851, 852, 853, 854, 855, 856, 857, 858, 859, 860, 861, 862, 863, 864, 865, 866, 867, 868, 869, 870, 871, 872],
      "AcquisitionTime": ["211741.085000", "211741.545000", "211742.005000", "211742.465000", "211742.925000", "211743.385000", "211743.845000", "211744.305000", "211744.765000", "211745.225000", "211745.685000", "211746.145000", "211746.605000", "211747.065000", "211747.525000", "211747.985000", "211748.445000", "211748.905000", "211749.365000", "211749.825000", "211750.285000", "211750.745000", "211751.205000", "211751.665000", "211752.125000", "211752.585000", "211753.045000", "211753.505000", "211753.965000", "211754.425000", "211754.885000", "211755.345000", "211755.805000", "211756.265000", "211756.725000", "211757.185000", "211757.645000", "211758.105000", "211758.565000", "211759.025000", "211759.485000", "211759.945000", "211800.405000", "211800.865000", "211801.325000", "211801.785000", "211802.245000", "211802.705000", "211803.165000", "211803.625000", "211804.085000", "211804.545000", "211805.005000", "211805.465000", "211805.925000", "211806.385000", "211806.845000", "211807.305000", "211807.765000", "211808.225000", "211808.685000", "211809.145000", "211809.605000", "211810.065000", "211810.525000", "211810.985000", "211811.445000", "211811.905000", "211812.365000", "211812.825000", "211813.285000", "211813.745000", "211814.205000", "211814.665000", "211815.125000", "211815.585000", "211816.045000", "211816.505000", "211816.965000", "211817.425000", "211817.885000", "211818.345000", "211818.805000", "211819.265000", "211819.725000", "211820.185000", "211820.645000", "211821.105000", "211821.565000", "211822.025000", "211822.485000", "211822.945000", "211823.405000", "211823.865000", "211824.325000", "211824.785000", "211825.245000", "211825.705000", "211826.165000", "211826.625000", "211827.085000", "211827.545000", "211828.005000", "211828.465000", "211828.925000", "211829.385000", "211829.845000", "211830.305000", "211830.765000", "211831.225000", "211831.685000", "211832.145000", "211832.605000", "211833.065000", "211833.525000", "211833.985000", "211834.445000", "211834.905000", "211835.365000", "211835.825000", "211836.285000", "211836.745000", "211837.205000", "211837.665000", "211838.125000", "211838.585000", "211839.045000", "211839.505000", "211839.965000", "211840.425000", "211840.885000", "211841.345000", "211841.805000", "211842.265000", "211842.725000", "211843.185000", "211843.645000", "211844.105000", "211844.565000", "211845.025000", "211845.485000", "211845.945000", "211846.405000", "211846.865000", "211847.325000", "211847.785000", "211848.245000", "211848.705000", "211849.165000", "211849.625000", "211850.085000", "211850.545000", "211851.005000", "211851.465000", "211851.925000", "211852.385000", "211852.845000", "211853.305000", "211853.765000", "211854.225000", "211854.685000", "211855.145000", "211855.605000", "211856.065000", "211856.525000", "211856.985000", "211857.445000", "211857.905000", "211858.365000", "211858.825000", "211859.285000", "211859.745000", "211900.205000", "211900.665000", "211901.125000", "211901.585000", "211902.045000", "211902.505000", "211902.965000", "211903.425000", "211903.885000", "211904.345000", "211904.805000", "211905.265000", "211905.725000", "211906.185000", "211906.645000", "211907.105000", "211907.565000", "211908.025000", "211908.485000", "211908.945000", "211909.405000", "211909.865000", "211910.325000", "211910.785000", "211911.245000", "211911.705000", "211912.165000", "211912.625000", "211913.085000", "211913.545000", "211914.005000", "211914.465000", "211914.925000", "211915.385000", "211915.845000", "211916.305000", "211916.765000", "211917.225000", "211917.685000", "211918.145000", "211918.605000", "211919.065000", "211919.525000", "211919.985000", "211920.445000", "211920.905000", "211921.365000", "211921.825000", "211922.285000", "211922.745000", "211923.205000", "211923.665000", "211924.125000", "211924.585000", "211925.045000", "211925.505000", "211925.965000", "211926.425000", "211926.885000", "211927.345000", "211927.805000", "211928.265000", "211928.725000", "211929.185000", "211929.645000", "211930.105000", "211930.565000", "211931.025000", "211931.485000", "211931.945000", "211932.405000", "211932.865000", "211933.325000", "211933.785000", "211934.245000", "211934.705000", "211935.165000", "211935.625000", "211936.085000", "211936.545000", "211937.005000", "211937.465000", "211937.925000", "211938.385000", "211938.845000", "211939.305000", "211939.765000", "211940.225000", "211940.685000", "211941.145000", "211941.605000", "211942.065000", "211942.525000", "211942.985000", "211943.445000", "211943.905000", "211944.365000", "211944.825000", "211945.285000", "211945.745000", "211946.205000", "211946.665000", "211947.125000", "211947.585000", "211948.045000", "211948.505000", "211948.965000", "211949.425000", "211949.885000", "211950.345000", "211950.805000", "211951.265000", "211951.725000", "211952.185000", "211952.645000", "211953.105000", "211953.565000", "211954.025000", "211954.485000", "211954.945000", "211955.405000", "211955.865000", "211956.325000", "211956.785000", "211957.245000", "211957.705000", "211958.165000", "211958.625000", "211959.085000", "211959.545000", "212000.005000", "212000.465000", "212000.925000", "212001.385000", "212001.845000", "212002.305000", "212002.765000", "212003.225000", "212003.685000", "212004.145000", "212004.605000", "212005.065000", "212005.525000", "212005.985000", "212006.445000", "212006.905000", "212007.365000", "212007.825000", "212008.285000", "212008.745000", "212009.205000", "212009.665000", "212010.125000", "212010.585000", "212011.045000", "212011.505000", "212011.965000", "212012.425000", "212012.885000", "212013.345000", "212013.805000", "212014.265000", "212014.725000", "212015.185000", "212015.645000", "212016.105000", "212016.565000", "212017.025000", "212017.485000", "212017.945000", "212018.405000", "212018.865000", "212019.325000", "212019.785000", "212020.245000", "212020.705000", "212021.165000", "212021.625000", "212022.085000", "212022.545000", "212023.005000", "212023.465000", "212023.925000", "212024.385000", "212024.845000", "212025.305000", "212025.765000", "212026.225000", "212026.685000", "212027.145000", "212027.605000", "212028.065000", "212028.525000", "212028.985000", "212029.445000", "212029.905000", "212030.365000", "212030.825000", "212031.285000", "212031.745000", "212032.205000", "212032.665000", "212033.125000", "212033.585000", "212034.045000", "212034.505000", "212034.965000", "212035.425000", "212035.885000", "212036.345000", "212036.805000", "212037.265000", "212037.725000", "212038.185000", "212038.645000", "212039.105000", "212039.565000", "212040.025000", "212040.485000", "212040.945000", "212041.405000", "212041.865000", "212042.325000", "212042.785000", "212043.245000", "212043.705000", "212044.165000", "212044.625000", "212045.085000", "212045.545000", "212046.005000", "212046.465000", "212046.925000", "212047.385000", "212047.845000", "212048.305000", "212048.765000", "212049.225000", "212049.685000", "212050.145000", "212050.605000", "212051.065000", "212051.525000", "212051.985000", "212052.445000", "212052.905000", "212053.365000", "212053.825000", "212054.285000", "212054.745000", "212055.205000", "212055.665000", "212056.125000", "212056.585000", "212057.045000", "212057.505000", "212057.965000", "212058.425000", "212058.885000", "212059.345000", "212059.805000", "212100.265000", "212100.725000", "212101.185000", "212101.645000", "212102.105000", "212102.565000", "212103.025000", "212103.485000", "212103.945000", "212104.405000", "212104.865000", "212105.325000", "212105.785000", "212106.245000", "212106.705000", "212107.165000", "212107.625000", "212108.085000", "212108.545000", "212109.005000", "212109.465000", "212109.925000", "212110.385000", "212110.845000", "212111.305000", "212111.765000", "212112.225000", "212112.685000", "212113.145000", "212113.605000", "212114.065000", "212114.525000", "212114.985000", "212115.445000", "212115.905000", "212116.365000", "212116.825000", "212117.285000", "212117.745000", "212118.205000", "212118.665000", "212119.125000", "212119.585000", "212120.045000", "212120.505000", "212120.965000", "212121.425000", "212121.885000", "212122.345000", "212122.805000", "212123.265000", "212123.725000", "212124.185000", "212124.645000", "212125.105000", "212125.565000", "212126.025000", "212126.485000", "212126.945000", "212127.405000", "212127.865000", "212128.325000", "212128.785000", "212129.245000", "212129.705000", "212130.165000", "212130.625000", "212131.085000", "212131.545000", "212132.005000", "212132.465000", "212132.925000", "212133.385000", "212133.845000", "212134.305000", "212134.765000", "212135.225000", "212135.685000", "212136.145000", "212136.605000", "212137.065000", "212137.525000", "212137.985000", "212138.445000", "212138.905000", "212139.365000", "212139.825000", "212140.285000", "212140.745000", "212141.205000", "212141.665000", "212142.125000", "212142.585000", "212143.045000", "212143.505000", "212143.965000", "212144.425000", "212144.885000", "212145.345000", "212145.805000", "212146.265000", "212146.725000", "212147.185000", "212147.645000", "212148.105000", "212148.565000", "212149.025000", "212149.485000", "212149.945000", "212150.405000", "212150.865000", "212151.325000", "212151.785000", "212152.245000", "212152.705000", "212153.165000", "212153.625000", "212154.085000", "212154.545000", "212155.005000", "212155.465000", "212155.925000", "212156.385000", "212156.845000", "212157.305000", "212157.765000", "212158.225000", "212158.685000", "212159.145000", "212159.605000", "212200.065000", "212200.525000", "212200.985000", "212201.445000", "212201.905000", "212202.365000", "212202.825000", "212203.285000", "212203.745000", "212204.205000", "212204.665000", "212205.125000", "212205.585000", "212206.045000", "212206.505000", "212206.965000", "212207.425000", "212207.885000", "212208.345000", "212208.805000", "212209.265000", "212209.725000", "212210.185000", "212210.645000", "212211.105000", "212211.565000", "212212.025000", "212212.485000", "212212.945000", "212213.405000", "212213.865000", "212214.325000", "212214.785000", "212215.245000", "212215.705000", "212216.165000", "212216.625000", "212217.085000", "212217.545000", "212218.005000", "212218.465000", "212218.925000", "212219.385000", "212219.845000", "212220.305000", "212220.765000", "212221.225000", "212221.685000", "212222.145000", "212222.605000", "212223.065000", "212223.525000", "212223.985000", "212224.445000", "212224.905000", "212225.365000", "212225.825000", "212226.285000", "212226.745000", "212227.205000", "212227.665000", "212228.125000", "212228.585000", "212229.045000", "212229.505000", "212229.965000", "212230.425000", "212230.885000", "212231.345000", "212231.805000", "212232.265000", "212232.725000", "212233.185000", "212233.645000", "212234.105000", "212234.565000", "212235.025000", "212235.485000", "212235.945000", "212236.405000", "212236.865000", "212237.325000", "212237.785000", "212238.245000", "212238.705000", "212239.165000", "212239.625000", "212240.085000", "212240.545000", "212241.005000", "212241.465000", "212241.925000", "212242.385000", "212242.845000", "212243.305000", "212243.765000", "212244.225000", "212244.685000", "212245.145000", "212245.605000", "212246.065000", "212246.525000", "212246.985000", "212247.445000", "212247.905000", "212248.365000", "212248.825000", "212249.285000", "212249.745000", "212250.205000", "212250.665000", "212251.125000", "212251.585000", "212252.045000", "212252.505000", "212252.965000", "212253.425000", "212253.885000", "212254.345000", "212254.805000", "212255.265000", "212255.725000", "212256.185000", "212256.645000", "212257.105000", "212257.565000", "212258.025000", "212258.485000", "212258.945000", "212259.405000", "212259.865000", "212300.325000", "212300.785000", "212301.245000", "212301.705000", "212302.165000", "212302.625000", "212303.085000", "212303.545000", "212304.005000", "212304.465000", "212304.925000", "212305.385000", "212305.845000", "212306.305000", "212306.765000", "212307.225000", "212307.685000", "212308.145000", "212308.605000", "212309.065000", "212309.525000", "212309.985000", "212310.445000", "212310.905000", "212311.365000", "212311.825000", "212312.285000", "212312.745000", "212313.205000", "212313.665000", "212314.125000", "212314.585000", "212315.045000", "212315.505000", "212315.965000", "212316.425000", "212316.885000", "212317.345000", "212317.805000", "212318.265000", "212318.725000", "212319.185000", "212319.645000", "212320.105000", "212320.565000", "212321.025000", "212321.485000", "212321.945000", "212322.405000", "212322.865000", "212323.325000", "212323.785000", "212324.245000", "212324.705000", "212325.165000", "212325.625000", "212326.085000", "212326.545000", "212327.005000", "212327.465000", "212327.925000", "212328.385000", "212328.845000", "212329.305000", "212329.765000", "212330.225000", "212330.685000", "212331.145000", "212331.605000", "212332.065000", "212332.525000", "212332.985000", "212333.445000", "212333.905000", "212334.365000", "212334.825000", "212335.285000", "212335.745000", "212336.205000", "212336.665000", "212337.125000", "212337.585000", "212338.045000", "212338.505000", "212338.965000", "212339.425000", "212339.885000", "212340.345000", "212340.805000", "212341.265000", "212341.725000", "212342.185000", "212342.645000", "212343.105000", "212343.565000", "212344.025000", "212344.485000", "212344.945000", "212345.405000", "212345.865000", "212346.325000", "212346.785000", "212347.245000", "212347.705000", "212348.165000", "212348.625000", "212349.085000", "212349.545000", "212350.005000", "212350.465000", "212350.925000", "212351.385000", "212351.845000", "212352.305000", "212352.765000", "212353.225000", "212353.685000", "212354.145000", "212354.605000", "212355.065000", "212355.525000", "212355.985000", "212356.445000", "212356.905000", "212357.365000", "212357.825000", "212358.285000", "212358.745000", "212359.205000", "212359.665000", "212400.125000", "212400.585000", "212401.045000", "212401.505000", "212401.965000", "212402.425000", "212402.885000", "212403.345000", "212403.805000", "212404.265000", "212404.725000", "212405.185000", "212405.645000", "212406.105000", "212406.565000", "212407.025000", "212407.485000", "212407.945000", "212408.405000", "212408.865000", "212409.325000", "212409.785000", "212410.245000", "212410.705000", "212411.165000", "212411.625000", "212412.085000", "212412.545000", "212413.005000", "212413.465000", "212413.925000", "212414.385000", "212414.845000", "212415.305000", "212415.765000", "212416.225000", "212416.685000", "212417.145000", "212417.605000", "212418.065000", "212418.525000", "212418.985000", "212419.445000", "212419.905000", "212420.365000", "212420.825000", "212421.285000", "212421.745000"],
