{
  "AcquisitionMatrixPE": 82,
  "AcquisitionNumber": 1,
  "AcquisitionTime": "22:23:10.055000",
  "BandwidthPerPixelPhaseEncode": 24.888,
  "BaseResolution": 82,
  "BodyPartExamined": "BRAIN",
  "ConsistencyInfo": "N4_VE11E_LATEST_20181129",
  "ConversionSoftware": "dcm2niix",
  "ConversionSoftwareVersion": "v1.0.20201102",
  "DerivedVendorReportedEchoSpacing": 0.00049,
  "DeviceSerialNumber": "66112",
  "DwellTime": 2e-06,
  "EchoTime": 0.0272,
  "EchoTrainLength": 82,
  "EffectiveEchoSpacing": 0.00049,
  "FlipAngle": 44,
  "ImageComments": "Unaliased MB8/PE3",
  "ImageOrientationPatientDICOM": [0.998256, 0.0325358, 0.049262, -0.0373022, 0.994373, 0.0991508],
  "ImageType": [
    "ORIGINAL",
    "PRIMARY",
    "M",
    "MB",
    "ND",
    "NORM",
    "MOSAIC"
],
  "ImagingFrequency": 123.259,
  "InPlanePhaseEncodingDirectionDICOM": "COL",
  "InstitutionAddress": "Maynard 3,Hanover,NH,US,03755",
  "InstitutionName": "Dartmouth College - PBS",
  "InstitutionalDepartmentName": "Department",
  "MRAcquisitionType": "2D",
  "MagneticFieldStrength": 3,
  "Manufacturer": "Siemens",
  "ManufacturersModelName": "Prisma",
  "Modality": "MR",
  "MultibandAccelerationFactor": 8,
  "PartialFourier": 1,
  "PatientPosition": "HFS",
  "PercentPhaseFOV": 100,
  "PercentSampling": 100,
  "PhaseEncodingDirection": "j-",
  "PhaseEncodingSteps": 82,
  "PhaseResolution": 1,
  "PixelBandwidth": 3050,
  "ProcedureStepDescription": "Wager_Wager^1076_spacetop",
  "ProtocolName": "func_run-03_task-alignvideo_acq-ap-mb8",
  "PulseSequenceDetails": "%CustomerSeq%\\cmrr_mbep2d_bold",
  "ReceiveCoilActiveElements": "HEA;HEP",
  "ReceiveCoilName": "Head_32",
  "ReconMatrixPE": 82,
  "RepetitionTime": 0.46,
  "SAR": 0.0945728,
  "ScanOptions": "FS",
  "ScanningSequence": "EP",
  "SequenceName": "epfid2d1_82",
  "SequenceVariant": "SK\\SS",
  "SeriesDescription": "func_run-03_task-alignvideo_acq-ap-mb8",
  "SeriesNumber": 44,
  "ShimSetting": [4223, -7781, -7254, 314, -89, 26, -22, 90],
  "SliceThickness": 2.7,
  "SliceTiming": [0, 0.25, 0.0625, 0.3125, 0.125, 0.3775, 0.1875, 0, 0.25, 0.0625, 0.3125, 0.125, 0.3775, 0.1875, 0, 0.25, 0.0625, 0.3125, 0.125, 0.3775, 0.1875, 0, 0.25, 0.0625, 0.3125, 0.125, 0.3775, 0.1875, 0, 0.25, 0.0625, 0.3125, 0.125, 0.3775, 0.1875, 0, 0.25, 0.0625, 0.3125, 0.125, 0.3775, 0.1875, 0, 0.25, 0.0625, 0.3125, 0.125, 0.3775, 0.1875, 0, 0.25, 0.0625, 0.3125, 0.125, 0.3775, 0.1875],
  "SoftwareVersions": "syngo MR E11",
  "SpacingBetweenSlices": 2.7,
  "StationName": "AWP66112",
  "TaskName": "alignvideo",
  "TotalReadoutTime": 0.03969,
  "TxRefAmp": 241.594,
  "WipMemBlock": "85017659-d6a7-4c26-8100-cd94abc4189a||Sequence: R016 ve11e/master r/434b28f1; Aug  7 2019 18:53:46 by eja",
  "dcmmeta_affine": [
    [-2.6782474517822266, -0.10007905960083008, 0.12354899197816849, 113.94733428955078],
    [-0.08729127794504166, 2.667829990386963, 0.27220168709754944, -109.62559509277344],
    [0.13216644525527954, -0.26601433753967285, 2.683401107788086, -75.91313171386719],
    [0.0, 0.0, 0.0, 1.0]
],
  "dcmmeta_reorient_transform": [
    [0.0, -1.0, 0.0, 81.0],
    [1.0, 0.0, 0.0, 0.0],
    [0.0, 0.0, 1.0, 0.0],
    [0.0, 0.0, 0.0, 1.0]
],
  "dcmmeta_shape": [82, 82, 56, 1016],
  "dcmmeta_slice_dim": 2,
  "dcmmeta_version": 0.6,
  "global": {
    "const": {
      "AccessionNumber": "A004464",
      "AcquisitionMatrix": [82, 0, 0, 82],
      "AngioFlag": "N",
      "BitsAllocated": 16,
      "BitsStored": 16,
      "BodyPartExamined": "BRAIN",
      "Columns": 656,
      "EchoNumbers": 1,
      "EchoTime": 27.2,
      "EchoTrainLength": 82,
      "FlipAngle": 44.0,
      "HighBit": 15,
      "ImageOrientationPatient": [0.99825581430705, 0.0325358402549, 0.04926203711862, -0.0373021933476, 0.99437300129628, 0.09915079759887],
      "ImagePositionPatient": [-845.77523988763, -897.18846385743, -211.73817773114],
      "ImageType": [
        "ORIGINAL",
        "PRIMARY",
        "M",
        "MB",
        "ND",
        "NORM",
        "MOSAIC"
],
      "ImagedNucleus": "1H",
      "ImagingFrequency": 123.259113,
      "InPlanePhaseEncodingDirection": "COL",
      "MRAcquisitionType": "2D",
      "MagneticFieldStrength": 3.0,
      "Manufacturer": "SIEMENS",
      "ManufacturerModelName": "Prisma",
      "Modality": "MR",
      "NumberOfAverages": 1.0,
      "NumberOfPhaseEncodingSteps": 82,
      "PercentPhaseFieldOfView": 100.0,
      "PercentSampling": 100.0,
      "PerformedProcedureStepStartTime": "202635.875000",
      "PhotometricInterpretation": "MONOCHROME2",
      "PixelBandwidth": 3050.0,
      "PixelRepresentation": 0,
      "PixelSpacing": [2.6829268932343, 2.6829268932343],
      "ProtocolName": "func_run-03_task-alignvideo_acq-ap-mb8",
      "RepetitionTime": 460.0,
      "Rows": 656,
      "SAR": 0.09457284394646,
      "SamplesPerPixel": 1,
      "ScanOptions": "FS",
      "ScanningSequence": "EP",
      "SequenceName": "epfid2d1_82",
      "SequenceVariant": [
        "SK",
        "SS"
],
      "SeriesDescription": "func_run-03_task-alignvideo_acq-ap-mb8",
      "SeriesNumber": 44,
      "SeriesTime": "222333.996000",
      "SliceLocation": -81.284288622853,
      "SliceThickness": 2.7000000476837,
      "SmallestImagePixelValue": 0,
      "SoftwareVersions": "syngo MR E11",
      "SpacingBetweenSlices": 2.7000000335579,
      "SpecificCharacterSet": "ISO_IR 100",
      "StudyID": "1",
      "StudyTime": "202635.813000",
      "TransmitCoilName": "Body",
      "VariableFlipAngleFlag": "N",
      "WindowCenterWidthExplanation": "Algo1"
    },
    "slices": {}
  },
  "time": {
    "samples": {
      "AcquisitionNumber": [1, 2, 3, 4, 5, 6, 7, 8, 9, 10, 11, 12, 13, 14, 15, 16, 17, 18, 19, 20, 21, 22, 23, 24, 25, 26, 27, 28, 29, 30, 31, 32, 33, 34, 35, 36, 37, 38, 39, 40, 41, 42, 43, 44, 45, 46, 47, 48, 49, 50, 51, 52, 53, 54, 55, 56, 57, 58, 59, 60, 61, 62, 63, 64, 65, 66, 67, 68, 69, 70, 71, 72, 73, 74, 75, 76, 77, 78, 79, 80, 81, 82, 83, 84, 85, 86, 87, 88, 89, 90, 91, 92, 93, 94, 95, 96, 97, 98, 99, 100, 101, 102, 103, 104, 105, 106, 107, 108, 109, 110, 111, 112, 113, 114, 115, 116, 117, 118, 119, 120, 121, 122, 123, 124, 125, 126, 127, 128, 129, 130, 131, 132, 133, 134, 135, 136, 137, 138, 139, 140, 141, 142, 143, 144, 145, 146, 147, 148, 149, 150, 151, 152, 153, 154, 155, 156, 157, 158, 159, 160, 161, 162, 163, 164, 165, 166, 167, 168, 169, 170, 171, 172, 173, 174, 175, 176, 177, 178, 179, 180, 181, 182, 183, 184, 185, 186, 187, 188, 189, 190, 191, 192, 193, 194, 195, 196, 197, 198, 199, 200, 201, 202, 203, 204, 205, 206, 207, 208, 209, 210, 211, 212, 213, 214, 215, 216, 217, 218, 219, 220, 221, 222, 223, 224, 225, 226, 227, 228, 229, 230, 231, 232, 233, 234, 235, 236, 237, 238, 239, 240, 241, 242, 243, 244, 245, 246, 247, 248, 249, 250, 251, 252, 253, 254, 255, 256, 257, 258, 259, 260, 261, 262, 263, 264, 265, 266, 267, 268, 269, 270, 271, 272, 273, 274, 275, 276, 277, 278, 279, 280, 281, 282, 283, 284, 285, 286, 287, 288, 289, 290, 291, 292, 293, 294, 295, 296, 297, 298, 299, 300, 301, 302, 303, 304, 305, 306, 307, 308, 309, 310, 311, 312, 313, 314, 315, 316, 317, 318, 319, 320, 321, 322, 323, 324, 325, 326, 327, 328, 329, 330, 331, 332, 333, 334, 335, 336, 337, 338, 339, 340, 341, 342, 343, 344, 345, 346, 347, 348, 349, 350, 351, 352, 353, 354, 355, 356, 357, 358, 359, 360, 361, 362, 363, 364, 365, 366, 367, 368, 369, 370, 371, 372, 373, 374, 375, 376, 377, 378, 379, 380, 381, 382, 383, 384, 385, 386, 387, 388, 389, 390, 391, 392, 393, 394, 395, 396, 397, 398, 399, 400, 401, 402, 403, 404, 405, 406, 407, 408, 409, 410, 411, 412, 413, 414, 415, 416, 417, 418, 419, 420, 421, 422, 423, 424, 425, 426, 427, 428, 429, 430, 431, 432, 433, 434, 435, 436, 437, 438, 439, 440, 441, 442, 443, 444, 445, 446, 447, 448, 449, 450, 451, 452, 453, 454, 455, 456, 457, 458, 459, 460, 461, 462, 463, 464, 465, 466, 467, 468, 469, 470, 471, 472, 473, 474, 475, 476, 477, 478, 479, 480, 481, 482, 483, 484, 485, 486, 487, 488, 489, 490, 491, 492, 493, 494, 495, 496, 497, 498, 499, 500, 501, 502, 503, 504, 505, 506, 507, 508, 509, 510, 511, 512, 513, 514, 515, 516, 517, 518, 519, 520, 521, 522, 523, 524, 525, 526, 527, 528, 529, 530, 531, 532, 533, 534, 535, 536, 537, 538, 539, 540, 541, 542, 543, 544, 545, 546, 547, 548, 549, 550, 551, 552, 553, 554, 555, 556, 557, 558, 559, 560, 561, 562, 563, 564, 565, 566, 567, 568, 569, 570, 571, 572, 573, 574, 575, 576, 577, 578, 579, 580, 581, 582, 583, 584, 585, 586, 587, 588, 589, 590, 591, 592, 593, 594, 595, 596, 597, 598, 599, 600, 601, 602, 603, 604, 605, 606, 607, 608, 609, 610, 611, 612, 613, 614, 615, 616, 617, 618, 619, 620, 621, 622, 623, 624, 625, 626, 627, 628, 629, 630, 631, 632, 633, 634, 635, 636, 637, 638, 639, 640, 641, 642, 643, 644, 645, 646, 647, 648, 649, 650, 651, 652, 653, 654, 655, 656, 657, 658, 659, 660, 661, 662, 663, 664, 665, 666, 667, 668, 669, 670, 671, 672, 673, 674, 675, 676, 677, 678, 679, 680, 681, 682, 683, 684, 685, 686, 687, 688, 689, 690, 691, 692, 693, 694, 695, 696, 697, 698, 699, 700, 701, 702, 703, 704, 705, 706, 707, 708, 709, 710, 711, 712, 713, 714, 715, 716, 717, 718, 719, 720, 721, 722, 723, 724, 725, 726, 727, 728, 729, 730, 731, 732, 733, 734, 735, 736, 737, 738, 739, 740, 741, 742, 743, 744, 745, 746, 747, 748, 749, 750, 751, 752, 753, 754, 755, 756, 757, 758, 759, 760, 761, 762, 763, 764, 765, 766, 767, 768, 769, 770, 771, 772, 773, 774, 775, 776, 777, 778, 779, 780, 781, 782, 783, 784, 785, 786, 787, 788, 789, 790, 791, 792, 793, 794, 795, 796, 797, 798, 799, 800, 801, 802, 803, 804, 805, 806, 807, 808, 809, 810, 811, 812, 813, 814, 815, 816, 817, 818, 819, 820, 821, 822, 823, 824, 825, 826, 827, 828, 829, 830, 831, 832, 833, 834, 835, 836, 837, 838, 839, 840, 841, 842, 843, 844, 845, 846, 847, 848, 849, 850, 851, 852, 853, 854, 855, 856, 857, 858, 859, 860, 861, 862, 863, 864, 865, 866, 867, 868, 869, 870, 871, 872, 873, 874, 875, 876, 877, 878, 879, 880, 881, 882, 883, 884, 885, 886, 887, 888, 889, 890, 891, 892, 893, 894, 895, 896, 897, 898, 899, 900, 901, 902, 903, 904, 905, 906, 907, 908, 909, 910, 911, 912, 913, 914, 915, 916, 917, 918, 919, 920, 921, 922, 923, 924, 925, 926, 927, 928, 929, 930, 931, 932, 933, 934, 935, 936, 937, 938, 939, 940, 941, 942, 943, 944, 945, 946, 947, 948, 949, 950, 951, 952, 953, 954, 955, 956, 957, 958, 959, 960, 961, 962, 963, 964, 965, 966, 967, 968, 969, 970, 971, 972, 973, 974, 975, 976, 977, 978, 979, 980, 981, 982, 983, 984, 985, 986, 987, 988, 989, 990, 991, 992, 993, 994, 995, 996, 997, 998, 999, 1000, 1001, 1002, 1003, 1004, 1005, 1006, 1007, 1008, 1009, 1010, 1011, 1012, 1013, 1014, 1015, 1016],
      "AcquisitionTime": ["222310.055000", "222310.515000", "222310.975000", "222311.435000", "222311.895000", "222312.355000", "222312.815000", "222313.275000", "222313.735000", "222314.195000", "222314.655000", "222315.115000", "222315.575000", "222316.035000", "222316.495000", "222316.955000", "222317.415000", "222317.875000", "222318.335000", "222318.795000", "222319.255000", "222319.715000", "222320.175000", "222320.635000", "222321.095000", "222321.555000", "222322.015000", "222322.475000", "222322.935000", "222323.395000", "222323.855000", "222324.315000", "222324.775000", "222325.235000", "222325.695000", "222326.155000", "222326.615000", "222327.075000", "222327.535000", "222327.995000", "222328.455000", "222328.915000", "222329.375000", "222329.835000", "222330.295000", "222330.755000", "222331.215000", "222331.675000", "222332.135000", "222332.595000", "222333.055000", "222333.515000", "222333.975000", "222334.435000", "222334.895000", "222335.355000", "222335.815000", "222336.275000", "222336.735000", "222337.195000", "222337.655000", "222338.115000", "222338.575000", "222339.035000", "222339.495000", "222339.955000", "222340.415000", "222340.875000", "222341.335000", "222341.795000", "222342.255000", "222342.715000", "222343.175000", "222343.635000", "222344.095000", "222344.555000", "222345.015000", "222345.475000", "222345.935000", "222346.395000", "222346.855000", "222347.315000", "222347.775000", "222348.235000", "222348.695000", "222349.155000", "222349.615000", "222350.075000", "222350.535000", "222350.995000", "222351.455000", "222351.915000", "222352.375000", "222352.835000", "222353.295000", "222353.755000", "222354.215000", "222354.675000", "222355.135000", "222355.595000", "222356.055000", "222356.515000", "222356.975000", "222357.435000", "222357.895000", "222358.355000", "222358.815000", "222359.275000", "222359.735000", "222400.195000", "222400.655000", "222401.115000", "222401.575000", "222402.035000", "222402.495000", "222402.955000", "222403.415000", "222403.875000", "222404.335000", "222404.795000", "222405.255000", "222405.715000", "222406.175000", "222406.635000", "222407.095000", "222407.555000", "222408.015000", "222408.475000", "222408.935000", "222409.395000", "222409.855000", "222410.315000", "222410.775000", "222411.235000", "222411.695000", "222412.155000", "222412.615000", "222413.075000", "222413.535000", "222413.995000", "222414.455000", "222414.915000", "222415.375000", "222415.835000", "222416.295000", "222416.755000", "222417.215000", "222417.675000", "222418.135000", "222418.595000", "222419.055000", "222419.515000", "222419.975000", "222420.435000", "222420.895000", "222421.355000", "222421.815000", "222422.275000", "222422.735000", "222423.195000", "222423.655000", "222424.115000", "222424.575000", "222425.035000", "222425.495000", "222425.955000", "222426.415000", "222426.875000", "222427.335000", "222427.795000", "222428.255000", "222428.715000", "222429.175000", "222429.635000", "222430.095000", "222430.555000", "222431.015000", "222431.475000", "222431.935000", "222432.395000", "222432.855000", "222433.315000", "222433.775000", "222434.235000", "222434.695000", "222435.155000", "222435.615000", "222436.075000", "222436.535000", "222436.995000", "222437.455000", "222437.915000", "222438.375000", "222438.835000", "222439.295000", "222439.755000", "222440.215000", "222440.675000", "222441.135000", "222441.595000", "222442.055000", "222442.515000", "222442.975000", "222443.435000", "222443.895000", "222444.355000", "222444.815000", "222445.275000", "222445.735000", "222446.195000", "222446.655000", "222447.115000", "222447.575000", "222448.035000", "222448.495000", "222448.955000", "222449.415000", "222449.875000", "222450.335000", "222450.795000", "222451.255000", "222451.715000", "222452.175000", "222452.635000", "222453.095000", "222453.555000", "222454.015000", "222454.475000", "222454.935000", "222455.395000", "222455.855000", "222456.315000", "222456.775000", "222457.235000", "222457.695000", "222458.155000", "222458.615000", "222459.075000", "222459.535000", "222459.995000", "222500.455000", "222500.915000", "222501.375000", "222501.835000", "222502.295000", "222502.755000", "222503.215000", "222503.675000", "222504.135000", "222504.595000", "222505.055000", "222505.515000", "222505.975000", "222506.435000", "222506.895000", "222507.355000", "222507.815000", "222508.275000", "222508.735000", "222509.195000", "222509.655000", "222510.115000", "222510.575000", "222511.035000", "222511.495000", "222511.955000", "222512.415000", "222512.875000", "222513.335000", "222513.795000", "222514.255000", "222514.715000", "222515.175000", "222515.635000", "222516.095000", "222516.555000", "222517.015000", "222517.475000", "222517.935000", "222518.395000", "222518.855000", "222519.315000", "222519.775000", "222520.235000", "222520.695000", "222521.155000", "222521.615000", "222522.075000", "222522.535000", "222522.995000", "222523.455000", "222523.915000", "222524.375000", "222524.835000", "222525.295000", "222525.755000", "222526.215000", "222526.675000", "222527.135000", "222527.595000", "222528.055000", "222528.515000", "222528.975000", "222529.435000", "222529.895000", "222530.355000", "222530.815000", "222531.275000", "222531.735000", "222532.195000", "222532.655000", "222533.115000", "222533.575000", "222534.035000", "222534.495000", "222534.955000", "222535.415000", "222535.875000", "222536.335000", "222536.795000", "222537.255000", "222537.715000", "222538.175000", "222538.635000", "222539.095000", "222539.555000", "222540.015000", "222540.475000", "222540.935000", "222541.395000", "222541.855000", "222542.315000", "222542.775000", "222543.235000", "222543.695000", "222544.155000", "222544.615000", "222545.075000", "222545.535000", "222545.995000", "222546.455000", "222546.915000", "222547.375000", "222547.835000", "222548.295000", "222548.755000", "222549.215000", "222549.675000", "222550.135000", "222550.595000", "222551.055000", "222551.515000", "222551.975000", "222552.435000", "222552.895000", "222553.355000", "222553.815000", "222554.275000", "222554.735000", "222555.195000", "222555.655000", "222556.115000", "222556.575000", "222557.035000", "222557.495000", "222557.955000", "222558.415000", "222558.875000", "222559.335000", "222559.795000", "222600.255000", "222600.715000", "222601.175000", "222601.635000", "222602.095000", "222602.555000", "222603.015000", "222603.475000", "222603.935000", "222604.395000", "222604.855000", "222605.315000", "222605.775000", "222606.235000", "222606.695000", "222607.155000", "222607.615000", "222608.075000", "222608.535000", "222608.995000", "222609.455000", "222609.915000", "222610.375000", "222610.835000", "222611.295000", "222611.755000", "222612.215000", "222612.675000", "222613.135000", "222613.595000", "222614.055000", "222614.515000", "222614.975000", "222615.435000", "222615.895000", "222616.355000", "222616.815000", "222617.275000", "222617.735000", "222618.195000", "222618.655000", "222619.115000", "222619.575000", "222620.035000", "222620.495000", "222620.955000", "222621.415000", "222621.875000", "222622.335000", "222622.795000", "222623.255000", "222623.715000", "222624.175000", "222624.635000", "222625.095000", "222625.555000", "222626.015000", "222626.475000", "222626.935000", "222627.395000", "222627.855000", "222628.315000", "222628.775000", "222629.235000", "222629.695000", "222630.155000", "222630.615000", "222631.075000", "222631.535000", "222631.995000", "222632.455000", "222632.915000", "222633.375000", "222633.835000", "222634.295000", "222634.755000", "222635.215000", "222635.675000", "222636.135000", "222636.595000", "222637.055000", "222637.515000", "222637.975000", "222638.435000", "222638.895000", "222639.355000", "222639.815000", "222640.275000", "222640.735000", "222641.195000", "222641.655000", "222642.115000", "222642.575000", "222643.035000", "222643.495000", "222643.955000", "222644.415000", "222644.875000", "222645.335000", "222645.795000", "222646.255000", "222646.715000", "222647.175000", "222647.635000", "222648.095000", "222648.555000", "222649.015000", "222649.475000", "222649.935000", "222650.395000", "222650.855000", "222651.315000", "222651.775000", "222652.235000", "222652.695000", "222653.155000", "222653.615000", "222654.075000", "222654.535000", "222654.995000", "222655.455000", "222655.915000", "222656.375000", "222656.835000", "222657.295000", "222657.755000", "222658.215000", "222658.675000", "222659.135000", "222659.595000", "222700.055000", "222700.515000", "222700.975000", "222701.435000", "222701.895000", "222702.355000", "222702.815000", "222703.275000", "222703.735000", "222704.195000", "222704.655000", "222705.115000", "222705.575000", "222706.035000", "222706.495000", "222706.955000", "222707.415000", "222707.875000", "222708.335000", "222708.795000", "222709.255000", "222709.715000", "222710.175000", "222710.635000", "222711.095000", "222711.555000", "222712.015000", "222712.475000", "222712.935000", "222713.395000", "222713.855000", "222714.315000", "222714.775000", "222715.235000", "222715.695000", "222716.155000", "222716.615000", "222717.075000", "222717.535000", "222717.995000", "222718.455000", "222718.915000", "222719.375000", "222719.835000", "222720.295000", "222720.755000", "222721.215000", "222721.675000", "222722.135000", "222722.595000", "222723.055000", "222723.515000", "222723.975000", "222724.435000", "222724.895000", "222725.355000", "222725.815000", "222726.275000", "222726.735000", "222727.195000", "222727.655000", "222728.115000", "222728.575000", "222729.035000", "222729.495000", "222729.955000", "222730.415000", "222730.875000", "222731.335000", "222731.795000", "222732.255000", "222732.715000", "222733.175000", "222733.635000", "222734.095000", "222734.555000", "222735.015000", "222735.475000", "222735.935000", "222736.395000", "222736.855000", "222737.315000", "222737.775000", "222738.235000", "222738.695000", "222739.155000", "222739.615000", "222740.075000", "222740.535000", "222740.995000", "222741.455000", "222741.915000", "222742.375000", "222742.835000", "222743.295000", "222743.755000", "222744.215000", "222744.675000", "222745.135000", "222745.595000", "222746.055000", "222746.515000", "222746.975000", "222747.435000", "222747.895000", "222748.355000", "222748.815000", "222749.275000", "222749.735000", "222750.195000", "222750.655000", "222751.115000", "222751.575000", "222752.035000", "222752.495000", "222752.955000", "222753.415000", "222753.875000", "222754.335000", "222754.795000", "222755.255000", "222755.715000", "222756.175000", "222756.635000", "222757.095000", "222757.555000", "222758.015000", "222758.475000", "222758.935000", "222759.395000", "222759.855000", "222800.315000", "222800.775000", "222801.235000", "222801.695000", "222802.155000", "222802.615000", "222803.075000", "222803.535000", "222803.995000", "222804.455000", "222804.915000", "222805.375000", "222805.835000", "222806.295000", "222806.755000", "222807.215000", "222807.675000", "222808.135000", "222808.595000", "222809.055000", "222809.515000", "222809.975000", "222810.435000", "222810.895000", "222811.355000", "222811.815000", "222812.275000", "222812.735000", "222813.195000", "222813.655000", "222814.115000", "222814.575000", "222815.035000", "222815.495000", "222815.955000", "222816.415000", "222816.875000", "222817.335000", "222817.795000", "222818.255000", "222818.715000", "222819.175000", "222819.635000", "222820.095000", "222820.555000", "222821.015000", "222821.475000", "222821.935000", "222822.395000", "222822.855000", "222823.315000", "222823.775000", "222824.235000", "222824.695000", "222825.155000", "222825.615000", "222826.075000", "222826.535000", "222826.995000", "222827.455000", "222827.915000", "222828.375000", "222828.835000", "222829.295000", "222829.755000", "222830.215000", "222830.675000", "222831.135000", "222831.595000", "222832.055000", "222832.515000", "222832.975000", "222833.435000", "222833.895000", "222834.355000", "222834.815000", "222835.275000", "222835.735000", "222836.195000", "222836.655000", "222837.115000", "222837.575000", "222838.035000", "222838.495000", "222838.955000", "222839.415000", "222839.875000", "222840.335000", "222840.795000", "222841.255000", "222841.715000", "222842.175000", "222842.635000", "222843.095000", "222843.555000", "222844.015000", "222844.475000", "222844.935000", "222845.395000", "222845.855000", "222846.315000", "222846.775000", "222847.235000", "222847.695000", "222848.155000", "222848.615000", "222849.075000", "222849.535000", "222849.995000", "222850.455000", "222850.915000", "222851.375000", "222851.835000", "222852.295000", "222852.755000", "222853.215000", "222853.675000", "222854.135000", "222854.595000", "222855.055000", "222855.515000", "222855.975000", "222856.435000", "222856.895000", "222857.355000", "222857.815000", "222858.275000", "222858.735000", "222859.195000", "222859.655000", "222900.115000", "222900.575000", "222901.035000", "222901.495000", "222901.955000", "222902.415000", "222902.875000", "222903.335000", "222903.795000", "222904.255000", "222904.715000", "222905.175000", "222905.635000", "222906.095000", "222906.555000", "222907.015000", "222907.475000", "222907.935000", "222908.395000", "222908.855000", "222909.315000", "222909.775000", "222910.235000", "222910.695000", "222911.155000", "222911.615000", "222912.075000", "222912.535000", "222912.995000", "222913.455000", "222913.915000", "222914.375000", "222914.835000", "222915.295000", "222915.755000", "222916.215000", "222916.675000", "222917.135000", "222917.595000", "222918.055000", "222918.515000", "222918.975000", "222919.435000", "222919.895000", "222920.355000", "222920.815000", "222921.275000", "222921.735000", "222922.195000", "222922.655000", "222923.115000", "222923.575000", "222924.035000", "222924.495000", "222924.955000", "222925.415000", "222925.875000", "222926.335000", "222926.795000", "222927.255000", "222927.715000", "222928.175000", "222928.635000", "222929.095000", "222929.555000", "222930.015000", "222930.475000", "222930.935000", "222931.395000", "222931.855000", "222932.315000", "222932.775000", "222933.235000", "222933.695000", "222934.155000", "222934.615000", "222935.075000", "222935.535000", "222935.995000", "222936.455000", "222936.915000", "222937.375000", "222937.835000", "222938.295000", "222938.755000", "222939.215000", "222939.675000", "222940.135000", "222940.595000", "222941.055000", "222941.515000", "222941.975000", "222942.435000", "222942.895000", "222943.355000", "222943.815000", "222944.275000", "222944.735000", "222945.195000", "222945.655000", "222946.115000", "222946.575000", "222947.035000", "222947.495000", "222947.955000", "222948.415000", "222948.875000", "222949.335000", "222949.795000", "222950.255000", "222950.715000", "222951.175000", "222951.635000", "222952.095000", "222952.555000", "222953.015000", "222953.475000", "222953.935000", "222954.395000", "222954.855000", "222955.315000", "222955.775000", "222956.235000", "222956.695000", "222957.155000", "222957.615000", "222958.075000", "222958.535000", "222958.995000", "222959.455000", "222959.915000", "223000.375000", "223000.835000", "223001.295000", "223001.755000", "223002.215000", "223002.675000", "223003.135000", "223003.595000", "223004.055000", "223004.515000", "223004.975000", "223005.435000", "223005.895000", "223006.355000", "223006.815000", "223007.275000", "223007.735000", "223008.195000", "223008.655000", "223009.115000", "223009.575000", "223010.035000", "223010.495000", "223010.955000", "223011.415000", "223011.875000", "223012.335000", "223012.795000", "223013.255000", "223013.715000", "223014.175000", "223014.635000", "223015.095000", "223015.555000", "223016.015000", "223016.475000", "223016.935000", "223017.395000", "223017.855000", "223018.315000", "223018.775000", "223019.235000", "223019.695000", "223020.155000", "223020.615000", "223021.075000", "223021.535000", "223021.995000", "223022.455000", "223022.915000", "223023.375000", "223023.835000", "223024.295000", "223024.755000", "223025.215000", "223025.675000", "223026.135000", "223026.595000", "223027.055000", "223027.515000", "223027.975000", "223028.435000", "223028.895000", "223029.355000", "223029.815000", "223030.275000", "223030.735000", "223031.195000", "223031.655000", "223032.115000", "223032.575000", "223033.035000", "223033.495000", "223033.955000", "223034.415000", "223034.875000", "223035.335000", "223035.795000", "223036.255000", "223036.715000", "223037.175000", "223037.635000", "223038.095000", "223038.555000", "223039.015000", "223039.475000", "223039.935000", "223040.395000", "223040.855000", "223041.315000", "223041.775000", "223042.235000", "223042.695000", "223043.155000", "223043.615000", "223044.075000", "223044.535000", "223044.995000", "223045.455000", "223045.915000", "223046.375000", "223046.835000", "223047.295000", "223047.755000", "223048.215000", "223048.675000", "223049.135000", "223049.595000", "223050.055000", "223050.515000", "223050.975000", "223051.435000", "223051.895000", "223052.355000", "223052.815000", "223053.275000", "223053.735000", "223054.195000", "223054.655000", "223055.115000", "223055.575000", "223056.035000", "223056.495000", "223056.955000"],
