{
  "AcquisitionMatrixPE": 82,
  "AcquisitionNumber": 1,
  "AcquisitionTime": "21:40:59.137500",
  "BandwidthPerPixelPhaseEncode": 24.888,
  "BaseResolution": 82,
  "BodyPartExamined": "BRAIN",
  "ConsistencyInfo": "N4_VE11E_LATEST_20181129",
  "ConversionSoftware": "dcm2niix",
  "ConversionSoftwareVersion": "v1.0.20201102",
  "DerivedVendorReportedEchoSpacing": 0.00049,
  "DeviceSerialNumber": "66112",
  "DwellTime": 2e-06,
  "EchoTime": 0.0272,
  "EchoTrainLength": 82,
  "EffectiveEchoSpacing": 0.00049,
  "FlipAngle": 44,
  "ImageComments": "Unaliased MB8/PE3",
  "ImageOrientationPatientDICOM": [0.998135, -0.0542214, -0.0280411, 0.0551054, 0.997975, 0.0317771],
  "ImageType": [
    "ORIGINAL",
    "PRIMARY",
    "M",
    "MB",
    "ND",
    "NORM",
    "MOSAIC"
],
  "ImagingFrequency": 123.259,
  "InPlanePhaseEncodingDirectionDICOM": "COL",
  "InstitutionAddress": "Maynard 3,Hanover,NH,US,03755",
  "InstitutionName": "Dartmouth College - PBS",
  "InstitutionalDepartmentName": "Department",
  "MRAcquisitionType": "2D",
  "MagneticFieldStrength": 3,
  "Manufacturer": "Siemens",
  "ManufacturersModelName": "Prisma",
  "Modality": "MR",
  "MultibandAccelerationFactor": 8,
  "PartialFourier": 1,
  "PatientPosition": "HFS",
  "PercentPhaseFOV": 100,
  "PercentSampling": 100,
  "PhaseEncodingDirection": "j-",
  "PhaseEncodingSteps": 82,
  "PhaseResolution": 1,
  "PixelBandwidth": 3050,
  "ProcedureStepDescription": "Wager_Wager^1076_spacetop",
  "ProtocolName": "func_run-06_task-social_acq-ap-mb8",
  "PulseSequenceDetails": "%CustomerSeq%\\cmrr_mbep2d_bold",
  "ReceiveCoilActiveElements": "HEA;HEP",
  "ReceiveCoilName": "Head_32",
  "ReconMatrixPE": 82,
  "RepetitionTime": 0.46,
  "SAR": 0.0944895,
  "ScanOptions": "FS",
  "ScanningSequence": "EP",
  "SequenceName": "epfid2d1_82",
  "SequenceVariant": "SK\\SS",
  "SeriesDescription": "func_run-06_task-social_acq-ap-mb8",
  "SeriesNumber": 24,
  "ShimSetting": [4222, -7785, -7257, 341, -85, -2, -23, 87],
  "SliceThickness": 2.7,
  "SliceTiming": [0, 0.2525, 0.0625, 0.315, 0.125, 0.3775, 0.19, 0, 0.2525, 0.0625, 0.315, 0.125, 0.3775, 0.19, 0, 0.2525, 0.0625, 0.315, 0.125, 0.3775, 0.19, 0, 0.2525, 0.0625, 0.315, 0.125, 0.3775, 0.19, 0, 0.2525, 0.0625, 0.315, 0.125, 0.3775, 0.19, 0, 0.2525, 0.0625, 0.315, 0.125, 0.3775, 0.19, 0, 0.2525, 0.0625, 0.315, 0.125, 0.3775, 0.19, 0, 0.2525, 0.0625, 0.315, 0.125, 0.3775, 0.19],
  "SoftwareVersions": "syngo MR E11",
  "SpacingBetweenSlices": 2.7,
  "StationName": "AWP66112",
  "TaskName": "social",
  "TotalReadoutTime": 0.03969,
  "TxRefAmp": 241.594,
  "WipMemBlock": "c77401da-d7b3-422f-b660-a1d345e5a334||Sequence: R016 ve11e/master r/434b28f1; Aug  7 2019 18:53:46 by eja",
  "dcmmeta_affine": [
    [-2.6779236793518066, 0.14784380793571472, -0.07090552151203156, 109.75798034667969],
    [0.14547204971313477, 2.6774933338165283, 0.08981021493673325, -115.38445281982422],
    [-0.07523220032453537, -0.08525560051202774, 2.6975741386413574, -81.8042221069336],
    [0.0, 0.0, 0.0, 1.0]
],
  "dcmmeta_reorient_transform": [
    [0.0, -1.0, 0.0, 81.0],
    [1.0, 0.0, 0.0, 0.0],
    [0.0, 0.0, 1.0, 0.0],
    [0.0, 0.0, 0.0, 1.0]
],
  "dcmmeta_shape": [82, 82, 56, 872],
  "dcmmeta_slice_dim": 2,
  "dcmmeta_version": 0.6,
  "global": {
    "const": {
      "AccessionNumber": "A004464",
      "AcquisitionMatrix": [82, 0, 0, 82],
      "AngioFlag": "N",
      "BitsAllocated": 16,
      "BitsStored": 16,
      "BodyPartExamined": "BRAIN",
      "Columns": 656,
      "EchoNumbers": 1,
      "EchoTime": 27.2,
      "EchoTrainLength": 82,
      "FlipAngle": 44.0,
      "HighBit": 15,
      "ImageOrientationPatient": [0.99813512962076, -0.0542213994539, -0.0280410923149, 0.05510541645422, 0.9979747541253, 0.03177708617797],
      "ImagePositionPatient": [-932.72856803081, -828.1826019527, -91.586640132024],
      "ImageType": [
        "ORIGINAL",
        "PRIMARY",
        "M",
        "MB",
        "ND",
        "NORM",
        "MOSAIC"
],
      "ImagedNucleus": "1H",
      "ImagingFrequency": 123.259125,
      "InPlanePhaseEncodingDirection": "COL",
      "MRAcquisitionType": "2D",
      "MagneticFieldStrength": 3.0,
      "Manufacturer": "SIEMENS",
      "ManufacturerModelName": "Prisma",
      "Modality": "MR",
      "NumberOfAverages": 1.0,
      "NumberOfPhaseEncodingSteps": 82,
      "PercentPhaseFieldOfView": 100.0,
      "PercentSampling": 100.0,
      "PerformedProcedureStepStartTime": "202635.875000",
      "PhotometricInterpretation": "MONOCHROME2",
      "PixelBandwidth": 3050.0,
      "PixelRepresentation": 0,
      "PixelSpacing": [2.6829268932343, 2.6829268932343],
      "ProtocolName": "func_run-06_task-social_acq-ap-mb8",
      "RepetitionTime": 460.0,
      "Rows": 656,
      "SAR": 0.09448953242611,
      "SamplesPerPixel": 1,
      "ScanOptions": "FS",
      "ScanningSequence": "EP",
      "SequenceName": "epfid2d1_82",
      "SequenceVariant": [
        "SK",
        "SS"
],
      "SeriesDescription": "func_run-06_task-social_acq-ap-mb8",
      "SeriesNumber": 24,
      "SeriesTime": "214113.909000",
      "SliceLocation": -88.451150258554,
      "SliceThickness": 2.7000000476837,
      "SmallestImagePixelValue": 0,
      "SoftwareVersions": "syngo MR E11",
      "SpacingBetweenSlices": 2.7000000053412,
      "SpecificCharacterSet": "ISO_IR 100",
      "StudyID": "1",
      "StudyTime": "202635.813000",
      "TransmitCoilName": "Body",
      "VariableFlipAngleFlag": "N",
      "WindowCenterWidthExplanation": "Algo1"
    },
    "slices": {}
  },
  "time": {
    "samples": {
      "AcquisitionNumber": [1, 2, 3, 4, 5, 6, 7, 8, 9, 10, 11, 12, 13, 14, 15, 16, 17, 18, 19, 20, 21, 22, 23, 24, 25, 26, 27, 28, 29, 30, 31, 32, 33, 34, 35, 36, 37, 38, 39, 40, 41, 42, 43, 44, 45, 46, 47, 48, 49, 50, 51, 52, 53, 54, 55, 56, 57, 58, 59, 60, 61, 62, 63, 64, 65, 66, 67, 68, 69, 70, 71, 72, 73, 74, 75, 76, 77, 78, 79, 80, 81, 82, 83, 84, 85, 86, 87, 88, 89, 90, 91, 92, 93, 94, 95, 96, 97, 98, 99, 100, 101, 102, 103, 104, 105, 106, 107, 108, 109, 110, 111, 112, 113, 114, 115, 116, 117, 118, 119, 120, 121, 122, 123, 124, 125, 126, 127, 128, 129, 130, 131, 132, 133, 134, 135, 136, 137, 138, 139, 140, 141, 142, 143, 144, 145, 146, 147, 148, 149, 150, 151, 152, 153, 154, 155, 156, 157, 158, 159, 160, 161, 162, 163, 164, 165, 166, 167, 168, 169, 170, 171, 172, 173, 174, 175, 176, 177, 178, 179, 180, 181, 182, 183, 184, 185, 186, 187, 188, 189, 190, 191, 192, 193, 194, 195, 196, 197, 198, 199, 200, 201, 202, 203, 204, 205, 206, 207, 208, 209, 210, 211, 212, 213, 214, 215, 216, 217, 218, 219, 220, 221, 222, 223, 224, 225, 226, 227, 228, 229, 230, 231, 232, 233, 234, 235, 236, 237, 238, 239, 240, 241, 242, 243, 244, 245, 246, 247, 248, 249, 250, 251, 252, 253, 254, 255, 256, 257, 258, 259, 260, 261, 262, 263, 264, 265, 266, 267, 268, 269, 270, 271, 272, 273, 274, 275, 276, 277, 278, 279, 280, 281, 282, 283, 284, 285, 286, 287, 288, 289, 290, 291, 292, 293, 294, 295, 296, 297, 298, 299, 300, 301, 302, 303, 304, 305, 306, 307, 308, 309, 310, 311, 312, 313, 314, 315, 316, 317, 318, 319, 320, 321, 322, 323, 324, 325, 326, 327, 328, 329, 330, 331, 332, 333, 334, 335, 336, 337, 338, 339, 340, 341, 342, 343, 344, 345, 346, 347, 348, 349, 350, 351, 352, 353, 354, 355, 356, 357, 358, 359, 360, 361, 362, 363, 364, 365, 366, 367, 368, 369, 370, 371, 372, 373, 374, 375, 376, 377, 378, 379, 380, 381, 382, 383, 384, 385, 386, 387, 388, 389, 390, 391, 392, 393, 394, 395, 396, 397, 398, 399, 400, 401, 402, 403, 404, 405, 406, 407, 408, 409, 410, 411, 412, 413, 414, 415, 416, 417, 418, 419, 420, 421, 422, 423, 424, 425, 426, 427, 428, 429, 430, 431, 432, 433, 434, 435, 436, 437, 438, 439, 440, 441, 442, 443, 444, 445, 446, 447, 448, 449, 450, 451, 452, 453, 454, 455, 456, 457, 458, 459, 460, 461, 462, 463, 464, 465, 466, 467, 468, 469, 470, 471, 472, 473, 474, 475, 476, 477, 478, 479, 480, 481, 482, 483, 484, 485, 486, 487, 488, 489, 490, 491, 492, 493, 494, 495, 496, 497, 498, 499, 500, 501, 502, 503, 504, 505, 506, 507, 508, 509, 510, 511, 512, 513, 514, 515, 516, 517, 518, 519, 520, 521, 522, 523, 524, 525, 526, 527, 528, 529, 530, 531, 532, 533, 534, 535, 536, 537, 538, 539, 540, 541, 542, 543, 544, 545, 546, 547, 548, 549, 550, 551, 552, 553, 554, 555, 556, 557, 558, 559, 560, 561, 562, 563, 564, 565, 566, 567, 568, 569, 570, 571, 572, 573, 574, 575, 576, 577, 578, 579, 580, 581, 582, 583, 584, 585, 586, 587, 588, 589, 590, 591, 592, 593, 594, 595, 596, 597, 598, 599, 600, 601, 602, 603, 604, 605, 606, 607, 608, 609, 610, 611, 612, 613, 614, 615, 616, 617, 618, 619, 620, 621, 622, 623, 624, 625, 626, 627, 628, 629, 630, 631, 632, 633, 634, 635, 636, 637, 638, 639, 640, 641, 642, 643, 644, 645, 646, 647, 648, 649, 650, 651, 652, 653, 654, 655, 656, 657, 658, 659, 660, 661, 662, 663, 664, 665, 666, 667, 668, 669, 670, 671, 672, 673, 674, 675, 676, 677, 678, 679, 680, 681, 682, 683, 684, 685, 686, 687, 688, 689, 690, 691, 692, 693, 694, 695, 696, 697, 698, 699, 700, 701, 702, 703, 704, 705, 706, 707, 708, 709, 710, 711, 712, 713, 714, 715, 716, 717, 718, 719, 720, 721, 722, 723, 724, 725, 726, 727, 728, 729, 730, 731, 732, 733, 734, 735, 736, 737, 738, 739, 740, 741, 742, 743, 744, 745, 746, 747, 748, 749, 750, 751, 752, 753, 754, 755, 756, 757, 758, 759, 760, 761, 762, 763, 764, 765, 766, 767, 768, 769, 770, 771, 772, 773, 774, 775, 776, 777, 778, 779, 780, 781, 782, 783, 784, 785, 786, 787, 788, 789, 790, 791, 792, 793, 794, 795, 796, 797, 798, 799, 800, 801, 802, 803, 804, 805, 806, 807, 808, 809, 810, 811, 812, 813, 814, 815, 816, 817, 818, 819, 820, 821, 822, 823, 824, 825, 826, 827, 828, 829, 830, 831, 832, 833, 834, 835, 836, 837, 838, 839, 840, 841, 842, 843, 844, 845, 846, 847, 848, 849, 850, 851, 852, 853, 854, 855, 856, 857, 858, 859, 860, 861, 862, 863, 864, 865, 866, 867, 868, 869, 870, 871, 872],
      "AcquisitionTime": ["214059.137500", "214059.597500", "214100.057500", "214100.517500", "214100.977500", "214101.437500", "214101.897500", "214102.357500", "214102.817500", "214103.277500", "214103.737500", "214104.197500", "214104.657500", "214105.117500", "214105.577500", "214106.037500", "214106.497500", "214106.957500", "214107.417500", "214107.877500", "214108.337500", "214108.797500", "214109.257500", "214109.717500", "214110.177500", "214110.637500", "214111.097500", "214111.557500", "214112.017500", "214112.477500", "214112.937500", "214113.397500", "214113.857500", "214114.317500", "214114.777500", "214115.237500", "214115.697500", "214116.157500", "214116.617500", "214117.077500", "214117.537500", "214117.997500", "214118.457500", "214118.917500", "214119.377500", "214119.837500", "214120.297500", "214120.757500", "214121.217500", "214121.677500", "214122.137500", "214122.597500", "214123.057500", "214123.517500", "214123.977500", "214124.437500", "214124.897500", "214125.357500", "214125.817500", "214126.277500", "214126.737500", "214127.197500", "214127.657500", "214128.117500", "214128.577500", "214129.037500", "214129.497500", "214129.957500", "214130.417500", "214130.877500", "214131.337500", "214131.797500", "214132.257500", "214132.717500", "214133.177500", "214133.637500", "214134.097500", "214134.557500", "214135.017500", "214135.477500", "214135.937500", "214136.397500", "214136.857500", "214137.317500", "214137.777500", "214138.237500", "214138.697500", "214139.157500", "214139.617500", "214140.077500", "214140.537500", "214140.997500", "214141.457500", "214141.917500", "214142.377500", "214142.837500", "214143.297500", "214143.757500", "214144.217500", "214144.677500", "214145.137500", "214145.597500", "214146.057500", "214146.517500", "214146.977500", "214147.437500", "214147.897500", "214148.357500", "214148.817500", "214149.277500", "214149.737500", "214150.197500", "214150.657500", "214151.117500", "214151.577500", "214152.037500", "214152.497500", "214152.957500", "214153.417500", "214153.877500", "214154.337500", "214154.797500", "214155.257500", "214155.717500", "214156.177500", "214156.637500", "214157.097500", "214157.557500", "214158.017500", "214158.477500", "214158.937500", "214159.397500", "214159.857500", "214200.317500", "214200.777500", "214201.237500", "214201.697500", "214202.157500", "214202.617500", "214203.077500", "214203.537500", "214203.997500", "214204.457500", "214204.917500", "214205.377500", "214205.837500", "214206.297500", "214206.757500", "214207.217500", "214207.677500", "214208.137500", "214208.597500", "214209.057500", "214209.517500", "214209.977500", "214210.437500", "214210.897500", "214211.357500", "214211.817500", "214212.277500", "214212.737500", "214213.197500", "214213.657500", "214214.117500", "214214.577500", "214215.037500", "214215.497500", "214215.957500", "214216.417500", "214216.877500", "214217.337500", "214217.797500", "214218.257500", "214218.717500", "214219.177500", "214219.637500", "214220.097500", "214220.557500", "214221.017500", "214221.477500", "214221.937500", "214222.397500", "214222.857500", "214223.317500", "214223.777500", "214224.237500", "214224.697500", "214225.157500", "214225.617500", "214226.077500", "214226.537500", "214226.997500", "214227.457500", "214227.917500", "214228.377500", "214228.837500", "214229.297500", "214229.757500", "214230.217500", "214230.677500", "214231.137500", "214231.597500", "214232.057500", "214232.517500", "214232.977500", "214233.437500", "214233.897500", "214234.357500", "214234.817500", "214235.277500", "214235.737500", "214236.197500", "214236.657500", "214237.117500", "214237.577500", "214238.037500", "214238.497500", "214238.957500", "214239.417500", "214239.877500", "214240.337500", "214240.797500", "214241.257500", "214241.717500", "214242.177500", "214242.637500", "214243.097500", "214243.557500", "214244.017500", "214244.477500", "214244.937500", "214245.397500", "214245.857500", "214246.317500", "214246.777500", "214247.237500", "214247.697500", "214248.157500", "214248.617500", "214249.077500", "214249.537500", "214249.997500", "214250.457500", "214250.917500", "214251.377500", "214251.837500", "214252.297500", "214252.757500", "214253.217500", "214253.677500", "214254.137500", "214254.597500", "214255.057500", "214255.517500", "214255.977500", "214256.437500", "214256.897500", "214257.357500", "214257.817500", "214258.277500", "214258.737500", "214259.197500", "214259.657500", "214300.117500", "214300.577500", "214301.037500", "214301.497500", "214301.957500", "214302.417500", "214302.877500", "214303.337500", "214303.797500", "214304.257500", "214304.717500", "214305.177500", "214305.637500", "214306.097500", "214306.557500", "214307.017500", "214307.477500", "214307.937500", "214308.397500", "214308.857500", "214309.317500", "214309.777500", "214310.237500", "214310.697500", "214311.157500", "214311.617500", "214312.077500", "214312.537500", "214312.997500", "214313.457500", "214313.917500", "214314.377500", "214314.837500", "214315.297500", "214315.757500", "214316.217500", "214316.677500", "214317.137500", "214317.597500", "214318.057500", "214318.517500", "214318.977500", "214319.437500", "214319.897500", "214320.357500", "214320.817500", "214321.277500", "214321.737500", "214322.197500", "214322.657500", "214323.117500", "214323.577500", "214324.037500", "214324.497500", "214324.957500", "214325.417500", "214325.877500", "214326.337500", "214326.797500", "214327.257500", "214327.717500", "214328.177500", "214328.637500", "214329.097500", "214329.557500", "214330.017500", "214330.477500", "214330.937500", "214331.397500", "214331.857500", "214332.317500", "214332.777500", "214333.237500", "214333.697500", "214334.157500", "214334.617500", "214335.077500", "214335.537500", "214335.997500", "214336.457500", "214336.917500", "214337.377500", "214337.837500", "214338.297500", "214338.757500", "214339.217500", "214339.677500", "214340.137500", "214340.597500", "214341.057500", "214341.517500", "214341.977500", "214342.437500", "214342.897500", "214343.357500", "214343.817500", "214344.277500", "214344.737500", "214345.197500", "214345.657500", "214346.117500", "214346.577500", "214347.037500", "214347.497500", "214347.957500", "214348.417500", "214348.877500", "214349.337500", "214349.797500", "214350.257500", "214350.717500", "214351.177500", "214351.637500", "214352.097500", "214352.557500", "214353.017500", "214353.477500", "214353.937500", "214354.397500", "214354.857500", "214355.317500", "214355.777500", "214356.237500", "214356.697500", "214357.157500", "214357.617500", "214358.077500", "214358.537500", "214358.997500", "214359.457500", "214359.917500", "214400.377500", "214400.837500", "214401.297500", "214401.757500", "214402.217500", "214402.677500", "214403.137500", "214403.597500", "214404.057500", "214404.517500", "214404.977500", "214405.437500", "214405.897500", "214406.357500", "214406.817500", "214407.277500", "214407.737500", "214408.197500", "214408.657500", "214409.117500", "214409.577500", "214410.037500", "214410.497500", "214410.957500", "214411.417500", "214411.877500", "214412.337500", "214412.797500", "214413.257500", "214413.717500", "214414.177500", "214414.637500", "214415.097500", "214415.557500", "214416.017500", "214416.477500", "214416.937500", "214417.397500", "214417.857500", "214418.317500", "214418.777500", "214419.237500", "214419.697500", "214420.157500", "214420.617500", "214421.077500", "214421.537500", "214421.997500", "214422.457500", "214422.917500", "214423.377500", "214423.837500", "214424.297500", "214424.757500", "214425.217500", "214425.677500", "214426.137500", "214426.597500", "214427.057500", "214427.517500", "214427.977500", "214428.437500", "214428.897500", "214429.357500", "214429.817500", "214430.277500", "214430.737500", "214431.197500", "214431.657500", "214432.117500", "214432.577500", "214433.037500", "214433.497500", "214433.957500", "214434.417500", "214434.877500", "214435.337500", "214435.797500", "214436.257500", "214436.717500", "214437.177500", "214437.637500", "214438.097500", "214438.557500", "214439.017500", "214439.477500", "214439.937500", "214440.397500", "214440.857500", "214441.317500", "214441.777500", "214442.237500", "214442.697500", "214443.157500", "214443.617500", "214444.077500", "214444.537500", "214444.997500", "214445.457500", "214445.917500", "214446.377500", "214446.837500", "214447.297500", "214447.757500", "214448.217500", "214448.677500", "214449.137500", "214449.597500", "214450.057500", "214450.517500", "214450.977500", "214451.437500", "214451.897500", "214452.357500", "214452.817500", "214453.277500", "214453.737500", "214454.197500", "214454.657500", "214455.117500", "214455.577500", "214456.037500", "214456.497500", "214456.957500", "214457.417500", "214457.877500", "214458.337500", "214458.797500", "214459.257500", "214459.717500", "214500.177500", "214500.637500", "214501.097500", "214501.557500", "214502.017500", "214502.477500", "214502.937500", "214503.397500", "214503.857500", "214504.317500", "214504.777500", "214505.237500", "214505.697500", "214506.157500", "214506.617500", "214507.077500", "214507.537500", "214507.997500", "214508.457500", "214508.917500", "214509.377500", "214509.837500", "214510.297500", "214510.757500", "214511.217500", "214511.677500", "214512.137500", "214512.597500", "214513.057500", "214513.517500", "214513.977500", "214514.437500", "214514.897500", "214515.357500", "214515.817500", "214516.277500", "214516.737500", "214517.197500", "214517.657500", "214518.117500", "214518.577500", "214519.037500", "214519.497500", "214519.957500", "214520.417500", "214520.877500", "214521.337500", "214521.797500", "214522.257500", "214522.717500", "214523.177500", "214523.637500", "214524.097500", "214524.557500", "214525.017500", "214525.477500", "214525.937500", "214526.397500", "214526.857500", "214527.317500", "214527.777500", "214528.237500", "214528.697500", "214529.157500", "214529.617500", "214530.077500", "214530.537500", "214530.997500", "214531.457500", "214531.917500", "214532.377500", "214532.837500", "214533.297500", "214533.757500", "214534.217500", "214534.677500", "214535.137500", "214535.597500", "214536.057500", "214536.517500", "214536.977500", "214537.437500", "214537.897500", "214538.357500", "214538.817500", "214539.277500", "214539.737500", "214540.197500", "214540.657500", "214541.117500", "214541.577500", "214542.037500", "214542.497500", "214542.957500", "214543.417500", "214543.877500", "214544.337500", "214544.797500", "214545.257500", "214545.717500", "214546.177500", "214546.637500", "214547.097500", "214547.557500", "214548.017500", "214548.477500", "214548.937500", "214549.397500", "214549.857500", "214550.317500", "214550.777500", "214551.237500", "214551.697500", "214552.157500", "214552.617500", "214553.077500", "214553.537500", "214553.997500", "214554.457500", "214554.917500", "214555.377500", "214555.837500", "214556.297500", "214556.757500", "214557.217500", "214557.677500", "214558.137500", "214558.597500", "214559.057500", "214559.517500", "214559.977500", "214600.437500", "214600.897500", "214601.357500", "214601.817500", "214602.277500", "214602.737500", "214603.197500", "214603.657500", "214604.117500", "214604.577500", "214605.037500", "214605.497500", "214605.957500", "214606.417500", "214606.877500", "214607.337500", "214607.797500", "214608.257500", "214608.717500", "214609.177500", "214609.637500", "214610.097500", "214610.557500", "214611.017500", "214611.477500", "214611.937500", "214612.397500", "214612.857500", "214613.317500", "214613.777500", "214614.237500", "214614.697500", "214615.157500", "214615.617500", "214616.077500", "214616.537500", "214616.997500", "214617.457500", "214617.917500", "214618.377500", "214618.837500", "214619.297500", "214619.757500", "214620.217500", "214620.677500", "214621.137500", "214621.597500", "214622.057500", "214622.517500", "214622.977500", "214623.437500", "214623.897500", "214624.357500", "214624.817500", "214625.277500", "214625.737500", "214626.197500", "214626.657500", "214627.117500", "214627.577500", "214628.037500", "214628.497500", "214628.957500", "214629.417500", "214629.877500", "214630.337500", "214630.797500", "214631.257500", "214631.717500", "214632.177500", "214632.637500", "214633.097500", "214633.557500", "214634.017500", "214634.477500", "214634.937500", "214635.397500", "214635.857500", "214636.317500", "214636.777500", "214637.237500", "214637.697500", "214638.157500", "214638.617500", "214639.077500", "214639.537500", "214639.997500", "214640.457500", "214640.917500", "214641.377500", "214641.837500", "214642.297500", "214642.757500", "214643.217500", "214643.677500", "214644.137500", "214644.597500", "214645.057500", "214645.517500", "214645.977500", "214646.437500", "214646.897500", "214647.357500", "214647.817500", "214648.277500", "214648.737500", "214649.197500", "214649.657500", "214650.117500", "214650.577500", "214651.037500", "214651.497500", "214651.957500", "214652.417500", "214652.877500", "214653.337500", "214653.797500", "214654.257500", "214654.717500", "214655.177500", "214655.637500", "214656.097500", "214656.557500", "214657.017500", "214657.477500", "214657.937500", "214658.397500", "214658.857500", "214659.317500", "214659.777500", "214700.237500", "214700.697500", "214701.157500", "214701.617500", "214702.077500", "214702.537500", "214702.997500", "214703.457500", "214703.917500", "214704.377500", "214704.837500", "214705.297500", "214705.757500", "214706.217500", "214706.677500", "214707.137500", "214707.597500", "214708.057500", "214708.517500", "214708.977500", "214709.437500", "214709.897500", "214710.357500", "214710.817500", "214711.277500", "214711.737500", "214712.197500", "214712.657500", "214713.117500", "214713.577500", "214714.037500", "214714.497500", "214714.957500", "214715.417500", "214715.877500", "214716.337500", "214716.797500", "214717.257500", "214717.717500", "214718.177500", "214718.637500", "214719.097500", "214719.557500", "214720.017500", "214720.477500", "214720.937500", "214721.397500", "214721.857500", "214722.317500", "214722.777500", "214723.237500", "214723.697500", "214724.157500", "214724.617500", "214725.077500", "214725.537500", "214725.997500", "214726.457500", "214726.917500", "214727.377500", "214727.837500", "214728.297500", "214728.757500", "214729.217500", "214729.677500", "214730.137500", "214730.597500", "214731.057500", "214731.517500", "214731.977500", "214732.437500", "214732.897500", "214733.357500", "214733.817500", "214734.277500", "214734.737500", "214735.197500", "214735.657500", "214736.117500", "214736.577500", "214737.037500", "214737.497500", "214737.957500", "214738.417500", "214738.877500", "214739.337500", "214739.797500"],
