{
  "AcquisitionMatrixPE": 82,
  "AcquisitionNumber": 1,
  "AcquisitionTime": "15:37:41.842500",
  "BandwidthPerPixelPhaseEncode": 24.888,
  "BaseResolution": 82,
  "BodyPartExamined": "BRAIN",
  "ConsistencyInfo": "N4_VE11C_LATEST_20160120",
  "ConversionSoftware": "dcm2niix",
  "ConversionSoftwareVersion": "v1.0.20201102",
  "DerivedVendorReportedEchoSpacing": 0.00049,
  "DeviceSerialNumber": "66112",
  "DwellTime": 2e-06,
  "EchoTime": 0.0272,
  "EchoTrainLength": 82,
  "EffectiveEchoSpacing": 0.00049,
  "FlipAngle": 44,
  "ImageComments": "Unaliased MB8/PE3",
  "ImageOrientationPatientDICOM": [0.997626, 0.0676043, 0.0131461, -0.0683612, 0.995212, 0.069853],
  "ImageType": [
    "ORIGINAL",
    "PRIMARY",
    "M",
    "MB",
    "ND",
    "NORM",
    "MOSAIC"
],
  "ImagingFrequency": 123.252,
  "InPlanePhaseEncodingDirectionDICOM": "COL",
  "InstitutionAddress": "Maynard 3,Hanover,NH,US,03755",
  "InstitutionName": "dartmouth_brain_imaging_center",
  "InstitutionalDepartmentName": "Department",
  "MRAcquisitionType": "2D",
  "MagneticFieldStrength": 3,
  "Manufacturer": "Siemens",
  "ManufacturersModelName": "Prisma",
  "Modality": "MR",
  "MultibandAccelerationFactor": 8,
  "PartialFourier": 1,
  "PatientPosition": "HFS",
  "PercentPhaseFOV": 100,
  "PercentSampling": 100,
  "PhaseEncodingDirection": "j-",
  "PhaseEncodingSteps": 82,
  "PhaseResolution": 1,
  "PixelBandwidth": 3050,
  "ProcedureStepDescription": "Wager_Wager^1076_spacetop",
  "ProtocolName": "func_run-04_task-social_acq-ap-mb8",
  "PulseSequenceDetails": "%CustomerSeq%\\cmrr_mbep2d_bold",
  "ReceiveCoilActiveElements": "HEA;HEP",
  "ReceiveCoilName": "Head_32",
  "ReconMatrixPE": 82,
  "RepetitionTime": 0.46,
  "SAR": 0.105804,
  "ScanOptions": "FS",
  "ScanningSequence": "EP",
  "SequenceName": "epfid2d1_82",
  "SequenceVariant": "SK\\SS",
  "SeriesDescription": "func_run-04_task-social_acq-ap-mb8",
  "SeriesNumber": 18,
  "ShimSetting": [4156, -7781, -7174, 565, -33, -216, -86, 73],
  "SliceThickness": 2.7,
  "SliceTiming": [0, 0.2525, 0.0625, 0.315, 0.1275, 0.3775, 0.19, 0, 0.2525, 0.0625, 0.315, 0.1275, 0.3775, 0.19, 0, 0.2525, 0.0625, 0.315, 0.1275, 0.3775, 0.19, 0, 0.2525, 0.0625, 0.315, 0.1275, 0.3775, 0.19, 0, 0.2525, 0.0625, 0.315, 0.1275, 0.3775, 0.19, 0, 0.2525, 0.0625, 0.315, 0.1275, 0.3775, 0.19, 0, 0.2525, 0.0625, 0.315, 0.1275, 0.3775, 0.19, 0, 0.2525, 0.0625, 0.315, 0.1275, 0.3775, 0.19],
  "SoftwareVersions": "syngo MR E11",
  "SpacingBetweenSlices": 2.7,
  "StationName": "AWP66112",
  "TaskName": "social",
  "TotalReadoutTime": 0.03969,
  "TxRefAmp": 251.157,
  "WipMemBlock": "1cd4ce3b-b600-49a5-98fe-2618a0a81727||Sequence: R016 ve11c/master r/e634e98; Dec 19 2017 11:00:25 by eja",
  "dcmmeta_affine": [
    [-2.6765565872192383, -0.18340805172920227, 0.022574180737137794, 117.70127868652344],
    [-0.18137726187705994, 2.670081615447998, 0.19058163464069366, -87.66722869873047],
    [0.03527004271745682, -0.1874103993177414, 2.6931707859039307, -47.477108001708984],
    [0.0, 0.0, 0.0, 1.0]
],
  "dcmmeta_reorient_transform": [
    [0.0, -1.0, 0.0, 81.0],
    [1.0, 0.0, 0.0, 0.0],
    [0.0, 0.0, 1.0, 0.0],
    [0.0, 0.0, 0.0, 1.0]
],
  "dcmmeta_shape": [82, 82, 56, 872],
  "dcmmeta_slice_dim": 2,
  "dcmmeta_version": 0.6,
  "global": {
    "const": {
      "AccessionNumber": "A003496",
      "AcquisitionMatrix": [82, 0, 0, 82],
      "AngioFlag": "N",
      "BitsAllocated": 16,
      "BitsStored": 16,
      "BodyPartExamined": "BRAIN",
      "Columns": 656,
      "EchoNumbers": 1,
      "EchoTime": 27.2,
      "EchoTrainLength": 82,
      "FlipAngle": 44.0,
      "HighBit": 15,
      "ImageOrientationPatient": [0.99762560383811, 0.06760424888297, 0.01314610587275, -0.0683611839067, 0.99521219418893, 0.0698529675285],
      "ImagePositionPatient": [-818.37884647185, -946.9780619042, -126.56664071071],
      "ImageType": [
        "ORIGINAL",
        "PRIMARY",
        "M",
        "MB",
        "ND",
        "NORM",
        "MOSAIC"
],
      "ImagedNucleus": "1H",
      "ImagingFrequency": 123.252141,
      "InPlanePhaseEncodingDirection": "COL",
      "MRAcquisitionType": "2D",
      "MagneticFieldStrength": 3.0,
      "Manufacturer": "SIEMENS",
      "ManufacturerModelName": "Prisma",
      "Modality": "MR",
      "NumberOfAverages": 1.0,
      "NumberOfPhaseEncodingSteps": 82,
      "PercentPhaseFieldOfView": 100.0,
      "PercentSampling": 100.0,
      "PerformedProcedureStepStartTime": "115920.336000",
      "PhotometricInterpretation": "MONOCHROME2",
      "PixelBandwidth": 3050.0,
      "PixelRepresentation": 0,
      "PixelSpacing": [2.6829268932343, 2.6829268932343],
      "ProtocolName": "func_run-04_task-social_acq-ap-mb8",
      "RepetitionTime": 460.0,
      "Rows": 656,
      "SAR": 0.10580368938758,
      "SamplesPerPixel": 1,
      "ScanOptions": "FS",
      "ScanningSequence": "EP",
      "SequenceName": "epfid2d1_82",
      "SequenceVariant": [
        "SK",
        "SS"
],
      "SeriesDescription": "func_run-04_task-social_acq-ap-mb8",
      "SeriesNumber": 18,
      "SeriesTime": "153753.757000",
      "SliceLocation": -52.561007511512,
      "SliceThickness": 2.7000000476837,
      "SmallestImagePixelValue": 0,
      "SoftwareVersions": "syngo MR E11",
      "SpacingBetweenSlices": 2.6999999749631,
      "SpecificCharacterSet": "ISO_IR 100",
      "StudyID": "1",
      "StudyTime": "115920.207000",
      "TransmitCoilName": "Body",
      "VariableFlipAngleFlag": "N",
      "WindowCenterWidthExplanation": "Algo1",
      "dBdt": 0.0},
    "slices": {}
  },
  "time": {
    "samples": {
      "AcquisitionNumber": [1, 2, 3, 4, 5, 6, 7, 8, 9, 10, 11, 12, 13, 14, 15, 16, 17, 18, 19, 20, 21, 22, 23, 24, 25, 26, 27, 28, 29, 30, 31, 32, 33, 34, 35, 36, 37, 38, 39, 40, 41, 42, 43, 44, 45, 46, 47, 48, 49, 50, 51, 52, 53, 54, 55, 56, 57, 58, 59, 60, 61, 62, 63, 64, 65, 66, 67, 68, 69, 70, 71, 72, 73, 74, 75, 76, 77, 78, 79, 80, 81, 82, 83, 84, 85, 86, 87, 88, 89, 90, 91, 92, 93, 94, 95, 96, 97, 98, 99, 100, 101, 102, 103, 104, 105, 106, 107, 108, 109, 110, 111, 112, 113, 114, 115, 116, 117, 118, 119, 120, 121, 122, 123, 124, 125, 126, 127, 128, 129, 130, 131, 132, 133, 134, 135, 136, 137, 138, 139, 140, 141, 142, 143, 144, 145, 146, 147, 148, 149, 150, 151, 152, 153, 154, 155, 156, 157, 158, 159, 160, 161, 162, 163, 164, 165, 166, 167, 168, 169, 170, 171, 172, 173, 174, 175, 176, 177, 178, 179, 180, 181, 182, 183, 184, 185, 186, 187, 188, 189, 190, 191, 192, 193, 194, 195, 196, 197, 198, 199, 200, 201, 202, 203, 204, 205, 206, 207, 208, 209, 210, 211, 212, 213, 214, 215, 216, 217, 218, 219, 220, 221, 222, 223, 224, 225, 226, 227, 228, 229, 230, 231, 232, 233, 234, 235, 236, 237, 238, 239, 240, 241, 242, 243, 244, 245, 246, 247, 248, 249, 250, 251, 252, 253, 254, 255, 256, 257, 258, 259, 260, 261, 262, 263, 264, 265, 266, 267, 268, 269, 270, 271, 272, 273, 274, 275, 276, 277, 278, 279, 280, 281, 282, 283, 284, 285, 286, 287, 288, 289, 290, 291, 292, 293, 294, 295, 296, 297, 298, 299, 300, 301, 302, 303, 304, 305, 306, 307, 308, 309, 310, 311, 312, 313, 314, 315, 316, 317, 318, 319, 320, 321, 322, 323, 324, 325, 326, 327, 328, 329, 330, 331, 332, 333, 334, 335, 336, 337, 338, 339, 340, 341, 342, 343, 344, 345, 346, 347, 348, 349, 350, 351, 352, 353, 354, 355, 356, 357, 358, 359, 360, 361, 362, 363, 364, 365, 366, 367, 368, 369, 370, 371, 372, 373, 374, 375, 376, 377, 378, 379, 380, 381, 382, 383, 384, 385, 386, 387, 388, 389, 390, 391, 392, 393, 394, 395, 396, 397, 398, 399, 400, 401, 402, 403, 404, 405, 406, 407, 408, 409, 410, 411, 412, 413, 414, 415, 416, 417, 418, 419, 420, 421, 422, 423, 424, 425, 426, 427, 428, 429, 430, 431, 432, 433, 434, 435, 436, 437, 438, 439, 440, 441, 442, 443, 444, 445, 446, 447, 448, 449, 450, 451, 452, 453, 454, 455, 456, 457, 458, 459, 460, 461, 462, 463, 464, 465, 466, 467, 468, 469, 470, 471, 472, 473, 474, 475, 476, 477, 478, 479, 480, 481, 482, 483, 484, 485, 486, 487, 488, 489, 490, 491, 492, 493, 494, 495, 496, 497, 498, 499, 500, 501, 502, 503, 504, 505, 506, 507, 508, 509, 510, 511, 512, 513, 514, 515, 516, 517, 518, 519, 520, 521, 522, 523, 524, 525, 526, 527, 528, 529, 530, 531, 532, 533, 534, 535, 536, 537, 538, 539, 540, 541, 542, 543, 544, 545, 546, 547, 548, 549, 550, 551, 552, 553, 554, 555, 556, 557, 558, 559, 560, 561, 562, 563, 564, 565, 566, 567, 568, 569, 570, 571, 572, 573, 574, 575, 576, 577, 578, 579, 580, 581, 582, 583, 584, 585, 586, 587, 588, 589, 590, 591, 592, 593, 594, 595, 596, 597, 598, 599, 600, 601, 602, 603, 604, 605, 606, 607, 608, 609, 610, 611, 612, 613, 614, 615, 616, 617, 618, 619, 620, 621, 622, 623, 624, 625, 626, 627, 628, 629, 630, 631, 632, 633, 634, 635, 636, 637, 638, 639, 640, 641, 642, 643, 644, 645, 646, 647, 648, 649, 650, 651, 652, 653, 654, 655, 656, 657, 658, 659, 660, 661, 662, 663, 664, 665, 666, 667, 668, 669, 670, 671, 672, 673, 674, 675, 676, 677, 678, 679, 680, 681, 682, 683, 684, 685, 686, 687, 688, 689, 690, 691, 692, 693, 694, 695, 696, 697, 698, 699, 700, 701, 702, 703, 704, 705, 706, 707, 708, 709, 710, 711, 712, 713, 714, 715, 716, 717, 718, 719, 720, 721, 722, 723, 724, 725, 726, 727, 728, 729, 730, 731, 732, 733, 734, 735, 736, 737, 738, 739, 740, 741, 742, 743, 744, 745, 746, 747, 748, 749, 750, 751, 752, 753, 754, 755, 756, 757, 758, 759, 760, 761, 762, 763, 764, 765, 766, 767, 768, 769, 770, 771, 772, 773, 774, 775, 776, 777, 778, 779, 780, 781, 782, 783, 784, 785, 786, 787, 788, 789, 790, 791, 792, 793, 794, 795, 796, 797, 798, 799, 800, 801, 802, 803, 804, 805, 806, 807, 808, 809, 810, 811, 812, 813, 814, 815, 816, 817, 818, 819, 820, 821, 822, 823, 824, 825, 826, 827, 828, 829, 830, 831, 832, 833, 834, 835, 836, 837, 838, 839, 840, 841, 842, 843, 844, 845, 846, 847, 848, 849, 850, 851, 852, 853, 854, 855, 856, 857, 858, 859, 860, 861, 862, 863, 864, 865, 866, 867, 868, 869, 870, 871, 872],
      "AcquisitionTime": ["153741.842500", "153742.302500", "153742.762500", "153743.222500", "153743.682500", "153744.142500", "153744.602500", "153745.062500", "153745.522500", "153745.982500", "153746.442500", "153746.902500", "153747.362500", "153747.822500", "153748.282500", "153748.742500", "153749.202500", "153749.662500", "153750.122500", "153750.582500", "153751.042500", "153751.502500", "153751.962500", "153752.422500", "153752.882500", "153753.342500", "153753.802500", "153754.262500", "153754.722500", "153755.182500", "153755.642500", "153756.102500", "153756.562500", "153757.022500", "153757.482500", "153757.942500", "153758.402500", "153758.862500", "153759.322500", "153759.782500", "153800.242500", "153800.702500", "153801.162500", "153801.622500", "153802.082500", "153802.542500", "153803.002500", "153803.462500", "153803.922500", "153804.382500", "153804.842500", "153805.302500", "153805.762500", "153806.222500", "153806.682500", "153807.142500", "153807.602500", "153808.062500", "153808.522500", "153808.982500", "153809.442500", "153809.902500", "153810.362500", "153810.822500", "153811.282500", "153811.742500", "153812.202500", "153812.662500", "153813.122500", "153813.582500", "153814.042500", "153814.502500", "153814.962500", "153815.422500", "153815.882500", "153816.342500", "153816.802500", "153817.262500", "153817.722500", "153818.182500", "153818.642500", "153819.102500", "153819.562500", "153820.022500", "153820.482500", "153820.942500", "153821.402500", "153821.862500", "153822.322500", "153822.782500", "153823.242500", "153823.702500", "153824.162500", "153824.622500", "153825.082500", "153825.542500", "153826.002500", "153826.462500", "153826.922500", "153827.382500", "153827.842500", "153828.302500", "153828.762500", "153829.222500", "153829.682500", "153830.142500", "153830.602500", "153831.062500", "153831.522500", "153831.982500", "153832.442500", "153832.902500", "153833.362500", "153833.822500", "153834.282500", "153834.742500", "153835.202500", "153835.662500", "153836.122500", "153836.582500", "153837.042500", "153837.502500", "153837.962500", "153838.422500", "153838.882500", "153839.342500", "153839.802500", "153840.262500", "153840.722500", "153841.182500", "153841.642500", "153842.102500", "153842.562500", "153843.022500", "153843.482500", "153843.942500", "153844.402500", "153844.862500", "153845.322500", "153845.782500", "153846.242500", "153846.702500", "153847.162500", "153847.622500", "153848.082500", "153848.542500", "153849.002500", "153849.462500", "153849.922500", "153850.382500", "153850.842500", "153851.302500", "153851.762500", "153852.222500", "153852.682500", "153853.142500", "153853.602500", "153854.062500", "153854.522500", "153854.982500", "153855.442500", "153855.902500", "153856.362500", "153856.822500", "153857.282500", "153857.742500", "153858.202500", "153858.662500", "153859.122500", "153859.582500", "153900.042500", "153900.502500", "153900.962500", "153901.422500", "153901.882500", "153902.342500", "153902.802500", "153903.262500", "153903.722500", "153904.182500", "153904.642500", "153905.102500", "153905.562500", "153906.022500", "153906.482500", "153906.942500", "153907.402500", "153907.862500", "153908.322500", "153908.782500", "153909.242500", "153909.702500", "153910.162500", "153910.622500", "153911.082500", "153911.542500", "153912.002500", "153912.462500", "153912.922500", "153913.382500", "153913.842500", "153914.302500", "153914.762500", "153915.222500", "153915.682500", "153916.142500", "153916.602500", "153917.062500", "153917.522500", "153917.982500", "153918.442500", "153918.902500", "153919.362500", "153919.822500", "153920.282500", "153920.742500", "153921.202500", "153921.662500", "153922.122500", "153922.582500", "153923.042500", "153923.502500", "153923.962500", "153924.422500", "153924.882500", "153925.342500", "153925.802500", "153926.262500", "153926.722500", "153927.182500", "153927.642500", "153928.102500", "153928.562500", "153929.022500", "153929.482500", "153929.942500", "153930.402500", "153930.862500", "153931.322500", "153931.782500", "153932.242500", "153932.702500", "153933.162500", "153933.622500", "153934.082500", "153934.542500", "153935.002500", "153935.462500", "153935.922500", "153936.382500", "153936.842500", "153937.302500", "153937.762500", "153938.222500", "153938.682500", "153939.142500", "153939.602500", "153940.062500", "153940.522500", "153940.982500", "153941.442500", "153941.902500", "153942.362500", "153942.822500", "153943.282500", "153943.742500", "153944.202500", "153944.662500", "153945.122500", "153945.582500", "153946.042500", "153946.502500", "153946.962500", "153947.422500", "153947.882500", "153948.342500", "153948.802500", "153949.262500", "153949.722500", "153950.182500", "153950.642500", "153951.102500", "153951.562500", "153952.022500", "153952.482500", "153952.942500", "153953.402500", "153953.862500", "153954.322500", "153954.782500", "153955.242500", "153955.702500", "153956.162500", "153956.622500", "153957.082500", "153957.542500", "153958.002500", "153958.462500", "153958.922500", "153959.382500", "153959.842500", "154000.302500", "154000.762500", "154001.222500", "154001.682500", "154002.142500", "154002.602500", "154003.062500", "154003.522500", "154003.982500", "154004.442500", "154004.902500", "154005.362500", "154005.822500", "154006.282500", "154006.742500", "154007.202500", "154007.662500", "154008.122500", "154008.582500", "154009.042500", "154009.502500", "154009.962500", "154010.422500", "154010.882500", "154011.342500", "154011.802500", "154012.262500", "154012.722500", "154013.182500", "154013.642500", "154014.102500", "154014.562500", "154015.022500", "154015.482500", "154015.942500", "154016.402500", "154016.862500", "154017.322500", "154017.782500", "154018.242500", "154018.702500", "154019.162500", "154019.622500", "154020.082500", "154020.542500", "154021.002500", "154021.462500", "154021.922500", "154022.382500", "154022.842500", "154023.302500", "154023.762500", "154024.222500", "154024.682500", "154025.142500", "154025.602500", "154026.062500", "154026.522500", "154026.982500", "154027.442500", "154027.902500", "154028.362500", "154028.822500", "154029.282500", "154029.742500", "154030.202500", "154030.662500", "154031.122500", "154031.582500", "154032.042500", "154032.502500", "154032.962500", "154033.422500", "154033.882500", "154034.342500", "154034.802500", "154035.262500", "154035.722500", "154036.182500", "154036.642500", "154037.102500", "154037.562500", "154038.022500", "154038.482500", "154038.942500", "154039.402500", "154039.862500", "154040.322500", "154040.782500", "154041.242500", "154041.702500", "154042.162500", "154042.622500", "154043.082500", "154043.542500", "154044.002500", "154044.462500", "154044.922500", "154045.382500", "154045.842500", "154046.302500", "154046.762500", "154047.222500", "154047.682500", "154048.142500", "154048.602500", "154049.062500", "154049.522500", "154049.982500", "154050.442500", "154050.902500", "154051.362500", "154051.822500", "154052.282500", "154052.742500", "154053.202500", "154053.662500", "154054.122500", "154054.582500", "154055.042500", "154055.502500", "154055.962500", "154056.422500", "154056.882500", "154057.342500", "154057.802500", "154058.262500", "154058.722500", "154059.182500", "154059.642500", "154100.102500", "154100.562500", "154101.022500", "154101.482500", "154101.942500", "154102.402500", "154102.862500", "154103.322500", "154103.782500", "154104.242500", "154104.702500", "154105.162500", "154105.622500", "154106.082500", "154106.542500", "154107.002500", "154107.462500", "154107.922500", "154108.382500", "154108.842500", "154109.302500", "154109.762500", "154110.222500", "154110.682500", "154111.142500", "154111.602500", "154112.062500", "154112.522500", "154112.982500", "154113.442500", "154113.902500", "154114.362500", "154114.822500", "154115.282500", "154115.742500", "154116.202500", "154116.662500", "154117.122500", "154117.582500", "154118.042500", "154118.502500", "154118.962500", "154119.422500", "154119.882500", "154120.342500", "154120.802500", "154121.262500", "154121.722500", "154122.182500", "154122.642500", "154123.102500", "154123.562500", "154124.022500", "154124.482500", "154124.942500", "154125.402500", "154125.862500", "154126.322500", "154126.782500", "154127.242500", "154127.702500", "154128.162500", "154128.622500", "154129.082500", "154129.542500", "154130.002500", "154130.462500", "154130.922500", "154131.382500", "154131.842500", "154132.302500", "154132.762500", "154133.222500", "154133.682500", "154134.142500", "154134.602500", "154135.062500", "154135.522500", "154135.982500", "154136.442500", "154136.902500", "154137.362500", "154137.822500", "154138.282500", "154138.742500", "154139.202500", "154139.662500", "154140.122500", "154140.582500", "154141.042500", "154141.502500", "154141.962500", "154142.422500", "154142.882500", "154143.342500", "154143.802500", "154144.262500", "154144.722500", "154145.182500", "154145.642500", "154146.102500", "154146.562500", "154147.022500", "154147.482500", "154147.942500", "154148.402500", "154148.862500", "154149.322500", "154149.782500", "154150.242500", "154150.702500", "154151.162500", "154151.622500", "154152.082500", "154152.542500", "154153.002500", "154153.462500", "154153.922500", "154154.382500", "154154.842500", "154155.302500", "154155.762500", "154156.222500", "154156.682500", "154157.142500", "154157.602500", "154158.062500", "154158.522500", "154158.982500", "154159.442500", "154159.902500", "154200.362500", "154200.822500", "154201.282500", "154201.742500", "154202.202500", "154202.662500", "154203.122500", "154203.582500", "154204.042500", "154204.502500", "154204.962500", "154205.422500", "154205.882500", "154206.342500", "154206.802500", "154207.262500", "154207.722500", "154208.182500", "154208.642500", "154209.102500", "154209.562500", "154210.022500", "154210.482500", "154210.942500", "154211.402500", "154211.862500", "154212.322500", "154212.782500", "154213.242500", "154213.702500", "154214.162500", "154214.622500", "154215.082500", "154215.542500", "154216.002500", "154216.462500", "154216.922500", "154217.382500", "154217.842500", "154218.302500", "154218.762500", "154219.222500", "154219.682500", "154220.142500", "154220.602500", "154221.062500", "154221.522500", "154221.982500", "154222.442500", "154222.902500", "154223.362500", "154223.822500", "154224.282500", "154224.742500", "154225.202500", "154225.662500", "154226.122500", "154226.582500", "154227.042500", "154227.502500", "154227.962500", "154228.422500", "154228.882500", "154229.342500", "154229.802500", "154230.262500", "154230.722500", "154231.182500", "154231.642500", "154232.102500", "154232.562500", "154233.022500", "154233.482500", "154233.942500", "154234.402500", "154234.862500", "154235.322500", "154235.782500", "154236.242500", "154236.702500", "154237.162500", "154237.622500", "154238.082500", "154238.542500", "154239.002500", "154239.462500", "154239.922500", "154240.382500", "154240.842500", "154241.302500", "154241.762500", "154242.222500", "154242.682500", "154243.142500", "154243.602500", "154244.062500", "154244.522500", "154244.982500", "154245.442500", "154245.902500", "154246.362500", "154246.822500", "154247.282500", "154247.742500", "154248.202500", "154248.662500", "154249.122500", "154249.582500", "154250.042500", "154250.502500", "154250.962500", "154251.422500", "154251.882500", "154252.342500", "154252.802500", "154253.262500", "154253.722500", "154254.182500", "154254.642500", "154255.102500", "154255.562500", "154256.022500", "154256.482500", "154256.942500", "154257.402500", "154257.862500", "154258.322500", "154258.782500", "154259.242500", "154259.702500", "154300.162500", "154300.622500", "154301.082500", "154301.542500", "154302.002500", "154302.462500", "154302.922500", "154303.382500", "154303.842500", "154304.302500", "154304.762500", "154305.222500", "154305.682500", "154306.142500", "154306.602500", "154307.062500", "154307.522500", "154307.982500", "154308.442500", "154308.902500", "154309.362500", "154309.822500", "154310.282500", "154310.742500", "154311.202500", "154311.662500", "154312.122500", "154312.582500", "154313.042500", "154313.502500", "154313.962500", "154314.422500", "154314.882500", "154315.342500", "154315.802500", "154316.262500", "154316.722500", "154317.182500", "154317.642500", "154318.102500", "154318.562500", "154319.022500", "154319.482500", "154319.942500", "154320.402500", "154320.862500", "154321.322500", "154321.782500", "154322.242500", "154322.702500", "154323.162500", "154323.622500", "154324.082500", "154324.542500", "154325.002500", "154325.462500", "154325.922500", "154326.382500", "154326.842500", "154327.302500", "154327.762500", "154328.222500", "154328.682500", "154329.142500", "154329.602500", "154330.062500", "154330.522500", "154330.982500", "154331.442500", "154331.902500", "154332.362500", "154332.822500", "154333.282500", "154333.742500", "154334.202500", "154334.662500", "154335.122500", "154335.582500", "154336.042500", "154336.502500", "154336.962500", "154337.422500", "154337.882500", "154338.342500", "154338.802500", "154339.262500", "154339.722500", "154340.182500", "154340.642500", "154341.102500", "154341.562500", "154342.022500", "154342.482500", "154342.942500", "154343.402500", "154343.862500", "154344.322500", "154344.782500", "154345.242500", "154345.702500", "154346.162500", "154346.622500", "154347.082500", "154347.542500", "154348.002500", "154348.462500", "154348.922500", "154349.382500", "154349.842500", "154350.302500", "154350.762500", "154351.222500", "154351.682500", "154352.142500", "154352.602500", "154353.062500", "154353.522500", "154353.982500", "154354.442500", "154354.902500", "154355.362500", "154355.822500", "154356.282500", "154356.742500", "154357.202500", "154357.662500", "154358.122500", "154358.582500", "154359.042500", "154359.502500", "154359.962500", "154400.422500", "154400.882500", "154401.342500", "154401.802500", "154402.262500", "154402.722500", "154403.182500", "154403.642500", "154404.102500", "154404.562500", "154405.022500", "154405.482500", "154405.942500", "154406.402500", "154406.862500", "154407.322500", "154407.782500", "154408.242500", "154408.702500", "154409.162500", "154409.622500", "154410.082500", "154410.542500", "154411.002500", "154411.462500", "154411.922500", "154412.382500", "154412.842500", "154413.302500", "154413.762500", "154414.222500", "154414.682500", "154415.142500", "154415.602500", "154416.062500", "154416.522500", "154416.982500", "154417.442500", "154417.902500", "154418.362500", "154418.822500", "154419.282500", "154419.742500", "154420.202500", "154420.662500", "154421.122500", "154421.582500", "154422.042500", "154422.502500"],
