{
  "AcquisitionMatrixPE": 82,
  "AcquisitionNumber": 1,
  "AcquisitionTime": "15:54:57.525000",
  "BandwidthPerPixelPhaseEncode": 24.888,
  "BaseResolution": 82,
  "BodyPartExamined": "BRAIN",
  "ConsistencyInfo": "N4_VE11C_LATEST_20160120",
  "ConversionSoftware": "dcm2niix",
  "ConversionSoftwareVersion": "v1.0.20201102",
  "DerivedVendorReportedEchoSpacing": 0.00049,
  "DeviceSerialNumber": "66112",
  "DwellTime": 2e-06,
  "EchoTime": 0.0272,
  "EchoTrainLength": 82,
  "EffectiveEchoSpacing": 0.00049,
  "FlipAngle": 44,
  "ImageComments": "Unaliased MB8/PE3",
  "ImageOrientationPatientDICOM": [0.997626, 0.0676043, 0.0131461, -0.0683612, 0.995212, 0.069853],
  "ImageType": [
    "ORIGINAL",
    "PRIMARY",
    "M",
    "MB",
    "ND",
    "NORM",
    "MOSAIC"
],
  "ImagingFrequency": 123.252,
  "InPlanePhaseEncodingDirectionDICOM": "COL",
  "InstitutionAddress": "Maynard 3,Hanover,NH,US,03755",
  "InstitutionName": "dartmouth_brain_imaging_center",
  "InstitutionalDepartmentName": "Department",
  "MRAcquisitionType": "2D",
  "MagneticFieldStrength": 3,
  "Manufacturer": "Siemens",
  "ManufacturersModelName": "Prisma",
  "Modality": "MR",
  "MultibandAccelerationFactor": 8,
  "PartialFourier": 1,
  "PatientPosition": "HFS",
  "PercentPhaseFOV": 100,
  "PercentSampling": 100,
  "PhaseEncodingDirection": "j-",
  "PhaseEncodingSteps": 82,
  "PhaseResolution": 1,
  "PixelBandwidth": 3050,
  "ProcedureStepDescription": "Wager_Wager^1076_spacetop",
  "ProtocolName": "func_run-06_task-social_acq-ap-mb8",
  "PulseSequenceDetails": "%CustomerSeq%\\cmrr_mbep2d_bold",
  "ReceiveCoilActiveElements": "HEA;HEP",
  "ReceiveCoilName": "Head_32",
  "ReconMatrixPE": 82,
  "RepetitionTime": 0.46,
  "SAR": 0.105804,
  "ScanOptions": "FS",
  "ScanningSequence": "EP",
  "SequenceName": "epfid2d1_82",
  "SequenceVariant": "SK\\SS",
  "SeriesDescription": "func_run-06_task-social_acq-ap-mb8",
  "SeriesNumber": 22,
  "ShimSetting": [4156, -7781, -7174, 565, -33, -216, -86, 73],
  "SliceThickness": 2.7,
  "SliceTiming": [0, 0.2525, 0.065, 0.315, 0.1275, 0.3775, 0.19, 0, 0.2525, 0.065, 0.315, 0.1275, 0.3775, 0.19, 0, 0.2525, 0.065, 0.315, 0.1275, 0.3775, 0.19, 0, 0.2525, 0.065, 0.315, 0.1275, 0.3775, 0.19, 0, 0.2525, 0.065, 0.315, 0.1275, 0.3775, 0.19, 0, 0.2525, 0.065, 0.315, 0.1275, 0.3775, 0.19, 0, 0.2525, 0.065, 0.315, 0.1275, 0.3775, 0.19, 0, 0.2525, 0.065, 0.315, 0.1275, 0.3775, 0.19],
  "SoftwareVersions": "syngo MR E11",
  "SpacingBetweenSlices": 2.7,
  "StationName": "AWP66112",
  "TaskName": "social",
  "TotalReadoutTime": 0.03969,
  "TxRefAmp": 251.157,
  "WipMemBlock": "99a471f6-9ecc-4847-ae19-922052497735||Sequence: R016 ve11c/master r/e634e98; Dec 19 2017 11:00:25 by eja",
  "dcmmeta_affine": [
    [-2.6765565872192383, -0.18340805172920227, 0.022574180737137794, 117.70127868652344],
    [-0.18137726187705994, 2.670081615447998, 0.19058163464069366, -87.66722869873047],
    [0.03527004271745682, -0.1874103993177414, 2.6931707859039307, -47.477108001708984],
    [0.0, 0.0, 0.0, 1.0]
],
  "dcmmeta_reorient_transform": [
    [0.0, -1.0, 0.0, 81.0],
    [1.0, 0.0, 0.0, 0.0],
    [0.0, 0.0, 1.0, 0.0],
    [0.0, 0.0, 0.0, 1.0]
],
  "dcmmeta_shape": [82, 82, 56, 872],
  "dcmmeta_slice_dim": 2,
  "dcmmeta_version": 0.6,
  "global": {
    "const": {
      "AccessionNumber": "A003496",
      "AcquisitionMatrix": [82, 0, 0, 82],
      "AngioFlag": "N",
      "BitsAllocated": 16,
      "BitsStored": 16,
      "BodyPartExamined": "BRAIN",
      "Columns": 656,
      "EchoNumbers": 1,
      "EchoTime": 27.2,
      "EchoTrainLength": 82,
      "FlipAngle": 44.0,
      "HighBit": 15,
      "ImageOrientationPatient": [0.99762560383811, 0.06760424888297, 0.01314610587275, -0.0683611839067, 0.99521219418893, 0.0698529675285],
      "ImagePositionPatient": [-818.37884647185, -946.9780619042, -126.56664071071],
      "ImageType": [
        "ORIGINAL",
        "PRIMARY",
        "M",
        "MB",
        "ND",
        "NORM",
        "MOSAIC"
],
      "ImagedNucleus": "1H",
      "ImagingFrequency": 123.252157,
      "InPlanePhaseEncodingDirection": "COL",
      "MRAcquisitionType": "2D",
      "MagneticFieldStrength": 3.0,
      "Manufacturer": "SIEMENS",
      "ManufacturerModelName": "Prisma",
      "Modality": "MR",
      "NumberOfAverages": 1.0,
      "NumberOfPhaseEncodingSteps": 82,
      "PercentPhaseFieldOfView": 100.0,
      "PercentSampling": 100.0,
      "PerformedProcedureStepStartTime": "115920.336000",
      "PhotometricInterpretation": "MONOCHROME2",
      "PixelBandwidth": 3050.0,
      "PixelRepresentation": 0,
      "PixelSpacing": [2.6829268932343, 2.6829268932343],
      "ProtocolName": "func_run-06_task-social_acq-ap-mb8",
      "RepetitionTime": 460.0,
      "Rows": 656,
      "SAR": 0.10580368938758,
      "SamplesPerPixel": 1,
      "ScanOptions": "FS",
      "ScanningSequence": "EP",
      "SequenceName": "epfid2d1_82",
      "SequenceVariant": [
        "SK",
        "SS"
],
      "SeriesDescription": "func_run-06_task-social_acq-ap-mb8",
      "SeriesNumber": 22,
      "SeriesTime": "155513.886000",
      "SliceLocation": -52.561007511512,
      "SliceThickness": 2.7000000476837,
      "SmallestImagePixelValue": 0,
      "SoftwareVersions": "syngo MR E11",
      "SpacingBetweenSlices": 2.6999999749631,
      "SpecificCharacterSet": "ISO_IR 100",
      "StudyID": "1",
      "StudyTime": "115920.207000",
      "TransmitCoilName": "Body",
      "VariableFlipAngleFlag": "N",
      "WindowCenterWidthExplanation": "Algo1",
      "dBdt": 0.0},
    "slices": {}
  },
  "time": {
    "samples": {
      "AcquisitionNumber": [1, 2, 3, 4, 5, 6, 7, 8, 9, 10, 11, 12, 13, 14, 15, 16, 17, 18, 19, 20, 21, 22, 23, 24, 25, 26, 27, 28, 29, 30, 31, 32, 33, 34, 35, 36, 37, 38, 39, 40, 41, 42, 43, 44, 45, 46, 47, 48, 49, 50, 51, 52, 53, 54, 55, 56, 57, 58, 59, 60, 61, 62, 63, 64, 65, 66, 67, 68, 69, 70, 71, 72, 73, 74, 75, 76, 77, 78, 79, 80, 81, 82, 83, 84, 85, 86, 87, 88, 89, 90, 91, 92, 93, 94, 95, 96, 97, 98, 99, 100, 101, 102, 103, 104, 105, 106, 107, 108, 109, 110, 111, 112, 113, 114, 115, 116, 117, 118, 119, 120, 121, 122, 123, 124, 125, 126, 127, 128, 129, 130, 131, 132, 133, 134, 135, 136, 137, 138, 139, 140, 141, 142, 143, 144, 145, 146, 147, 148, 149, 150, 151, 152, 153, 154, 155, 156, 157, 158, 159, 160, 161, 162, 163, 164, 165, 166, 167, 168, 169, 170, 171, 172, 173, 174, 175, 176, 177, 178, 179, 180, 181, 182, 183, 184, 185, 186, 187, 188, 189, 190, 191, 192, 193, 194, 195, 196, 197, 198, 199, 200, 201, 202, 203, 204, 205, 206, 207, 208, 209, 210, 211, 212, 213, 214, 215, 216, 217, 218, 219, 220, 221, 222, 223, 224, 225, 226, 227, 228, 229, 230, 231, 232, 233, 234, 235, 236, 237, 238, 239, 240, 241, 242, 243, 244, 245, 246, 247, 248, 249, 250, 251, 252, 253, 254, 255, 256, 257, 258, 259, 260, 261, 262, 263, 264, 265, 266, 267, 268, 269, 270, 271, 272, 273, 274, 275, 276, 277, 278, 279, 280, 281, 282, 283, 284, 285, 286, 287, 288, 289, 290, 291, 292, 293, 294, 295, 296, 297, 298, 299, 300, 301, 302, 303, 304, 305, 306, 307, 308, 309, 310, 311, 312, 313, 314, 315, 316, 317, 318, 319, 320, 321, 322, 323, 324, 325, 326, 327, 328, 329, 330, 331, 332, 333, 334, 335, 336, 337, 338, 339, 340, 341, 342, 343, 344, 345, 346, 347, 348, 349, 350, 351, 352, 353, 354, 355, 356, 357, 358, 359, 360, 361, 362, 363, 364, 365, 366, 367, 368, 369, 370, 371, 372, 373, 374, 375, 376, 377, 378, 379, 380, 381, 382, 383, 384, 385, 386, 387, 388, 389, 390, 391, 392, 393, 394, 395, 396, 397, 398, 399, 400, 401, 402, 403, 404, 405, 406, 407, 408, 409, 410, 411, 412, 413, 414, 415, 416, 417, 418, 419, 420, 421, 422, 423, 424, 425, 426, 427, 428, 429, 430, 431, 432, 433, 434, 435, 436, 437, 438, 439, 440, 441, 442, 443, 444, 445, 446, 447, 448, 449, 450, 451, 452, 453, 454, 455, 456, 457, 458, 459, 460, 461, 462, 463, 464, 465, 466, 467, 468, 469, 470, 471, 472, 473, 474, 475, 476, 477, 478, 479, 480, 481, 482, 483, 484, 485, 486, 487, 488, 489, 490, 491, 492, 493, 494, 495, 496, 497, 498, 499, 500, 501, 502, 503, 504, 505, 506, 507, 508, 509, 510, 511, 512, 513, 514, 515, 516, 517, 518, 519, 520, 521, 522, 523, 524, 525, 526, 527, 528, 529, 530, 531, 532, 533, 534, 535, 536, 537, 538, 539, 540, 541, 542, 543, 544, 545, 546, 547, 548, 549, 550, 551, 552, 553, 554, 555, 556, 557, 558, 559, 560, 561, 562, 563, 564, 565, 566, 567, 568, 569, 570, 571, 572, 573, 574, 575, 576, 577, 578, 579, 580, 581, 582, 583, 584, 585, 586, 587, 588, 589, 590, 591, 592, 593, 594, 595, 596, 597, 598, 599, 600, 601, 602, 603, 604, 605, 606, 607, 608, 609, 610, 611, 612, 613, 614, 615, 616, 617, 618, 619, 620, 621, 622, 623, 624, 625, 626, 627, 628, 629, 630, 631, 632, 633, 634, 635, 636, 637, 638, 639, 640, 641, 642, 643, 644, 645, 646, 647, 648, 649, 650, 651, 652, 653, 654, 655, 656, 657, 658, 659, 660, 661, 662, 663, 664, 665, 666, 667, 668, 669, 670, 671, 672, 673, 674, 675, 676, 677, 678, 679, 680, 681, 682, 683, 684, 685, 686, 687, 688, 689, 690, 691, 692, 693, 694, 695, 696, 697, 698, 699, 700, 701, 702, 703, 704, 705, 706, 707, 708, 709, 710, 711, 712, 713, 714, 715, 716, 717, 718, 719, 720, 721, 722, 723, 724, 725, 726, 727, 728, 729, 730, 731, 732, 733, 734, 735, 736, 737, 738, 739, 740, 741, 742, 743, 744, 745, 746, 747, 748, 749, 750, 751, 752, 753, 754, 755, 756, 757, 758, 759, 760, 761, 762, 763, 764, 765, 766, 767, 768, 769, 770, 771, 772, 773, 774, 775, 776, 777, 778, 779, 780, 781, 782, 783, 784, 785, 786, 787, 788, 789, 790, 791, 792, 793, 794, 795, 796, 797, 798, 799, 800, 801, 802, 803, 804, 805, 806, 807, 808, 809, 810, 811, 812, 813, 814, 815, 816, 817, 818, 819, 820, 821, 822, 823, 824, 825, 826, 827, 828, 829, 830, 831, 832, 833, 834, 835, 836, 837, 838, 839, 840, 841, 842, 843, 844, 845, 846, 847, 848, 849, 850, 851, 852, 853, 854, 855, 856, 857, 858, 859, 860, 861, 862, 863, 864, 865, 866, 867, 868, 869, 870, 871, 872],
      "AcquisitionTime": ["155457.525000", "155457.985000", "155458.445000", "155458.905000", "155459.365000", "155459.825000", "155500.285000", "155500.745000", "155501.205000", "155501.665000", "155502.125000", "155502.585000", "155503.045000", "155503.505000", "155503.965000", "155504.425000", "155504.885000", "155505.345000", "155505.805000", "155506.265000", "155506.725000", "155507.185000", "155507.645000", "155508.105000", "155508.565000", "155509.025000", "155509.485000", "155509.945000", "155510.405000", "155510.865000", "155511.325000", "155511.785000", "155512.245000", "155512.705000", "155513.165000", "155513.625000", "155514.085000", "155514.545000", "155515.005000", "155515.465000", "155515.925000", "155516.385000", "155516.845000", "155517.305000", "155517.765000", "155518.225000", "155518.685000", "155519.145000", "155519.605000", "155520.065000", "155520.525000", "155520.985000", "155521.445000", "155521.905000", "155522.365000", "155522.825000", "155523.285000", "155523.745000", "155524.205000", "155524.665000", "155525.125000", "155525.585000", "155526.045000", "155526.505000", "155526.965000", "155527.425000", "155527.885000", "155528.345000", "155528.805000", "155529.265000", "155529.725000", "155530.185000", "155530.645000", "155531.105000", "155531.565000", "155532.025000", "155532.485000", "155532.945000", "155533.405000", "155533.865000", "155534.325000", "155534.785000", "155535.245000", "155535.705000", "155536.165000", "155536.625000", "155537.085000", "155537.545000", "155538.005000", "155538.465000", "155538.925000", "155539.385000", "155539.845000", "155540.305000", "155540.765000", "155541.225000", "155541.685000", "155542.145000", "155542.605000", "155543.065000", "155543.525000", "155543.985000", "155544.445000", "155544.905000", "155545.365000", "155545.825000", "155546.285000", "155546.745000", "155547.205000", "155547.665000", "155548.125000", "155548.585000", "155549.045000", "155549.505000", "155549.965000", "155550.425000", "155550.885000", "155551.345000", "155551.805000", "155552.265000", "155552.725000", "155553.185000", "155553.645000", "155554.105000", "155554.565000", "155555.025000", "155555.485000", "155555.945000", "155556.405000", "155556.865000", "155557.325000", "155557.785000", "155558.245000", "155558.705000", "155559.165000", "155559.625000", "155600.085000", "155600.545000", "155601.005000", "155601.465000", "155601.925000", "155602.385000", "155602.845000", "155603.305000", "155603.765000", "155604.225000", "155604.685000", "155605.145000", "155605.605000", "155606.065000", "155606.525000", "155606.985000", "155607.445000", "155607.905000", "155608.365000", "155608.825000", "155609.285000", "155609.745000", "155610.205000", "155610.665000", "155611.125000", "155611.585000", "155612.045000", "155612.505000", "155612.965000", "155613.425000", "155613.885000", "155614.345000", "155614.805000", "155615.265000", "155615.725000", "155616.185000", "155616.645000", "155617.105000", "155617.565000", "155618.025000", "155618.485000", "155618.945000", "155619.405000", "155619.865000", "155620.325000", "155620.785000", "155621.245000", "155621.705000", "155622.165000", "155622.625000", "155623.085000", "155623.545000", "155624.005000", "155624.465000", "155624.925000", "155625.385000", "155625.845000", "155626.305000", "155626.765000", "155627.225000", "155627.685000", "155628.145000", "155628.605000", "155629.065000", "155629.525000", "155629.985000", "155630.445000", "155630.905000", "155631.365000", "155631.825000", "155632.285000", "155632.745000", "155633.205000", "155633.665000", "155634.125000", "155634.585000", "155635.045000", "155635.505000", "155635.965000", "155636.425000", "155636.885000", "155637.345000", "155637.805000", "155638.265000", "155638.725000", "155639.185000", "155639.645000", "155640.105000", "155640.565000", "155641.025000", "155641.485000", "155641.945000", "155642.405000", "155642.865000", "155643.325000", "155643.785000", "155644.245000", "155644.705000", "155645.165000", "155645.625000", "155646.085000", "155646.545000", "155647.005000", "155647.465000", "155647.925000", "155648.385000", "155648.845000", "155649.305000", "155649.765000", "155650.225000", "155650.685000", "155651.145000", "155651.605000", "155652.065000", "155652.525000", "155652.985000", "155653.445000", "155653.905000", "155654.365000", "155654.825000", "155655.285000", "155655.745000", "155656.205000", "155656.665000", "155657.125000", "155657.585000", "155658.045000", "155658.505000", "155658.965000", "155659.425000", "155659.885000", "155700.345000", "155700.805000", "155701.265000", "155701.725000", "155702.185000", "155702.645000", "155703.105000", "155703.565000", "155704.025000", "155704.485000", "155704.945000", "155705.405000", "155705.865000", "155706.325000", "155706.785000", "155707.245000", "155707.705000", "155708.165000", "155708.625000", "155709.085000", "155709.545000", "155710.005000", "155710.465000", "155710.925000", "155711.385000", "155711.845000", "155712.305000", "155712.765000", "155713.225000", "155713.685000", "155714.145000", "155714.605000", "155715.065000", "155715.525000", "155715.985000", "155716.445000", "155716.905000", "155717.365000", "155717.825000", "155718.285000", "155718.745000", "155719.205000", "155719.665000", "155720.125000", "155720.585000", "155721.045000", "155721.505000", "155721.965000", "155722.425000", "155722.885000", "155723.345000", "155723.805000", "155724.265000", "155724.725000", "155725.185000", "155725.645000", "155726.105000", "155726.565000", "155727.025000", "155727.485000", "155727.945000", "155728.405000", "155728.865000", "155729.325000", "155729.785000", "155730.245000", "155730.705000", "155731.165000", "155731.625000", "155732.085000", "155732.545000", "155733.005000", "155733.465000", "155733.925000", "155734.385000", "155734.845000", "155735.305000", "155735.765000", "155736.225000", "155736.685000", "155737.145000", "155737.605000", "155738.065000", "155738.525000", "155738.985000", "155739.445000", "155739.905000", "155740.365000", "155740.825000", "155741.285000", "155741.745000", "155742.205000", "155742.665000", "155743.125000", "155743.585000", "155744.045000", "155744.505000", "155744.965000", "155745.425000", "155745.885000", "155746.345000", "155746.805000", "155747.265000", "155747.725000", "155748.185000", "155748.645000", "155749.105000", "155749.565000", "155750.025000", "155750.485000", "155750.945000", "155751.405000", "155751.865000", "155752.325000", "155752.785000", "155753.245000", "155753.705000", "155754.165000", "155754.625000", "155755.085000", "155755.545000", "155756.005000", "155756.465000", "155756.925000", "155757.385000", "155757.845000", "155758.305000", "155758.765000", "155759.225000", "155759.685000", "155800.145000", "155800.605000", "155801.065000", "155801.525000", "155801.985000", "155802.445000", "155802.905000", "155803.365000", "155803.825000", "155804.285000", "155804.745000", "155805.205000", "155805.665000", "155806.125000", "155806.585000", "155807.045000", "155807.505000", "155807.965000", "155808.425000", "155808.885000", "155809.345000", "155809.805000", "155810.265000", "155810.725000", "155811.185000", "155811.645000", "155812.105000", "155812.565000", "155813.025000", "155813.485000", "155813.945000", "155814.405000", "155814.865000", "155815.325000", "155815.785000", "155816.245000", "155816.705000", "155817.165000", "155817.625000", "155818.085000", "155818.545000", "155819.005000", "155819.465000", "155819.925000", "155820.385000", "155820.845000", "155821.305000", "155821.765000", "155822.225000", "155822.685000", "155823.145000", "155823.605000", "155824.065000", "155824.525000", "155824.985000", "155825.445000", "155825.905000", "155826.365000", "155826.825000", "155827.285000", "155827.745000", "155828.205000", "155828.665000", "155829.125000", "155829.585000", "155830.045000", "155830.505000", "155830.965000", "155831.425000", "155831.885000", "155832.345000", "155832.805000", "155833.265000", "155833.725000", "155834.185000", "155834.645000", "155835.105000", "155835.565000", "155836.025000", "155836.485000", "155836.945000", "155837.405000", "155837.865000", "155838.325000", "155838.785000", "155839.245000", "155839.705000", "155840.165000", "155840.625000", "155841.085000", "155841.545000", "155842.005000", "155842.465000", "155842.925000", "155843.385000", "155843.845000", "155844.305000", "155844.765000", "155845.225000", "155845.685000", "155846.145000", "155846.605000", "155847.065000", "155847.525000", "155847.985000", "155848.445000", "155848.905000", "155849.365000", "155849.825000", "155850.285000", "155850.745000", "155851.205000", "155851.665000", "155852.125000", "155852.585000", "155853.045000", "155853.505000", "155853.965000", "155854.425000", "155854.885000", "155855.345000", "155855.805000", "155856.265000", "155856.725000", "155857.185000", "155857.645000", "155858.105000", "155858.565000", "155859.025000", "155859.485000", "155859.945000", "155900.405000", "155900.865000", "155901.325000", "155901.785000", "155902.245000", "155902.705000", "155903.165000", "155903.625000", "155904.085000", "155904.545000", "155905.005000", "155905.465000", "155905.925000", "155906.385000", "155906.845000", "155907.305000", "155907.765000", "155908.225000", "155908.685000", "155909.145000", "155909.605000", "155910.065000", "155910.525000", "155910.985000", "155911.445000", "155911.905000", "155912.365000", "155912.825000", "155913.285000", "155913.745000", "155914.205000", "155914.665000", "155915.125000", "155915.585000", "155916.045000", "155916.505000", "155916.965000", "155917.425000", "155917.885000", "155918.345000", "155918.805000", "155919.265000", "155919.725000", "155920.185000", "155920.645000", "155921.105000", "155921.565000", "155922.025000", "155922.485000", "155922.945000", "155923.405000", "155923.865000", "155924.325000", "155924.785000", "155925.245000", "155925.705000", "155926.165000", "155926.625000", "155927.085000", "155927.545000", "155928.005000", "155928.465000", "155928.925000", "155929.385000", "155929.845000", "155930.305000", "155930.765000", "155931.225000", "155931.685000", "155932.145000", "155932.605000", "155933.065000", "155933.525000", "155933.985000", "155934.445000", "155934.905000", "155935.365000", "155935.825000", "155936.285000", "155936.745000", "155937.205000", "155937.665000", "155938.125000", "155938.585000", "155939.045000", "155939.505000", "155939.965000", "155940.425000", "155940.885000", "155941.345000", "155941.805000", "155942.265000", "155942.725000", "155943.185000", "155943.645000", "155944.105000", "155944.565000", "155945.025000", "155945.485000", "155945.945000", "155946.405000", "155946.865000", "155947.325000", "155947.785000", "155948.245000", "155948.705000", "155949.165000", "155949.625000", "155950.085000", "155950.545000", "155951.005000", "155951.465000", "155951.925000", "155952.385000", "155952.845000", "155953.305000", "155953.765000", "155954.225000", "155954.685000", "155955.145000", "155955.605000", "155956.065000", "155956.525000", "155956.985000", "155957.445000", "155957.905000", "155958.365000", "155958.825000", "155959.285000", "155959.745000", "160000.205000", "160000.665000", "160001.125000", "160001.585000", "160002.045000", "160002.505000", "160002.965000", "160003.425000", "160003.885000", "160004.345000", "160004.805000", "160005.265000", "160005.725000", "160006.185000", "160006.645000", "160007.105000", "160007.565000", "160008.025000", "160008.485000", "160008.945000", "160009.405000", "160009.865000", "160010.325000", "160010.785000", "160011.245000", "160011.705000", "160012.165000", "160012.625000", "160013.085000", "160013.545000", "160014.005000", "160014.465000", "160014.925000", "160015.385000", "160015.845000", "160016.305000", "160016.765000", "160017.225000", "160017.685000", "160018.145000", "160018.605000", "160019.065000", "160019.525000", "160019.985000", "160020.445000", "160020.905000", "160021.365000", "160021.825000", "160022.285000", "160022.745000", "160023.205000", "160023.665000", "160024.125000", "160024.585000", "160025.045000", "160025.505000", "160025.965000", "160026.425000", "160026.885000", "160027.345000", "160027.805000", "160028.265000", "160028.725000", "160029.185000", "160029.645000", "160030.105000", "160030.565000", "160031.025000", "160031.485000", "160031.945000", "160032.405000", "160032.865000", "160033.325000", "160033.785000", "160034.245000", "160034.705000", "160035.165000", "160035.625000", "160036.085000", "160036.545000", "160037.005000", "160037.465000", "160037.925000", "160038.385000", "160038.845000", "160039.305000", "160039.765000", "160040.225000", "160040.685000", "160041.145000", "160041.605000", "160042.065000", "160042.525000", "160042.985000", "160043.445000", "160043.905000", "160044.365000", "160044.825000", "160045.285000", "160045.745000", "160046.205000", "160046.665000", "160047.125000", "160047.585000", "160048.045000", "160048.505000", "160048.965000", "160049.425000", "160049.885000", "160050.345000", "160050.805000", "160051.265000", "160051.725000", "160052.185000", "160052.645000", "160053.105000", "160053.565000", "160054.025000", "160054.485000", "160054.945000", "160055.405000", "160055.865000", "160056.325000", "160056.785000", "160057.245000", "160057.705000", "160058.165000", "160058.625000", "160059.085000", "160059.545000", "160100.005000", "160100.465000", "160100.925000", "160101.385000", "160101.845000", "160102.305000", "160102.765000", "160103.225000", "160103.685000", "160104.145000", "160104.605000", "160105.065000", "160105.525000", "160105.985000", "160106.445000", "160106.905000", "160107.365000", "160107.825000", "160108.285000", "160108.745000", "160109.205000", "160109.665000", "160110.125000", "160110.585000", "160111.045000", "160111.505000", "160111.965000", "160112.425000", "160112.885000", "160113.345000", "160113.805000", "160114.265000", "160114.725000", "160115.185000", "160115.645000", "160116.105000", "160116.565000", "160117.025000", "160117.485000", "160117.945000", "160118.405000", "160118.865000", "160119.325000", "160119.785000", "160120.245000", "160120.705000", "160121.165000", "160121.625000", "160122.085000", "160122.545000", "160123.005000", "160123.465000", "160123.925000", "160124.385000", "160124.845000", "160125.305000", "160125.765000", "160126.225000", "160126.685000", "160127.145000", "160127.605000", "160128.065000", "160128.525000", "160128.985000", "160129.445000", "160129.905000", "160130.365000", "160130.825000", "160131.285000", "160131.745000", "160132.205000", "160132.665000", "160133.125000", "160133.585000", "160134.045000", "160134.505000", "160134.965000", "160135.425000", "160135.885000", "160136.345000", "160136.805000", "160137.265000", "160137.725000", "160138.185000"],
