{
  "AcquisitionMatrixPE": 82,
  "AcquisitionNumber": 1,
  "AcquisitionTime": "12:56:16.790000",
  "BandwidthPerPixelPhaseEncode": 24.888,
  "BaseResolution": 82,
  "BodyPartExamined": "BRAIN",
  "ConsistencyInfo": "N4_VE11C_LATEST_20160120",
  "ConversionSoftware": "dcm2niix",
  "ConversionSoftwareVersion": "v1.0.20201102",
  "DerivedVendorReportedEchoSpacing": 0.00049,
  "DeviceSerialNumber": "66112",
  "DwellTime": 2e-06,
  "EchoTime": 0.0272,
  "EchoTrainLength": 82,
  "EffectiveEchoSpacing": 0.00049,
  "FlipAngle": 44,
  "ImageComments": "Unaliased MB8/PE3",
  "ImageOrientationPatientDICOM": [0.998519, -0.0107825, 0.0533258, 0.00801676, 0.998625, 0.0518095],
  "ImageType": [
    "ORIGINAL",
    "PRIMARY",
    "M",
    "MB",
    "ND",
    "NORM",
    "MOSAIC"
],
  "ImagingFrequency": 123.252,
  "InPlanePhaseEncodingDirectionDICOM": "COL",
  "InstitutionAddress": "Maynard 3,Hanover,NH,US,03755",
  "InstitutionName": "Dartmouth College - PBS",
  "InstitutionalDepartmentName": "Department",
  "MRAcquisitionType": "2D",
  "MagneticFieldStrength": 3,
  "Manufacturer": "Siemens",
  "ManufacturersModelName": "Prisma",
  "Modality": "MR",
  "MultibandAccelerationFactor": 8,
  "PartialFourier": 1,
  "PatientPosition": "HFS",
  "PercentPhaseFOV": 100,
  "PercentSampling": 100,
  "PhaseEncodingDirection": "j-",
  "PhaseEncodingSteps": 82,
  "PhaseResolution": 1,
  "PixelBandwidth": 3050,
  "ProcedureStepDescription": "Wager_Wager^1076_spacetop",
  "ProtocolName": "func_run-05_task-social_acq-ap-mb8",
  "PulseSequenceDetails": "%CustomerSeq%\\cmrr_mbep2d_bold",
  "ReceiveCoilActiveElements": "HEA;HEP",
  "ReceiveCoilName": "Head_32",
  "ReconMatrixPE": 82,
  "RepetitionTime": 0.46,
  "SAR": 0.0836529,
  "ScanOptions": "FS",
  "ScanningSequence": "EP",
  "SequenceName": "epfid2d1_82",
  "SequenceVariant": "SK\\SS",
  "SeriesDescription": "func_run-05_task-social_acq-ap-mb8",
  "SeriesNumber": 20,
  "ShimSetting": [4156, -7711, -7332, 630, -69, -183, -77, 103],
  "SliceThickness": 2.7,
  "SliceTiming": [0, 0.25, 0.0625, 0.315, 0.125, 0.3775, 0.1875, 0, 0.25, 0.0625, 0.315, 0.125, 0.3775, 0.1875, 0, 0.25, 0.0625, 0.315, 0.125, 0.3775, 0.1875, 0, 0.25, 0.0625, 0.315, 0.125, 0.3775, 0.1875, 0, 0.25, 0.0625, 0.315, 0.125, 0.3775, 0.1875, 0, 0.25, 0.0625, 0.315, 0.125, 0.3775, 0.1875, 0, 0.25, 0.0625, 0.315, 0.125, 0.3775, 0.1875, 0, 0.25, 0.0625, 0.315, 0.125, 0.3775, 0.1875],
  "SoftwareVersions": "syngo MR E11",
  "SpacingBetweenSlices": 2.7,
  "StationName": "AWP66112",
  "TaskName": "social",
  "TotalReadoutTime": 0.03969,
  "TxRefAmp": 227.322,
  "WipMemBlock": "7e11a219-9e06-4390-b828-ac2d7b2c09e9||Sequence: R016 ve11c/master r/e634e98; Dec 19 2017 11:00:25 by eja",
  "dcmmeta_affine": [
    [-2.6789534091949463, 0.021508393809199333, 0.1452900916337967, 109.66510772705078],
    [0.028928671032190323, 2.6792373657226562, 0.13852418959140778, -105.00067138671875],
    [0.1430693417787552, -0.13900107145309448, 2.6925270557403564, -73.69952392578125],
    [0.0, 0.0, 0.0, 1.0]
],
  "dcmmeta_reorient_transform": [
    [0.0, -1.0, 0.0, 81.0],
    [1.0, 0.0, 0.0, 0.0],
    [0.0, 0.0, 1.0, 0.0],
    [0.0, 0.0, 0.0, 1.0]
],
  "dcmmeta_shape": [82, 82, 56, 872],
  "dcmmeta_slice_dim": 2,
  "dcmmeta_version": 0.6,
  "global": {
    "const": {
      "AccessionNumber": "A003467",
      "AcquisitionMatrix": [82, 0, 0, 82],
      "AngioFlag": "N",
      "BitsAllocated": 16,
      "BitsStored": 16,
      "BodyPartExamined": "BRAIN",
      "Columns": 656,
      "EchoNumbers": 1,
      "EchoTime": 27.2,
      "EchoTrainLength": 82,
      "FlipAngle": 44.0,
      "HighBit": 15,
      "ImageOrientationPatient": [0.99851894923752, -0.0107825040896, 0.05332584382033, 0.00801676456537, 0.9986248085596, 0.05180948962499],
      "ImagePositionPatient": [-886.4398038759, -872.65614687371, -165.91281817189],
      "ImageType": [
        "ORIGINAL",
        "PRIMARY",
        "M",
        "MB",
        "ND",
        "NORM",
        "MOSAIC"
],
      "ImagedNucleus": "1H",
      "ImagingFrequency": 123.252191,
      "InPlanePhaseEncodingDirection": "COL",
      "MRAcquisitionType": "2D",
      "MagneticFieldStrength": 3.0,
      "Manufacturer": "SIEMENS",
      "ManufacturerModelName": "Prisma",
      "Modality": "MR",
      "NumberOfAverages": 1.0,
      "NumberOfPhaseEncodingSteps": 82,
      "PercentPhaseFieldOfView": 100.0,
      "PercentSampling": 100.0,
      "PerformedProcedureStepStartTime": "115528.810000",
      "PhotometricInterpretation": "MONOCHROME2",
      "PixelBandwidth": 3050.0,
      "PixelRepresentation": 0,
      "PixelSpacing": [2.6829268932343, 2.6829268932343],
      "ProtocolName": "func_run-05_task-social_acq-ap-mb8",
      "RepetitionTime": 460.0,
      "Rows": 656,
      "SAR": 0.08365286184606,
      "SamplesPerPixel": 1,
      "ScanOptions": "FS",
      "ScanningSequence": "EP",
      "SequenceName": "epfid2d1_82",
      "SequenceVariant": [
        "SK",
        "SS"
],
      "SeriesDescription": "func_run-05_task-social_acq-ap-mb8",
      "SeriesNumber": 20,
      "SeriesTime": "125629.216000",
      "SliceLocation": -72.98142091736,
      "SliceThickness": 2.7000000476837,
      "SmallestImagePixelValue": 0,
      "SoftwareVersions": "syngo MR E11",
      "SpacingBetweenSlices": 2.7000000413217,
      "SpecificCharacterSet": "ISO_IR 100",
      "StudyID": "1",
      "StudyTime": "115528.748000",
      "TransmitCoilName": "Body",
      "VariableFlipAngleFlag": "N",
      "WindowCenterWidthExplanation": "Algo1",
      "dBdt": 0.0},
    "slices": {}
  },
  "time": {
    "samples": {
      "AcquisitionNumber": [1, 2, 3, 4, 5, 6, 7, 8, 9, 10, 11, 12, 13, 14, 15, 16, 17, 18, 19, 20, 21, 22, 23, 24, 25, 26, 27, 28, 29, 30, 31, 32, 33, 34, 35, 36, 37, 38, 39, 40, 41, 42, 43, 44, 45, 46, 47, 48, 49, 50, 51, 52, 53, 54, 55, 56, 57, 58, 59, 60, 61, 62, 63, 64, 65, 66, 67, 68, 69, 70, 71, 72, 73, 74, 75, 76, 77, 78, 79, 80, 81, 82, 83, 84, 85, 86, 87, 88, 89, 90, 91, 92, 93, 94, 95, 96, 97, 98, 99, 100, 101, 102, 103, 104, 105, 106, 107, 108, 109, 110, 111, 112, 113, 114, 115, 116, 117, 118, 119, 120, 121, 122, 123, 124, 125, 126, 127, 128, 129, 130, 131, 132, 133, 134, 135, 136, 137, 138, 139, 140, 141, 142, 143, 144, 145, 146, 147, 148, 149, 150, 151, 152, 153, 154, 155, 156, 157, 158, 159, 160, 161, 162, 163, 164, 165, 166, 167, 168, 169, 170, 171, 172, 173, 174, 175, 176, 177, 178, 179, 180, 181, 182, 183, 184, 185, 186, 187, 188, 189, 190, 191, 192, 193, 194, 195, 196, 197, 198, 199, 200, 201, 202, 203, 204, 205, 206, 207, 208, 209, 210, 211, 212, 213, 214, 215, 216, 217, 218, 219, 220, 221, 222, 223, 224, 225, 226, 227, 228, 229, 230, 231, 232, 233, 234, 235, 236, 237, 238, 239, 240, 241, 242, 243, 244, 245, 246, 247, 248, 249, 250, 251, 252, 253, 254, 255, 256, 257, 258, 259, 260, 261, 262, 263, 264, 265, 266, 267, 268, 269, 270, 271, 272, 273, 274, 275, 276, 277, 278, 279, 280, 281, 282, 283, 284, 285, 286, 287, 288, 289, 290, 291, 292, 293, 294, 295, 296, 297, 298, 299, 300, 301, 302, 303, 304, 305, 306, 307, 308, 309, 310, 311, 312, 313, 314, 315, 316, 317, 318, 319, 320, 321, 322, 323, 324, 325, 326, 327, 328, 329, 330, 331, 332, 333, 334, 335, 336, 337, 338, 339, 340, 341, 342, 343, 344, 345, 346, 347, 348, 349, 350, 351, 352, 353, 354, 355, 356, 357, 358, 359, 360, 361, 362, 363, 364, 365, 366, 367, 368, 369, 370, 371, 372, 373, 374, 375, 376, 377, 378, 379, 380, 381, 382, 383, 384, 385, 386, 387, 388, 389, 390, 391, 392, 393, 394, 395, 396, 397, 398, 399, 400, 401, 402, 403, 404, 405, 406, 407, 408, 409, 410, 411, 412, 413, 414, 415, 416, 417, 418, 419, 420, 421, 422, 423, 424, 425, 426, 427, 428, 429, 430, 431, 432, 433, 434, 435, 436, 437, 438, 439, 440, 441, 442, 443, 444, 445, 446, 447, 448, 449, 450, 451, 452, 453, 454, 455, 456, 457, 458, 459, 460, 461, 462, 463, 464, 465, 466, 467, 468, 469, 470, 471, 472, 473, 474, 475, 476, 477, 478, 479, 480, 481, 482, 483, 484, 485, 486, 487, 488, 489, 490, 491, 492, 493, 494, 495, 496, 497, 498, 499, 500, 501, 502, 503, 504, 505, 506, 507, 508, 509, 510, 511, 512, 513, 514, 515, 516, 517, 518, 519, 520, 521, 522, 523, 524, 525, 526, 527, 528, 529, 530, 531, 532, 533, 534, 535, 536, 537, 538, 539, 540, 541, 542, 543, 544, 545, 546, 547, 548, 549, 550, 551, 552, 553, 554, 555, 556, 557, 558, 559, 560, 561, 562, 563, 564, 565, 566, 567, 568, 569, 570, 571, 572, 573, 574, 575, 576, 577, 578, 579, 580, 581, 582, 583, 584, 585, 586, 587, 588, 589, 590, 591, 592, 593, 594, 595, 596, 597, 598, 599, 600, 601, 602, 603, 604, 605, 606, 607, 608, 609, 610, 611, 612, 613, 614, 615, 616, 617, 618, 619, 620, 621, 622, 623, 624, 625, 626, 627, 628, 629, 630, 631, 632, 633, 634, 635, 636, 637, 638, 639, 640, 641, 642, 643, 644, 645, 646, 647, 648, 649, 650, 651, 652, 653, 654, 655, 656, 657, 658, 659, 660, 661, 662, 663, 664, 665, 666, 667, 668, 669, 670, 671, 672, 673, 674, 675, 676, 677, 678, 679, 680, 681, 682, 683, 684, 685, 686, 687, 688, 689, 690, 691, 692, 693, 694, 695, 696, 697, 698, 699, 700, 701, 702, 703, 704, 705, 706, 707, 708, 709, 710, 711, 712, 713, 714, 715, 716, 717, 718, 719, 720, 721, 722, 723, 724, 725, 726, 727, 728, 729, 730, 731, 732, 733, 734, 735, 736, 737, 738, 739, 740, 741, 742, 743, 744, 745, 746, 747, 748, 749, 750, 751, 752, 753, 754, 755, 756, 757, 758, 759, 760, 761, 762, 763, 764, 765, 766, 767, 768, 769, 770, 771, 772, 773, 774, 775, 776, 777, 778, 779, 780, 781, 782, 783, 784, 785, 786, 787, 788, 789, 790, 791, 792, 793, 794, 795, 796, 797, 798, 799, 800, 801, 802, 803, 804, 805, 806, 807, 808, 809, 810, 811, 812, 813, 814, 815, 816, 817, 818, 819, 820, 821, 822, 823, 824, 825, 826, 827, 828, 829, 830, 831, 832, 833, 834, 835, 836, 837, 838, 839, 840, 841, 842, 843, 844, 845, 846, 847, 848, 849, 850, 851, 852, 853, 854, 855, 856, 857, 858, 859, 860, 861, 862, 863, 864, 865, 866, 867, 868, 869, 870, 871, 872],
      "AcquisitionTime": ["125616.790000", "125617.250000", "125617.710000", "125618.170000", "125618.630000", "125619.090000", "125619.550000", "125620.010000", "125620.470000", "125620.930000", "125621.390000", "125621.850000", "125622.310000", "125622.770000", "125623.230000", "125623.690000", "125624.150000", "125624.610000", "125625.070000", "125625.530000", "125625.990000", "125626.450000", "125626.910000", "125627.370000", "125627.830000", "125628.290000", "125628.750000", "125629.210000", "125629.670000", "125630.130000", "125630.590000", "125631.050000", "125631.510000", "125631.970000", "125632.430000", "125632.890000", "125633.350000", "125633.810000", "125634.270000", "125634.730000", "125635.190000", "125635.650000", "125636.110000", "125636.570000", "125637.030000", "125637.490000", "125637.950000", "125638.410000", "125638.870000", "125639.330000", "125639.790000", "125640.250000", "125640.710000", "125641.170000", "125641.630000", "125642.090000", "125642.550000", "125643.010000", "125643.470000", "125643.930000", "125644.390000", "125644.850000", "125645.310000", "125645.770000", "125646.230000", "125646.690000", "125647.150000", "125647.610000", "125648.070000", "125648.530000", "125648.990000", "125649.450000", "125649.910000", "125650.370000", "125650.830000", "125651.290000", "125651.750000", "125652.210000", "125652.670000", "125653.130000", "125653.590000", "125654.050000", "125654.510000", "125654.970000", "125655.430000", "125655.890000", "125656.350000", "125656.810000", "125657.270000", "125657.730000", "125658.190000", "125658.650000", "125659.110000", "125659.570000", "125700.030000", "125700.490000", "125700.950000", "125701.410000", "125701.870000", "125702.330000", "125702.790000", "125703.250000", "125703.710000", "125704.170000", "125704.630000", "125705.090000", "125705.550000", "125706.010000", "125706.470000", "125706.930000", "125707.390000", "125707.850000", "125708.310000", "125708.770000", "125709.230000", "125709.690000", "125710.150000", "125710.610000", "125711.070000", "125711.530000", "125711.990000", "125712.450000", "125712.910000", "125713.370000", "125713.830000", "125714.290000", "125714.750000", "125715.210000", "125715.670000", "125716.130000", "125716.590000", "125717.050000", "125717.510000", "125717.970000", "125718.430000", "125718.890000", "125719.350000", "125719.810000", "125720.270000", "125720.730000", "125721.190000", "125721.650000", "125722.110000", "125722.570000", "125723.030000", "125723.490000", "125723.950000", "125724.410000", "125724.870000", "125725.330000", "125725.790000", "125726.250000", "125726.710000", "125727.170000", "125727.630000", "125728.090000", "125728.550000", "125729.010000", "125729.470000", "125729.930000", "125730.390000", "125730.850000", "125731.310000", "125731.770000", "125732.230000", "125732.690000", "125733.150000", "125733.610000", "125734.070000", "125734.530000", "125734.990000", "125735.450000", "125735.910000", "125736.370000", "125736.830000", "125737.290000", "125737.750000", "125738.210000", "125738.670000", "125739.130000", "125739.590000", "125740.050000", "125740.510000", "125740.970000", "125741.430000", "125741.890000", "125742.350000", "125742.810000", "125743.270000", "125743.730000", "125744.190000", "125744.650000", "125745.110000", "125745.570000", "125746.030000", "125746.490000", "125746.950000", "125747.410000", "125747.870000", "125748.330000", "125748.790000", "125749.250000", "125749.710000", "125750.170000", "125750.630000", "125751.090000", "125751.550000", "125752.010000", "125752.470000", "125752.930000", "125753.390000", "125753.850000", "125754.310000", "125754.770000", "125755.230000", "125755.690000", "125756.150000", "125756.610000", "125757.070000", "125757.530000", "125757.990000", "125758.450000", "125758.910000", "125759.370000", "125759.830000", "125800.290000", "125800.750000", "125801.210000", "125801.670000", "125802.130000", "125802.590000", "125803.050000", "125803.510000", "125803.970000", "125804.430000", "125804.890000", "125805.350000", "125805.810000", "125806.270000", "125806.730000", "125807.190000", "125807.650000", "125808.110000", "125808.570000", "125809.030000", "125809.490000", "125809.950000", "125810.410000", "125810.870000", "125811.330000", "125811.790000", "125812.250000", "125812.710000", "125813.170000", "125813.630000", "125814.090000", "125814.550000", "125815.010000", "125815.470000", "125815.930000", "125816.390000", "125816.850000", "125817.310000", "125817.770000", "125818.230000", "125818.690000", "125819.150000", "125819.610000", "125820.070000", "125820.530000", "125820.990000", "125821.450000", "125821.910000", "125822.370000", "125822.830000", "125823.290000", "125823.750000", "125824.210000", "125824.670000", "125825.130000", "125825.590000", "125826.050000", "125826.510000", "125826.970000", "125827.430000", "125827.890000", "125828.350000", "125828.810000", "125829.270000", "125829.730000", "125830.190000", "125830.650000", "125831.110000", "125831.570000", "125832.030000", "125832.490000", "125832.950000", "125833.410000", "125833.870000", "125834.330000", "125834.790000", "125835.250000", "125835.710000", "125836.170000", "125836.630000", "125837.090000", "125837.550000", "125838.010000", "125838.470000", "125838.930000", "125839.390000", "125839.850000", "125840.310000", "125840.770000", "125841.230000", "125841.690000", "125842.150000", "125842.610000", "125843.070000", "125843.530000", "125843.990000", "125844.450000", "125844.910000", "125845.370000", "125845.830000", "125846.290000", "125846.750000", "125847.210000", "125847.670000", "125848.130000", "125848.590000", "125849.050000", "125849.510000", "125849.970000", "125850.430000", "125850.890000", "125851.350000", "125851.810000", "125852.270000", "125852.730000", "125853.190000", "125853.650000", "125854.110000", "125854.570000", "125855.030000", "125855.490000", "125855.950000", "125856.410000", "125856.870000", "125857.330000", "125857.790000", "125858.250000", "125858.710000", "125859.170000", "125859.630000", "125900.090000", "125900.550000", "125901.010000", "125901.470000", "125901.930000", "125902.390000", "125902.850000", "125903.310000", "125903.770000", "125904.230000", "125904.690000", "125905.150000", "125905.610000", "125906.070000", "125906.530000", "125906.990000", "125907.450000", "125907.910000", "125908.370000", "125908.830000", "125909.290000", "125909.750000", "125910.210000", "125910.670000", "125911.130000", "125911.590000", "125912.050000", "125912.510000", "125912.970000", "125913.430000", "125913.890000", "125914.350000", "125914.810000", "125915.270000", "125915.730000", "125916.190000", "125916.650000", "125917.110000", "125917.570000", "125918.030000", "125918.490000", "125918.950000", "125919.410000", "125919.870000", "125920.330000", "125920.790000", "125921.250000", "125921.710000", "125922.170000", "125922.630000", "125923.090000", "125923.550000", "125924.010000", "125924.470000", "125924.930000", "125925.390000", "125925.850000", "125926.310000", "125926.770000", "125927.230000", "125927.690000", "125928.150000", "125928.610000", "125929.070000", "125929.530000", "125929.990000", "125930.450000", "125930.910000", "125931.370000", "125931.830000", "125932.290000", "125932.750000", "125933.210000", "125933.670000", "125934.130000", "125934.590000", "125935.050000", "125935.510000", "125935.970000", "125936.430000", "125936.890000", "125937.350000", "125937.810000", "125938.270000", "125938.730000", "125939.190000", "125939.650000", "125940.110000", "125940.570000", "125941.030000", "125941.490000", "125941.950000", "125942.410000", "125942.870000", "125943.330000", "125943.790000", "125944.250000", "125944.710000", "125945.170000", "125945.630000", "125946.090000", "125946.550000", "125947.010000", "125947.470000", "125947.930000", "125948.390000", "125948.850000", "125949.310000", "125949.770000", "125950.230000", "125950.690000", "125951.150000", "125951.610000", "125952.070000", "125952.530000", "125952.990000", "125953.450000", "125953.910000", "125954.370000", "125954.830000", "125955.290000", "125955.750000", "125956.210000", "125956.670000", "125957.130000", "125957.590000", "125958.050000", "125958.510000", "125958.970000", "125959.430000", "125959.890000", "130000.350000", "130000.810000", "130001.270000", "130001.730000", "130002.190000", "130002.650000", "130003.110000", "130003.570000", "130004.030000", "130004.490000", "130004.950000", "130005.410000", "130005.870000", "130006.330000", "130006.790000", "130007.250000", "130007.710000", "130008.170000", "130008.630000", "130009.090000", "130009.550000", "130010.010000", "130010.470000", "130010.930000", "130011.390000", "130011.850000", "130012.310000", "130012.770000", "130013.230000", "130013.690000", "130014.150000", "130014.610000", "130015.070000", "130015.530000", "130015.990000", "130016.450000", "130016.910000", "130017.370000", "130017.830000", "130018.290000", "130018.750000", "130019.210000", "130019.670000", "130020.130000", "130020.590000", "130021.050000", "130021.510000", "130021.970000", "130022.430000", "130022.890000", "130023.350000", "130023.810000", "130024.270000", "130024.730000", "130025.190000", "130025.650000", "130026.110000", "130026.570000", "130027.030000", "130027.490000", "130027.950000", "130028.410000", "130028.870000", "130029.330000", "130029.790000", "130030.250000", "130030.710000", "130031.170000", "130031.630000", "130032.090000", "130032.550000", "130033.010000", "130033.470000", "130033.930000", "130034.390000", "130034.850000", "130035.310000", "130035.770000", "130036.230000", "130036.690000", "130037.150000", "130037.610000", "130038.070000", "130038.530000", "130038.990000", "130039.450000", "130039.910000", "130040.370000", "130040.830000", "130041.290000", "130041.750000", "130042.210000", "130042.670000", "130043.130000", "130043.590000", "130044.050000", "130044.510000", "130044.970000", "130045.430000", "130045.890000", "130046.350000", "130046.810000", "130047.270000", "130047.730000", "130048.190000", "130048.650000", "130049.110000", "130049.570000", "130050.030000", "130050.490000", "130050.950000", "130051.410000", "130051.870000", "130052.330000", "130052.790000", "130053.250000", "130053.710000", "130054.170000", "130054.630000", "130055.090000", "130055.550000", "130056.010000", "130056.470000", "130056.930000", "130057.390000", "130057.850000", "130058.310000", "130058.770000", "130059.230000", "130059.690000", "130100.150000", "130100.610000", "130101.070000", "130101.530000", "130101.990000", "130102.450000", "130102.910000", "130103.370000", "130103.830000", "130104.290000", "130104.750000", "130105.210000", "130105.670000", "130106.130000", "130106.590000", "130107.050000", "130107.510000", "130107.970000", "130108.430000", "130108.890000", "130109.350000", "130109.810000", "130110.270000", "130110.730000", "130111.190000", "130111.650000", "130112.110000", "130112.570000", "130113.030000", "130113.490000", "130113.950000", "130114.410000", "130114.870000", "130115.330000", "130115.790000", "130116.250000", "130116.710000", "130117.170000", "130117.630000", "130118.090000", "130118.550000", "130119.010000", "130119.470000", "130119.930000", "130120.390000", "130120.850000", "130121.310000", "130121.770000", "130122.230000", "130122.690000", "130123.150000", "130123.610000", "130124.070000", "130124.530000", "130124.990000", "130125.450000", "130125.910000", "130126.370000", "130126.830000", "130127.290000", "130127.750000", "130128.210000", "130128.670000", "130129.130000", "130129.590000", "130130.050000", "130130.510000", "130130.970000", "130131.430000", "130131.890000", "130132.350000", "130132.810000", "130133.270000", "130133.730000", "130134.190000", "130134.650000", "130135.110000", "130135.570000", "130136.030000", "130136.490000", "130136.950000", "130137.410000", "130137.870000", "130138.330000", "130138.790000", "130139.250000", "130139.710000", "130140.170000", "130140.630000", "130141.090000", "130141.550000", "130142.010000", "130142.470000", "130142.930000", "130143.390000", "130143.850000", "130144.310000", "130144.770000", "130145.230000", "130145.690000", "130146.150000", "130146.610000", "130147.070000", "130147.530000", "130147.990000", "130148.450000", "130148.910000", "130149.370000", "130149.830000", "130150.290000", "130150.750000", "130151.210000", "130151.670000", "130152.130000", "130152.590000", "130153.050000", "130153.510000", "130153.970000", "130154.430000", "130154.890000", "130155.350000", "130155.810000", "130156.270000", "130156.730000", "130157.190000", "130157.650000", "130158.110000", "130158.570000", "130159.030000", "130159.490000", "130159.950000", "130200.410000", "130200.870000", "130201.330000", "130201.790000", "130202.250000", "130202.710000", "130203.170000", "130203.630000", "130204.090000", "130204.550000", "130205.010000", "130205.470000", "130205.930000", "130206.390000", "130206.850000", "130207.310000", "130207.770000", "130208.230000", "130208.690000", "130209.150000", "130209.610000", "130210.070000", "130210.530000", "130210.990000", "130211.450000", "130211.910000", "130212.370000", "130212.830000", "130213.290000", "130213.750000", "130214.210000", "130214.670000", "130215.130000", "130215.590000", "130216.050000", "130216.510000", "130216.970000", "130217.430000", "130217.890000", "130218.350000", "130218.810000", "130219.270000", "130219.730000", "130220.190000", "130220.650000", "130221.110000", "130221.570000", "130222.030000", "130222.490000", "130222.950000", "130223.410000", "130223.870000", "130224.330000", "130224.790000", "130225.250000", "130225.710000", "130226.170000", "130226.630000", "130227.090000", "130227.550000", "130228.010000", "130228.470000", "130228.930000", "130229.390000", "130229.850000", "130230.310000", "130230.770000", "130231.230000", "130231.690000", "130232.150000", "130232.610000", "130233.070000", "130233.530000", "130233.990000", "130234.450000", "130234.910000", "130235.370000", "130235.830000", "130236.290000", "130236.750000", "130237.210000", "130237.670000", "130238.130000", "130238.590000", "130239.050000", "130239.510000", "130239.970000", "130240.430000", "130240.890000", "130241.350000", "130241.810000", "130242.270000", "130242.730000", "130243.190000", "130243.650000", "130244.110000", "130244.570000", "130245.030000", "130245.490000", "130245.950000", "130246.410000", "130246.870000", "130247.330000", "130247.790000", "130248.250000", "130248.710000", "130249.170000", "130249.630000", "130250.090000", "130250.550000", "130251.010000", "130251.470000", "130251.930000", "130252.390000", "130252.850000", "130253.310000", "130253.770000", "130254.230000", "130254.690000", "130255.150000", "130255.610000", "130256.070000", "130256.530000", "130256.990000", "130257.450000"],
