{
  "AcquisitionMatrixPE": 140,
  "AcquisitionNumber": 1,
  "AcquisitionTime": "12:38:17.057500",
  "BandwidthPerPixelPhaseEncode": 10.352,
  "BaseResolution": 140,
  "BodyPartExamined": "BRAIN",
  "ConsistencyInfo": "N4_VE11E_LATEST_20181129",
  "ConversionSoftware": "dcm2niix",
  "ConversionSoftwareVersion": "v1.0.20201102",
  "DerivedVendorReportedEchoSpacing": 0.000689998,
  "DeviceSerialNumber": "66112",
  "DiffusionScheme": "Monopolar",
  "DwellTime": 2.1e-06,
  "EchoTime": 0.0884,
  "EchoTrainLength": 105,
  "EffectiveEchoSpacing": 0.000689998,
  "FlipAngle": 90,
  "ImageComments": "Unaliased MB3/PE3 SENSE1",
  "ImageOrientationPatientDICOM": [0.997608, -0.0158332, 0.0672836, -0.00191531, 0.966706, 0.255884],
  "ImageType": [
    "ORIGINAL",
    "PRIMARY",
    "DIFFUSION",
    "NONE",
    "MB",
    "ND",
    "MOSAIC"
],
  "ImagingFrequency": 123.252,
  "InPlanePhaseEncodingDirectionDICOM": "COL",
  "InstitutionAddress": "Maynard 3,Hanover,NH,US,03755",
  "InstitutionName": "Dartmouth College - PBS",
  "InstitutionalDepartmentName": "Department",
  "MRAcquisitionType": "2D",
  "MagneticFieldStrength": 3,
  "Manufacturer": "Siemens",
  "ManufacturersModelName": "Prisma",
  "Modality": "MR",
  "MultibandAccelerationFactor": 3,
  "PartialFourier": 0.75,
  "PatientPosition": "HFS",
  "PercentPhaseFOV": 100,
  "PercentSampling": 100,
  "PhaseEncodingDirection": "j-",
  "PhaseEncodingSteps": 105,
  "PhaseResolution": 1,
  "PixelBandwidth": 1700,
  "ProcedureStepDescription": "Wager_Wager^1076_spacetop",
  "ProtocolName": "dwi_acq-96dir-6b0-mb",
  "PulseSequenceDetails": "%CustomerSeq%\\cmrr_mbep2d_diff",
  "ReceiveCoilActiveElements": "HEA;HEP",
  "ReceiveCoilName": "Head_32",
  "ReconMatrixPE": 140,
  "RepetitionTime": 4.11,
  "SAR": 0.305708,
  "ScanOptions": "PFP\\FS",
  "ScanningSequence": "EP",
  "SequenceName": "ep_b5#1",
  "SequenceVariant": "SK\\SS",
  "SeriesDescription": "dwi_acq-96dir-6b0-mb",
  "SeriesNumber": 8,
  "ShimSetting": [4182, -7754, -7285, 386, -10, -33, 142, 41],
  "SliceThickness": 1.7,
  "SliceTiming": [0, 2.12, 0.1525, 2.2725, 0.3025, 2.4225, 0.455, 2.575, 0.605, 2.7275, 0.7575, 2.8775, 0.91, 3.03, 1.06, 3.18, 1.2125, 3.3325, 1.3625, 3.485, 1.515, 3.635, 1.665, 3.7875, 1.8175, 3.9375, 1.97, 0, 2.12, 0.1525, 2.2725, 0.3025, 2.4225, 0.455, 2.575, 0.605, 2.7275, 0.7575, 2.8775, 0.91, 3.03, 1.06, 3.18, 1.2125, 3.3325, 1.3625, 3.485, 1.515, 3.635, 1.665, 3.7875, 1.8175, 3.9375, 1.97, 0, 2.12, 0.1525, 2.2725, 0.3025, 2.4225, 0.455, 2.575, 0.605, 2.7275, 0.7575, 2.8775, 0.91, 3.03, 1.06, 3.18, 1.2125, 3.3325, 1.3625, 3.485, 1.515, 3.635, 1.665, 3.7875, 1.8175, 3.9375, 1.97],
  "SoftwareVersions": "syngo MR E11",
  "SpacingBetweenSlices": 1.7,
  "StationName": "AWP66112",
  "TotalReadoutTime": 0.0959097,
  "TxRefAmp": 261.034,
  "WipMemBlock": "5f2f4b5c-76c0-4d23-9b4f-09f0b7b3cc66||Sequence: R016 ve11e/master r/434b28f1; Aug  7 2019 19:06:17 by eja",
  "dcmmeta_affine": [
    [-1.7101856470108032, -0.0032833849545568228, 0.11746140569448471, 118.77863311767578],
    [0.027142642065882683, 1.6572097539901733, 0.43418070673942566, -99.1494140625],
    [0.11534339934587479, -0.4386575520038605, 1.6394175291061401, -26.245410919189453],
    [0.0, 0.0, 0.0, 1.0]
],
  "dcmmeta_reorient_transform": [
    [0.0, -1.0, 0.0, 139.0],
    [1.0, 0.0, 0.0, 0.0],
    [0.0, 0.0, 1.0, 0.0],
    [0.0, 0.0, 0.0, 1.0]
],
  "dcmmeta_shape": [140, 140, 81, 103],
  "dcmmeta_slice_dim": 2,
  "dcmmeta_version": 0.6,
  "global": {
    "const": {
      "AccessionNumber": "A004015",
      "AcquisitionMatrix": [140, 0, 0, 140],
      "AngioFlag": "N",
      "BitsAllocated": 16,
      "BitsStored": 16,
      "BodyPartExamined": "BRAIN",
      "Columns": 1260,
      "EchoNumbers": 1,
      "EchoTime": 88.4,
      "EchoTrainLength": 105,
      "FlipAngle": 90.0,
      "HighBit": 15,
      "ImageOrientationPatient": [0.99760824991971, -0.0158332078693, 0.06728364749849, -0.001915307828, 0.96670571236606, 0.25588356194714],
      "ImagePositionPatient": [-1074.1874752703, -1044.0403623147, -397.4593332598],
      "ImageType": [
        "ORIGINAL",
        "PRIMARY",
        "DIFFUSION",
        "NONE",
        "MB",
        "ND",
        "MOSAIC"
],
      "ImagedNucleus": "1H",
      "ImagingFrequency": 123.252157,
      "InPlanePhaseEncodingDirection": "COL",
      "MRAcquisitionType": "2D",
      "MagneticFieldStrength": 3.0,
      "Manufacturer": "SIEMENS",
      "ManufacturerModelName": "Prisma",
      "Modality": "MR",
      "NumberOfAverages": 1.0,
      "NumberOfPhaseEncodingSteps": 105,
      "PercentPhaseFieldOfView": 100.0,
      "PercentSampling": 100.0,
      "PerformedProcedureStepStartTime": "121031.412000",
      "PhotometricInterpretation": "MONOCHROME2",
      "PixelBandwidth": 1700.0,
      "PixelRepresentation": 0,
      "PixelSpacing": [1.7142857313156, 1.7142857313156],
      "ProtocolName": "dwi_acq-96dir-6b0-mb",
      "RepetitionTime": 4110.0,
      "Rows": 1260,
      "SAR": 0.30570839163986,
      "SamplesPerPixel": 1,
      "ScanOptions": [
        "PFP",
        "FS"
],
      "ScanningSequence": "EP",
      "SequenceVariant": [
        "SK",
        "SS"
],
      "SeriesDescription": "dwi_acq-96dir-6b0-mb",
      "SeriesNumber": 8,
      "SeriesTime": "123955.341000",
      "SliceLocation": -42.425909825446,
      "SliceThickness": 1.7000000476837,
      "SmallestImagePixelValue": 0,
      "SoftwareVersions": "syngo MR E11",
      "SpacingBetweenSlices": 1.6999999963008,
      "SpecificCharacterSet": "ISO_IR 100",
      "StudyID": "2",
      "StudyTime": "121031.366000",
      "TransmitCoilName": "Body",
      "VariableFlipAngleFlag": "N",
      "WindowCenterWidthExplanation": "Algo1"
    },
    "slices": {}
  },
  "time": {
    "samples": {
      "AcquisitionNumber": [1, 2, 3, 4, 5, 6, 7, 8, 9, 10, 11, 12, 13, 14, 15, 16, 17, 18, 19, 20, 21, 22, 23, 24, 25, 26, 27, 28, 29, 30, 31, 32, 33, 34, 35, 36, 37, 38, 39, 40, 41, 42, 43, 44, 45, 46, 47, 48, 49, 50, 51, 52, 53, 54, 55, 56, 57, 58, 59, 60, 61, 62, 63, 64, 65, 66, 67, 68, 69, 70, 71, 72, 73, 74, 75, 76, 77, 78, 79, 80, 81, 82, 83, 84, 85, 86, 87, 88, 89, 90, 91, 92, 93, 94, 95, 96, 97, 98, 99, 100, 101, 102, 103],
      "AcquisitionTime": ["123817.057500", "123821.167500", "123825.277500", "123829.387500", "123833.497500", "123837.607500", "123841.717500", "123845.827500", "123849.937500", "123854.047500", "123858.157500", "123902.267500", "123906.377500", "123910.487500", "123914.597500", "123918.707500", "123922.817500", "123926.927500", "123931.037500", "123935.147500", "123939.257500", "123943.367500", "123947.477500", "123951.587500", "123955.697500", "123959.807500", "124003.917500", "124008.027500", "124012.137500", "124016.247500", "124020.357500", "124024.467500", "124028.577500", "124032.687500", "124036.797500", "124040.907500", "124045.017500", "124049.127500", "124053.237500", "124057.347500", "124101.457500", "124105.567500", "124109.677500", "124113.787500", "124117.897500", "124122.007500", "124126.117500", "124130.227500", "124134.337500", "124138.447500", "124142.557500", "124146.667500", "124150.777500", "124154.887500", "124158.997500", "124203.107500", "124207.217500", "124211.327500", "124215.437500", "124219.547500", "124223.657500", "124227.767500", "124231.877500", "124235.987500", "124240.097500", "124244.207500", "124248.317500", "124252.427500", "124256.537500", "124300.647500", "124304.757500", "124308.867500", "124312.977500", "124317.087500", "124321.197500", "124325.307500", "124329.417500", "124333.527500", "124337.637500", "124341.747500", "124345.857500", "124349.967500", "124354.077500", "124358.187500", "124402.297500", "124406.407500", "124410.517500", "124414.627500", "124418.737500", "124422.847500", "124426.957500", "124431.067500", "124435.177500", "124439.287500", "124443.397500", "124447.507500", "124451.617500", "124455.727500", "124459.837500", "124503.947500", "124508.057500", "124512.167500", "124516.277500"],
      "ContentTime": ["123955.344000", "123955.348000", "123955.351000", "123955.376000", "123955.379000", "123955.382000", "123955.385000", "123955.388000", "123955.391000", "123955.394000", "123955.397000", "123955.400000", "123955.403000", "123955.406000", "123955.409000", "123955.412000", "123955.415000", "123955.418000", "123955.421000", "123955.424000", "123955.427000", "123955.430000", "123955.433000", "124115.345000", "124115.349000", "124115.352000", "124115.354000", "124115.357000", "124115.360000", "124115.363000", "124115.366000", "124115.369000", "124115.372000", "124115.375000", "124115.378000", "124115.381000", "124115.384000", "124115.387000", "124115.390000", "124115.393000", "124115.396000", "124115.399000", "124115.402000", "124255.340000", "124255.343000", "124255.346000", "124255.349000", "124255.352000", "124255.355000", "124255.358000", "124255.361000", "124255.369000", "124255.372000", "124255.375000", "124255.378000", "124255.381000", "124255.384000", "124255.387000", "124255.390000", "124255.393000", "124255.396000", "124255.399000", "124255.402000", "124255.417000", "124255.420000", "124255.423000", "124255.426000", "124415.340000", "124415.344000", "124415.347000", "124415.349000", "124415.352000", "124415.355000", "124415.358000", "124415.361000", "124415.364000", "124415.367000", "124415.370000", "124415.373000", "124415.376000", "124415.379000", "124415.382000", "124415.385000", "124415.388000", "124415.391000", "124415.394000", "124521.116000", "124521.119000", "124521.122000", "124521.125000", "124521.128000", "124521.132000", "124521.134000", "124521.137000", "124521.140000", "124521.143000", "124521.146000", "124521.150000", "124521.152000", "124521.156000", "124521.158000", "124521.161000", "124521.164000"],
      "InstanceCreationTime": ["123955.344000", "123955.348000", "123955.351000", "123955.376000", "123955.379000", "123955.382000", "123955.385000", "123955.388000", "123955.391000", "123955.394000", "123955.397000", "123955.400000", "123955.403000", "123955.406000", "123955.409000", "123955.412000", "123955.415000", "123955.418000", "123955.421000", "123955.424000", "123955.427000", "123955.430000", "123955.433000", "124115.345000", "124115.349000", "124115.352000", "124115.354000", "124115.357000", "124115.360000", "124115.363000", "124115.366000", "124115.369000", "124115.372000", "124115.375000", "124115.378000", "124115.381000", "124115.384000", "124115.387000", "124115.390000", "124115.393000", "124115.396000", "124115.399000", "124115.402000", "124255.340000", "124255.343000", "124255.346000", "124255.349000", "124255.352000", "124255.355000", "124255.358000", "124255.361000", "124255.369000", "124255.372000", "124255.375000", "124255.378000", "124255.381000", "124255.384000", "124255.387000", "124255.390000", "124255.393000", "124255.396000", "124255.399000", "124255.402000", "124255.417000", "124255.420000", "124255.423000", "124255.426000", "124415.340000", "124415.344000", "124415.347000", "124415.349000", "124415.352000", "124415.355000", "124415.358000", "124415.361000", "124415.364000", "124415.367000", "124415.370000", "124415.373000", "124415.376000", "124415.379000", "124415.382000", "124415.385000", "124415.388000", "124415.391000", "124415.394000", "124521.116000", "124521.119000", "124521.122000", "124521.125000", "124521.128000", "124521.132000", "124521.134000", "124521.137000", "124521.140000", "124521.143000", "124521.146000", "124521.150000", "124521.152000", "124521.156000", "124521.158000", "124521.161000", "124521.164000"],
      "InstanceNumber": [1, 2, 3, 4, 5, 6, 7, 8, 9, 10, 11, 12, 13, 14, 15, 16, 17, 18, 19, 20, 21, 22, 23, 24, 25, 26, 27, 28, 29, 30, 31, 32, 33, 34, 35, 36, 37, 38, 39, 40, 41, 42, 43, 44, 45, 46, 47, 48, 49, 50, 51, 52, 53, 54, 55, 56, 57, 58, 59, 60, 61, 62, 63, 64, 65, 66, 67, 68, 69, 70, 71, 72, 73, 74, 75, 76, 77, 78, 79, 80, 81, 82, 83, 84, 85, 86, 87, 88, 89, 90, 91, 92, 93, 94, 95, 96, 97, 98, 99, 100, 101, 102, 103],
      "LargestImagePixelValue": [65535, 65535, 50628, 53157, 49273, 52646, 53563, 52459, 65535, 34605, 33814, 34482, 36699, 36673, 36827, 35359, 34037, 33758, 35801, 31479, 34576, 34126, 35326, 32698, 65535, 19351, 18752, 21519, 16838, 19433, 20396, 17995, 18780, 16337, 17755, 20304, 19331, 15893, 16058, 18156, 65535, 12986, 11754, 12261, 10846, 11358, 8963, 10696, 9956, 13846, 11670, 12493, 11318, 13398, 10707, 11169, 14523, 9408, 11121, 13014, 9213, 11981, 9938, 9514, 8792, 9677, 12092, 9023, 11488, 14551, 13576, 8548, 11061, 65535, 12390, 8691, 11579, 9274, 11420, 11899, 11090, 12326, 8977, 11625, 14127, 13606, 11044, 11706, 14264, 13665, 14027, 10196, 12546, 11011, 12503, 12642, 8740, 10208, 14151, 10569, 13807, 10613, 65535],
      "SequenceName": [
 "ep_b5#1",
 "ep_b5#1",
 "ep_b500#2",
 "ep_b500#3",
 "ep_b500#4",
 "ep_b505#5",
 "ep_b495#6",
 "ep_b500#7",
 "ep_b5#8",
 "ep_b1000#9",
 "ep_b1005#10",
 "ep_b1000#11",
 "ep_b1005#12",
 "ep_b995#13",
 "ep_b995#14",
 "ep_b1005#15",
 "ep_b1000#16",
 "ep_b1000#17",
 "ep_b995#18",
 "ep_b1000#19",
 "ep_b995#20",
 "ep_b1000#21",
 "ep_b1005#22",
 "ep_b1005#23",
 "ep_b5#24",
 "ep_b2000#25",
 "ep_b2000#26",
 "ep_b1995#27",
 "ep_b1995#28",
 "ep_b2005#29",
 "ep_b2010#30",
 "ep_b2005#31",
 "ep_b2005#32",
 "ep_b1995#33",
 "ep_b1990#34",
 "ep_b1995#35",
 "ep_b2005#36",
 "ep_b2000#37",
 "ep_b2010#38",
 "ep_b2000#39",
 "ep_b5#40",
 "ep_b3000#41",
 "ep_b3005#42",
 "ep_b3010#43",
 "ep_b3010#44",
 "ep_b2995#45",
 "ep_b2995#46",
 "ep_b2990#47",
 "ep_b3005#48",
 "ep_b3000#49",
 "ep_b2990#50",
 "ep_b2990#51",
 "ep_b2995#52",
 "ep_b2995#53",
 "ep_b3010#54",
 "ep_b3000#55",
 "ep_b2995#56",
 "ep_b3000#57",
 "ep_b2990#58",
 "ep_b2990#59",
 "ep_b3000#60",
 "ep_b2990#61",
 "ep_b2990#62",
 "ep_b2995#63",
 "ep_b3005#64",
 "ep_b3010#65",
 "ep_b3000#66",
 "ep_b3005#67",
 "ep_b3010#68",
 "ep_b3005#69",
 "ep_b3005#70",
 "ep_b3010#71",
 "ep_b2990#72",
 "ep_b5#73",
 "ep_b3010#74",
 "ep_b3000#75",
 "ep_b3005#76",
 "ep_b3005#77",
 "ep_b2995#78",
 "ep_b3000#79",
 "ep_b2995#80",
 "ep_b3010#81",
 "ep_b3010#82",
 "ep_b3005#83",
 "ep_b3000#84",
 "ep_b3000#85",
 "ep_b3005#86",
 "ep_b3010#87",
 "ep_b2990#88",
 "ep_b3010#89",
 "ep_b2990#90",
 "ep_b2995#91",
 "ep_b2995#92",
 "ep_b2995#93",
 "ep_b3005#94",
 "ep_b3005#95",
 "ep_b2995#96",
 "ep_b3000#97",
 "ep_b2990#98",
 "ep_b3000#99",
 "ep_b3000#100",
 "ep_b2995#101",
 "ep_b5#102"
],
      "WindowCenter": [11833.0, 11839.0, 7471.0, 7531.0, 7437.0, 7398.0, 7543.0, 7505.0, 11845.0, 5378.0, 5344.0, 5396.0, 5371.0, 5426.0, 5424.0, 5371.0, 5376.0, 5368.0, 5399.0, 5316.0, 5409.0, 5377.0, 5376.0, 5363.0, 11830.0, 3471.0, 3446.0, 3494.0, 3466.0, 3471.0, 3470.0, 3427.0, 3433.0, 3422.0, 3475.0, 3498.0, 3417.0, 3380.0, 3412.0, 3424.0, 11869.0, 2481.0, 2402.0, 2450.0, 2427.0, 2400.0, 2317.0, 2436.0, 2332.0, 2474.0, 2427.0, 2466.0, 2407.0, 2495.0, 2407.0, 2372.0, 2518.0, 2311.0, 2442.0, 2490.0, 2327.0, 2444.0, 2414.0, 2372.0, 2324.0, 2374.0, 2373.0, 2269.0, 2432.0, 2497.0, 2479.0, 2328.0, 2451.0, 11746.0, 2464.0, 2277.0, 2363.0, 2310.0, 2407.0, 2393.0, 2384.0, 2436.0, 2339.0, 2403.0, 2498.0, 2474.0, 2381.0, 2410.0, 2524.0, 2485.0, 2531.0, 2359.0, 2434.0, 2408.0, 2438.0, 2470.0, 2343.0, 2347.0, 2528.0, 2356.0, 2489.0, 2411.0, 11832.0],
      "WindowWidth": [27730.0, 27750.0, 15964.0, 16060.0, 15869.0, 15802.0, 16089.0, 16016.0, 27769.0, 11705.0, 11632.0, 11737.0, 11691.0, 11808.0, 11794.0, 11665.0, 11681.0, 11699.0, 11717.0, 11576.0, 11744.0, 11688.0, 11699.0, 11630.0, 27711.0, 7919.0, 7880.0, 7959.0, 7900.0, 7915.0, 7907.0, 7823.0, 7865.0, 7838.0, 7925.0, 7972.0, 7820.0, 7753.0, 7810.0, 7818.0, 27834.0, 5970.0, 5792.0, 5898.0, 5850.0, 5816.0, 5679.0, 5895.0, 5680.0, 5937.0, 5855.0, 5924.0, 5839.0, 5999.0, 5839.0, 5757.0, 6032.0, 5653.0, 5879.0, 5962.0, 5688.0, 5900.0, 5861.0, 5787.0, 5710.0, 5787.0, 5737.0, 5579.0, 5880.0, 5976.0, 5965.0, 5726.0, 5889.0, 27445.0, 5912.0, 5601.0, 5721.0, 5647.0, 5807.0, 5789.0, 5778.0, 5868.0, 5741.0, 5824.0, 5982.0, 5942.0, 5763.0, 5820.0, 6021.0, 5947.0, 6053.0, 5728.0, 5861.0, 5847.0, 5884.0, 5956.0, 5754.0, 5712.0, 6032.0, 5718.0, 5971.0, 5854.0, 27712.0]
    },
    "slices": {}
  }
}