{
  "AcquisitionMatrixPE": 140,
  "AcquisitionNumber": 1,
  "AcquisitionTime": "08:37:47.992500",
  "BandwidthPerPixelPhaseEncode": 10.352,
  "BaseResolution": 140,
  "BodyPartExamined": "BRAIN",
  "ConsistencyInfo": "N4_VE11E_LATEST_20181129",
  "ConversionSoftware": "dcm2niix",
  "ConversionSoftwareVersion": "v1.0.20201102",
  "DerivedVendorReportedEchoSpacing": 0.000689998,
  "DeviceSerialNumber": "66112",
  "DiffusionScheme": "Monopolar",
  "DwellTime": 2.1e-06,
  "EchoTime": 0.088,
  "EchoTrainLength": 105,
  "EffectiveEchoSpacing": 0.000689998,
  "FlipAngle": 90,
  "ImageComments": "Unaliased MB3/PE3",
  "ImageOrientationPatientDICOM": [0.999055, 0.0226638, -0.0370832, -0.0148224, 0.97979, 0.19948],
  "ImageType": [
    "ORIGINAL",
    "PRIMARY",
    "DIFFUSION",
    "NONE",
    "MB",
    "ND"
],
  "ImagingFrequency": 123.252,
  "InPlanePhaseEncodingDirectionDICOM": "COL",
  "InstitutionAddress": "Maynard 3,Hanover,NH,US,03755",
  "InstitutionName": "Dartmouth College - PBS",
  "InstitutionalDepartmentName": "Department",
  "IntendedFor": [
    "ses-01/dwi/sub-0081_ses-01_acq-96dirX6b0Xmb_dwi.nii.gz"
],
  "MRAcquisitionType": "2D",
  "MagneticFieldStrength": 3,
  "Manufacturer": "Siemens",
  "ManufacturersModelName": "Prisma",
  "Modality": "MR",
  "MultibandAccelerationFactor": 3,
  "PartialFourier": 0.75,
  "PatientPosition": "HFS",
  "PercentPhaseFOV": 100,
  "PercentSampling": 100,
  "PhaseEncodingDirection": "j-",
  "PhaseEncodingSteps": 105,
  "PhaseResolution": 1,
  "PixelBandwidth": 1700,
  "ProcedureStepDescription": "Wager_Wager^1076_spacetop",
  "ProtocolName": "dwi_acq-discorr-AP",
  "PulseSequenceDetails": "%CustomerSeq%\\cmrr_mbep2d_diff",
  "ReceiveCoilActiveElements": "HEA;HEP",
  "ReceiveCoilName": "Head_32",
  "ReconMatrixPE": 140,
  "RepetitionTime": 4.1,
  "SAR": 0.140679,
  "ScanOptions": "PFP\\FS",
  "ScanningSequence": "EP",
  "SequenceName": "ep_b0",
  "SequenceVariant": "SK\\SS",
  "SeriesDescription": "dwi_acq-discorr-AP",
  "SeriesNumber": 7,
  "ShimSetting": [4139, -7699, -7289, 593, -45, 57, 83, 133],
  "SliceThickness": 1.7,
  "SliceTiming": [0, 2.11719, 0.14844, 2.26562, 0.30469, 2.41406, 0.45312, 2.57031, 0.60156, 2.71875, 0.75781, 2.86719, 0.90625, 3.02344, 1.05469, 3.17188, 1.21094, 3.32812, 1.35938, 3.47656, 1.50781, 3.625, 1.66406, 3.78125, 1.8125, 3.92969, 1.96875, 0, 2.11719, 0.14844, 2.26562, 0.30469, 2.41406, 0.45312, 2.57031, 0.60156, 2.71875, 0.75781, 2.86719, 0.90625, 3.02344, 1.05469, 3.17188, 1.21094, 3.32812, 1.35938, 3.47656, 1.50781, 3.625, 1.66406, 3.78125, 1.8125, 3.92969, 1.96875, 0, 2.11719, 0.14844, 2.26562, 0.30469, 2.41406, 0.45312, 2.57031, 0.60156, 2.71875, 0.75781, 2.86719, 0.90625, 3.02344, 1.05469, 3.17188, 1.21094, 3.32812, 1.35938, 3.47656, 1.50781, 3.625, 1.66406, 3.78125, 1.8125, 3.92969, 1.96875],
  "SoftwareVersions": "syngo MR E11",
  "SpacingBetweenSlices": 1.7,
  "StationName": "AWP66112",
  "TotalReadoutTime": 0.0959097,
  "TxRefAmp": 245.544,
  "WipMemBlock": "08a40e14-88d0-4891-a79d-381a76b768c3||Sequence: R016 ve11e/master r/434b28f1; Aug  7 2019 19:06:17 by eja",
  "dcmmeta_affine": [
    [-1.7126660346984863, -0.02540980651974678, -0.06945312023162842, 125.8202896118164],
    [-0.038852233439683914, 1.6796395778656006, 0.337860107421875, -93.24917602539062],
    [-0.06357128918170929, -0.3419662415981293, 1.664642333984375, -30.667282104492188],
    [0.0, 0.0, 0.0, 1.0]
],
  "dcmmeta_reorient_transform": [
    [0.0, -1.0, 0.0, 139.0],
    [1.0, 0.0, 0.0, 0.0],
    [0.0, 0.0, -1.0, 80.0],
    [0.0, 0.0, 0.0, 1.0]
],
  "dcmmeta_shape": [140, 140, 81],
  "dcmmeta_slice_dim": 2,
  "dcmmeta_version": 0.6,
  "global": {
    "const": {
      "AccessionNumber": "A004056",
      "AcquisitionMatrix": [140, 0, 0, 140],
      "AcquisitionNumber": 1,
      "AngioFlag": "N",
      "BitsAllocated": 16,
      "BitsStored": 16,
      "BodyPartExamined": "BRAIN",
      "Columns": 140,
      "EchoNumbers": 1,
      "EchoTime": 88.0,
      "EchoTrainLength": 105,
      "FlipAngle": 90.0,
      "HighBit": 15,
      "ImageOrientationPatient": [0.99905514592661, 0.02266380172916, -0.0370832507845, -0.0148223866908, 0.97978972387796, 0.19948030939402],
      "ImageType": [
        "ORIGINAL",
        "PRIMARY",
        "DIFFUSION",
        "NONE",
        "MB",
        "ND"
],
      "ImagedNucleus": "1H",
      "ImagingFrequency": 123.252206,
      "InPlanePhaseEncodingDirection": "COL",
      "MRAcquisitionType": "2D",
      "MagneticFieldStrength": 3.0,
      "Manufacturer": "SIEMENS",
      "ManufacturerModelName": "Prisma",
      "Modality": "MR",
      "NumberOfAverages": 1.0,
      "NumberOfPhaseEncodingSteps": 105,
      "PercentPhaseFieldOfView": 100.0,
      "PercentSampling": 100.0,
      "PerformedProcedureStepStartTime": "082255.994000",
      "PhotometricInterpretation": "MONOCHROME2",
      "PixelBandwidth": 1700.0,
      "PixelRepresentation": 0,
      "PixelSpacing": [1.7142857313156, 1.7142857313156],
      "ProtocolName": "dwi_acq-discorr-AP",
      "RepetitionTime": 4100.0,
      "Rows": 140,
      "SAR": 0.14067879131486,
      "SamplesPerPixel": 1,
      "ScanOptions": [
        "PFP",
        "FS"
],
      "ScanningSequence": "EP",
      "SequenceName": "ep_b0",
      "SequenceVariant": [
        "SK",
        "SS"
],
      "SeriesDescription": "dwi_acq-discorr-AP",
      "SeriesNumber": 7,
      "SeriesTime": "083752.671000",
      "SliceThickness": 1.7000000476837,
      "SmallestImagePixelValue": 0,
      "SoftwareVersions": "syngo MR E11",
      "SpacingBetweenSlices": 1.7,
      "SpecificCharacterSet": "ISO_IR 100",
      "StudyID": "1",
      "StudyTime": "082255.910000",
      "TransmitCoilName": "Body",
      "VariableFlipAngleFlag": "N",
      "WindowCenterWidthExplanation": "Algo1"
    },
    "slices": {
      "AcquisitionTime": ["083747.992500", "083750.107500", "083748.142500", "083750.260000", "083748.295000", "083750.410000", "083748.445000", "083750.560000", "083748.597500", "083750.712500", "083748.747500", "083750.862500", "083748.900000", "083751.015000", "083749.050000", "083751.165000", "083749.200000", "083751.317500", "083749.352500", "083751.467500", "083749.502500", "083751.620000", "083749.655000", "083751.770000", "083749.805000", "083751.920000", "083749.957500", "083747.992500", "083750.107500", "083748.142500", "083750.260000", "083748.295000", "083750.410000", "083748.445000", "083750.560000", "083748.597500", "083750.712500", "083748.747500", "083750.862500", "083748.900000", "083751.015000", "083749.050000", "083751.165000", "083749.200000", "083751.317500", "083749.352500", "083751.467500", "083749.502500", "083751.620000", "083749.655000", "083751.770000", "083749.805000", "083751.920000", "083749.957500", "083747.992500", "083750.107500", "083748.142500", "083750.260000", "083748.295000", "083750.410000", "083748.445000", "083750.560000", "083748.597500", "083750.712500", "083748.747500", "083750.862500", "083748.900000", "083751.015000", "083749.050000", "083751.165000", "083749.200000", "083751.317500", "083749.352500", "083751.467500", "083749.502500", "083751.620000", "083749.655000", "083751.770000", "083749.805000", "083751.920000", "083749.957500"],
      "ContentTime": ["083752.674000", "083752.768000", "083752.680000", "083752.775000", "083752.686000", "083752.781000", "083752.692000", "083752.788000", "083752.699000", "083752.794000", "083752.705000", "083752.800000", "083752.711000", "083752.807000", "083752.716000", "083752.812000", "083752.722000", "083752.820000", "083752.737000", "083752.826000", "083752.744000", "083752.833000", "083752.750000", "083752.839000", "083752.756000", "083752.845000", "083752.762000", "083752.676000", "083752.770000", "083752.682000", "083752.777000", "083752.688000", "083752.783000", "083752.694000", "083752.790000", "083752.701000", "083752.796000", "083752.707000", "083752.802000", "083752.712000", "083752.809000", "083752.718000", "083752.816000", "083752.724000", "083752.822000", "083752.739000", "083752.829000", "083752.746000", "083752.835000", "083752.752000", "083752.841000", "083752.758000", "083752.847000", "083752.764000", "083752.678000", "083752.773000", "083752.684000", "083752.779000", "083752.690000", "083752.786000", "083752.697000", "083752.792000", "083752.703000", "083752.798000", "083752.709000", "083752.804000", "083752.714000", "083752.810000", "083752.720000", "083752.818000", "083752.726000", "083752.824000", "083752.741000", "083752.831000", "083752.748000", "083752.837000", "083752.754000", "083752.843000", "083752.760000", "083752.849000", "083752.766000"],
      "CsaImage.GSWDDataType": [
        "predicted",
        "predicted",
        "predicted",
        "predicted",
        "predicted",
        "predicted",
        "predicted",
        "predicted",
        "predicted",
        "predicted",
        "predicted",
        "predicted",
        "predicted",
        "predicted",
        "predicted",
        "predicted",
        "predicted",
        "predicted",
        "predicted",
        "predicted",
        "predicted",
        "predicted",
        "predicted",
        "measured",
        "predicted",
        "measured",
        "predicted",
        "predicted",
        "predicted",
        "predicted",
        "predicted",
        "predicted",
        "predicted",
        "predicted",
        "predicted",
        "predicted",
        "predicted",
        "predicted",
        "predicted",
        "predicted",
        "predicted",
        "predicted",
        "predicted",
        "predicted",
        "predicted",
        "predicted",
        "predicted",
        "predicted",
        "predicted",
        "predicted",
        "measured",
        "predicted",
        "measured",
        "predicted",
        "predicted",
        "predicted",
        "predicted",
        "predicted",
        "predicted",
        "predicted",
        "predicted",
        "predicted",
        "predicted",
        "predicted",
        "predicted",
        "predicted",
        "predicted",
        "predicted",
        "predicted",
        "predicted",
        "predicted",
        "predicted",
        "predicted",
        "predicted",
        "predicted",
        "predicted",
        "predicted",
        "measured",
        "predicted",
        "measured",
        "predicted"
],
      "CsaImage.ICE_Dims": [
        "X_1_1_1_1_1_1_1_1_1_1_1_25",
        "X_1_1_1_1_1_1_42_1_1_2_1_25",
        "X_1_1_1_1_1_1_2_1_1_3_1_25",
        "X_1_1_1_1_1_1_43_1_1_4_1_25",
        "X_1_1_1_1_1_1_3_1_1_5_1_25",
        "X_1_1_1_1_1_1_44_1_1_6_1_25",
        "X_1_1_1_1_1_1_4_1_1_7_1_25",
        "X_1_1_1_1_1_1_45_1_1_8_1_25",
        "X_1_1_1_1_1_1_5_1_1_9_1_25",
        "X_1_1_1_1_1_1_46_1_1_10_1_25",
        "X_1_1_1_1_1_1_6_1_1_11_1_25",
        "X_1_1_1_1_1_1_47_1_1_12_1_25",
        "X_1_1_1_1_1_1_7_1_1_13_1_25",
        "X_1_1_1_1_1_1_48_1_1_14_1_25",
        "X_1_1_1_1_1_1_8_1_1_15_1_25",
        "X_1_1_1_1_1_1_49_1_1_16_1_25",
        "X_1_1_1_1_1_1_9_1_1_17_1_25",
        "X_1_1_1_1_1_1_50_1_1_18_1_25",
        "X_1_1_1_1_1_1_10_1_1_19_1_25",
        "X_1_1_1_1_1_1_51_1_1_20_1_25",
        "X_1_1_1_1_1_1_11_1_1_21_1_25",
        "X_1_1_1_1_1_1_52_1_1_22_1_25",
        "X_1_1_1_1_1_1_12_1_1_23_1_25",
        "X_1_1_1_1_1_1_53_1_1_24_1_25",
        "X_1_1_1_1_1_1_13_1_1_25_1_25",
        "X_1_1_1_1_1_1_54_1_1_26_1_25",
        "X_1_1_1_1_1_1_14_1_1_27_1_25",
        "X_1_1_1_1_1_1_55_1_1_28_1_25",
        "X_1_1_1_1_1_1_15_1_1_29_1_25",
        "X_1_1_1_1_1_1_56_1_1_30_1_25",
        "X_1_1_1_1_1_1_16_1_1_31_1_25",
        "X_1_1_1_1_1_1_57_1_1_32_1_25",
        "X_1_1_1_1_1_1_17_1_1_33_1_25",
        "X_1_1_1_1_1_1_58_1_1_34_1_25",
        "X_1_1_1_1_1_1_18_1_1_35_1_25",
        "X_1_1_1_1_1_1_59_1_1_36_1_25",
        "X_1_1_1_1_1_1_19_1_1_37_1_25",
        "X_1_1_1_1_1_1_60_1_1_38_1_25",
        "X_1_1_1_1_1_1_20_1_1_39_1_25",
        "X_1_1_1_1_1_1_61_1_1_40_1_25",
        "X_1_1_1_1_1_1_21_1_1_41_1_25",
        "X_1_1_1_1_1_1_62_1_1_42_1_25",
        "X_1_1_1_1_1_1_22_1_1_43_1_25",
        "X_1_1_1_1_1_1_63_1_1_44_1_25",
        "X_1_1_1_1_1_1_23_1_1_45_1_25",
        "X_1_1_1_1_1_1_64_1_1_46_1_25",
        "X_1_1_1_1_1_1_24_1_1_47_1_25",
        "X_1_1_1_1_1_1_65_1_1_48_1_25",
        "X_1_1_1_1_1_1_25_1_1_49_1_25",
        "X_1_1_1_1_1_1_66_1_1_50_1_25",
        "X_1_1_1_1_1_1_26_1_1_51_1_25",
        "X_1_1_1_1_1_1_67_1_1_52_1_25",
        "X_1_1_1_1_1_1_27_1_1_53_1_25",
        "X_1_1_1_1_1_1_68_1_1_54_1_25",
        "X_1_1_1_1_1_1_28_1_1_55_1_25",
        "X_1_1_1_1_1_1_69_1_1_56_1_25",
        "X_1_1_1_1_1_1_29_1_1_57_1_25",
        "X_1_1_1_1_1_1_70_1_1_58_1_25",
        "X_1_1_1_1_1_1_30_1_1_59_1_25",
        "X_1_1_1_1_1_1_71_1_1_60_1_25",
        "X_1_1_1_1_1_1_31_1_1_61_1_25",
        "X_1_1_1_1_1_1_72_1_1_62_1_25",
        "X_1_1_1_1_1_1_32_1_1_63_1_25",
        "X_1_1_1_1_1_1_73_1_1_64_1_25",
        "X_1_1_1_1_1_1_33_1_1_65_1_25",
        "X_1_1_1_1_1_1_74_1_1_66_1_25",
        "X_1_1_1_1_1_1_34_1_1_67_1_25",
        "X_1_1_1_1_1_1_75_1_1_68_1_25",
        "X_1_1_1_1_1_1_35_1_1_69_1_25",
        "X_1_1_1_1_1_1_76_1_1_70_1_25",
        "X_1_1_1_1_1_1_36_1_1_71_1_25",
        "X_1_1_1_1_1_1_77_1_1_72_1_25",
        "X_1_1_1_1_1_1_37_1_1_73_1_25",
        "X_1_1_1_1_1_1_78_1_1_74_1_25",
        "X_1_1_1_1_1_1_38_1_1_75_1_25",
        "X_1_1_1_1_1_1_79_1_1_76_1_25",
        "X_1_1_1_1_1_1_39_1_1_77_1_25",
        "X_1_1_1_1_1_1_80_1_1_78_1_25",
        "X_1_1_1_1_1_1_40_1_1_79_1_25",
        "X_1_1_1_1_1_1_81_1_1_80_1_25",
        "X_1_1_1_1_1_1_41_1_1_81_1_25"
],
      "CsaImage.ProtocolSliceNumber": [0, 1, 2, 3, 4, 5, 6, 7, 8, 9, 10, 11, 12, 13, 14, 15, 16, 17, 18, 19, 20, 21, 22, 23, 24, 25, 26, 27, 28, 29, 30, 31, 32, 33, 34, 35, 36, 37, 38, 39, 40, 41, 42, 43, 44, 45, 46, 47, 48, 49, 50, 51, 52, 53, 54, 55, 56, 57, 58, 59, 60, 61, 62, 63, 64, 65, 66, 67, 68, 69, 70, 71, 72, 73, 74, 75, 76, 77, 78, 79, 80],
      "CsaImage.RFSWDDataType": [
        "predicted",
        "predicted",
        "predicted",
        "predicted",
        "predicted",
        "predicted",
        "predicted",
        "predicted",
        "predicted",
        "predicted",
        "predicted",
        "predicted",
        "predicted",
        "predicted",
        "predicted",
        "predicted",
        "predicted",
        "predicted",
        "predicted",
        "predicted",
        "predicted",
        "predicted",
        "predicted",
        "measured",
        "predicted",
        "measured",
        "predicted",
        "predicted",
        "predicted",
        "predicted",
        "predicted",
        "predicted",
        "predicted",
        "predicted",
        "predicted",
        "predicted",
        "predicted",
        "predicted",
        "predicted",
        "predicted",
        "predicted",
        "predicted",
        "predicted",
        "predicted",
        "predicted",
        "predicted",
        "predicted",
        "predicted",
        "predicted",
        "predicted",
        "measured",
        "predicted",
        "measured",
        "predicted",
        "predicted",
        "predicted",
        "predicted",
        "predicted",
        "predicted",
        "predicted",
        "predicted",
        "predicted",
        "predicted",
        "predicted",
        "predicted",
        "predicted",
        "predicted",
        "predicted",
        "predicted",
        "predicted",
        "predicted",
        "predicted",
        "predicted",
        "predicted",
        "predicted",
        "predicted",
        "predicted",
        "measured",
        "predicted",
        "measured",
        "predicted"
],
      "CsaImage.SlicePosition_PCS": [
        [-122.28832932, -140.22059652, -78.20039289],
        [-122.21887608, -140.55845663, -76.53575437],
        [-122.14942331, -140.89631865, -74.87111585],
        [-122.07997007, -141.23418066, -73.20647352],
        [-122.01051683, -141.57204268, -71.541835],
        [-121.94106383, -141.90990469, -69.87719648],
        [-121.87161059, -142.24776671, -68.21255415],
        [-121.80215759, -142.58562681, -66.54791563],
        [-121.73270435, -142.92348883, -64.88327711],
        [-121.66325135, -143.26135084, -63.21863478],
        [-121.59379835, -143.59921286, -61.55399626],
        [-121.52434511, -143.93707487, -59.88935774],
        [-121.45489211, -144.27493498, -58.2247154],
        [-121.38543887, -144.61279699, -56.56007688],
        [-121.31598587, -144.95065901, -54.89543836],
        [-121.24653263, -145.28852102, -53.23079603],
        [-121.17707963, -145.62638304, -51.56615751],
        [-121.10762639, -145.96424505, -49.90151708],
        [-121.03817339, -146.30210516, -48.23687666],
        [-120.96872015, -146.63996718, -46.57223814],
        [-120.89926715, -146.97782919, -44.90759771],
        [-120.82981391, -147.31569121, -43.24295729],
        [-120.76036091, -147.65355322, -41.57831877],
        [-120.69090767, -147.99141523, -39.91367834],
        [-120.62145467, -148.32927534, -38.24903791],
        [-120.55200143, -148.66713736, -36.58439939],
        [-120.48254843, -149.00499937, -34.91975897],
        [-120.41309519, -149.34286139, -33.25511949],
        [-120.34364219, -149.6807234, -31.59047907],
        [-120.27418919, -150.01858351, -29.92583959],
        [-120.20473595, -150.35644552, -28.26119917],
        [-120.13528295, -150.69430754, -26.59655969],
        [-120.06582971, -151.03216955, -24.93191974],
        [-119.99637659, -151.37003157, -23.26728003],
        [-119.92692347, -151.70789358, -21.60264032],
        [-119.85747035, -152.04575369, -19.93800049],
        [-119.78801723, -152.3836157, -18.27336066],
        [-119.71856411, -152.72147963, -16.60872071],
        [-119.64911098, -153.05933973, -14.944081],
        [-119.57965798, -153.39719984, -13.27944105],
        [-119.51020486, -153.73506376, -11.61480158],
        [-119.44075174, -154.07292387, -9.95016115],
        [-119.37129862, -154.41078779, -8.28552168],
        [-119.3018455, -154.7486479, -6.6208822],
        [-119.23239238, -155.08650801, -4.95624178],
        [-119.16293926, -155.42437193, -3.2916023],
        [-119.09348614, -155.76223204, -1.62696188],
        [-119.02403302, -156.10009596, 0.03767664],
        [-118.9545799, -156.43795607, 1.70231707],
        [-118.88512678, -156.77581617, 3.36695749],
        [-118.81567366, -157.1136801, 5.03159601],
        [-118.74622054, -157.4515402, 6.69623644],
        [-118.67676742, -157.78940413, 8.36087687],
        [-118.60731433, -158.12726423, 10.02551729],
        [-118.53786121, -158.46512816, 11.69015581],
        [-118.46840809, -158.80298826, 13.35479433],
        [-118.398955, -159.14084837, 15.01943667],
        [-118.32950188, -159.47871229, 16.68407519],
        [-118.26004876, -159.8165724, 18.3487137],
        [-118.19059565, -160.15443632, 20.01335604],
        [-118.12114253, -160.49229643, 21.67799456],
        [-118.05168942, -160.83015654, 23.34263689],
        [-117.98223631, -161.16802046, 25.00727541],
        [-117.91278319, -161.50588057, 26.67191393],
        [-117.84333007, -161.84374449, 28.33655626],
        [-117.77387695, -162.1816046, 30.00119478],
        [-117.70442386, -162.5194647, 31.6658333],
        [-117.63497074, -162.85732863, 33.33047564],
        [-117.56551762, -163.19518873, 34.99511416],
        [-117.4960645, -163.53305266, 36.65975268],
        [-117.42661138, -163.87091276, 38.32439501],
        [-117.35715826, -164.20877668, 39.98903353],
        [-117.28770514, -164.54663679, 41.65367205],
        [-117.21825202, -164.8844969, 43.31831438],
        [-117.14879895, -165.22236082, 44.98294909],
        [-117.07934577, -165.56022093, 46.64759142],
        [-117.00989265, -165.89808485, 48.31223375],
        [-116.94043953, -166.23594496, 49.97686846],
        [-116.87098641, -166.57380507, 51.64151079],
        [-116.80153341, -166.91166899, 53.30615313],
        [-116.73208029, -167.2495291, 54.97079546]
],
      "CsaImage.TimeAfterStart": [16.4, 18.515, 16.55, 18.665, 16.7025, 18.8175, 16.8525, 18.9675, 17.0025, 19.12, 17.155, 19.27, 17.305, 19.4225, 17.4575, 19.5725, 17.6075, 19.7225, 17.76, 19.875, 17.91, 20.025, 18.0625, 20.1775, 18.2125, 20.3275, 18.3625, 16.4, 18.515, 16.55, 18.665, 16.7025, 18.8175, 16.8525, 18.9675, 17.0025, 19.12, 17.155, 19.27, 17.305, 19.4225, 17.4575, 19.5725, 17.6075, 19.7225, 17.76, 19.875, 17.91, 20.025, 18.0625, 20.1775, 18.2125, 20.3275, 18.3625, 16.4, 18.515, 16.55, 18.665, 16.7025, 18.8175, 16.8525, 18.9675, 17.0025, 19.12, 17.155, 19.27, 17.305, 19.4225, 17.4575, 19.5725, 17.6075, 19.7225, 17.76, 19.875, 17.91, 20.025, 18.0625, 20.1775, 18.2125, 20.3275, 18.3625],
      "ImagePositionPatient": [
        [-122.28832931528, -140.22059652434, -78.200392893238],
        [-122.21887607584, -140.55845663176, -76.535754373951],
        [-122.14942331323, -140.89631864653, -74.871115854664],
        [-122.07997007379, -141.2341806613, -73.20647352068],
        [-122.01051683435, -141.57204267607, -71.541835001393],
        [-121.94106383333, -141.90990469085, -69.877196482106],
        [-121.87161059389, -142.24776670562, -68.212554148121],
        [-121.80215759287, -142.58562681304, -66.547915628834],
        [-121.73270435343, -142.92348882781, -64.883277109547],
        [-121.6632513524, -143.26135084258, -63.218634775563],
        [-121.59379835138, -143.59921285735, -61.553996256275],
        [-121.52434511194, -143.93707487212, -59.889357736988],
        [-121.45489211092, -144.27493497954, -58.224715403004],
        [-121.38543887148, -144.61279699431, -56.560076883717],
        [-121.31598587046, -144.95065900908, -54.89543836443],
        [-121.24653263101, -145.28852102385, -53.230796030445],
        [-121.17707962999, -145.62638303862, -51.566157511158],
        [-121.10762639055, -145.96424505339, -49.901517084523],
        [-121.03817338953, -146.30210516082, -48.236876657887],
        [-120.96872015009, -146.63996717559, -46.5722381386],
        [-120.89926714907, -146.97782919036, -44.907597711964],
        [-120.82981390962, -147.31569120513, -43.242957285328],
        [-120.7603609086, -147.6535532199, -41.578318766041],
        [-120.69090766916, -147.99141523467, -39.913678339405],
        [-120.62145466814, -148.32927534209, -38.24903791277],
        [-120.5520014287, -148.66713735686, -36.584399393482],
        [-120.48254842768, -149.00499937163, -34.919758966847],
        [-120.41309518823, -149.3428613864, -33.255119493885],
        [-120.34364218721, -149.68072340117, -31.59047906725],
        [-120.27418918619, -150.01858350859, -29.925839594288],
        [-120.20473594675, -150.35644552336, -28.261199167652],
        [-120.13528294573, -150.69430753814, -26.596559694691],
        [-120.06582970629, -151.03216955291, -24.931919744892],
        [-119.99637658605, -151.37003156768, -23.267280033512],
        [-119.92692346582, -151.70789358245, -21.602640322132],
        [-119.85747034559, -152.04575368987, -19.938000491543],
        [-119.78801722536, -152.38361570464, -18.273360660954],
        [-119.71856410513, -152.72147962676, -16.608720711155],
        [-119.6491109849, -153.05933973418, -14.944080999775],
        [-119.57965798387, -153.3971998416, -13.279441049977],
        [-119.51020486364, -153.73506376372, -11.614801577015],
        [-119.44075174341, -154.07292387114, -9.9501611503794],
        [-119.37129862318, -154.41078779326, -8.285521677418],
        [-119.30184550295, -154.74864790068, -6.6208822044566],
        [-119.23239238272, -155.08650800811, -4.9562417778208],
        [-119.16293926248, -155.42437193023, -3.2916023048594],
        [-119.09348614225, -155.76223203765, -1.6269618782237],
        [-119.02403302202, -156.10009595977, 0.03767664106343],
        [-118.95457990179, -156.43795606719, 1.7023170676992],
        [-118.88512678156, -156.77581617461, 3.3669574943349],
        [-118.81567366133, -157.11368009673, 5.031596013622],
        [-118.74622054109, -157.45154020415, 6.6962364402578],
        [-118.67676742086, -157.78940412627, 8.3608768668935],
        [-118.60731433043, -158.12726423369, 10.025517293529],
        [-118.5378612102, -158.46512815581, 11.690155812816],
        [-118.46840808997, -158.80298826323, 13.354794332103],
        [-118.39895499954, -159.14084837065, 15.019436666088],
        [-118.32950187931, -159.47871229277, 16.684075185375],
        [-118.26004875908, -159.8165724002, 18.348713704662],
        [-118.1905956463, -160.15443632232, 20.013356038646],
        [-118.12114252979, -160.49229642974, 21.677994557934],
        [-118.05168941701, -160.83015653716, 23.342636891918],
        [-117.98223630795, -161.16802045928, 25.007275411205],
        [-117.91278318772, -161.5058805667, 26.671913930492],
        [-117.84333006749, -161.84374448882, 28.336556264477],
        [-117.77387694726, -162.18160459624, 30.001194783764],
        [-117.70442385683, -162.51946470366, 31.665833303051],
        [-117.6349707366, -162.85732862578, 33.330475637035],
        [-117.56551761637, -163.1951887332, 34.995114156322],
        [-117.49606449613, -163.53305265532, 36.659752675609],
        [-117.4266113759, -163.87091276274, 38.324395009594],
        [-117.35715825567, -164.20877668486, 39.989033528881],
        [-117.28770513544, -164.54663679229, 41.653672048168],
        [-117.21825201521, -164.88449689971, 43.318314382152],
        [-117.14879895458, -165.22236082183, 44.982949086742],
        [-117.07934577474, -165.56022092925, 46.647591420727],
        [-117.00989265451, -165.89808485137, 48.312233754711],
        [-116.94043953428, -166.23594495879, 49.976868459301],
        [-116.87098641405, -166.57380506621, 51.641510793285],
        [-116.80153341303, -166.91166898833, 53.306153127269],
        [-116.7320802928, -167.24952909575, 54.970795461254]
],
      "InstanceCreationTime": ["083752.674000", "083752.768000", "083752.680000", "083752.775000", "083752.686000", "083752.781000", "083752.692000", "083752.788000", "083752.699000", "083752.794000", "083752.705000", "083752.800000", "083752.711000", "083752.807000", "083752.716000", "083752.812000", "083752.722000", "083752.820000", "083752.737000", "083752.826000", "083752.744000", "083752.833000", "083752.750000", "083752.839000", "083752.756000", "083752.845000", "083752.762000", "083752.676000", "083752.770000", "083752.682000", "083752.777000", "083752.688000", "083752.783000", "083752.694000", "083752.790000", "083752.701000", "083752.796000", "083752.707000", "083752.802000", "083752.712000", "083752.809000", "083752.718000", "083752.816000", "083752.724000", "083752.822000", "083752.739000", "083752.829000", "083752.746000", "083752.835000", "083752.752000", "083752.841000", "083752.758000", "083752.847000", "083752.764000", "083752.678000", "083752.773000", "083752.684000", "083752.779000", "083752.690000", "083752.786000", "083752.697000", "083752.792000", "083752.703000", "083752.798000", "083752.709000", "083752.804000", "083752.714000", "083752.810000", "083752.720000", "083752.818000", "083752.726000", "083752.824000", "083752.741000", "083752.831000", "083752.748000", "083752.837000", "083752.754000", "083752.843000", "083752.760000", "083752.849000", "083752.766000"],
      "InstanceNumber": [1, 2, 3, 4, 5, 6, 7, 8, 9, 10, 11, 12, 13, 14, 15, 16, 17, 18, 19, 20, 21, 22, 23, 24, 25, 26, 27, 28, 29, 30, 31, 32, 33, 34, 35, 36, 37, 38, 39, 40, 41, 42, 43, 44, 45, 46, 47, 48, 49, 50, 51, 52, 53, 54, 55, 56, 57, 58, 59, 60, 61, 62, 63, 64, 65, 66, 67, 68, 69, 70, 71, 72, 73, 74, 75, 76, 77, 78, 79, 80, 81],
      "LargestImagePixelValue": [33662, 24012, 26766, 29638, 33890, 28847, 24072, 28086, 27665, 33169, 38805, 44892, 31826, 27137, 28228, 30259, 32548, 50375, 65535, 65535, 65535, 65535, 63697, 65535, 65535, 53246, 49243, 40334, 50939, 51835, 53550, 45124, 58945, 57554, 47369, 38487, 51110, 45107, 40106, 48818, 38965, 44707, 42281, 47989, 52508, 55073, 55077, 46047, 45528, 41669, 42097, 62243, 65535, 62666, 57546, 44438, 39880, 43201, 41340, 40295, 43375, 40151, 43463, 41482, 46913, 56812, 55009, 44971, 58297, 41431, 44910, 34517, 15942, 18204, 24250, 23127, 18233, 11661, 3928, 968, 893],
      "SliceLocation": [-53.7021330204, -52.002134607298, -50.302135834607, -48.602133307083, -46.902134514911, -45.202135732479, -43.502133204956, -41.802134801594, -40.102136009422, -38.402133491639, -36.702134709207, -35.002135917035, -33.302133778322, -31.60213498615, -29.902136203718, -28.202133676194, -26.502134893763, -24.802134233915, -23.102133962878, -21.402135170705, -19.702134520598, -18.00213386075, -16.302135078318, -14.60213441847, -12.902134147433, -11.202135355261, -9.5021347051533, -7.8021349791431, -6.1021343290356, -4.4021349918365, -2.7021343319886, -1.0021346157189, 0.69786557721019, 2.3978655318096, 4.0978654864089, 5.7978651786674, 7.4978652499965, 9.197865817126, 10.897865392655, 12.597865196773, 14.297865296983, 15.99786557289, 17.697865673101, 19.39786501517, 21.097865291077, 22.797865391288, 24.497865667195, 26.197864833568, 27.897865109475, 29.597865385382, 31.297864551755, 32.997864827662, 34.69786586171, 36.3978661364, 38.097865302772, 39.797863711004, 41.497865853369, 43.197865019742, 44.897863427973, 46.597866329393, 48.297864737472, 49.997866880751, 51.697866046667, 53.397864454898, 55.097867356622, 56.797865764854, 58.497864171868, 60.197867073592, 61.897865481823, 63.597864648196, 65.297866791779, 66.997865958151, 68.697864366383, 70.397866509965, 72.097861938552, 73.79786408457, 75.497866986294, 77.197861659174, 78.897863802757, 80.59786669961, 82.297868843193],
