{
  "AcquisitionMatrixPE": 82,
  "AcquisitionNumber": 1,
  "AcquisitionTime": "12:37:11.450000",
  "BandwidthPerPixelPhaseEncode": 24.888,
  "BaseResolution": 82,
  "BodyPartExamined": "BRAIN",
  "ConsistencyInfo": "N4_VE11E_LATEST_20181129",
  "ConversionSoftware": "dcm2niix",
  "ConversionSoftwareVersion": "v1.0.20201102",
  "DerivedVendorReportedEchoSpacing": 0.00049,
  "DeviceSerialNumber": "66112",
  "DwellTime": 2e-06,
  "EchoTime": 0.0272,
  "EchoTrainLength": 82,
  "EffectiveEchoSpacing": 0.00049,
  "FlipAngle": 44,
  "ImageComments": "Unaliased MB8/PE3",
  "ImageOrientationPatientDICOM": [0.99023, -0.0960558, 0.101082, 0.103903, 0.991721, -0.0754527],
  "ImageType": [
    "ORIGINAL",
    "PRIMARY",
    "M",
    "MB",
    "ND",
    "NORM",
    "MOSAIC"
],
  "ImagingFrequency": 123.259,
  "InPlanePhaseEncodingDirectionDICOM": "COL",
  "InstitutionAddress": "Maynard 3,Hanover,NH,US,03755",
  "InstitutionName": "Dartmouth College - PBS",
  "InstitutionalDepartmentName": "Department",
  "MRAcquisitionType": "2D",
  "MagneticFieldStrength": 3,
  "Manufacturer": "Siemens",
  "ManufacturersModelName": "Prisma",
  "Modality": "MR",
  "MultibandAccelerationFactor": 8,
  "PartialFourier": 1,
  "PatientPosition": "HFS",
  "PercentPhaseFOV": 100,
  "PercentSampling": 100,
  "PhaseEncodingDirection": "j-",
  "PhaseEncodingSteps": 82,
  "PhaseResolution": 1,
  "PixelBandwidth": 3050,
  "ProcedureStepDescription": "Wager_Wager^1076_spacetop",
  "ProtocolName": "func_run-02_task-narratives_acq-ap-mb8",
  "PulseSequenceDetails": "%CustomerSeq%\\cmrr_mbep2d_bold",
  "ReceiveCoilActiveElements": "HEA;HEP",
  "ReceiveCoilName": "Head_32",
  "ReconMatrixPE": 82,
  "RepetitionTime": 0.46,
  "SAR": 0.0947515,
  "ScanOptions": "FS",
  "ScanningSequence": "EP",
  "SequenceName": "epfid2d1_82",
  "SequenceVariant": "SK\\SS",
  "SeriesDescription": "func_run-02_task-narratives_acq-ap-mb8",
  "SeriesNumber": 10,
  "ShimSetting": [4248, -7760, -7230, 398, -228, 32, -2, 71],
  "SliceThickness": 2.7,
  "SliceTiming": [0, 0.2525, 0.0625, 0.315, 0.125, 0.3775, 0.19, 0, 0.2525, 0.0625, 0.315, 0.125, 0.3775, 0.19, 0, 0.2525, 0.0625, 0.315, 0.125, 0.3775, 0.19, 0, 0.2525, 0.0625, 0.315, 0.125, 0.3775, 0.19, 0, 0.2525, 0.0625, 0.315, 0.125, 0.3775, 0.19, 0, 0.2525, 0.0625, 0.315, 0.125, 0.3775, 0.19, 0, 0.2525, 0.0625, 0.315, 0.125, 0.3775, 0.19, 0, 0.2525, 0.0625, 0.315, 0.125, 0.3775, 0.19],
  "SoftwareVersions": "syngo MR E11",
  "SpacingBetweenSlices": 2.7,
  "StationName": "AWP66112",
  "TaskName": "narratives",
  "TotalReadoutTime": 0.03969,
  "TxRefAmp": 242.794,
  "WipMemBlock": "92a57f20-dff9-4189-bdca-a109b511e35f||Sequence: R016 ve11e/master r/434b28f1; Aug  7 2019 18:53:46 by eja",
  "dcmmeta_affine": [
    [-2.656715154647827, 0.27876317501068115, 0.25109294056892395, 89.5161361694336],
    [0.2577107846736908, 2.6607158184051514, -0.23008926212787628, -111.15914154052734],
    [0.27119532227516174, 0.20243416726589203, 2.678434371948242, -94.22096252441406],
    [0.0, 0.0, 0.0, 1.0]
],
  "dcmmeta_reorient_transform": [
    [0.0, -1.0, 0.0, 81.0],
    [1.0, 0.0, 0.0, 0.0],
    [0.0, 0.0, 1.0, 0.0],
    [0.0, 0.0, 0.0, 1.0]
],
  "dcmmeta_shape": [82, 82, 56, 1098],
  "dcmmeta_slice_dim": 2,
  "dcmmeta_version": 0.6,
  "global": {
    "const": {
      "AccessionNumber": "A004846",
      "AcquisitionMatrix": [82, 0, 0, 82],
      "AngioFlag": "N",
      "BitsAllocated": 16,
      "BitsStored": 16,
      "BodyPartExamined": "BRAIN",
      "Columns": 656,
      "EchoNumbers": 1,
      "EchoTime": 27.2,
      "EchoTrainLength": 82,
      "FlipAngle": 44.0,
      "HighBit": 15,
      "ImageOrientationPatient": [0.99023013912146, -0.0960558336869, 0.10108188952628, 0.10390263508826, 0.99172129513505, -0.0754527348568],
      "ImagePositionPatient": [-954.57820966595, -794.02125194517, -97.558241912936],
      "ImageType": [
        "ORIGINAL",
        "PRIMARY",
        "M",
        "MB",
        "ND",
        "NORM",
        "MOSAIC"
],
      "ImagedNucleus": "1H",
      "ImagingFrequency": 123.259236,
      "InPlanePhaseEncodingDirection": "COL",
      "MRAcquisitionType": "2D",
      "MagneticFieldStrength": 3.0,
      "Manufacturer": "SIEMENS",
      "ManufacturerModelName": "Prisma",
      "Modality": "MR",
      "NumberOfAverages": 1.0,
      "NumberOfPhaseEncodingSteps": 82,
      "PercentPhaseFieldOfView": 100.0,
      "PercentSampling": 100.0,
      "PerformedProcedureStepStartTime": "121853.445000",
      "PhotometricInterpretation": "MONOCHROME2",
      "PixelBandwidth": 3050.0,
      "PixelRepresentation": 0,
      "PixelSpacing": [2.6829268932343, 2.6829268932343],
      "ProtocolName": "func_run-02_task-narratives_acq-ap-mb8",
      "RepetitionTime": 460.0,
      "Rows": 656,
      "SAR": 0.09475148607609,
      "SamplesPerPixel": 1,
      "ScanOptions": "FS",
      "ScanningSequence": "EP",
      "SequenceName": "epfid2d1_82",
      "SequenceVariant": [
        "SK",
        "SS"
],
      "SeriesDescription": "func_run-02_task-narratives_acq-ap-mb8",
      "SeriesNumber": 10,
      "SeriesTime": "123731.080000",
      "SliceLocation": -75.670841620595,
      "SliceThickness": 2.7000000476837,
      "SmallestImagePixelValue": 0,
      "SoftwareVersions": "syngo MR E11",
      "SpacingBetweenSlices": 2.6999999954099,
      "SpecificCharacterSet": "ISO_IR 100",
      "StudyID": "1",
      "StudyTime": "121853.359000",
      "TransmitCoilName": "Body",
      "VariableFlipAngleFlag": "N",
      "WindowCenterWidthExplanation": "Algo1"
    },
    "slices": {}
  },
  "time": {
    "samples": {
      "AcquisitionNumber": [1, 2, 3, 4, 5, 6, 7, 8, 9, 10, 11, 12, 13, 14, 15, 16, 17, 18, 19, 20, 21, 22, 23, 24, 25, 26, 27, 28, 29, 30, 31, 32, 33, 34, 35, 36, 37, 38, 39, 40, 41, 42, 43, 44, 45, 46, 47, 48, 49, 50, 51, 52, 53, 54, 55, 56, 57, 58, 59, 60, 61, 62, 63, 64, 65, 66, 67, 68, 69, 70, 71, 72, 73, 74, 75, 76, 77, 78, 79, 80, 81, 82, 83, 84, 85, 86, 87, 88, 89, 90, 91, 92, 93, 94, 95, 96, 97, 98, 99, 100, 101, 102, 103, 104, 105, 106, 107, 108, 109, 110, 111, 112, 113, 114, 115, 116, 117, 118, 119, 120, 121, 122, 123, 124, 125, 126, 127, 128, 129, 130, 131, 132, 133, 134, 135, 136, 137, 138, 139, 140, 141, 142, 143, 144, 145, 146, 147, 148, 149, 150, 151, 152, 153, 154, 155, 156, 157, 158, 159, 160, 161, 162, 163, 164, 165, 166, 167, 168, 169, 170, 171, 172, 173, 174, 175, 176, 177, 178, 179, 180, 181, 182, 183, 184, 185, 186, 187, 188, 189, 190, 191, 192, 193, 194, 195, 196, 197, 198, 199, 200, 201, 202, 203, 204, 205, 206, 207, 208, 209, 210, 211, 212, 213, 214, 215, 216, 217, 218, 219, 220, 221, 222, 223, 224, 225, 226, 227, 228, 229, 230, 231, 232, 233, 234, 235, 236, 237, 238, 239, 240, 241, 242, 243, 244, 245, 246, 247, 248, 249, 250, 251, 252, 253, 254, 255, 256, 257, 258, 259, 260, 261, 262, 263, 264, 265, 266, 267, 268, 269, 270, 271, 272, 273, 274, 275, 276, 277, 278, 279, 280, 281, 282, 283, 284, 285, 286, 287, 288, 289, 290, 291, 292, 293, 294, 295, 296, 297, 298, 299, 300, 301, 302, 303, 304, 305, 306, 307, 308, 309, 310, 311, 312, 313, 314, 315, 316, 317, 318, 319, 320, 321, 322, 323, 324, 325, 326, 327, 328, 329, 330, 331, 332, 333, 334, 335, 336, 337, 338, 339, 340, 341, 342, 343, 344, 345, 346, 347, 348, 349, 350, 351, 352, 353, 354, 355, 356, 357, 358, 359, 360, 361, 362, 363, 364, 365, 366, 367, 368, 369, 370, 371, 372, 373, 374, 375, 376, 377, 378, 379, 380, 381, 382, 383, 384, 385, 386, 387, 388, 389, 390, 391, 392, 393, 394, 395, 396, 397, 398, 399, 400, 401, 402, 403, 404, 405, 406, 407, 408, 409, 410, 411, 412, 413, 414, 415, 416, 417, 418, 419, 420, 421, 422, 423, 424, 425, 426, 427, 428, 429, 430, 431, 432, 433, 434, 435, 436, 437, 438, 439, 440, 441, 442, 443, 444, 445, 446, 447, 448, 449, 450, 451, 452, 453, 454, 455, 456, 457, 458, 459, 460, 461, 462, 463, 464, 465, 466, 467, 468, 469, 470, 471, 472, 473, 474, 475, 476, 477, 478, 479, 480, 481, 482, 483, 484, 485, 486, 487, 488, 489, 490, 491, 492, 493, 494, 495, 496, 497, 498, 499, 500, 501, 502, 503, 504, 505, 506, 507, 508, 509, 510, 511, 512, 513, 514, 515, 516, 517, 518, 519, 520, 521, 522, 523, 524, 525, 526, 527, 528, 529, 530, 531, 532, 533, 534, 535, 536, 537, 538, 539, 540, 541, 542, 543, 544, 545, 546, 547, 548, 549, 550, 551, 552, 553, 554, 555, 556, 557, 558, 559, 560, 561, 562, 563, 564, 565, 566, 567, 568, 569, 570, 571, 572, 573, 574, 575, 576, 577, 578, 579, 580, 581, 582, 583, 584, 585, 586, 587, 588, 589, 590, 591, 592, 593, 594, 595, 596, 597, 598, 599, 600, 601, 602, 603, 604, 605, 606, 607, 608, 609, 610, 611, 612, 613, 614, 615, 616, 617, 618, 619, 620, 621, 622, 623, 624, 625, 626, 627, 628, 629, 630, 631, 632, 633, 634, 635, 636, 637, 638, 639, 640, 641, 642, 643, 644, 645, 646, 647, 648, 649, 650, 651, 652, 653, 654, 655, 656, 657, 658, 659, 660, 661, 662, 663, 664, 665, 666, 667, 668, 669, 670, 671, 672, 673, 674, 675, 676, 677, 678, 679, 680, 681, 682, 683, 684, 685, 686, 687, 688, 689, 690, 691, 692, 693, 694, 695, 696, 697, 698, 699, 700, 701, 702, 703, 704, 705, 706, 707, 708, 709, 710, 711, 712, 713, 714, 715, 716, 717, 718, 719, 720, 721, 722, 723, 724, 725, 726, 727, 728, 729, 730, 731, 732, 733, 734, 735, 736, 737, 738, 739, 740, 741, 742, 743, 744, 745, 746, 747, 748, 749, 750, 751, 752, 753, 754, 755, 756, 757, 758, 759, 760, 761, 762, 763, 764, 765, 766, 767, 768, 769, 770, 771, 772, 773, 774, 775, 776, 777, 778, 779, 780, 781, 782, 783, 784, 785, 786, 787, 788, 789, 790, 791, 792, 793, 794, 795, 796, 797, 798, 799, 800, 801, 802, 803, 804, 805, 806, 807, 808, 809, 810, 811, 812, 813, 814, 815, 816, 817, 818, 819, 820, 821, 822, 823, 824, 825, 826, 827, 828, 829, 830, 831, 832, 833, 834, 835, 836, 837, 838, 839, 840, 841, 842, 843, 844, 845, 846, 847, 848, 849, 850, 851, 852, 853, 854, 855, 856, 857, 858, 859, 860, 861, 862, 863, 864, 865, 866, 867, 868, 869, 870, 871, 872, 873, 874, 875, 876, 877, 878, 879, 880, 881, 882, 883, 884, 885, 886, 887, 888, 889, 890, 891, 892, 893, 894, 895, 896, 897, 898, 899, 900, 901, 902, 903, 904, 905, 906, 907, 908, 909, 910, 911, 912, 913, 914, 915, 916, 917, 918, 919, 920, 921, 922, 923, 924, 925, 926, 927, 928, 929, 930, 931, 932, 933, 934, 935, 936, 937, 938, 939, 940, 941, 942, 943, 944, 945, 946, 947, 948, 949, 950, 951, 952, 953, 954, 955, 956, 957, 958, 959, 960, 961, 962, 963, 964, 965, 966, 967, 968, 969, 970, 971, 972, 973, 974, 975, 976, 977, 978, 979, 980, 981, 982, 983, 984, 985, 986, 987, 988, 989, 990, 991, 992, 993, 994, 995, 996, 997, 998, 999, 1000, 1001, 1002, 1003, 1004, 1005, 1006, 1007, 1008, 1009, 1010, 1011, 1012, 1013, 1014, 1015, 1016, 1017, 1018, 1019, 1020, 1021, 1022, 1023, 1024, 1025, 1026, 1027, 1028, 1029, 1030, 1031, 1032, 1033, 1034, 1035, 1036, 1037, 1038, 1039, 1040, 1041, 1042, 1043, 1044, 1045, 1046, 1047, 1048, 1049, 1050, 1051, 1052, 1053, 1054, 1055, 1056, 1057, 1058, 1059, 1060, 1061, 1062, 1063, 1064, 1065, 1066, 1067, 1068, 1069, 1070, 1071, 1072, 1073, 1074, 1075, 1076, 1077, 1078, 1079, 1080, 1081, 1082, 1083, 1084, 1085, 1086, 1087, 1088, 1089, 1090, 1091, 1092, 1093, 1094, 1095, 1096, 1097, 1098],
      "AcquisitionTime": ["123711.450000", "123711.910000", "123712.370000", "123712.830000", "123713.290000", "123713.750000", "123714.210000", "123714.670000", "123715.130000", "123715.590000", "123716.050000", "123716.510000", "123716.970000", "123717.430000", "123717.890000", "123718.350000", "123718.810000", "123719.270000", "123719.730000", "123720.190000", "123720.650000", "123721.110000", "123721.570000", "123722.030000", "123722.490000", "123722.950000", "123723.410000", "123723.870000", "123724.330000", "123724.790000", "123725.250000", "123725.710000", "123726.170000", "123726.630000", "123727.090000", "123727.550000", "123728.010000", "123728.470000", "123728.930000", "123729.390000", "123729.850000", "123730.310000", "123730.770000", "123731.230000", "123731.690000", "123732.150000", "123732.610000", "123733.070000", "123733.530000", "123733.990000", "123734.450000", "123734.910000", "123735.370000", "123735.830000", "123736.290000", "123736.750000", "123737.210000", "123737.670000", "123738.130000", "123738.590000", "123739.050000", "123739.510000", "123739.970000", "123740.430000", "123740.890000", "123741.350000", "123741.810000", "123742.270000", "123742.730000", "123743.190000", "123743.650000", "123744.110000", "123744.570000", "123745.030000", "123745.490000", "123745.950000", "123746.410000", "123746.870000", "123747.330000", "123747.790000", "123748.250000", "123748.710000", "123749.170000", "123749.630000", "123750.090000", "123750.550000", "123751.010000", "123751.470000", "123751.930000", "123752.390000", "123752.850000", "123753.310000", "123753.770000", "123754.230000", "123754.690000", "123755.150000", "123755.610000", "123756.070000", "123756.530000", "123756.990000", "123757.450000", "123757.910000", "123758.370000", "123758.830000", "123759.290000", "123759.750000", "123800.210000", "123800.670000", "123801.130000", "123801.590000", "123802.050000", "123802.510000", "123802.970000", "123803.430000", "123803.890000", "123804.350000", "123804.810000", "123805.270000", "123805.730000", "123806.190000", "123806.650000", "123807.110000", "123807.570000", "123808.030000", "123808.490000", "123808.950000", "123809.410000", "123809.870000", "123810.330000", "123810.790000", "123811.250000", "123811.710000", "123812.170000", "123812.630000", "123813.090000", "123813.550000", "123814.010000", "123814.470000", "123814.930000", "123815.390000", "123815.850000", "123816.310000", "123816.770000", "123817.230000", "123817.690000", "123818.150000", "123818.610000", "123819.070000", "123819.530000", "123819.990000", "123820.450000", "123820.910000", "123821.370000", "123821.830000", "123822.290000", "123822.750000", "123823.210000", "123823.670000", "123824.130000", "123824.590000", "123825.050000", "123825.510000", "123825.970000", "123826.430000", "123826.890000", "123827.350000", "123827.810000", "123828.270000", "123828.730000", "123829.190000", "123829.650000", "123830.110000", "123830.570000", "123831.030000", "123831.490000", "123831.950000", "123832.410000", "123832.870000", "123833.330000", "123833.790000", "123834.250000", "123834.710000", "123835.170000", "123835.630000", "123836.090000", "123836.550000", "123837.010000", "123837.470000", "123837.930000", "123838.390000", "123838.850000", "123839.310000", "123839.770000", "123840.230000", "123840.690000", "123841.150000", "123841.610000", "123842.070000", "123842.530000", "123842.990000", "123843.450000", "123843.910000", "123844.370000", "123844.830000", "123845.290000", "123845.750000", "123846.210000", "123846.670000", "123847.130000", "123847.590000", "123848.050000", "123848.510000", "123848.970000", "123849.430000", "123849.890000", "123850.350000", "123850.810000", "123851.270000", "123851.730000", "123852.190000", "123852.650000", "123853.110000", "123853.570000", "123854.030000", "123854.490000", "123854.950000", "123855.410000", "123855.870000", "123856.330000", "123856.790000", "123857.250000", "123857.710000", "123858.170000", "123858.630000", "123859.090000", "123859.550000", "123900.010000", "123900.470000", "123900.930000", "123901.390000", "123901.850000", "123902.310000", "123902.770000", "123903.230000", "123903.690000", "123904.150000", "123904.610000", "123905.070000", "123905.530000", "123905.990000", "123906.450000", "123906.910000", "123907.370000", "123907.830000", "123908.290000", "123908.750000", "123909.210000", "123909.670000", "123910.130000", "123910.590000", "123911.050000", "123911.510000", "123911.970000", "123912.430000", "123912.890000", "123913.350000", "123913.810000", "123914.270000", "123914.730000", "123915.190000", "123915.650000", "123916.110000", "123916.570000", "123917.030000", "123917.490000", "123917.950000", "123918.410000", "123918.870000", "123919.330000", "123919.790000", "123920.250000", "123920.710000", "123921.170000", "123921.630000", "123922.090000", "123922.550000", "123923.010000", "123923.470000", "123923.930000", "123924.390000", "123924.850000", "123925.310000", "123925.770000", "123926.230000", "123926.690000", "123927.150000", "123927.610000", "123928.070000", "123928.530000", "123928.990000", "123929.450000", "123929.910000", "123930.370000", "123930.830000", "123931.290000", "123931.750000", "123932.210000", "123932.670000", "123933.130000", "123933.590000", "123934.050000", "123934.510000", "123934.970000", "123935.430000", "123935.890000", "123936.350000", "123936.810000", "123937.270000", "123937.730000", "123938.190000", "123938.650000", "123939.110000", "123939.570000", "123940.030000", "123940.490000", "123940.950000", "123941.410000", "123941.870000", "123942.330000", "123942.790000", "123943.250000", "123943.710000", "123944.170000", "123944.630000", "123945.090000", "123945.550000", "123946.010000", "123946.470000", "123946.930000", "123947.390000", "123947.850000", "123948.310000", "123948.770000", "123949.230000", "123949.690000", "123950.150000", "123950.610000", "123951.070000", "123951.530000", "123951.990000", "123952.450000", "123952.910000", "123953.370000", "123953.830000", "123954.290000", "123954.750000", "123955.210000", "123955.670000", "123956.130000", "123956.590000", "123957.050000", "123957.510000", "123957.970000", "123958.430000", "123958.890000", "123959.350000", "123959.810000", "124000.270000", "124000.730000", "124001.190000", "124001.650000", "124002.110000", "124002.570000", "124003.030000", "124003.490000", "124003.950000", "124004.410000", "124004.870000", "124005.330000", "124005.790000", "124006.250000", "124006.710000", "124007.170000", "124007.630000", "124008.090000", "124008.550000", "124009.010000", "124009.470000", "124009.930000", "124010.390000", "124010.850000", "124011.310000", "124011.770000", "124012.230000", "124012.690000", "124013.150000", "124013.610000", "124014.070000", "124014.530000", "124014.990000", "124015.450000", "124015.910000", "124016.370000", "124016.830000", "124017.290000", "124017.750000", "124018.210000", "124018.670000", "124019.130000", "124019.590000", "124020.050000", "124020.510000", "124020.970000", "124021.430000", "124021.890000", "124022.350000", "124022.810000", "124023.270000", "124023.730000", "124024.190000", "124024.650000", "124025.110000", "124025.570000", "124026.030000", "124026.490000", "124026.950000", "124027.410000", "124027.870000", "124028.330000", "124028.790000", "124029.250000", "124029.710000", "124030.170000", "124030.630000", "124031.090000", "124031.550000", "124032.010000", "124032.470000", "124032.930000", "124033.390000", "124033.850000", "124034.310000", "124034.770000", "124035.230000", "124035.690000", "124036.150000", "124036.610000", "124037.070000", "124037.530000", "124037.990000", "124038.450000", "124038.910000", "124039.370000", "124039.830000", "124040.290000", "124040.750000", "124041.210000", "124041.670000", "124042.130000", "124042.590000", "124043.050000", "124043.510000", "124043.970000", "124044.430000", "124044.890000", "124045.350000", "124045.810000", "124046.270000", "124046.730000", "124047.190000", "124047.650000", "124048.110000", "124048.570000", "124049.030000", "124049.490000", "124049.950000", "124050.410000", "124050.870000", "124051.330000", "124051.790000", "124052.250000", "124052.710000", "124053.170000", "124053.630000", "124054.090000", "124054.550000", "124055.010000", "124055.470000", "124055.930000", "124056.390000", "124056.850000", "124057.310000", "124057.770000", "124058.230000", "124058.690000", "124059.150000", "124059.610000", "124100.070000", "124100.530000", "124100.990000", "124101.450000", "124101.910000", "124102.370000", "124102.830000", "124103.290000", "124103.750000", "124104.210000", "124104.670000", "124105.130000", "124105.590000", "124106.050000", "124106.510000", "124106.970000", "124107.430000", "124107.890000", "124108.350000", "124108.810000", "124109.270000", "124109.730000", "124110.190000", "124110.650000", "124111.110000", "124111.570000", "124112.030000", "124112.490000", "124112.950000", "124113.410000", "124113.870000", "124114.330000", "124114.790000", "124115.250000", "124115.710000", "124116.170000", "124116.630000", "124117.090000", "124117.550000", "124118.010000", "124118.470000", "124118.930000", "124119.390000", "124119.850000", "124120.310000", "124120.770000", "124121.230000", "124121.690000", "124122.150000", "124122.610000", "124123.070000", "124123.530000", "124123.990000", "124124.450000", "124124.910000", "124125.370000", "124125.830000", "124126.290000", "124126.750000", "124127.210000", "124127.670000", "124128.130000", "124128.590000", "124129.050000", "124129.510000", "124129.970000", "124130.430000", "124130.890000", "124131.350000", "124131.810000", "124132.270000", "124132.730000", "124133.190000", "124133.650000", "124134.110000", "124134.570000", "124135.030000", "124135.490000", "124135.950000", "124136.410000", "124136.870000", "124137.330000", "124137.790000", "124138.250000", "124138.710000", "124139.170000", "124139.630000", "124140.090000", "124140.550000", "124141.010000", "124141.470000", "124141.930000", "124142.390000", "124142.850000", "124143.310000", "124143.770000", "124144.230000", "124144.690000", "124145.150000", "124145.610000", "124146.070000", "124146.530000", "124146.990000", "124147.450000", "124147.910000", "124148.370000", "124148.830000", "124149.290000", "124149.750000", "124150.210000", "124150.670000", "124151.130000", "124151.590000", "124152.050000", "124152.510000", "124152.970000", "124153.430000", "124153.890000", "124154.350000", "124154.810000", "124155.270000", "124155.730000", "124156.190000", "124156.650000", "124157.110000", "124157.570000", "124158.030000", "124158.490000", "124158.950000", "124159.410000", "124159.870000", "124200.330000", "124200.790000", "124201.250000", "124201.710000", "124202.170000", "124202.630000", "124203.090000", "124203.550000", "124204.010000", "124204.470000", "124204.930000", "124205.390000", "124205.850000", "124206.310000", "124206.770000", "124207.230000", "124207.690000", "124208.150000", "124208.610000", "124209.070000", "124209.530000", "124209.990000", "124210.450000", "124210.910000", "124211.370000", "124211.830000", "124212.290000", "124212.750000", "124213.210000", "124213.670000", "124214.130000", "124214.590000", "124215.050000", "124215.510000", "124215.970000", "124216.430000", "124216.890000", "124217.350000", "124217.810000", "124218.270000", "124218.730000", "124219.190000", "124219.650000", "124220.110000", "124220.570000", "124221.030000", "124221.490000", "124221.950000", "124222.410000", "124222.870000", "124223.330000", "124223.790000", "124224.250000", "124224.710000", "124225.170000", "124225.630000", "124226.090000", "124226.550000", "124227.010000", "124227.470000", "124227.930000", "124228.390000", "124228.850000", "124229.310000", "124229.770000", "124230.230000", "124230.690000", "124231.150000", "124231.610000", "124232.070000", "124232.530000", "124232.990000", "124233.450000", "124233.910000", "124234.370000", "124234.830000", "124235.290000", "124235.750000", "124236.210000", "124236.670000", "124237.130000", "124237.590000", "124238.050000", "124238.510000", "124238.970000", "124239.430000", "124239.890000", "124240.350000", "124240.810000", "124241.270000", "124241.730000", "124242.190000", "124242.650000", "124243.110000", "124243.570000", "124244.030000", "124244.490000", "124244.950000", "124245.410000", "124245.870000", "124246.330000", "124246.790000", "124247.250000", "124247.710000", "124248.170000", "124248.630000", "124249.090000", "124249.550000", "124250.010000", "124250.470000", "124250.930000", "124251.390000", "124251.850000", "124252.310000", "124252.770000", "124253.230000", "124253.690000", "124254.150000", "124254.610000", "124255.070000", "124255.530000", "124255.990000", "124256.450000", "124256.910000", "124257.370000", "124257.830000", "124258.290000", "124258.750000", "124259.210000", "124259.670000", "124300.130000", "124300.590000", "124301.050000", "124301.510000", "124301.970000", "124302.430000", "124302.890000", "124303.350000", "124303.810000", "124304.270000", "124304.730000", "124305.190000", "124305.650000", "124306.110000", "124306.570000", "124307.030000", "124307.490000", "124307.950000", "124308.410000", "124308.870000", "124309.330000", "124309.790000", "124310.250000", "124310.710000", "124311.170000", "124311.630000", "124312.090000", "124312.550000", "124313.010000", "124313.470000", "124313.930000", "124314.390000", "124314.850000", "124315.310000", "124315.770000", "124316.230000", "124316.690000", "124317.150000", "124317.610000", "124318.070000", "124318.530000", "124318.990000", "124319.450000", "124319.910000", "124320.370000", "124320.830000", "124321.290000", "124321.750000", "124322.210000", "124322.670000", "124323.130000", "124323.590000", "124324.050000", "124324.510000", "124324.970000", "124325.430000", "124325.890000", "124326.350000", "124326.810000", "124327.270000", "124327.730000", "124328.190000", "124328.650000", "124329.110000", "124329.570000", "124330.030000", "124330.490000", "124330.950000", "124331.410000", "124331.870000", "124332.330000", "124332.790000", "124333.250000", "124333.710000", "124334.170000", "124334.630000", "124335.090000", "124335.550000", "124336.010000", "124336.470000", "124336.930000", "124337.390000", "124337.850000", "124338.310000", "124338.770000", "124339.230000", "124339.690000", "124340.150000", "124340.610000", "124341.070000", "124341.530000", "124341.990000", "124342.450000", "124342.910000", "124343.370000", "124343.830000", "124344.290000", "124344.750000", "124345.210000", "124345.670000", "124346.130000", "124346.590000", "124347.050000", "124347.510000", "124347.970000", "124348.430000", "124348.890000", "124349.350000", "124349.810000", "124350.270000", "124350.730000", "124351.190000", "124351.650000", "124352.110000", "124352.570000", "124353.030000", "124353.490000", "124353.950000", "124354.410000", "124354.870000", "124355.330000", "124355.790000", "124356.250000", "124356.710000", "124357.170000", "124357.630000", "124358.090000", "124358.550000", "124359.010000", "124359.470000", "124359.930000", "124400.390000", "124400.850000", "124401.310000", "124401.770000", "124402.230000", "124402.690000", "124403.150000", "124403.610000", "124404.070000", "124404.530000", "124404.990000", "124405.450000", "124405.910000", "124406.370000", "124406.830000", "124407.290000", "124407.750000", "124408.210000", "124408.670000", "124409.130000", "124409.590000", "124410.050000", "124410.510000", "124410.970000", "124411.430000", "124411.890000", "124412.350000", "124412.810000", "124413.270000", "124413.730000", "124414.190000", "124414.650000", "124415.110000", "124415.570000", "124416.030000", "124416.490000", "124416.950000", "124417.410000", "124417.870000", "124418.330000", "124418.790000", "124419.250000", "124419.710000", "124420.170000", "124420.630000", "124421.090000", "124421.550000", "124422.010000", "124422.470000", "124422.930000", "124423.390000", "124423.850000", "124424.310000", "124424.770000", "124425.230000", "124425.690000", "124426.150000", "124426.610000", "124427.070000", "124427.530000", "124427.990000", "124428.450000", "124428.910000", "124429.370000", "124429.830000", "124430.290000", "124430.750000", "124431.210000", "124431.670000", "124432.130000", "124432.590000", "124433.050000", "124433.510000", "124433.970000", "124434.430000", "124434.890000", "124435.350000", "124435.810000", "124436.270000", "124436.730000", "124437.190000", "124437.650000", "124438.110000", "124438.570000", "124439.030000", "124439.490000", "124439.950000", "124440.410000", "124440.870000", "124441.330000", "124441.790000", "124442.250000", "124442.710000", "124443.170000", "124443.630000", "124444.090000", "124444.550000", "124445.010000", "124445.470000", "124445.930000", "124446.390000", "124446.850000", "124447.310000", "124447.770000", "124448.230000", "124448.690000", "124449.150000", "124449.610000", "124450.070000", "124450.530000", "124450.990000", "124451.450000", "124451.910000", "124452.370000", "124452.830000", "124453.290000", "124453.750000", "124454.210000", "124454.670000", "124455.130000", "124455.590000", "124456.050000", "124456.510000", "124456.970000", "124457.430000", "124457.890000", "124458.350000", "124458.810000", "124459.270000", "124459.730000", "124500.190000", "124500.650000", "124501.110000", "124501.570000", "124502.030000", "124502.490000", "124502.950000", "124503.410000", "124503.870000", "124504.330000", "124504.790000", "124505.250000", "124505.710000", "124506.170000", "124506.630000", "124507.090000", "124507.550000", "124508.010000", "124508.470000", "124508.930000", "124509.390000", "124509.850000", "124510.310000", "124510.770000", "124511.230000", "124511.690000", "124512.150000", "124512.610000", "124513.070000", "124513.530000", "124513.990000", "124514.450000", "124514.910000", "124515.370000", "124515.830000", "124516.290000", "124516.750000", "124517.210000", "124517.670000", "124518.130000", "124518.590000", "124519.050000", "124519.510000", "124519.970000", "124520.430000", "124520.890000", "124521.350000", "124521.810000", "124522.270000", "124522.730000", "124523.190000", "124523.650000", "124524.110000", "124524.570000", "124525.030000", "124525.490000", "124525.950000", "124526.410000", "124526.870000", "124527.330000", "124527.790000", "124528.250000", "124528.710000", "124529.170000", "124529.630000", "124530.090000", "124530.550000", "124531.010000", "124531.470000", "124531.930000", "124532.390000", "124532.850000", "124533.310000", "124533.770000", "124534.230000", "124534.690000", "124535.150000", "124535.610000", "124536.070000"],
