{
  "AcquisitionMatrixPE": 82,
  "AcquisitionNumber": 1,
  "AcquisitionTime": "15:01:34.600000",
  "BandwidthPerPixelPhaseEncode": 24.888,
  "BaseResolution": 82,
  "BodyPartExamined": "BRAIN",
  "ConsistencyInfo": "N4_VE11E_LATEST_20181129",
  "ConversionSoftware": "dcm2niix",
  "ConversionSoftwareVersion": "v1.0.20201102",
  "DerivedVendorReportedEchoSpacing": 0.00049,
  "DeviceSerialNumber": "66112",
  "DwellTime": 2e-06,
  "EchoTime": 0.0272,
  "EchoTrainLength": 82,
  "EffectiveEchoSpacing": 0.00049,
  "FlipAngle": 44,
  "ImageComments": "Unaliased MB8/PE3",
  "ImageOrientationPatientDICOM": [0.98619, 0.0348599, 0.161905, -0.0272024, 0.998415, -0.0492754],
  "ImageType": [
    "ORIGINAL",
    "PRIMARY",
    "M",
    "MB",
    "ND",
    "NORM",
    "MOSAIC"
],
  "ImagingFrequency": 123.259,
  "InPlanePhaseEncodingDirectionDICOM": "COL",
  "InstitutionAddress": "Maynard 3,Hanover,NH,US,03755",
  "InstitutionName": "Dartmouth College - PBS",
  "InstitutionalDepartmentName": "Department",
  "MRAcquisitionType": "2D",
  "MagneticFieldStrength": 3,
  "Manufacturer": "Siemens",
  "ManufacturersModelName": "Prisma",
  "Modality": "MR",
  "MultibandAccelerationFactor": 8,
  "PartialFourier": 1,
  "PatientPosition": "HFS",
  "PercentPhaseFOV": 100,
  "PercentSampling": 100,
  "PhaseEncodingDirection": "j-",
  "PhaseEncodingSteps": 82,
  "PhaseResolution": 1,
  "PixelBandwidth": 3050,
  "ProcedureStepDescription": "Wager_Wager^1076_spacetop",
  "ProtocolName": "func_run-06_task-social_acq-ap-mb8",
  "PulseSequenceDetails": "%CustomerSeq%\\cmrr_mbep2d_bold",
  "ReceiveCoilActiveElements": "HEA;HEP",
  "ReceiveCoilName": "Head_32",
  "ReconMatrixPE": 82,
  "RepetitionTime": 0.46,
  "SAR": 0.0848804,
  "ScanOptions": "FS",
  "ScanningSequence": "EP",
  "SequenceName": "epfid2d1_82",
  "SequenceVariant": "SK\\SS",
  "SeriesDescription": "func_run-06_task-social_acq-ap-mb8",
  "SeriesNumber": 30,
  "ShimSetting": [4237, -7775, -7270, 266, -140, -195, -117, -27],
  "SliceThickness": 2.7,
  "SliceTiming": [0, 0.2525, 0.0625, 0.315, 0.125, 0.3775, 0.1875, 0, 0.2525, 0.0625, 0.315, 0.125, 0.3775, 0.1875, 0, 0.2525, 0.0625, 0.315, 0.125, 0.3775, 0.1875, 0, 0.2525, 0.0625, 0.315, 0.125, 0.3775, 0.1875, 0, 0.2525, 0.0625, 0.315, 0.125, 0.3775, 0.1875, 0, 0.2525, 0.0625, 0.315, 0.125, 0.3775, 0.1875, 0, 0.2525, 0.0625, 0.315, 0.125, 0.3775, 0.1875, 0, 0.2525, 0.0625, 0.315, 0.125, 0.3775, 0.1875],
  "SoftwareVersions": "syngo MR E11",
  "SpacingBetweenSlices": 2.7,
  "StationName": "AWP66112",
  "TaskName": "social",
  "TotalReadoutTime": 0.03969,
  "TxRefAmp": 231.334,
  "WipMemBlock": "8c5571d2-5268-4da4-8e55-437f2dc47378||Sequence: R016 ve11e/master r/434b28f1; Aug  7 2019 18:53:46 by eja",
  "dcmmeta_affine": [
    [-2.64587664604187, -0.07298191636800766, 0.4410896599292755, 105.53876495361328],
    [-0.09352658689022064, 2.67867374420166, -0.11931481957435608, -97.99906921386719],
    [0.43438056111335754, 0.13220219314098358, 2.661052942276001, -95.19564819335938],
    [0.0, 0.0, 0.0, 1.0]
],
  "dcmmeta_reorient_transform": [
    [0.0, -1.0, 0.0, 81.0],
    [1.0, 0.0, 0.0, 0.0],
    [0.0, 0.0, 1.0, 0.0],
    [0.0, 0.0, 0.0, 1.0]
],
  "dcmmeta_shape": [82, 82, 56, 872],
  "dcmmeta_slice_dim": 2,
  "dcmmeta_version": 0.6,
  "global": {
    "const": {
      "AccessionNumber": "A004782",
      "AcquisitionMatrix": [82, 0, 0, 82],
      "AngioFlag": "N",
      "BitsAllocated": 16,
      "BitsStored": 16,
      "BodyPartExamined": "BRAIN",
      "Columns": 656,
      "EchoNumbers": 1,
      "EchoTime": 27.2,
      "EchoTrainLength": 82,
      "FlipAngle": 44.0,
      "HighBit": 15,
      "ImageOrientationPatient": [0.98619034786097, 0.03485990957872, 0.16190548011116, -0.0272023511694, 0.99841472889365, -0.0492753611767],
      "ImagePositionPatient": [-838.0480008148, -914.59499270015, -171.21246082183],
      "ImageType": [
        "ORIGINAL",
        "PRIMARY",
        "M",
        "MB",
        "ND",
        "NORM",
        "MOSAIC"
],
      "ImagedNucleus": "1H",
      "ImagingFrequency": 123.259068,
      "InPlanePhaseEncodingDirection": "COL",
      "MRAcquisitionType": "2D",
      "MagneticFieldStrength": 3.0,
      "Manufacturer": "SIEMENS",
      "ManufacturerModelName": "Prisma",
      "Modality": "MR",
      "NumberOfAverages": 1.0,
      "NumberOfPhaseEncodingSteps": 82,
      "PercentPhaseFieldOfView": 100.0,
      "PercentSampling": 100.0,
      "PerformedProcedureStepStartTime": "132315.010000",
      "PhotometricInterpretation": "MONOCHROME2",
      "PixelBandwidth": 3050.0,
      "PixelRepresentation": 0,
      "PixelSpacing": [2.6829268932343, 2.6829268932343],
      "ProtocolName": "func_run-06_task-social_acq-ap-mb8",
      "RepetitionTime": 460.0,
      "Rows": 656,
      "SAR": 0.08488035516143,
      "SamplesPerPixel": 1,
      "ScanOptions": "FS",
      "ScanningSequence": "EP",
      "SequenceName": "epfid2d1_82",
      "SequenceVariant": [
        "SK",
        "SS"
],
      "SeriesDescription": "func_run-06_task-social_acq-ap-mb8",
      "SeriesNumber": 30,
      "SeriesTime": "150148.625000",
      "SliceLocation": -72.250321890188,
      "SliceThickness": 2.7000000476837,
      "SmallestImagePixelValue": 0,
      "SoftwareVersions": "syngo MR E11",
      "SpacingBetweenSlices": 2.6999999017342,
      "SpecificCharacterSet": "ISO_IR 100",
      "StudyID": "1",
      "StudyTime": "132314.820000",
      "TransmitCoilName": "Body",
      "VariableFlipAngleFlag": "N",
      "WindowCenterWidthExplanation": "Algo1"
    },
    "slices": {}
  },
  "time": {
    "samples": {
      "AcquisitionNumber": [1, 2, 3, 4, 5, 6, 7, 8, 9, 10, 11, 12, 13, 14, 15, 16, 17, 18, 19, 20, 21, 22, 23, 24, 25, 26, 27, 28, 29, 30, 31, 32, 33, 34, 35, 36, 37, 38, 39, 40, 41, 42, 43, 44, 45, 46, 47, 48, 49, 50, 51, 52, 53, 54, 55, 56, 57, 58, 59, 60, 61, 62, 63, 64, 65, 66, 67, 68, 69, 70, 71, 72, 73, 74, 75, 76, 77, 78, 79, 80, 81, 82, 83, 84, 85, 86, 87, 88, 89, 90, 91, 92, 93, 94, 95, 96, 97, 98, 99, 100, 101, 102, 103, 104, 105, 106, 107, 108, 109, 110, 111, 112, 113, 114, 115, 116, 117, 118, 119, 120, 121, 122, 123, 124, 125, 126, 127, 128, 129, 130, 131, 132, 133, 134, 135, 136, 137, 138, 139, 140, 141, 142, 143, 144, 145, 146, 147, 148, 149, 150, 151, 152, 153, 154, 155, 156, 157, 158, 159, 160, 161, 162, 163, 164, 165, 166, 167, 168, 169, 170, 171, 172, 173, 174, 175, 176, 177, 178, 179, 180, 181, 182, 183, 184, 185, 186, 187, 188, 189, 190, 191, 192, 193, 194, 195, 196, 197, 198, 199, 200, 201, 202, 203, 204, 205, 206, 207, 208, 209, 210, 211, 212, 213, 214, 215, 216, 217, 218, 219, 220, 221, 222, 223, 224, 225, 226, 227, 228, 229, 230, 231, 232, 233, 234, 235, 236, 237, 238, 239, 240, 241, 242, 243, 244, 245, 246, 247, 248, 249, 250, 251, 252, 253, 254, 255, 256, 257, 258, 259, 260, 261, 262, 263, 264, 265, 266, 267, 268, 269, 270, 271, 272, 273, 274, 275, 276, 277, 278, 279, 280, 281, 282, 283, 284, 285, 286, 287, 288, 289, 290, 291, 292, 293, 294, 295, 296, 297, 298, 299, 300, 301, 302, 303, 304, 305, 306, 307, 308, 309, 310, 311, 312, 313, 314, 315, 316, 317, 318, 319, 320, 321, 322, 323, 324, 325, 326, 327, 328, 329, 330, 331, 332, 333, 334, 335, 336, 337, 338, 339, 340, 341, 342, 343, 344, 345, 346, 347, 348, 349, 350, 351, 352, 353, 354, 355, 356, 357, 358, 359, 360, 361, 362, 363, 364, 365, 366, 367, 368, 369, 370, 371, 372, 373, 374, 375, 376, 377, 378, 379, 380, 381, 382, 383, 384, 385, 386, 387, 388, 389, 390, 391, 392, 393, 394, 395, 396, 397, 398, 399, 400, 401, 402, 403, 404, 405, 406, 407, 408, 409, 410, 411, 412, 413, 414, 415, 416, 417, 418, 419, 420, 421, 422, 423, 424, 425, 426, 427, 428, 429, 430, 431, 432, 433, 434, 435, 436, 437, 438, 439, 440, 441, 442, 443, 444, 445, 446, 447, 448, 449, 450, 451, 452, 453, 454, 455, 456, 457, 458, 459, 460, 461, 462, 463, 464, 465, 466, 467, 468, 469, 470, 471, 472, 473, 474, 475, 476, 477, 478, 479, 480, 481, 482, 483, 484, 485, 486, 487, 488, 489, 490, 491, 492, 493, 494, 495, 496, 497, 498, 499, 500, 501, 502, 503, 504, 505, 506, 507, 508, 509, 510, 511, 512, 513, 514, 515, 516, 517, 518, 519, 520, 521, 522, 523, 524, 525, 526, 527, 528, 529, 530, 531, 532, 533, 534, 535, 536, 537, 538, 539, 540, 541, 542, 543, 544, 545, 546, 547, 548, 549, 550, 551, 552, 553, 554, 555, 556, 557, 558, 559, 560, 561, 562, 563, 564, 565, 566, 567, 568, 569, 570, 571, 572, 573, 574, 575, 576, 577, 578, 579, 580, 581, 582, 583, 584, 585, 586, 587, 588, 589, 590, 591, 592, 593, 594, 595, 596, 597, 598, 599, 600, 601, 602, 603, 604, 605, 606, 607, 608, 609, 610, 611, 612, 613, 614, 615, 616, 617, 618, 619, 620, 621, 622, 623, 624, 625, 626, 627, 628, 629, 630, 631, 632, 633, 634, 635, 636, 637, 638, 639, 640, 641, 642, 643, 644, 645, 646, 647, 648, 649, 650, 651, 652, 653, 654, 655, 656, 657, 658, 659, 660, 661, 662, 663, 664, 665, 666, 667, 668, 669, 670, 671, 672, 673, 674, 675, 676, 677, 678, 679, 680, 681, 682, 683, 684, 685, 686, 687, 688, 689, 690, 691, 692, 693, 694, 695, 696, 697, 698, 699, 700, 701, 702, 703, 704, 705, 706, 707, 708, 709, 710, 711, 712, 713, 714, 715, 716, 717, 718, 719, 720, 721, 722, 723, 724, 725, 726, 727, 728, 729, 730, 731, 732, 733, 734, 735, 736, 737, 738, 739, 740, 741, 742, 743, 744, 745, 746, 747, 748, 749, 750, 751, 752, 753, 754, 755, 756, 757, 758, 759, 760, 761, 762, 763, 764, 765, 766, 767, 768, 769, 770, 771, 772, 773, 774, 775, 776, 777, 778, 779, 780, 781, 782, 783, 784, 785, 786, 787, 788, 789, 790, 791, 792, 793, 794, 795, 796, 797, 798, 799, 800, 801, 802, 803, 804, 805, 806, 807, 808, 809, 810, 811, 812, 813, 814, 815, 816, 817, 818, 819, 820, 821, 822, 823, 824, 825, 826, 827, 828, 829, 830, 831, 832, 833, 834, 835, 836, 837, 838, 839, 840, 841, 842, 843, 844, 845, 846, 847, 848, 849, 850, 851, 852, 853, 854, 855, 856, 857, 858, 859, 860, 861, 862, 863, 864, 865, 866, 867, 868, 869, 870, 871, 872],
      "AcquisitionTime": ["150134.600000", "150135.060000", "150135.520000", "150135.980000", "150136.440000", "150136.900000", "150137.360000", "150137.820000", "150138.280000", "150138.740000", "150139.200000", "150139.660000", "150140.120000", "150140.580000", "150141.040000", "150141.500000", "150141.960000", "150142.420000", "150142.880000", "150143.340000", "150143.800000", "150144.260000", "150144.720000", "150145.180000", "150145.640000", "150146.100000", "150146.560000", "150147.020000", "150147.480000", "150147.940000", "150148.400000", "150148.860000", "150149.320000", "150149.780000", "150150.240000", "150150.700000", "150151.160000", "150151.620000", "150152.080000", "150152.540000", "150153.000000", "150153.460000", "150153.920000", "150154.380000", "150154.840000", "150155.300000", "150155.760000", "150156.220000", "150156.680000", "150157.140000", "150157.600000", "150158.060000", "150158.520000", "150158.980000", "150159.440000", "150159.900000", "150200.360000", "150200.820000", "150201.280000", "150201.740000", "150202.200000", "150202.660000", "150203.120000", "150203.580000", "150204.040000", "150204.500000", "150204.960000", "150205.420000", "150205.880000", "150206.340000", "150206.800000", "150207.260000", "150207.720000", "150208.180000", "150208.640000", "150209.100000", "150209.560000", "150210.020000", "150210.480000", "150210.940000", "150211.400000", "150211.860000", "150212.320000", "150212.780000", "150213.240000", "150213.700000", "150214.160000", "150214.620000", "150215.080000", "150215.540000", "150216.000000", "150216.460000", "150216.920000", "150217.380000", "150217.840000", "150218.300000", "150218.760000", "150219.220000", "150219.680000", "150220.140000", "150220.600000", "150221.060000", "150221.520000", "150221.980000", "150222.440000", "150222.900000", "150223.360000", "150223.820000", "150224.280000", "150224.740000", "150225.200000", "150225.660000", "150226.120000", "150226.580000", "150227.040000", "150227.500000", "150227.960000", "150228.420000", "150228.880000", "150229.340000", "150229.800000", "150230.260000", "150230.720000", "150231.180000", "150231.640000", "150232.100000", "150232.560000", "150233.020000", "150233.480000", "150233.940000", "150234.400000", "150234.860000", "150235.320000", "150235.780000", "150236.240000", "150236.700000", "150237.160000", "150237.620000", "150238.080000", "150238.540000", "150239.000000", "150239.460000", "150239.920000", "150240.380000", "150240.840000", "150241.300000", "150241.760000", "150242.220000", "150242.680000", "150243.140000", "150243.600000", "150244.060000", "150244.520000", "150244.980000", "150245.440000", "150245.900000", "150246.360000", "150246.820000", "150247.280000", "150247.740000", "150248.200000", "150248.660000", "150249.120000", "150249.580000", "150250.040000", "150250.500000", "150250.960000", "150251.420000", "150251.880000", "150252.340000", "150252.800000", "150253.260000", "150253.720000", "150254.180000", "150254.640000", "150255.100000", "150255.560000", "150256.020000", "150256.480000", "150256.940000", "150257.400000", "150257.860000", "150258.320000", "150258.780000", "150259.240000", "150259.700000", "150300.160000", "150300.620000", "150301.080000", "150301.540000", "150302.000000", "150302.460000", "150302.920000", "150303.380000", "150303.840000", "150304.300000", "150304.760000", "150305.220000", "150305.680000", "150306.140000", "150306.600000", "150307.060000", "150307.520000", "150307.980000", "150308.440000", "150308.900000", "150309.360000", "150309.820000", "150310.280000", "150310.740000", "150311.200000", "150311.660000", "150312.120000", "150312.580000", "150313.040000", "150313.500000", "150313.960000", "150314.420000", "150314.880000", "150315.340000", "150315.800000", "150316.260000", "150316.720000", "150317.180000", "150317.640000", "150318.100000", "150318.560000", "150319.020000", "150319.480000", "150319.940000", "150320.400000", "150320.860000", "150321.320000", "150321.780000", "150322.240000", "150322.700000", "150323.160000", "150323.620000", "150324.080000", "150324.540000", "150325.000000", "150325.460000", "150325.920000", "150326.380000", "150326.840000", "150327.300000", "150327.760000", "150328.220000", "150328.680000", "150329.140000", "150329.600000", "150330.060000", "150330.520000", "150330.980000", "150331.440000", "150331.900000", "150332.360000", "150332.820000", "150333.280000", "150333.740000", "150334.200000", "150334.660000", "150335.120000", "150335.580000", "150336.040000", "150336.500000", "150336.960000", "150337.420000", "150337.880000", "150338.340000", "150338.800000", "150339.260000", "150339.720000", "150340.180000", "150340.640000", "150341.100000", "150341.560000", "150342.020000", "150342.480000", "150342.940000", "150343.400000", "150343.860000", "150344.320000", "150344.780000", "150345.240000", "150345.700000", "150346.160000", "150346.620000", "150347.080000", "150347.540000", "150348.000000", "150348.460000", "150348.920000", "150349.380000", "150349.840000", "150350.300000", "150350.760000", "150351.220000", "150351.680000", "150352.140000", "150352.600000", "150353.060000", "150353.520000", "150353.980000", "150354.440000", "150354.900000", "150355.360000", "150355.820000", "150356.280000", "150356.740000", "150357.200000", "150357.660000", "150358.120000", "150358.580000", "150359.040000", "150359.500000", "150359.960000", "150400.420000", "150400.880000", "150401.340000", "150401.800000", "150402.260000", "150402.720000", "150403.180000", "150403.640000", "150404.100000", "150404.560000", "150405.020000", "150405.480000", "150405.940000", "150406.400000", "150406.860000", "150407.320000", "150407.780000", "150408.240000", "150408.700000", "150409.160000", "150409.620000", "150410.080000", "150410.540000", "150411.000000", "150411.460000", "150411.920000", "150412.380000", "150412.840000", "150413.300000", "150413.760000", "150414.220000", "150414.680000", "150415.140000", "150415.600000", "150416.060000", "150416.520000", "150416.980000", "150417.440000", "150417.900000", "150418.360000", "150418.820000", "150419.280000", "150419.740000", "150420.200000", "150420.660000", "150421.120000", "150421.580000", "150422.040000", "150422.500000", "150422.960000", "150423.420000", "150423.880000", "150424.340000", "150424.800000", "150425.260000", "150425.720000", "150426.180000", "150426.640000", "150427.100000", "150427.560000", "150428.020000", "150428.480000", "150428.940000", "150429.400000", "150429.860000", "150430.320000", "150430.780000", "150431.240000", "150431.700000", "150432.160000", "150432.620000", "150433.080000", "150433.540000", "150434.000000", "150434.460000", "150434.920000", "150435.380000", "150435.840000", "150436.300000", "150436.760000", "150437.220000", "150437.680000", "150438.140000", "150438.600000", "150439.060000", "150439.520000", "150439.980000", "150440.440000", "150440.900000", "150441.360000", "150441.820000", "150442.280000", "150442.740000", "150443.200000", "150443.660000", "150444.120000", "150444.580000", "150445.040000", "150445.500000", "150445.960000", "150446.420000", "150446.880000", "150447.340000", "150447.800000", "150448.260000", "150448.720000", "150449.180000", "150449.640000", "150450.100000", "150450.560000", "150451.020000", "150451.480000", "150451.940000", "150452.400000", "150452.860000", "150453.320000", "150453.780000", "150454.240000", "150454.700000", "150455.160000", "150455.620000", "150456.080000", "150456.540000", "150457.000000", "150457.460000", "150457.920000", "150458.380000", "150458.840000", "150459.300000", "150459.760000", "150500.220000", "150500.680000", "150501.140000", "150501.600000", "150502.060000", "150502.520000", "150502.980000", "150503.440000", "150503.900000", "150504.360000", "150504.820000", "150505.280000", "150505.740000", "150506.200000", "150506.660000", "150507.120000", "150507.580000", "150508.040000", "150508.500000", "150508.960000", "150509.420000", "150509.880000", "150510.340000", "150510.800000", "150511.260000", "150511.720000", "150512.180000", "150512.640000", "150513.100000", "150513.560000", "150514.020000", "150514.480000", "150514.940000", "150515.400000", "150515.860000", "150516.320000", "150516.780000", "150517.240000", "150517.700000", "150518.160000", "150518.620000", "150519.080000", "150519.540000", "150520.000000", "150520.460000", "150520.920000", "150521.380000", "150521.840000", "150522.300000", "150522.760000", "150523.220000", "150523.680000", "150524.140000", "150524.600000", "150525.060000", "150525.520000", "150525.980000", "150526.440000", "150526.900000", "150527.360000", "150527.820000", "150528.280000", "150528.740000", "150529.200000", "150529.660000", "150530.120000", "150530.580000", "150531.040000", "150531.500000", "150531.960000", "150532.420000", "150532.880000", "150533.340000", "150533.800000", "150534.260000", "150534.720000", "150535.180000", "150535.640000", "150536.100000", "150536.560000", "150537.020000", "150537.480000", "150537.940000", "150538.400000", "150538.860000", "150539.320000", "150539.780000", "150540.240000", "150540.700000", "150541.160000", "150541.620000", "150542.080000", "150542.540000", "150543.000000", "150543.460000", "150543.920000", "150544.380000", "150544.840000", "150545.300000", "150545.760000", "150546.220000", "150546.680000", "150547.140000", "150547.600000", "150548.060000", "150548.520000", "150548.980000", "150549.440000", "150549.900000", "150550.360000", "150550.820000", "150551.280000", "150551.740000", "150552.200000", "150552.660000", "150553.120000", "150553.580000", "150554.040000", "150554.500000", "150554.960000", "150555.420000", "150555.880000", "150556.340000", "150556.800000", "150557.260000", "150557.720000", "150558.180000", "150558.640000", "150559.100000", "150559.560000", "150600.020000", "150600.480000", "150600.940000", "150601.400000", "150601.860000", "150602.320000", "150602.780000", "150603.240000", "150603.700000", "150604.160000", "150604.620000", "150605.080000", "150605.540000", "150606.000000", "150606.460000", "150606.920000", "150607.380000", "150607.840000", "150608.300000", "150608.760000", "150609.220000", "150609.680000", "150610.140000", "150610.600000", "150611.060000", "150611.520000", "150611.980000", "150612.440000", "150612.900000", "150613.360000", "150613.820000", "150614.280000", "150614.740000", "150615.200000", "150615.660000", "150616.120000", "150616.580000", "150617.040000", "150617.500000", "150617.960000", "150618.420000", "150618.880000", "150619.340000", "150619.800000", "150620.260000", "150620.720000", "150621.180000", "150621.640000", "150622.100000", "150622.560000", "150623.020000", "150623.480000", "150623.940000", "150624.400000", "150624.860000", "150625.320000", "150625.780000", "150626.240000", "150626.700000", "150627.160000", "150627.620000", "150628.080000", "150628.540000", "150629.000000", "150629.460000", "150629.920000", "150630.380000", "150630.840000", "150631.300000", "150631.760000", "150632.220000", "150632.680000", "150633.140000", "150633.600000", "150634.060000", "150634.520000", "150634.980000", "150635.440000", "150635.900000", "150636.360000", "150636.820000", "150637.280000", "150637.740000", "150638.200000", "150638.660000", "150639.120000", "150639.580000", "150640.040000", "150640.500000", "150640.960000", "150641.420000", "150641.880000", "150642.340000", "150642.800000", "150643.260000", "150643.720000", "150644.180000", "150644.640000", "150645.100000", "150645.560000", "150646.020000", "150646.480000", "150646.940000", "150647.400000", "150647.860000", "150648.320000", "150648.780000", "150649.240000", "150649.700000", "150650.160000", "150650.620000", "150651.080000", "150651.540000", "150652.000000", "150652.460000", "150652.920000", "150653.380000", "150653.840000", "150654.300000", "150654.760000", "150655.220000", "150655.680000", "150656.140000", "150656.600000", "150657.060000", "150657.520000", "150657.980000", "150658.440000", "150658.900000", "150659.360000", "150659.820000", "150700.280000", "150700.740000", "150701.200000", "150701.660000", "150702.120000", "150702.580000", "150703.040000", "150703.500000", "150703.960000", "150704.420000", "150704.880000", "150705.340000", "150705.800000", "150706.260000", "150706.720000", "150707.180000", "150707.640000", "150708.100000", "150708.560000", "150709.020000", "150709.480000", "150709.940000", "150710.400000", "150710.860000", "150711.320000", "150711.780000", "150712.240000", "150712.700000", "150713.160000", "150713.620000", "150714.080000", "150714.540000", "150715.000000", "150715.460000", "150715.920000", "150716.380000", "150716.840000", "150717.300000", "150717.760000", "150718.220000", "150718.680000", "150719.140000", "150719.600000", "150720.060000", "150720.520000", "150720.980000", "150721.440000", "150721.900000", "150722.360000", "150722.820000", "150723.280000", "150723.740000", "150724.200000", "150724.660000", "150725.120000", "150725.580000", "150726.040000", "150726.500000", "150726.960000", "150727.420000", "150727.880000", "150728.340000", "150728.800000", "150729.260000", "150729.720000", "150730.180000", "150730.640000", "150731.100000", "150731.560000", "150732.020000", "150732.480000", "150732.940000", "150733.400000", "150733.860000", "150734.320000", "150734.780000", "150735.240000", "150735.700000", "150736.160000", "150736.620000", "150737.080000", "150737.540000", "150738.000000", "150738.460000", "150738.920000", "150739.380000", "150739.840000", "150740.300000", "150740.760000", "150741.220000", "150741.680000", "150742.140000", "150742.600000", "150743.060000", "150743.520000", "150743.980000", "150744.440000", "150744.900000", "150745.360000", "150745.820000", "150746.280000", "150746.740000", "150747.200000", "150747.660000", "150748.120000", "150748.580000", "150749.040000", "150749.500000", "150749.960000", "150750.420000", "150750.880000", "150751.340000", "150751.800000", "150752.260000", "150752.720000", "150753.180000", "150753.640000", "150754.100000", "150754.560000", "150755.020000", "150755.480000", "150755.940000", "150756.400000", "150756.860000", "150757.320000", "150757.780000", "150758.240000", "150758.700000", "150759.160000", "150759.620000", "150800.080000", "150800.540000", "150801.000000", "150801.460000", "150801.920000", "150802.380000", "150802.840000", "150803.300000", "150803.760000", "150804.220000", "150804.680000", "150805.140000", "150805.600000", "150806.060000", "150806.520000", "150806.980000", "150807.440000", "150807.900000", "150808.360000", "150808.820000", "150809.280000", "150809.740000", "150810.200000", "150810.660000", "150811.120000", "150811.580000", "150812.040000", "150812.500000", "150812.960000", "150813.420000", "150813.880000", "150814.340000", "150814.800000", "150815.260000"],
