{
  "AcquisitionMatrixPE": 82,
  "AcquisitionNumber": 1,
  "AcquisitionTime": "14:03:18.800000",
  "BandwidthPerPixelPhaseEncode": 24.888,
  "BaseResolution": 82,
  "BodyPartExamined": "BRAIN",
  "ConsistencyInfo": "N4_VE11E_LATEST_20181129",
  "ConversionSoftware": "dcm2niix",
  "ConversionSoftwareVersion": "v1.0.20201102",
  "DerivedVendorReportedEchoSpacing": 0.00049,
  "DeviceSerialNumber": "66112",
  "DwellTime": 2e-06,
  "EchoTime": 0.0272,
  "EchoTrainLength": 82,
  "EffectiveEchoSpacing": 0.00049,
  "FlipAngle": 44,
  "ImageComments": "Unaliased MB8/PE3",
  "ImageOrientationPatientDICOM": [0.998118, 0.0249617, 0.0560125, -0.0238705, 0.999514, -0.0200665],
  "ImageType": [
    "ORIGINAL",
    "PRIMARY",
    "M",
    "MB",
    "ND",
    "NORM",
    "MOSAIC"
],
  "ImagingFrequency": 123.259,
  "InPlanePhaseEncodingDirectionDICOM": "COL",
  "InstitutionAddress": "Maynard 3,Hanover,NH,US,03755",
  "InstitutionName": "Dartmouth College - PBS",
  "InstitutionalDepartmentName": "Department",
  "MRAcquisitionType": "2D",
  "MagneticFieldStrength": 3,
  "Manufacturer": "Siemens",
  "ManufacturersModelName": "Prisma",
  "Modality": "MR",
  "MultibandAccelerationFactor": 8,
  "PartialFourier": 1,
  "PatientPosition": "HFS",
  "PercentPhaseFOV": 100,
  "PercentSampling": 100,
  "PhaseEncodingDirection": "j-",
  "PhaseEncodingSteps": 82,
  "PhaseResolution": 1,
  "PixelBandwidth": 3050,
  "ProcedureStepDescription": "Wager_Wager^1076_spacetop",
  "ProtocolName": "func_run-01_task-social_acq-ap-mb8",
  "PulseSequenceDetails": "%CustomerSeq%\\cmrr_mbep2d_bold",
  "ReceiveCoilActiveElements": "HEA;HEP",
  "ReceiveCoilName": "Head_32",
  "ReconMatrixPE": 82,
  "RepetitionTime": 0.46,
  "SAR": 0.0743436,
  "ScanOptions": "FS",
  "ScanningSequence": "EP",
  "SequenceName": "epfid2d1_82",
  "SequenceVariant": "SK\\SS",
  "SeriesDescription": "func_run-01_task-social_acq-ap-mb8",
  "SeriesNumber": 12,
  "ShimSetting": [4234, -7812, -7245, 198, -76, -123, -80, 40],
  "SliceThickness": 2.7,
  "SliceTiming": [0, 0.2525, 0.0625, 0.315, 0.1275, 0.3775, 0.19, 0, 0.2525, 0.0625, 0.315, 0.1275, 0.3775, 0.19, 0, 0.2525, 0.0625, 0.315, 0.1275, 0.3775, 0.19, 0, 0.2525, 0.0625, 0.315, 0.1275, 0.3775, 0.19, 0, 0.2525, 0.0625, 0.315, 0.1275, 0.3775, 0.19, 0, 0.2525, 0.0625, 0.315, 0.1275, 0.3775, 0.19, 0, 0.2525, 0.0625, 0.315, 0.1275, 0.3775, 0.19, 0, 0.2525, 0.0625, 0.315, 0.1275, 0.3775, 0.19],
  "SoftwareVersions": "syngo MR E11",
  "SpacingBetweenSlices": 2.7,
  "StationName": "AWP66112",
  "TaskName": "social",
  "TotalReadoutTime": 0.03969,
  "TxRefAmp": 221.38,
  "WipMemBlock": "450160e8-bac7-4cd5-9f1b-967ab6c0561e||Sequence: R016 ve11e/master r/434b28f1; Aug  7 2019 18:53:46 by eja",
  "dcmmeta_affine": [
    [-2.67787766456604, -0.06404278427362442, 0.15251271426677704, 114.53227233886719],
    [-0.06697037816047668, 2.68162202835083, -0.050467658787965775, -99.66000366210938],
    [0.1502775400876999, 0.05383705720305443, 2.695216655731201, -80.42733764648438],
    [0.0, 0.0, 0.0, 1.0]
],
  "dcmmeta_reorient_transform": [
    [0.0, -1.0, 0.0, 81.0],
    [1.0, 0.0, 0.0, 0.0],
    [0.0, 0.0, 1.0, 0.0],
    [0.0, 0.0, 0.0, 1.0]
],
  "dcmmeta_shape": [82, 82, 56, 872],
  "dcmmeta_slice_dim": 2,
  "dcmmeta_version": 0.6,
  "global": {
    "const": {
      "AccessionNumber": "A004782",
      "AcquisitionMatrix": [82, 0, 0, 82],
      "AngioFlag": "N",
      "BitsAllocated": 16,
      "BitsStored": 16,
      "BodyPartExamined": "BRAIN",
      "Columns": 656,
      "EchoNumbers": 1,
      "EchoTime": 27.2,
      "EchoTrainLength": 82,
      "FlipAngle": 44.0,
      "HighBit": 15,
      "ImageOrientationPatient": [0.99811798393929, 0.02496168624, 0.05601253749853, -0.0238704929894, 0.99951364852654, -0.0200665386553],
      "ImagePositionPatient": [-859.5153925946, -906.39740975498, -103.74495227044],
      "ImageType": [
        "ORIGINAL",
        "PRIMARY",
        "M",
        "MB",
        "ND",
        "NORM",
        "MOSAIC"
],
      "ImagedNucleus": "1H",
      "ImagingFrequency": 123.259095,
      "InPlanePhaseEncodingDirection": "COL",
      "MRAcquisitionType": "2D",
      "MagneticFieldStrength": 3.0,
      "Manufacturer": "SIEMENS",
      "ManufacturerModelName": "Prisma",
      "Modality": "MR",
      "NumberOfAverages": 1.0,
      "NumberOfPhaseEncodingSteps": 82,
      "PercentPhaseFieldOfView": 100.0,
      "PercentSampling": 100.0,
      "PerformedProcedureStepStartTime": "132315.010000",
      "PhotometricInterpretation": "MONOCHROME2",
      "PixelBandwidth": 3050.0,
      "PixelRepresentation": 0,
      "PixelSpacing": [2.6829268932343, 2.6829268932343],
      "ProtocolName": "func_run-01_task-social_acq-ap-mb8",
      "RepetitionTime": 460.0,
      "Rows": 656,
      "SAR": 0.07434360068643,
      "SamplesPerPixel": 1,
      "ScanOptions": "FS",
      "ScanningSequence": "EP",
      "SequenceName": "epfid2d1_82",
      "SequenceVariant": [
        "SK",
        "SS"
],
      "SeriesDescription": "func_run-01_task-social_acq-ap-mb8",
      "SeriesNumber": 12,
      "SeriesTime": "140348.520000",
      "SliceLocation": -71.95253939989,
      "SliceThickness": 2.7000000476837,
      "SmallestImagePixelValue": 0,
      "SoftwareVersions": "syngo MR E11",
      "SpacingBetweenSlices": 2.6999999794273,
      "SpecificCharacterSet": "ISO_IR 100",
      "StudyID": "1",
      "StudyTime": "132314.820000",
      "TransmitCoilName": "Body",
      "VariableFlipAngleFlag": "N",
      "WindowCenterWidthExplanation": "Algo1"
    },
    "slices": {}
  },
  "time": {
    "samples": {
      "AcquisitionNumber": [1, 2, 3, 4, 5, 6, 7, 8, 9, 10, 11, 12, 13, 14, 15, 16, 17, 18, 19, 20, 21, 22, 23, 24, 25, 26, 27, 28, 29, 30, 31, 32, 33, 34, 35, 36, 37, 38, 39, 40, 41, 42, 43, 44, 45, 46, 47, 48, 49, 50, 51, 52, 53, 54, 55, 56, 57, 58, 59, 60, 61, 62, 63, 64, 65, 66, 67, 68, 69, 70, 71, 72, 73, 74, 75, 76, 77, 78, 79, 80, 81, 82, 83, 84, 85, 86, 87, 88, 89, 90, 91, 92, 93, 94, 95, 96, 97, 98, 99, 100, 101, 102, 103, 104, 105, 106, 107, 108, 109, 110, 111, 112, 113, 114, 115, 116, 117, 118, 119, 120, 121, 122, 123, 124, 125, 126, 127, 128, 129, 130, 131, 132, 133, 134, 135, 136, 137, 138, 139, 140, 141, 142, 143, 144, 145, 146, 147, 148, 149, 150, 151, 152, 153, 154, 155, 156, 157, 158, 159, 160, 161, 162, 163, 164, 165, 166, 167, 168, 169, 170, 171, 172, 173, 174, 175, 176, 177, 178, 179, 180, 181, 182, 183, 184, 185, 186, 187, 188, 189, 190, 191, 192, 193, 194, 195, 196, 197, 198, 199, 200, 201, 202, 203, 204, 205, 206, 207, 208, 209, 210, 211, 212, 213, 214, 215, 216, 217, 218, 219, 220, 221, 222, 223, 224, 225, 226, 227, 228, 229, 230, 231, 232, 233, 234, 235, 236, 237, 238, 239, 240, 241, 242, 243, 244, 245, 246, 247, 248, 249, 250, 251, 252, 253, 254, 255, 256, 257, 258, 259, 260, 261, 262, 263, 264, 265, 266, 267, 268, 269, 270, 271, 272, 273, 274, 275, 276, 277, 278, 279, 280, 281, 282, 283, 284, 285, 286, 287, 288, 289, 290, 291, 292, 293, 294, 295, 296, 297, 298, 299, 300, 301, 302, 303, 304, 305, 306, 307, 308, 309, 310, 311, 312, 313, 314, 315, 316, 317, 318, 319, 320, 321, 322, 323, 324, 325, 326, 327, 328, 329, 330, 331, 332, 333, 334, 335, 336, 337, 338, 339, 340, 341, 342, 343, 344, 345, 346, 347, 348, 349, 350, 351, 352, 353, 354, 355, 356, 357, 358, 359, 360, 361, 362, 363, 364, 365, 366, 367, 368, 369, 370, 371, 372, 373, 374, 375, 376, 377, 378, 379, 380, 381, 382, 383, 384, 385, 386, 387, 388, 389, 390, 391, 392, 393, 394, 395, 396, 397, 398, 399, 400, 401, 402, 403, 404, 405, 406, 407, 408, 409, 410, 411, 412, 413, 414, 415, 416, 417, 418, 419, 420, 421, 422, 423, 424, 425, 426, 427, 428, 429, 430, 431, 432, 433, 434, 435, 436, 437, 438, 439, 440, 441, 442, 443, 444, 445, 446, 447, 448, 449, 450, 451, 452, 453, 454, 455, 456, 457, 458, 459, 460, 461, 462, 463, 464, 465, 466, 467, 468, 469, 470, 471, 472, 473, 474, 475, 476, 477, 478, 479, 480, 481, 482, 483, 484, 485, 486, 487, 488, 489, 490, 491, 492, 493, 494, 495, 496, 497, 498, 499, 500, 501, 502, 503, 504, 505, 506, 507, 508, 509, 510, 511, 512, 513, 514, 515, 516, 517, 518, 519, 520, 521, 522, 523, 524, 525, 526, 527, 528, 529, 530, 531, 532, 533, 534, 535, 536, 537, 538, 539, 540, 541, 542, 543, 544, 545, 546, 547, 548, 549, 550, 551, 552, 553, 554, 555, 556, 557, 558, 559, 560, 561, 562, 563, 564, 565, 566, 567, 568, 569, 570, 571, 572, 573, 574, 575, 576, 577, 578, 579, 580, 581, 582, 583, 584, 585, 586, 587, 588, 589, 590, 591, 592, 593, 594, 595, 596, 597, 598, 599, 600, 601, 602, 603, 604, 605, 606, 607, 608, 609, 610, 611, 612, 613, 614, 615, 616, 617, 618, 619, 620, 621, 622, 623, 624, 625, 626, 627, 628, 629, 630, 631, 632, 633, 634, 635, 636, 637, 638, 639, 640, 641, 642, 643, 644, 645, 646, 647, 648, 649, 650, 651, 652, 653, 654, 655, 656, 657, 658, 659, 660, 661, 662, 663, 664, 665, 666, 667, 668, 669, 670, 671, 672, 673, 674, 675, 676, 677, 678, 679, 680, 681, 682, 683, 684, 685, 686, 687, 688, 689, 690, 691, 692, 693, 694, 695, 696, 697, 698, 699, 700, 701, 702, 703, 704, 705, 706, 707, 708, 709, 710, 711, 712, 713, 714, 715, 716, 717, 718, 719, 720, 721, 722, 723, 724, 725, 726, 727, 728, 729, 730, 731, 732, 733, 734, 735, 736, 737, 738, 739, 740, 741, 742, 743, 744, 745, 746, 747, 748, 749, 750, 751, 752, 753, 754, 755, 756, 757, 758, 759, 760, 761, 762, 763, 764, 765, 766, 767, 768, 769, 770, 771, 772, 773, 774, 775, 776, 777, 778, 779, 780, 781, 782, 783, 784, 785, 786, 787, 788, 789, 790, 791, 792, 793, 794, 795, 796, 797, 798, 799, 800, 801, 802, 803, 804, 805, 806, 807, 808, 809, 810, 811, 812, 813, 814, 815, 816, 817, 818, 819, 820, 821, 822, 823, 824, 825, 826, 827, 828, 829, 830, 831, 832, 833, 834, 835, 836, 837, 838, 839, 840, 841, 842, 843, 844, 845, 846, 847, 848, 849, 850, 851, 852, 853, 854, 855, 856, 857, 858, 859, 860, 861, 862, 863, 864, 865, 866, 867, 868, 869, 870, 871, 872],
      "AcquisitionTime": ["140318.800000", "140319.260000", "140319.720000", "140320.180000", "140320.640000", "140321.100000", "140321.560000", "140322.020000", "140322.480000", "140322.940000", "140323.400000", "140323.860000", "140324.320000", "140324.780000", "140325.240000", "140325.700000", "140326.160000", "140326.620000", "140327.080000", "140327.540000", "140328.000000", "140328.460000", "140328.920000", "140329.380000", "140329.840000", "140330.300000", "140330.760000", "140331.220000", "140331.680000", "140332.140000", "140332.600000", "140333.060000", "140333.520000", "140333.980000", "140334.440000", "140334.900000", "140335.360000", "140335.820000", "140336.280000", "140336.740000", "140337.200000", "140337.660000", "140338.120000", "140338.580000", "140339.040000", "140339.500000", "140339.960000", "140340.420000", "140340.880000", "140341.340000", "140341.800000", "140342.260000", "140342.720000", "140343.180000", "140343.640000", "140344.100000", "140344.560000", "140345.020000", "140345.480000", "140345.940000", "140346.400000", "140346.860000", "140347.320000", "140347.780000", "140348.240000", "140348.700000", "140349.160000", "140349.620000", "140350.080000", "140350.540000", "140351.000000", "140351.460000", "140351.920000", "140352.380000", "140352.840000", "140353.300000", "140353.760000", "140354.220000", "140354.680000", "140355.140000", "140355.600000", "140356.060000", "140356.520000", "140356.980000", "140357.440000", "140357.900000", "140358.360000", "140358.820000", "140359.280000", "140359.740000", "140400.200000", "140400.660000", "140401.120000", "140401.580000", "140402.040000", "140402.500000", "140402.960000", "140403.420000", "140403.880000", "140404.340000", "140404.800000", "140405.260000", "140405.720000", "140406.180000", "140406.640000", "140407.100000", "140407.560000", "140408.020000", "140408.480000", "140408.940000", "140409.400000", "140409.860000", "140410.320000", "140410.780000", "140411.240000", "140411.700000", "140412.160000", "140412.620000", "140413.080000", "140413.540000", "140414.000000", "140414.460000", "140414.920000", "140415.380000", "140415.840000", "140416.300000", "140416.760000", "140417.220000", "140417.680000", "140418.140000", "140418.600000", "140419.060000", "140419.520000", "140419.980000", "140420.440000", "140420.900000", "140421.360000", "140421.820000", "140422.280000", "140422.740000", "140423.200000", "140423.660000", "140424.120000", "140424.580000", "140425.040000", "140425.500000", "140425.960000", "140426.420000", "140426.880000", "140427.340000", "140427.800000", "140428.260000", "140428.720000", "140429.180000", "140429.640000", "140430.100000", "140430.560000", "140431.020000", "140431.480000", "140431.940000", "140432.400000", "140432.860000", "140433.320000", "140433.780000", "140434.240000", "140434.700000", "140435.160000", "140435.620000", "140436.080000", "140436.540000", "140437.000000", "140437.460000", "140437.920000", "140438.380000", "140438.840000", "140439.300000", "140439.760000", "140440.220000", "140440.680000", "140441.140000", "140441.600000", "140442.060000", "140442.520000", "140442.980000", "140443.440000", "140443.900000", "140444.360000", "140444.820000", "140445.280000", "140445.740000", "140446.200000", "140446.660000", "140447.120000", "140447.580000", "140448.040000", "140448.500000", "140448.960000", "140449.420000", "140449.880000", "140450.340000", "140450.800000", "140451.260000", "140451.720000", "140452.180000", "140452.640000", "140453.100000", "140453.560000", "140454.020000", "140454.480000", "140454.940000", "140455.400000", "140455.860000", "140456.320000", "140456.780000", "140457.240000", "140457.700000", "140458.160000", "140458.620000", "140459.080000", "140459.540000", "140500.000000", "140500.460000", "140500.920000", "140501.380000", "140501.840000", "140502.300000", "140502.760000", "140503.220000", "140503.680000", "140504.140000", "140504.600000", "140505.060000", "140505.520000", "140505.980000", "140506.440000", "140506.900000", "140507.360000", "140507.820000", "140508.280000", "140508.740000", "140509.200000", "140509.660000", "140510.120000", "140510.580000", "140511.040000", "140511.500000", "140511.960000", "140512.420000", "140512.880000", "140513.340000", "140513.800000", "140514.260000", "140514.720000", "140515.180000", "140515.640000", "140516.100000", "140516.560000", "140517.020000", "140517.480000", "140517.940000", "140518.400000", "140518.860000", "140519.320000", "140519.780000", "140520.240000", "140520.700000", "140521.160000", "140521.620000", "140522.080000", "140522.540000", "140523.000000", "140523.460000", "140523.920000", "140524.380000", "140524.840000", "140525.300000", "140525.760000", "140526.220000", "140526.680000", "140527.140000", "140527.600000", "140528.060000", "140528.520000", "140528.980000", "140529.440000", "140529.900000", "140530.360000", "140530.820000", "140531.280000", "140531.740000", "140532.200000", "140532.660000", "140533.120000", "140533.580000", "140534.040000", "140534.500000", "140534.960000", "140535.420000", "140535.880000", "140536.340000", "140536.800000", "140537.260000", "140537.720000", "140538.180000", "140538.640000", "140539.100000", "140539.560000", "140540.020000", "140540.480000", "140540.940000", "140541.400000", "140541.860000", "140542.320000", "140542.780000", "140543.240000", "140543.700000", "140544.160000", "140544.620000", "140545.080000", "140545.540000", "140546.000000", "140546.460000", "140546.920000", "140547.380000", "140547.840000", "140548.300000", "140548.760000", "140549.220000", "140549.680000", "140550.140000", "140550.600000", "140551.060000", "140551.520000", "140551.980000", "140552.440000", "140552.900000", "140553.360000", "140553.820000", "140554.280000", "140554.740000", "140555.200000", "140555.660000", "140556.120000", "140556.580000", "140557.040000", "140557.500000", "140557.960000", "140558.420000", "140558.880000", "140559.340000", "140559.800000", "140600.260000", "140600.720000", "140601.180000", "140601.640000", "140602.100000", "140602.560000", "140603.020000", "140603.480000", "140603.940000", "140604.400000", "140604.860000", "140605.320000", "140605.780000", "140606.240000", "140606.700000", "140607.160000", "140607.620000", "140608.080000", "140608.540000", "140609.000000", "140609.460000", "140609.920000", "140610.380000", "140610.840000", "140611.300000", "140611.760000", "140612.220000", "140612.680000", "140613.140000", "140613.600000", "140614.060000", "140614.520000", "140614.980000", "140615.440000", "140615.900000", "140616.360000", "140616.820000", "140617.280000", "140617.740000", "140618.200000", "140618.660000", "140619.120000", "140619.580000", "140620.040000", "140620.500000", "140620.960000", "140621.420000", "140621.880000", "140622.340000", "140622.800000", "140623.260000", "140623.720000", "140624.180000", "140624.640000", "140625.100000", "140625.560000", "140626.020000", "140626.480000", "140626.940000", "140627.400000", "140627.860000", "140628.320000", "140628.780000", "140629.240000", "140629.700000", "140630.160000", "140630.620000", "140631.080000", "140631.540000", "140632.000000", "140632.460000", "140632.920000", "140633.380000", "140633.840000", "140634.300000", "140634.760000", "140635.220000", "140635.680000", "140636.140000", "140636.600000", "140637.060000", "140637.520000", "140637.980000", "140638.440000", "140638.900000", "140639.360000", "140639.820000", "140640.280000", "140640.740000", "140641.200000", "140641.660000", "140642.120000", "140642.580000", "140643.040000", "140643.500000", "140643.960000", "140644.420000", "140644.880000", "140645.340000", "140645.800000", "140646.260000", "140646.720000", "140647.180000", "140647.640000", "140648.100000", "140648.560000", "140649.020000", "140649.480000", "140649.940000", "140650.400000", "140650.860000", "140651.320000", "140651.780000", "140652.240000", "140652.700000", "140653.160000", "140653.620000", "140654.080000", "140654.540000", "140655.000000", "140655.460000", "140655.920000", "140656.380000", "140656.840000", "140657.300000", "140657.760000", "140658.220000", "140658.680000", "140659.140000", "140659.600000", "140700.060000", "140700.520000", "140700.980000", "140701.440000", "140701.900000", "140702.360000", "140702.820000", "140703.280000", "140703.740000", "140704.200000", "140704.660000", "140705.120000", "140705.580000", "140706.040000", "140706.500000", "140706.960000", "140707.420000", "140707.880000", "140708.340000", "140708.800000", "140709.260000", "140709.720000", "140710.180000", "140710.640000", "140711.100000", "140711.560000", "140712.020000", "140712.480000", "140712.940000", "140713.400000", "140713.860000", "140714.320000", "140714.780000", "140715.240000", "140715.700000", "140716.160000", "140716.620000", "140717.080000", "140717.540000", "140718.000000", "140718.460000", "140718.920000", "140719.380000", "140719.840000", "140720.300000", "140720.760000", "140721.220000", "140721.680000", "140722.140000", "140722.600000", "140723.060000", "140723.520000", "140723.980000", "140724.440000", "140724.900000", "140725.360000", "140725.820000", "140726.280000", "140726.740000", "140727.200000", "140727.660000", "140728.120000", "140728.580000", "140729.040000", "140729.500000", "140729.960000", "140730.420000", "140730.880000", "140731.340000", "140731.800000", "140732.260000", "140732.720000", "140733.180000", "140733.640000", "140734.100000", "140734.560000", "140735.020000", "140735.480000", "140735.940000", "140736.400000", "140736.860000", "140737.320000", "140737.780000", "140738.240000", "140738.700000", "140739.160000", "140739.620000", "140740.080000", "140740.540000", "140741.000000", "140741.460000", "140741.920000", "140742.380000", "140742.840000", "140743.300000", "140743.760000", "140744.220000", "140744.680000", "140745.140000", "140745.600000", "140746.060000", "140746.520000", "140746.980000", "140747.440000", "140747.900000", "140748.360000", "140748.820000", "140749.280000", "140749.740000", "140750.200000", "140750.660000", "140751.120000", "140751.580000", "140752.040000", "140752.500000", "140752.960000", "140753.420000", "140753.880000", "140754.340000", "140754.800000", "140755.260000", "140755.720000", "140756.180000", "140756.640000", "140757.100000", "140757.560000", "140758.020000", "140758.480000", "140758.940000", "140759.400000", "140759.860000", "140800.320000", "140800.780000", "140801.240000", "140801.700000", "140802.160000", "140802.620000", "140803.080000", "140803.540000", "140804.000000", "140804.460000", "140804.920000", "140805.380000", "140805.840000", "140806.300000", "140806.760000", "140807.220000", "140807.680000", "140808.140000", "140808.600000", "140809.060000", "140809.520000", "140809.980000", "140810.440000", "140810.900000", "140811.360000", "140811.820000", "140812.280000", "140812.740000", "140813.200000", "140813.660000", "140814.120000", "140814.580000", "140815.040000", "140815.500000", "140815.960000", "140816.420000", "140816.880000", "140817.340000", "140817.800000", "140818.260000", "140818.720000", "140819.180000", "140819.640000", "140820.100000", "140820.560000", "140821.020000", "140821.480000", "140821.940000", "140822.400000", "140822.860000", "140823.320000", "140823.780000", "140824.240000", "140824.700000", "140825.160000", "140825.620000", "140826.080000", "140826.540000", "140827.000000", "140827.460000", "140827.920000", "140828.380000", "140828.840000", "140829.300000", "140829.760000", "140830.220000", "140830.680000", "140831.140000", "140831.600000", "140832.060000", "140832.520000", "140832.980000", "140833.440000", "140833.900000", "140834.360000", "140834.820000", "140835.280000", "140835.740000", "140836.200000", "140836.660000", "140837.120000", "140837.580000", "140838.040000", "140838.500000", "140838.960000", "140839.420000", "140839.880000", "140840.340000", "140840.800000", "140841.260000", "140841.720000", "140842.180000", "140842.640000", "140843.100000", "140843.560000", "140844.020000", "140844.480000", "140844.940000", "140845.400000", "140845.860000", "140846.320000", "140846.780000", "140847.240000", "140847.700000", "140848.160000", "140848.620000", "140849.080000", "140849.540000", "140850.000000", "140850.460000", "140850.920000", "140851.380000", "140851.840000", "140852.300000", "140852.760000", "140853.220000", "140853.680000", "140854.140000", "140854.600000", "140855.060000", "140855.520000", "140855.980000", "140856.440000", "140856.900000", "140857.360000", "140857.820000", "140858.280000", "140858.740000", "140859.200000", "140859.660000", "140900.120000", "140900.580000", "140901.040000", "140901.500000", "140901.960000", "140902.420000", "140902.880000", "140903.340000", "140903.800000", "140904.260000", "140904.720000", "140905.180000", "140905.640000", "140906.100000", "140906.560000", "140907.020000", "140907.480000", "140907.940000", "140908.400000", "140908.860000", "140909.320000", "140909.780000", "140910.240000", "140910.700000", "140911.160000", "140911.620000", "140912.080000", "140912.540000", "140913.000000", "140913.460000", "140913.920000", "140914.380000", "140914.840000", "140915.300000", "140915.760000", "140916.220000", "140916.680000", "140917.140000", "140917.600000", "140918.060000", "140918.520000", "140918.980000", "140919.440000", "140919.900000", "140920.360000", "140920.820000", "140921.280000", "140921.740000", "140922.200000", "140922.660000", "140923.120000", "140923.580000", "140924.040000", "140924.500000", "140924.960000", "140925.420000", "140925.880000", "140926.340000", "140926.800000", "140927.260000", "140927.720000", "140928.180000", "140928.640000", "140929.100000", "140929.560000", "140930.020000", "140930.480000", "140930.940000", "140931.400000", "140931.860000", "140932.320000", "140932.780000", "140933.240000", "140933.700000", "140934.160000", "140934.620000", "140935.080000", "140935.540000", "140936.000000", "140936.460000", "140936.920000", "140937.380000", "140937.840000", "140938.300000", "140938.760000", "140939.220000", "140939.680000", "140940.140000", "140940.600000", "140941.060000", "140941.520000", "140941.980000", "140942.440000", "140942.900000", "140943.360000", "140943.820000", "140944.280000", "140944.740000", "140945.200000", "140945.660000", "140946.120000", "140946.580000", "140947.040000", "140947.500000", "140947.960000", "140948.420000", "140948.880000", "140949.340000", "140949.800000", "140950.260000", "140950.720000", "140951.180000", "140951.640000", "140952.100000", "140952.560000", "140953.020000", "140953.480000", "140953.940000", "140954.400000", "140954.860000", "140955.320000", "140955.780000", "140956.240000", "140956.700000", "140957.160000", "140957.620000", "140958.080000", "140958.540000", "140959.000000", "140959.460000"],
