{
  "AcquisitionMatrixPE": 82,
  "AcquisitionNumber": 1,
  "AcquisitionTime": "14:54:11.470000",
  "BandwidthPerPixelPhaseEncode": 24.888,
  "BaseResolution": 82,
  "BodyPartExamined": "BRAIN",
  "ConsistencyInfo": "N4_VE11E_LATEST_20181129",
  "ConversionSoftware": "dcm2niix",
  "ConversionSoftwareVersion": "v1.0.20201102",
  "DerivedVendorReportedEchoSpacing": 0.00049,
  "DeviceSerialNumber": "66112",
  "DwellTime": 2e-06,
  "EchoTime": 0.0272,
  "EchoTrainLength": 82,
  "EffectiveEchoSpacing": 0.00049,
  "FlipAngle": 44,
  "ImageComments": "Unaliased MB8/PE3",
  "ImageOrientationPatientDICOM": [1, 0, 0, 0, 1, 0],
  "ImageType": [
    "ORIGINAL",
    "PRIMARY",
    "M",
    "MB",
    "ND",
    "NORM",
    "MOSAIC"
],
  "ImagingFrequency": 123.252,
  "InPlanePhaseEncodingDirectionDICOM": "COL",
  "InstitutionAddress": "Maynard 3,Hanover,NH,US,03755",
  "InstitutionName": "Dartmouth College - PBS",
  "InstitutionalDepartmentName": "Department",
  "MRAcquisitionType": "2D",
  "MagneticFieldStrength": 3,
  "Manufacturer": "Siemens",
  "ManufacturersModelName": "Prisma",
  "Modality": "MR",
  "MultibandAccelerationFactor": 8,
  "PartialFourier": 1,
  "PatientPosition": "HFS",
  "PercentPhaseFOV": 100,
  "PercentSampling": 100,
  "PhaseEncodingDirection": "j-",
  "PhaseEncodingSteps": 82,
  "PhaseResolution": 1,
  "PixelBandwidth": 3050,
  "ProcedureStepDescription": "Wager_Wager^1076_spacetop",
  "ProtocolName": "func_run-03_task-social_acq-ap-mb8",
  "PulseSequenceDetails": "%CustomerSeq%\\cmrr_mbep2d_bold",
  "ReceiveCoilActiveElements": "HEA;HEP",
  "ReceiveCoilName": "Head_32",
  "ReconMatrixPE": 82,
  "RepetitionTime": 0.46,
  "SAR": 0.0841477,
  "ScanOptions": "FS",
  "ScanningSequence": "EP",
  "SequenceName": "epfid2d1_82",
  "SequenceVariant": "SK\\SS",
  "SeriesDescription": "func_run-03_task-social_acq-ap-mb8",
  "SeriesNumber": 16,
  "ShimSetting": [4166, -7683, -7302, 425, -79, -44, 37, 36],
  "SliceThickness": 2.7,
  "SliceTiming": [0, 0.25, 0.0625, 0.315, 0.125, 0.3775, 0.1875, 0, 0.25, 0.0625, 0.315, 0.125, 0.3775, 0.1875, 0, 0.25, 0.0625, 0.315, 0.125, 0.3775, 0.1875, 0, 0.25, 0.0625, 0.315, 0.125, 0.3775, 0.1875, 0, 0.25, 0.0625, 0.315, 0.125, 0.3775, 0.1875, 0, 0.25, 0.0625, 0.315, 0.125, 0.3775, 0.1875, 0, 0.25, 0.0625, 0.315, 0.125, 0.3775, 0.1875, 0, 0.25, 0.0625, 0.315, 0.125, 0.3775, 0.1875],
  "SoftwareVersions": "syngo MR E11",
  "SpacingBetweenSlices": 2.7,
  "StationName": "AWP66112",
  "TaskName": "social",
  "TotalReadoutTime": 0.03969,
  "TxRefAmp": 230.02,
  "WipMemBlock": "5f509171-df31-49c4-bafd-d700ceeaea68||Sequence: R016 ve11e/master r/434b28f1; Aug  7 2019 18:53:46 by eja",
  "dcmmeta_affine": [
    [-2.682926893234253, 0.0, 0.0, 110.0],
    [0.0, 2.682926893234253, 0.0, -81.07707977294922],
    [0.0, 0.0, 2.700000047683716, -90.25],
    [0.0, 0.0, 0.0, 1.0]
],
  "dcmmeta_reorient_transform": [
    [0.0, -1.0, 0.0, 81.0],
    [1.0, 0.0, 0.0, 0.0],
    [0.0, 0.0, 1.0, 0.0],
    [0.0, 0.0, 0.0, 1.0]
],
  "dcmmeta_shape": [82, 82, 56, 872],
  "dcmmeta_slice_dim": 2,
  "dcmmeta_version": 0.6,
  "global": {
    "const": {
      "AccessionNumber": "A004004",
      "AcquisitionMatrix": [82, 0, 0, 82],
      "AngioFlag": "N",
      "BitsAllocated": 16,
      "BitsStored": 16,
      "BodyPartExamined": "BRAIN",
      "Columns": 656,
      "EchoNumbers": 1,
      "EchoTime": 27.2,
      "EchoTrainLength": 82,
      "FlipAngle": 44.0,
      "HighBit": 15,
      "ImageOrientationPatient": [1.0, 0.0, 0.0, 0.0, 1.0, 0.0],
      "ImagePositionPatient": [-880.00002098083, -906.24002075195, -90.25],
      "ImageType": [
        "ORIGINAL",
        "PRIMARY",
        "M",
        "MB",
        "ND",
        "NORM",
        "MOSAIC"
],
      "ImagedNucleus": "1H",
      "ImagingFrequency": 123.252242,
      "InPlanePhaseEncodingDirection": "COL",
      "MRAcquisitionType": "2D",
      "MagneticFieldStrength": 3.0,
      "Manufacturer": "SIEMENS",
      "ManufacturerModelName": "Prisma",
      "Modality": "MR",
      "NumberOfAverages": 1.0,
      "NumberOfPhaseEncodingSteps": 82,
      "PercentPhaseFieldOfView": 100.0,
      "PercentSampling": 100.0,
      "PerformedProcedureStepStartTime": "132337.871000",
      "PhotometricInterpretation": "MONOCHROME2",
      "PixelBandwidth": 3050.0,
      "PixelRepresentation": 0,
      "PixelSpacing": [2.6829268932343, 2.6829268932343],
      "ProtocolName": "func_run-03_task-social_acq-ap-mb8",
      "RepetitionTime": 460.0,
      "Rows": 656,
      "SAR": 0.08414769684,
      "SamplesPerPixel": 1,
      "ScanOptions": "FS",
      "ScanningSequence": "EP",
      "SequenceName": "epfid2d1_82",
      "SequenceVariant": [
        "SK",
        "SS"
],
      "SeriesDescription": "func_run-03_task-social_acq-ap-mb8",
      "SeriesNumber": 16,
      "SeriesTime": "145428.560000",
      "SliceLocation": -90.25,
      "SliceThickness": 2.7000000476837,
      "SmallestImagePixelValue": 0,
      "SoftwareVersions": "syngo MR E11",
      "SpacingBetweenSlices": 2.7,
      "SpecificCharacterSet": "ISO_IR 100",
      "StudyID": "1",
      "StudyTime": "132337.800000",
      "TransmitCoilName": "Body",
      "VariableFlipAngleFlag": "N",
      "WindowCenterWidthExplanation": "Algo1"
    },
    "slices": {}
  },
  "time": {
    "samples": {
      "AcquisitionNumber": [1, 2, 3, 4, 5, 6, 7, 8, 9, 10, 11, 12, 13, 14, 15, 16, 17, 18, 19, 20, 21, 22, 23, 24, 25, 26, 27, 28, 29, 30, 31, 32, 33, 34, 35, 36, 37, 38, 39, 40, 41, 42, 43, 44, 45, 46, 47, 48, 49, 50, 51, 52, 53, 54, 55, 56, 57, 58, 59, 60, 61, 62, 63, 64, 65, 66, 67, 68, 69, 70, 71, 72, 73, 74, 75, 76, 77, 78, 79, 80, 81, 82, 83, 84, 85, 86, 87, 88, 89, 90, 91, 92, 93, 94, 95, 96, 97, 98, 99, 100, 101, 102, 103, 104, 105, 106, 107, 108, 109, 110, 111, 112, 113, 114, 115, 116, 117, 118, 119, 120, 121, 122, 123, 124, 125, 126, 127, 128, 129, 130, 131, 132, 133, 134, 135, 136, 137, 138, 139, 140, 141, 142, 143, 144, 145, 146, 147, 148, 149, 150, 151, 152, 153, 154, 155, 156, 157, 158, 159, 160, 161, 162, 163, 164, 165, 166, 167, 168, 169, 170, 171, 172, 173, 174, 175, 176, 177, 178, 179, 180, 181, 182, 183, 184, 185, 186, 187, 188, 189, 190, 191, 192, 193, 194, 195, 196, 197, 198, 199, 200, 201, 202, 203, 204, 205, 206, 207, 208, 209, 210, 211, 212, 213, 214, 215, 216, 217, 218, 219, 220, 221, 222, 223, 224, 225, 226, 227, 228, 229, 230, 231, 232, 233, 234, 235, 236, 237, 238, 239, 240, 241, 242, 243, 244, 245, 246, 247, 248, 249, 250, 251, 252, 253, 254, 255, 256, 257, 258, 259, 260, 261, 262, 263, 264, 265, 266, 267, 268, 269, 270, 271, 272, 273, 274, 275, 276, 277, 278, 279, 280, 281, 282, 283, 284, 285, 286, 287, 288, 289, 290, 291, 292, 293, 294, 295, 296, 297, 298, 299, 300, 301, 302, 303, 304, 305, 306, 307, 308, 309, 310, 311, 312, 313, 314, 315, 316, 317, 318, 319, 320, 321, 322, 323, 324, 325, 326, 327, 328, 329, 330, 331, 332, 333, 334, 335, 336, 337, 338, 339, 340, 341, 342, 343, 344, 345, 346, 347, 348, 349, 350, 351, 352, 353, 354, 355, 356, 357, 358, 359, 360, 361, 362, 363, 364, 365, 366, 367, 368, 369, 370, 371, 372, 373, 374, 375, 376, 377, 378, 379, 380, 381, 382, 383, 384, 385, 386, 387, 388, 389, 390, 391, 392, 393, 394, 395, 396, 397, 398, 399, 400, 401, 402, 403, 404, 405, 406, 407, 408, 409, 410, 411, 412, 413, 414, 415, 416, 417, 418, 419, 420, 421, 422, 423, 424, 425, 426, 427, 428, 429, 430, 431, 432, 433, 434, 435, 436, 437, 438, 439, 440, 441, 442, 443, 444, 445, 446, 447, 448, 449, 450, 451, 452, 453, 454, 455, 456, 457, 458, 459, 460, 461, 462, 463, 464, 465, 466, 467, 468, 469, 470, 471, 472, 473, 474, 475, 476, 477, 478, 479, 480, 481, 482, 483, 484, 485, 486, 487, 488, 489, 490, 491, 492, 493, 494, 495, 496, 497, 498, 499, 500, 501, 502, 503, 504, 505, 506, 507, 508, 509, 510, 511, 512, 513, 514, 515, 516, 517, 518, 519, 520, 521, 522, 523, 524, 525, 526, 527, 528, 529, 530, 531, 532, 533, 534, 535, 536, 537, 538, 539, 540, 541, 542, 543, 544, 545, 546, 547, 548, 549, 550, 551, 552, 553, 554, 555, 556, 557, 558, 559, 560, 561, 562, 563, 564, 565, 566, 567, 568, 569, 570, 571, 572, 573, 574, 575, 576, 577, 578, 579, 580, 581, 582, 583, 584, 585, 586, 587, 588, 589, 590, 591, 592, 593, 594, 595, 596, 597, 598, 599, 600, 601, 602, 603, 604, 605, 606, 607, 608, 609, 610, 611, 612, 613, 614, 615, 616, 617, 618, 619, 620, 621, 622, 623, 624, 625, 626, 627, 628, 629, 630, 631, 632, 633, 634, 635, 636, 637, 638, 639, 640, 641, 642, 643, 644, 645, 646, 647, 648, 649, 650, 651, 652, 653, 654, 655, 656, 657, 658, 659, 660, 661, 662, 663, 664, 665, 666, 667, 668, 669, 670, 671, 672, 673, 674, 675, 676, 677, 678, 679, 680, 681, 682, 683, 684, 685, 686, 687, 688, 689, 690, 691, 692, 693, 694, 695, 696, 697, 698, 699, 700, 701, 702, 703, 704, 705, 706, 707, 708, 709, 710, 711, 712, 713, 714, 715, 716, 717, 718, 719, 720, 721, 722, 723, 724, 725, 726, 727, 728, 729, 730, 731, 732, 733, 734, 735, 736, 737, 738, 739, 740, 741, 742, 743, 744, 745, 746, 747, 748, 749, 750, 751, 752, 753, 754, 755, 756, 757, 758, 759, 760, 761, 762, 763, 764, 765, 766, 767, 768, 769, 770, 771, 772, 773, 774, 775, 776, 777, 778, 779, 780, 781, 782, 783, 784, 785, 786, 787, 788, 789, 790, 791, 792, 793, 794, 795, 796, 797, 798, 799, 800, 801, 802, 803, 804, 805, 806, 807, 808, 809, 810, 811, 812, 813, 814, 815, 816, 817, 818, 819, 820, 821, 822, 823, 824, 825, 826, 827, 828, 829, 830, 831, 832, 833, 834, 835, 836, 837, 838, 839, 840, 841, 842, 843, 844, 845, 846, 847, 848, 849, 850, 851, 852, 853, 854, 855, 856, 857, 858, 859, 860, 861, 862, 863, 864, 865, 866, 867, 868, 869, 870, 871, 872],
      "AcquisitionTime": ["145411.470000", "145411.930000", "145412.390000", "145412.850000", "145413.310000", "145413.770000", "145414.230000", "145414.690000", "145415.150000", "145415.610000", "145416.070000", "145416.530000", "145416.990000", "145417.450000", "145417.910000", "145418.370000", "145418.830000", "145419.290000", "145419.750000", "145420.210000", "145420.670000", "145421.130000", "145421.590000", "145422.050000", "145422.510000", "145422.970000", "145423.430000", "145423.890000", "145424.350000", "145424.810000", "145425.270000", "145425.730000", "145426.190000", "145426.650000", "145427.110000", "145427.570000", "145428.030000", "145428.490000", "145428.950000", "145429.410000", "145429.870000", "145430.330000", "145430.790000", "145431.250000", "145431.710000", "145432.170000", "145432.630000", "145433.090000", "145433.550000", "145434.010000", "145434.470000", "145434.930000", "145435.390000", "145435.850000", "145436.310000", "145436.770000", "145437.230000", "145437.690000", "145438.150000", "145438.610000", "145439.070000", "145439.530000", "145439.990000", "145440.450000", "145440.910000", "145441.370000", "145441.830000", "145442.290000", "145442.750000", "145443.210000", "145443.670000", "145444.130000", "145444.590000", "145445.050000", "145445.510000", "145445.970000", "145446.430000", "145446.890000", "145447.350000", "145447.810000", "145448.270000", "145448.730000", "145449.190000", "145449.650000", "145450.110000", "145450.570000", "145451.030000", "145451.490000", "145451.950000", "145452.410000", "145452.870000", "145453.330000", "145453.790000", "145454.250000", "145454.710000", "145455.170000", "145455.630000", "145456.090000", "145456.550000", "145457.010000", "145457.470000", "145457.930000", "145458.390000", "145458.850000", "145459.310000", "145459.770000", "145500.230000", "145500.690000", "145501.150000", "145501.610000", "145502.070000", "145502.530000", "145502.990000", "145503.450000", "145503.910000", "145504.370000", "145504.830000", "145505.290000", "145505.750000", "145506.210000", "145506.670000", "145507.130000", "145507.590000", "145508.050000", "145508.510000", "145508.970000", "145509.430000", "145509.890000", "145510.350000", "145510.810000", "145511.270000", "145511.730000", "145512.190000", "145512.650000", "145513.110000", "145513.570000", "145514.030000", "145514.490000", "145514.950000", "145515.410000", "145515.870000", "145516.330000", "145516.790000", "145517.250000", "145517.710000", "145518.170000", "145518.630000", "145519.090000", "145519.550000", "145520.010000", "145520.470000", "145520.930000", "145521.390000", "145521.850000", "145522.310000", "145522.770000", "145523.230000", "145523.690000", "145524.150000", "145524.610000", "145525.070000", "145525.530000", "145525.990000", "145526.450000", "145526.910000", "145527.370000", "145527.830000", "145528.290000", "145528.750000", "145529.210000", "145529.670000", "145530.130000", "145530.590000", "145531.050000", "145531.510000", "145531.970000", "145532.430000", "145532.890000", "145533.350000", "145533.810000", "145534.270000", "145534.730000", "145535.190000", "145535.650000", "145536.110000", "145536.570000", "145537.030000", "145537.490000", "145537.950000", "145538.410000", "145538.870000", "145539.330000", "145539.790000", "145540.250000", "145540.710000", "145541.170000", "145541.630000", "145542.090000", "145542.550000", "145543.010000", "145543.470000", "145543.930000", "145544.390000", "145544.850000", "145545.310000", "145545.770000", "145546.230000", "145546.690000", "145547.150000", "145547.610000", "145548.070000", "145548.530000", "145548.990000", "145549.450000", "145549.910000", "145550.370000", "145550.830000", "145551.290000", "145551.750000", "145552.210000", "145552.670000", "145553.130000", "145553.590000", "145554.050000", "145554.510000", "145554.970000", "145555.430000", "145555.890000", "145556.350000", "145556.810000", "145557.270000", "145557.730000", "145558.190000", "145558.650000", "145559.110000", "145559.570000", "145600.030000", "145600.490000", "145600.950000", "145601.410000", "145601.870000", "145602.330000", "145602.790000", "145603.250000", "145603.710000", "145604.170000", "145604.630000", "145605.090000", "145605.550000", "145606.010000", "145606.470000", "145606.930000", "145607.390000", "145607.850000", "145608.310000", "145608.770000", "145609.230000", "145609.690000", "145610.150000", "145610.610000", "145611.070000", "145611.530000", "145611.990000", "145612.450000", "145612.910000", "145613.370000", "145613.830000", "145614.290000", "145614.750000", "145615.210000", "145615.670000", "145616.130000", "145616.590000", "145617.050000", "145617.510000", "145617.970000", "145618.430000", "145618.890000", "145619.350000", "145619.810000", "145620.270000", "145620.730000", "145621.190000", "145621.650000", "145622.110000", "145622.570000", "145623.030000", "145623.490000", "145623.950000", "145624.410000", "145624.870000", "145625.330000", "145625.790000", "145626.250000", "145626.710000", "145627.170000", "145627.630000", "145628.090000", "145628.550000", "145629.010000", "145629.470000", "145629.930000", "145630.390000", "145630.850000", "145631.310000", "145631.770000", "145632.230000", "145632.690000", "145633.150000", "145633.610000", "145634.070000", "145634.530000", "145634.990000", "145635.450000", "145635.910000", "145636.370000", "145636.830000", "145637.290000", "145637.750000", "145638.210000", "145638.670000", "145639.130000", "145639.590000", "145640.050000", "145640.510000", "145640.970000", "145641.430000", "145641.890000", "145642.350000", "145642.810000", "145643.270000", "145643.730000", "145644.190000", "145644.650000", "145645.110000", "145645.570000", "145646.030000", "145646.490000", "145646.950000", "145647.410000", "145647.870000", "145648.330000", "145648.790000", "145649.250000", "145649.710000", "145650.170000", "145650.630000", "145651.090000", "145651.550000", "145652.010000", "145652.470000", "145652.930000", "145653.390000", "145653.850000", "145654.310000", "145654.770000", "145655.230000", "145655.690000", "145656.150000", "145656.610000", "145657.070000", "145657.530000", "145657.990000", "145658.450000", "145658.910000", "145659.370000", "145659.830000", "145700.290000", "145700.750000", "145701.210000", "145701.670000", "145702.130000", "145702.590000", "145703.050000", "145703.510000", "145703.970000", "145704.430000", "145704.890000", "145705.350000", "145705.810000", "145706.270000", "145706.730000", "145707.190000", "145707.650000", "145708.110000", "145708.570000", "145709.030000", "145709.490000", "145709.950000", "145710.410000", "145710.870000", "145711.330000", "145711.790000", "145712.250000", "145712.710000", "145713.170000", "145713.630000", "145714.090000", "145714.550000", "145715.010000", "145715.470000", "145715.930000", "145716.390000", "145716.850000", "145717.310000", "145717.770000", "145718.230000", "145718.690000", "145719.150000", "145719.610000", "145720.070000", "145720.530000", "145720.990000", "145721.450000", "145721.910000", "145722.370000", "145722.830000", "145723.290000", "145723.750000", "145724.210000", "145724.670000", "145725.130000", "145725.590000", "145726.050000", "145726.510000", "145726.970000", "145727.430000", "145727.890000", "145728.350000", "145728.810000", "145729.270000", "145729.730000", "145730.190000", "145730.650000", "145731.110000", "145731.570000", "145732.030000", "145732.490000", "145732.950000", "145733.410000", "145733.870000", "145734.330000", "145734.790000", "145735.250000", "145735.710000", "145736.170000", "145736.630000", "145737.090000", "145737.550000", "145738.010000", "145738.470000", "145738.930000", "145739.390000", "145739.850000", "145740.310000", "145740.770000", "145741.230000", "145741.690000", "145742.150000", "145742.610000", "145743.070000", "145743.530000", "145743.990000", "145744.450000", "145744.910000", "145745.370000", "145745.830000", "145746.290000", "145746.750000", "145747.210000", "145747.670000", "145748.130000", "145748.590000", "145749.050000", "145749.510000", "145749.970000", "145750.430000", "145750.890000", "145751.350000", "145751.810000", "145752.270000", "145752.730000", "145753.190000", "145753.650000", "145754.110000", "145754.570000", "145755.030000", "145755.490000", "145755.950000", "145756.410000", "145756.870000", "145757.330000", "145757.790000", "145758.250000", "145758.710000", "145759.170000", "145759.630000", "145800.090000", "145800.550000", "145801.010000", "145801.470000", "145801.930000", "145802.390000", "145802.850000", "145803.310000", "145803.770000", "145804.230000", "145804.690000", "145805.150000", "145805.610000", "145806.070000", "145806.530000", "145806.990000", "145807.450000", "145807.910000", "145808.370000", "145808.830000", "145809.290000", "145809.750000", "145810.210000", "145810.670000", "145811.130000", "145811.590000", "145812.050000", "145812.510000", "145812.970000", "145813.430000", "145813.890000", "145814.350000", "145814.810000", "145815.270000", "145815.730000", "145816.190000", "145816.650000", "145817.110000", "145817.570000", "145818.030000", "145818.490000", "145818.950000", "145819.410000", "145819.870000", "145820.330000", "145820.790000", "145821.250000", "145821.710000", "145822.170000", "145822.630000", "145823.090000", "145823.550000", "145824.010000", "145824.470000", "145824.930000", "145825.390000", "145825.850000", "145826.310000", "145826.770000", "145827.230000", "145827.690000", "145828.150000", "145828.610000", "145829.070000", "145829.530000", "145829.990000", "145830.450000", "145830.910000", "145831.370000", "145831.830000", "145832.290000", "145832.750000", "145833.210000", "145833.670000", "145834.130000", "145834.590000", "145835.050000", "145835.510000", "145835.970000", "145836.430000", "145836.890000", "145837.350000", "145837.810000", "145838.270000", "145838.730000", "145839.190000", "145839.650000", "145840.110000", "145840.570000", "145841.030000", "145841.490000", "145841.950000", "145842.410000", "145842.870000", "145843.330000", "145843.790000", "145844.250000", "145844.710000", "145845.170000", "145845.630000", "145846.090000", "145846.550000", "145847.010000", "145847.470000", "145847.930000", "145848.390000", "145848.850000", "145849.310000", "145849.770000", "145850.230000", "145850.690000", "145851.150000", "145851.610000", "145852.070000", "145852.530000", "145852.990000", "145853.450000", "145853.910000", "145854.370000", "145854.830000", "145855.290000", "145855.750000", "145856.210000", "145856.670000", "145857.130000", "145857.590000", "145858.050000", "145858.510000", "145858.970000", "145859.430000", "145859.890000", "145900.350000", "145900.810000", "145901.270000", "145901.730000", "145902.190000", "145902.650000", "145903.110000", "145903.570000", "145904.030000", "145904.490000", "145904.950000", "145905.410000", "145905.870000", "145906.330000", "145906.790000", "145907.250000", "145907.710000", "145908.170000", "145908.630000", "145909.090000", "145909.550000", "145910.010000", "145910.470000", "145910.930000", "145911.390000", "145911.850000", "145912.310000", "145912.770000", "145913.230000", "145913.690000", "145914.150000", "145914.610000", "145915.070000", "145915.530000", "145915.990000", "145916.450000", "145916.910000", "145917.370000", "145917.830000", "145918.290000", "145918.750000", "145919.210000", "145919.670000", "145920.130000", "145920.590000", "145921.050000", "145921.510000", "145921.970000", "145922.430000", "145922.890000", "145923.350000", "145923.810000", "145924.270000", "145924.730000", "145925.190000", "145925.650000", "145926.110000", "145926.570000", "145927.030000", "145927.490000", "145927.950000", "145928.410000", "145928.870000", "145929.330000", "145929.790000", "145930.250000", "145930.710000", "145931.170000", "145931.630000", "145932.090000", "145932.550000", "145933.010000", "145933.470000", "145933.930000", "145934.390000", "145934.850000", "145935.310000", "145935.770000", "145936.230000", "145936.690000", "145937.150000", "145937.610000", "145938.070000", "145938.530000", "145938.990000", "145939.450000", "145939.910000", "145940.370000", "145940.830000", "145941.290000", "145941.750000", "145942.210000", "145942.670000", "145943.130000", "145943.590000", "145944.050000", "145944.510000", "145944.970000", "145945.430000", "145945.890000", "145946.350000", "145946.810000", "145947.270000", "145947.730000", "145948.190000", "145948.650000", "145949.110000", "145949.570000", "145950.030000", "145950.490000", "145950.950000", "145951.410000", "145951.870000", "145952.330000", "145952.790000", "145953.250000", "145953.710000", "145954.170000", "145954.630000", "145955.090000", "145955.550000", "145956.010000", "145956.470000", "145956.930000", "145957.390000", "145957.850000", "145958.310000", "145958.770000", "145959.230000", "145959.690000", "150000.150000", "150000.610000", "150001.070000", "150001.530000", "150001.990000", "150002.450000", "150002.910000", "150003.370000", "150003.830000", "150004.290000", "150004.750000", "150005.210000", "150005.670000", "150006.130000", "150006.590000", "150007.050000", "150007.510000", "150007.970000", "150008.430000", "150008.890000", "150009.350000", "150009.810000", "150010.270000", "150010.730000", "150011.190000", "150011.650000", "150012.110000", "150012.570000", "150013.030000", "150013.490000", "150013.950000", "150014.410000", "150014.870000", "150015.330000", "150015.790000", "150016.250000", "150016.710000", "150017.170000", "150017.630000", "150018.090000", "150018.550000", "150019.010000", "150019.470000", "150019.930000", "150020.390000", "150020.850000", "150021.310000", "150021.770000", "150022.230000", "150022.690000", "150023.150000", "150023.610000", "150024.070000", "150024.530000", "150024.990000", "150025.450000", "150025.910000", "150026.370000", "150026.830000", "150027.290000", "150027.750000", "150028.210000", "150028.670000", "150029.130000", "150029.590000", "150030.050000", "150030.510000", "150030.970000", "150031.430000", "150031.890000", "150032.350000", "150032.810000", "150033.270000", "150033.730000", "150034.190000", "150034.650000", "150035.110000", "150035.570000", "150036.030000", "150036.490000", "150036.950000", "150037.410000", "150037.870000", "150038.330000", "150038.790000", "150039.250000", "150039.710000", "150040.170000", "150040.630000", "150041.090000", "150041.550000", "150042.010000", "150042.470000", "150042.930000", "150043.390000", "150043.850000", "150044.310000", "150044.770000", "150045.230000", "150045.690000", "150046.150000", "150046.610000", "150047.070000", "150047.530000", "150047.990000", "150048.450000", "150048.910000", "150049.370000", "150049.830000", "150050.290000", "150050.750000", "150051.210000", "150051.670000", "150052.130000"],
