{
  "AcquisitionMatrixPE": 82,
  "AcquisitionNumber": 1,
  "AcquisitionTime": "09:41:28.095000",
  "BandwidthPerPixelPhaseEncode": 24.888,
  "BaseResolution": 82,
  "BodyPartExamined": "BRAIN",
  "ConsistencyInfo": "N4_VE11E_LATEST_20181129",
  "ConversionSoftware": "dcm2niix",
  "ConversionSoftwareVersion": "v1.0.20201102",
  "DerivedVendorReportedEchoSpacing": 0.00049,
  "DeviceSerialNumber": "66112",
  "DwellTime": 2e-06,
  "EchoTime": 0.0272,
  "EchoTrainLength": 82,
  "EffectiveEchoSpacing": 0.00049,
  "FlipAngle": 44,
  "ImageComments": "Unaliased MB8/PE3",
  "ImageOrientationPatientDICOM": [0.99593, -0.022364, -0.0873077, 0.0140805, 0.995438, -0.0943647],
  "ImageType": [
    "ORIGINAL",
    "PRIMARY",
    "M",
    "MB",
    "ND",
    "NORM",
    "MOSAIC"
],
  "ImagingFrequency": 123.259,
  "InPlanePhaseEncodingDirectionDICOM": "COL",
  "InstitutionAddress": "Maynard 3,Hanover,NH,US,03755",
  "InstitutionName": "Dartmouth College - PBS",
  "InstitutionalDepartmentName": "Department",
  "MRAcquisitionType": "2D",
  "MagneticFieldStrength": 3,
  "Manufacturer": "Siemens",
  "ManufacturersModelName": "Prisma",
  "Modality": "MR",
  "MultibandAccelerationFactor": 8,
  "PartialFourier": 1,
  "PatientPosition": "HFS",
  "PercentPhaseFOV": 100,
  "PercentSampling": 100,
  "PhaseEncodingDirection": "j-",
  "PhaseEncodingSteps": 82,
  "PhaseResolution": 1,
  "PixelBandwidth": 3050,
  "ProcedureStepDescription": "Wager_Wager^1076_spacetop",
  "ProtocolName": "func_run-01_task-narratives_acq-ap-mb8",
  "PulseSequenceDetails": "%CustomerSeq%\\cmrr_mbep2d_bold",
  "ReceiveCoilActiveElements": "HEA;HEP",
  "ReceiveCoilName": "Head_32",
  "ReconMatrixPE": 82,
  "RepetitionTime": 0.46,
  "SAR": 0.0974549,
  "ScanOptions": "FS",
  "ScanningSequence": "EP",
  "SequenceName": "epfid2d1_82",
  "SequenceVariant": "SK\\SS",
  "SeriesDescription": "func_run-01_task-narratives_acq-ap-mb8",
  "SeriesNumber": 8,
  "ShimSetting": [4209, -7782, -7294, 217, -102, -81, -99, 137],
  "SliceThickness": 2.7,
  "SliceTiming": [0, 0.25, 0.0625, 0.3125, 0.125, 0.3775, 0.1875, 0, 0.25, 0.0625, 0.3125, 0.125, 0.3775, 0.1875, 0, 0.25, 0.0625, 0.3125, 0.125, 0.3775, 0.1875, 0, 0.25, 0.0625, 0.3125, 0.125, 0.3775, 0.1875, 0, 0.25, 0.0625, 0.3125, 0.125, 0.3775, 0.1875, 0, 0.25, 0.0625, 0.3125, 0.125, 0.3775, 0.1875, 0, 0.25, 0.0625, 0.3125, 0.125, 0.3775, 0.1875, 0, 0.25, 0.0625, 0.3125, 0.125, 0.3775, 0.1875],
  "SoftwareVersions": "syngo MR E11",
  "SpacingBetweenSlices": 2.7,
  "StationName": "AWP66112",
  "TaskName": "narratives",
  "TotalReadoutTime": 0.03969,
  "TxRefAmp": 255.075,
  "WipMemBlock": "19dc34bf-ad6c-43e1-a027-8291a517042f||Sequence: R016 ve11e/master r/434b28f1; Aug  7 2019 18:53:46 by eja",
  "dcmmeta_affine": [
    [-2.6720082759857178, 0.037777043879032135, -0.2403535544872284, 116.93028259277344],
    [0.06000104546546936, 2.670687675476074, -0.2504286766052246, -95.27086639404297],
    [-0.23424029350280762, 0.25317367911338806, 2.6775951385498047, -82.20867156982422],
    [0.0, 0.0, 0.0, 1.0]
],
  "dcmmeta_reorient_transform": [
    [0.0, -1.0, 0.0, 81.0],
    [1.0, 0.0, 0.0, 0.0],
    [0.0, 0.0, 1.0, 0.0],
    [0.0, 0.0, 0.0, 1.0]
],
  "dcmmeta_shape": [82, 82, 56, 967],
  "dcmmeta_slice_dim": 2,
  "dcmmeta_version": 0.6,
  "global": {
    "const": {
      "AccessionNumber": "A004357",
      "AcquisitionMatrix": [82, 0, 0, 82],
      "AngioFlag": "N",
      "BitsAllocated": 16,
      "BitsStored": 16,
      "BodyPartExamined": "BRAIN",
      "Columns": 656,
      "EchoNumbers": 1,
      "EchoTime": 27.2,
      "EchoTrainLength": 82,
      "FlipAngle": 44.0,
      "HighBit": 15,
      "ImageOrientationPatient": [0.99593032294551, -0.0223640252368, -0.0873077442892, 0.01408053461961, 0.99543811276556, -0.0943647296322],
      "ImagePositionPatient": [-897.69860153634, -870.32190197335, 78.186203469894],
      "ImageType": [
        "ORIGINAL",
        "PRIMARY",
        "M",
        "MB",
        "ND",
        "NORM",
        "MOSAIC"
],
      "ImagedNucleus": "1H",
      "ImagingFrequency": 123.259062,
      "InPlanePhaseEncodingDirection": "COL",
      "MRAcquisitionType": "2D",
      "MagneticFieldStrength": 3.0,
      "Manufacturer": "SIEMENS",
      "ManufacturerModelName": "Prisma",
      "Modality": "MR",
      "NumberOfAverages": 1.0,
      "NumberOfPhaseEncodingSteps": 82,
      "PercentPhaseFieldOfView": 100.0,
      "PercentSampling": 100.0,
      "PerformedProcedureStepStartTime": "092303.821000",
      "PhotometricInterpretation": "MONOCHROME2",
      "PixelBandwidth": 3050.0,
      "PixelRepresentation": 0,
      "PixelSpacing": [2.6829268932343, 2.6829268932343],
      "ProtocolName": "func_run-01_task-narratives_acq-ap-mb8",
      "RepetitionTime": 460.0,
      "Rows": 656,
      "SAR": 0.0974548812806,
      "SamplesPerPixel": 1,
      "ScanOptions": "FS",
      "ScanningSequence": "EP",
      "SequenceName": "epfid2d1_82",
      "SequenceVariant": [
        "SK",
        "SS"
],
      "SeriesDescription": "func_run-01_task-narratives_acq-ap-mb8",
      "SeriesNumber": 8,
      "SeriesTime": "094147.199000",
      "SliceLocation": -83.09910824864,
      "SliceThickness": 2.7000000476837,
      "SmallestImagePixelValue": 0,
      "SoftwareVersions": "syngo MR E11",
      "SpacingBetweenSlices": 2.7000001160758,
      "SpecificCharacterSet": "ISO_IR 100",
      "StudyID": "2",
      "StudyTime": "092303.606000",
      "TransmitCoilName": "Body",
      "VariableFlipAngleFlag": "N",
      "WindowCenterWidthExplanation": "Algo1"
    },
    "slices": {}
  },
  "time": {
    "samples": {
      "AcquisitionNumber": [1, 2, 3, 4, 5, 6, 7, 8, 9, 10, 11, 12, 13, 14, 15, 16, 17, 18, 19, 20, 21, 22, 23, 24, 25, 26, 27, 28, 29, 30, 31, 32, 33, 34, 35, 36, 37, 38, 39, 40, 41, 42, 43, 44, 45, 46, 47, 48, 49, 50, 51, 52, 53, 54, 55, 56, 57, 58, 59, 60, 61, 62, 63, 64, 65, 66, 67, 68, 69, 70, 71, 72, 73, 74, 75, 76, 77, 78, 79, 80, 81, 82, 83, 84, 85, 86, 87, 88, 89, 90, 91, 92, 93, 94, 95, 96, 97, 98, 99, 100, 101, 102, 103, 104, 105, 106, 107, 108, 109, 110, 111, 112, 113, 114, 115, 116, 117, 118, 119, 120, 121, 122, 123, 124, 125, 126, 127, 128, 129, 130, 131, 132, 133, 134, 135, 136, 137, 138, 139, 140, 141, 142, 143, 144, 145, 146, 147, 148, 149, 150, 151, 152, 153, 154, 155, 156, 157, 158, 159, 160, 161, 162, 163, 164, 165, 166, 167, 168, 169, 170, 171, 172, 173, 174, 175, 176, 177, 178, 179, 180, 181, 182, 183, 184, 185, 186, 187, 188, 189, 190, 191, 192, 193, 194, 195, 196, 197, 198, 199, 200, 201, 202, 203, 204, 205, 206, 207, 208, 209, 210, 211, 212, 213, 214, 215, 216, 217, 218, 219, 220, 221, 222, 223, 224, 225, 226, 227, 228, 229, 230, 231, 232, 233, 234, 235, 236, 237, 238, 239, 240, 241, 242, 243, 244, 245, 246, 247, 248, 249, 250, 251, 252, 253, 254, 255, 256, 257, 258, 259, 260, 261, 262, 263, 264, 265, 266, 267, 268, 269, 270, 271, 272, 273, 274, 275, 276, 277, 278, 279, 280, 281, 282, 283, 284, 285, 286, 287, 288, 289, 290, 291, 292, 293, 294, 295, 296, 297, 298, 299, 300, 301, 302, 303, 304, 305, 306, 307, 308, 309, 310, 311, 312, 313, 314, 315, 316, 317, 318, 319, 320, 321, 322, 323, 324, 325, 326, 327, 328, 329, 330, 331, 332, 333, 334, 335, 336, 337, 338, 339, 340, 341, 342, 343, 344, 345, 346, 347, 348, 349, 350, 351, 352, 353, 354, 355, 356, 357, 358, 359, 360, 361, 362, 363, 364, 365, 366, 367, 368, 369, 370, 371, 372, 373, 374, 375, 376, 377, 378, 379, 380, 381, 382, 383, 384, 385, 386, 387, 388, 389, 390, 391, 392, 393, 394, 395, 396, 397, 398, 399, 400, 401, 402, 403, 404, 405, 406, 407, 408, 409, 410, 411, 412, 413, 414, 415, 416, 417, 418, 419, 420, 421, 422, 423, 424, 425, 426, 427, 428, 429, 430, 431, 432, 433, 434, 435, 436, 437, 438, 439, 440, 441, 442, 443, 444, 445, 446, 447, 448, 449, 450, 451, 452, 453, 454, 455, 456, 457, 458, 459, 460, 461, 462, 463, 464, 465, 466, 467, 468, 469, 470, 471, 472, 473, 474, 475, 476, 477, 478, 479, 480, 481, 482, 483, 484, 485, 486, 487, 488, 489, 490, 491, 492, 493, 494, 495, 496, 497, 498, 499, 500, 501, 502, 503, 504, 505, 506, 507, 508, 509, 510, 511, 512, 513, 514, 515, 516, 517, 518, 519, 520, 521, 522, 523, 524, 525, 526, 527, 528, 529, 530, 531, 532, 533, 534, 535, 536, 537, 538, 539, 540, 541, 542, 543, 544, 545, 546, 547, 548, 549, 550, 551, 552, 553, 554, 555, 556, 557, 558, 559, 560, 561, 562, 563, 564, 565, 566, 567, 568, 569, 570, 571, 572, 573, 574, 575, 576, 577, 578, 579, 580, 581, 582, 583, 584, 585, 586, 587, 588, 589, 590, 591, 592, 593, 594, 595, 596, 597, 598, 599, 600, 601, 602, 603, 604, 605, 606, 607, 608, 609, 610, 611, 612, 613, 614, 615, 616, 617, 618, 619, 620, 621, 622, 623, 624, 625, 626, 627, 628, 629, 630, 631, 632, 633, 634, 635, 636, 637, 638, 639, 640, 641, 642, 643, 644, 645, 646, 647, 648, 649, 650, 651, 652, 653, 654, 655, 656, 657, 658, 659, 660, 661, 662, 663, 664, 665, 666, 667, 668, 669, 670, 671, 672, 673, 674, 675, 676, 677, 678, 679, 680, 681, 682, 683, 684, 685, 686, 687, 688, 689, 690, 691, 692, 693, 694, 695, 696, 697, 698, 699, 700, 701, 702, 703, 704, 705, 706, 707, 708, 709, 710, 711, 712, 713, 714, 715, 716, 717, 718, 719, 720, 721, 722, 723, 724, 725, 726, 727, 728, 729, 730, 731, 732, 733, 734, 735, 736, 737, 738, 739, 740, 741, 742, 743, 744, 745, 746, 747, 748, 749, 750, 751, 752, 753, 754, 755, 756, 757, 758, 759, 760, 761, 762, 763, 764, 765, 766, 767, 768, 769, 770, 771, 772, 773, 774, 775, 776, 777, 778, 779, 780, 781, 782, 783, 784, 785, 786, 787, 788, 789, 790, 791, 792, 793, 794, 795, 796, 797, 798, 799, 800, 801, 802, 803, 804, 805, 806, 807, 808, 809, 810, 811, 812, 813, 814, 815, 816, 817, 818, 819, 820, 821, 822, 823, 824, 825, 826, 827, 828, 829, 830, 831, 832, 833, 834, 835, 836, 837, 838, 839, 840, 841, 842, 843, 844, 845, 846, 847, 848, 849, 850, 851, 852, 853, 854, 855, 856, 857, 858, 859, 860, 861, 862, 863, 864, 865, 866, 867, 868, 869, 870, 871, 872, 873, 874, 875, 876, 877, 878, 879, 880, 881, 882, 883, 884, 885, 886, 887, 888, 889, 890, 891, 892, 893, 894, 895, 896, 897, 898, 899, 900, 901, 902, 903, 904, 905, 906, 907, 908, 909, 910, 911, 912, 913, 914, 915, 916, 917, 918, 919, 920, 921, 922, 923, 924, 925, 926, 927, 928, 929, 930, 931, 932, 933, 934, 935, 936, 937, 938, 939, 940, 941, 942, 943, 944, 945, 946, 947, 948, 949, 950, 951, 952, 953, 954, 955, 956, 957, 958, 959, 960, 961, 962, 963, 964, 965, 966, 967],
      "AcquisitionTime": ["094128.095000", "094128.555000", "094129.015000", "094129.475000", "094129.935000", "094130.395000", "094130.855000", "094131.315000", "094131.775000", "094132.235000", "094132.695000", "094133.155000", "094133.615000", "094134.075000", "094134.535000", "094134.995000", "094135.455000", "094135.915000", "094136.375000", "094136.835000", "094137.295000", "094137.755000", "094138.215000", "094138.675000", "094139.135000", "094139.595000", "094140.055000", "094140.515000", "094140.975000", "094141.435000", "094141.895000", "094142.355000", "094142.815000", "094143.275000", "094143.735000", "094144.195000", "094144.655000", "094145.115000", "094145.575000", "094146.035000", "094146.495000", "094146.955000", "094147.415000", "094147.875000", "094148.335000", "094148.795000", "094149.255000", "094149.715000", "094150.175000", "094150.635000", "094151.095000", "094151.555000", "094152.015000", "094152.475000", "094152.935000", "094153.395000", "094153.855000", "094154.315000", "094154.775000", "094155.235000", "094155.695000", "094156.155000", "094156.615000", "094157.075000", "094157.535000", "094157.995000", "094158.455000", "094158.915000", "094159.375000", "094159.835000", "094200.295000", "094200.755000", "094201.215000", "094201.675000", "094202.135000", "094202.595000", "094203.055000", "094203.515000", "094203.975000", "094204.435000", "094204.895000", "094205.355000", "094205.815000", "094206.275000", "094206.735000", "094207.195000", "094207.655000", "094208.115000", "094208.575000", "094209.035000", "094209.495000", "094209.955000", "094210.415000", "094210.875000", "094211.335000", "094211.795000", "094212.255000", "094212.715000", "094213.175000", "094213.635000", "094214.095000", "094214.555000", "094215.015000", "094215.475000", "094215.935000", "094216.395000", "094216.855000", "094217.315000", "094217.775000", "094218.235000", "094218.695000", "094219.155000", "094219.615000", "094220.075000", "094220.535000", "094220.995000", "094221.455000", "094221.915000", "094222.375000", "094222.835000", "094223.295000", "094223.755000", "094224.215000", "094224.675000", "094225.135000", "094225.595000", "094226.055000", "094226.515000", "094226.975000", "094227.435000", "094227.895000", "094228.355000", "094228.815000", "094229.275000", "094229.735000", "094230.195000", "094230.655000", "094231.115000", "094231.575000", "094232.035000", "094232.495000", "094232.955000", "094233.415000", "094233.875000", "094234.335000", "094234.795000", "094235.255000", "094235.715000", "094236.175000", "094236.635000", "094237.095000", "094237.555000", "094238.015000", "094238.475000", "094238.935000", "094239.395000", "094239.855000", "094240.315000", "094240.775000", "094241.235000", "094241.695000", "094242.155000", "094242.615000", "094243.075000", "094243.535000", "094243.995000", "094244.455000", "094244.915000", "094245.375000", "094245.835000", "094246.295000", "094246.755000", "094247.215000", "094247.675000", "094248.135000", "094248.595000", "094249.055000", "094249.515000", "094249.975000", "094250.435000", "094250.895000", "094251.355000", "094251.815000", "094252.275000", "094252.735000", "094253.195000", "094253.655000", "094254.115000", "094254.575000", "094255.035000", "094255.495000", "094255.955000", "094256.415000", "094256.875000", "094257.335000", "094257.795000", "094258.255000", "094258.715000", "094259.175000", "094259.635000", "094300.095000", "094300.555000", "094301.015000", "094301.475000", "094301.935000", "094302.395000", "094302.855000", "094303.315000", "094303.775000", "094304.235000", "094304.695000", "094305.155000", "094305.615000", "094306.075000", "094306.535000", "094306.995000", "094307.455000", "094307.915000", "094308.375000", "094308.835000", "094309.295000", "094309.755000", "094310.215000", "094310.675000", "094311.135000", "094311.595000", "094312.055000", "094312.515000", "094312.975000", "094313.435000", "094313.895000", "094314.355000", "094314.815000", "094315.275000", "094315.735000", "094316.195000", "094316.655000", "094317.115000", "094317.575000", "094318.035000", "094318.495000", "094318.955000", "094319.415000", "094319.875000", "094320.335000", "094320.795000", "094321.255000", "094321.715000", "094322.175000", "094322.635000", "094323.095000", "094323.555000", "094324.015000", "094324.475000", "094324.935000", "094325.395000", "094325.855000", "094326.315000", "094326.775000", "094327.235000", "094327.695000", "094328.155000", "094328.615000", "094329.075000", "094329.535000", "094329.995000", "094330.455000", "094330.915000", "094331.375000", "094331.835000", "094332.295000", "094332.755000", "094333.215000", "094333.675000", "094334.135000", "094334.595000", "094335.055000", "094335.515000", "094335.975000", "094336.435000", "094336.895000", "094337.355000", "094337.815000", "094338.275000", "094338.735000", "094339.195000", "094339.655000", "094340.115000", "094340.575000", "094341.035000", "094341.495000", "094341.955000", "094342.415000", "094342.875000", "094343.335000", "094343.795000", "094344.255000", "094344.715000", "094345.175000", "094345.635000", "094346.095000", "094346.555000", "094347.015000", "094347.475000", "094347.935000", "094348.395000", "094348.855000", "094349.315000", "094349.775000", "094350.235000", "094350.695000", "094351.155000", "094351.615000", "094352.075000", "094352.535000", "094352.995000", "094353.455000", "094353.915000", "094354.375000", "094354.835000", "094355.295000", "094355.755000", "094356.215000", "094356.675000", "094357.135000", "094357.595000", "094358.055000", "094358.515000", "094358.975000", "094359.435000", "094359.895000", "094400.355000", "094400.815000", "094401.275000", "094401.735000", "094402.195000", "094402.655000", "094403.115000", "094403.575000", "094404.035000", "094404.495000", "094404.955000", "094405.415000", "094405.875000", "094406.335000", "094406.795000", "094407.255000", "094407.715000", "094408.175000", "094408.635000", "094409.095000", "094409.555000", "094410.015000", "094410.475000", "094410.935000", "094411.395000", "094411.855000", "094412.315000", "094412.775000", "094413.235000", "094413.695000", "094414.155000", "094414.615000", "094415.075000", "094415.535000", "094415.995000", "094416.455000", "094416.915000", "094417.375000", "094417.835000", "094418.295000", "094418.755000", "094419.215000", "094419.675000", "094420.135000", "094420.595000", "094421.055000", "094421.515000", "094421.975000", "094422.435000", "094422.895000", "094423.355000", "094423.815000", "094424.275000", "094424.735000", "094425.195000", "094425.655000", "094426.115000", "094426.575000", "094427.035000", "094427.495000", "094427.955000", "094428.415000", "094428.875000", "094429.335000", "094429.795000", "094430.255000", "094430.715000", "094431.175000", "094431.635000", "094432.095000", "094432.555000", "094433.015000", "094433.475000", "094433.935000", "094434.395000", "094434.855000", "094435.315000", "094435.775000", "094436.235000", "094436.695000", "094437.155000", "094437.615000", "094438.075000", "094438.535000", "094438.995000", "094439.455000", "094439.915000", "094440.375000", "094440.835000", "094441.295000", "094441.755000", "094442.215000", "094442.675000", "094443.135000", "094443.595000", "094444.055000", "094444.515000", "094444.975000", "094445.435000", "094445.895000", "094446.355000", "094446.815000", "094447.275000", "094447.735000", "094448.195000", "094448.655000", "094449.115000", "094449.575000", "094450.035000", "094450.495000", "094450.955000", "094451.415000", "094451.875000", "094452.335000", "094452.795000", "094453.255000", "094453.715000", "094454.175000", "094454.635000", "094455.095000", "094455.555000", "094456.015000", "094456.475000", "094456.935000", "094457.395000", "094457.855000", "094458.315000", "094458.775000", "094459.235000", "094459.695000", "094500.155000", "094500.615000", "094501.075000", "094501.535000", "094501.995000", "094502.455000", "094502.915000", "094503.375000", "094503.835000", "094504.295000", "094504.755000", "094505.215000", "094505.675000", "094506.135000", "094506.595000", "094507.055000", "094507.515000", "094507.975000", "094508.435000", "094508.895000", "094509.355000", "094509.815000", "094510.275000", "094510.735000", "094511.195000", "094511.655000", "094512.115000", "094512.575000", "094513.035000", "094513.495000", "094513.955000", "094514.415000", "094514.875000", "094515.335000", "094515.795000", "094516.255000", "094516.715000", "094517.175000", "094517.635000", "094518.095000", "094518.555000", "094519.015000", "094519.475000", "094519.935000", "094520.395000", "094520.855000", "094521.315000", "094521.775000", "094522.235000", "094522.695000", "094523.155000", "094523.615000", "094524.075000", "094524.535000", "094524.995000", "094525.455000", "094525.915000", "094526.375000", "094526.835000", "094527.295000", "094527.755000", "094528.215000", "094528.675000", "094529.135000", "094529.595000", "094530.055000", "094530.515000", "094530.975000", "094531.435000", "094531.895000", "094532.355000", "094532.815000", "094533.275000", "094533.735000", "094534.195000", "094534.655000", "094535.115000", "094535.575000", "094536.035000", "094536.495000", "094536.955000", "094537.415000", "094537.875000", "094538.335000", "094538.795000", "094539.255000", "094539.715000", "094540.175000", "094540.635000", "094541.095000", "094541.555000", "094542.015000", "094542.475000", "094542.935000", "094543.395000", "094543.855000", "094544.315000", "094544.775000", "094545.235000", "094545.695000", "094546.155000", "094546.615000", "094547.075000", "094547.535000", "094547.995000", "094548.455000", "094548.915000", "094549.375000", "094549.835000", "094550.295000", "094550.755000", "094551.215000", "094551.675000", "094552.135000", "094552.595000", "094553.055000", "094553.515000", "094553.975000", "094554.435000", "094554.895000", "094555.355000", "094555.815000", "094556.275000", "094556.735000", "094557.195000", "094557.655000", "094558.115000", "094558.575000", "094559.035000", "094559.495000", "094559.955000", "094600.415000", "094600.875000", "094601.335000", "094601.795000", "094602.255000", "094602.715000", "094603.175000", "094603.635000", "094604.095000", "094604.555000", "094605.015000", "094605.475000", "094605.935000", "094606.395000", "094606.855000", "094607.315000", "094607.775000", "094608.235000", "094608.695000", "094609.155000", "094609.615000", "094610.075000", "094610.535000", "094610.995000", "094611.455000", "094611.915000", "094612.375000", "094612.835000", "094613.295000", "094613.755000", "094614.215000", "094614.675000", "094615.135000", "094615.595000", "094616.055000", "094616.515000", "094616.975000", "094617.435000", "094617.895000", "094618.355000", "094618.815000", "094619.275000", "094619.735000", "094620.195000", "094620.655000", "094621.115000", "094621.575000", "094622.035000", "094622.495000", "094622.955000", "094623.415000", "094623.875000", "094624.335000", "094624.795000", "094625.255000", "094625.715000", "094626.175000", "094626.635000", "094627.095000", "094627.555000", "094628.015000", "094628.475000", "094628.935000", "094629.395000", "094629.855000", "094630.315000", "094630.775000", "094631.235000", "094631.695000", "094632.155000", "094632.615000", "094633.075000", "094633.535000", "094633.995000", "094634.455000", "094634.915000", "094635.375000", "094635.835000", "094636.295000", "094636.755000", "094637.215000", "094637.675000", "094638.135000", "094638.595000", "094639.055000", "094639.515000", "094639.975000", "094640.435000", "094640.895000", "094641.355000", "094641.815000", "094642.275000", "094642.735000", "094643.195000", "094643.655000", "094644.115000", "094644.575000", "094645.035000", "094645.495000", "094645.955000", "094646.415000", "094646.875000", "094647.335000", "094647.795000", "094648.255000", "094648.715000", "094649.175000", "094649.635000", "094650.095000", "094650.555000", "094651.015000", "094651.475000", "094651.935000", "094652.395000", "094652.855000", "094653.315000", "094653.775000", "094654.235000", "094654.695000", "094655.155000", "094655.615000", "094656.075000", "094656.535000", "094656.995000", "094657.455000", "094657.915000", "094658.375000", "094658.835000", "094659.295000", "094659.755000", "094700.215000", "094700.675000", "094701.135000", "094701.595000", "094702.055000", "094702.515000", "094702.975000", "094703.435000", "094703.895000", "094704.355000", "094704.815000", "094705.275000", "094705.735000", "094706.195000", "094706.655000", "094707.115000", "094707.575000", "094708.035000", "094708.495000", "094708.955000", "094709.415000", "094709.875000", "094710.335000", "094710.795000", "094711.255000", "094711.715000", "094712.175000", "094712.635000", "094713.095000", "094713.555000", "094714.015000", "094714.475000", "094714.935000", "094715.395000", "094715.855000", "094716.315000", "094716.775000", "094717.235000", "094717.695000", "094718.155000", "094718.615000", "094719.075000", "094719.535000", "094719.995000", "094720.455000", "094720.915000", "094721.375000", "094721.835000", "094722.295000", "094722.755000", "094723.215000", "094723.675000", "094724.135000", "094724.595000", "094725.055000", "094725.515000", "094725.975000", "094726.435000", "094726.895000", "094727.355000", "094727.815000", "094728.275000", "094728.735000", "094729.195000", "094729.655000", "094730.115000", "094730.575000", "094731.035000", "094731.495000", "094731.955000", "094732.415000", "094732.875000", "094733.335000", "094733.795000", "094734.255000", "094734.715000", "094735.175000", "094735.635000", "094736.095000", "094736.555000", "094737.015000", "094737.475000", "094737.935000", "094738.395000", "094738.855000", "094739.315000", "094739.775000", "094740.235000", "094740.695000", "094741.155000", "094741.615000", "094742.075000", "094742.535000", "094742.995000", "094743.455000", "094743.915000", "094744.375000", "094744.835000", "094745.295000", "094745.755000", "094746.215000", "094746.675000", "094747.135000", "094747.595000", "094748.055000", "094748.515000", "094748.975000", "094749.435000", "094749.895000", "094750.355000", "094750.815000", "094751.275000", "094751.735000", "094752.195000", "094752.655000", "094753.115000", "094753.575000", "094754.035000", "094754.495000", "094754.955000", "094755.415000", "094755.875000", "094756.335000", "094756.795000", "094757.255000", "094757.715000", "094758.175000", "094758.635000", "094759.095000", "094759.555000", "094800.015000", "094800.475000", "094800.935000", "094801.395000", "094801.855000", "094802.315000", "094802.775000", "094803.235000", "094803.695000", "094804.155000", "094804.615000", "094805.075000", "094805.535000", "094805.995000", "094806.455000", "094806.915000", "094807.375000", "094807.835000", "094808.295000", "094808.755000", "094809.215000", "094809.675000", "094810.135000", "094810.595000", "094811.055000", "094811.515000", "094811.975000", "094812.435000", "094812.895000", "094813.355000", "094813.815000", "094814.275000", "094814.735000", "094815.195000", "094815.655000", "094816.115000", "094816.575000", "094817.035000", "094817.495000", "094817.955000", "094818.415000", "094818.875000", "094819.335000", "094819.795000", "094820.255000", "094820.715000", "094821.175000", "094821.635000", "094822.095000", "094822.555000", "094823.015000", "094823.475000", "094823.935000", "094824.395000", "094824.855000", "094825.315000", "094825.775000", "094826.235000", "094826.695000", "094827.155000", "094827.615000", "094828.075000", "094828.535000", "094828.995000", "094829.455000", "094829.915000", "094830.375000", "094830.835000", "094831.295000", "094831.755000", "094832.215000", "094832.675000", "094833.135000", "094833.595000", "094834.055000", "094834.515000", "094834.975000", "094835.435000", "094835.895000", "094836.355000", "094836.815000", "094837.275000", "094837.735000", "094838.195000", "094838.655000", "094839.115000", "094839.575000", "094840.035000", "094840.495000", "094840.955000", "094841.415000", "094841.875000", "094842.335000", "094842.795000", "094843.255000", "094843.715000", "094844.175000", "094844.635000", "094845.095000", "094845.555000", "094846.015000", "094846.475000", "094846.935000", "094847.395000", "094847.855000", "094848.315000", "094848.775000", "094849.235000", "094849.695000", "094850.155000", "094850.615000", "094851.075000", "094851.535000", "094851.995000", "094852.455000"],
