{
  "AcquisitionMatrixPE": 82,
  "AcquisitionNumber": 1,
  "AcquisitionTime": "11:25:51.885000",
  "BandwidthPerPixelPhaseEncode": 24.888,
  "BaseResolution": 82,
  "BodyPartExamined": "BRAIN",
  "ConsistencyInfo": "N4_VE11E_LATEST_20181129",
  "ConversionSoftware": "dcm2niix",
  "ConversionSoftwareVersion": "v1.0.20201102",
  "DerivedVendorReportedEchoSpacing": 0.00049,
  "DeviceSerialNumber": "66112",
  "DwellTime": 2e-06,
  "EchoTime": 0.0272,
  "EchoTrainLength": 82,
  "EffectiveEchoSpacing": 0.00049,
  "FlipAngle": 44,
  "ImageComments": "Unaliased MB8/PE3",
  "ImageOrientationPatientDICOM": [0.998994, -0.0026995, -0.0447628, 0.00209229, 0.999905, -0.0136062],
  "ImageType": [
    "ORIGINAL",
    "PRIMARY",
    "M",
    "MB",
    "ND",
    "NORM",
    "MOSAIC"
],
  "ImagingFrequency": 123.259,
  "InPlanePhaseEncodingDirectionDICOM": "COL",
  "InstitutionAddress": "Maynard 3,Hanover,NH,US,03755",
  "InstitutionName": "Dartmouth College - PBS",
  "InstitutionalDepartmentName": "Department",
  "MRAcquisitionType": "2D",
  "MagneticFieldStrength": 3,
  "Manufacturer": "Siemens",
  "ManufacturersModelName": "Prisma",
  "Modality": "MR",
  "MultibandAccelerationFactor": 8,
  "PartialFourier": 1,
  "PatientPosition": "HFS",
  "PercentPhaseFOV": 100,
  "PercentSampling": 100,
  "PhaseEncodingDirection": "j-",
  "PhaseEncodingSteps": 82,
  "PhaseResolution": 1,
  "PixelBandwidth": 3050,
  "ProcedureStepDescription": "Wager_Wager^1076_spacetop",
  "ProtocolName": "func_run-04_task-alignvideo_acq-ap-mb8",
  "PulseSequenceDetails": "%CustomerSeq%\\cmrr_mbep2d_bold",
  "ReceiveCoilActiveElements": "HEA;HEP",
  "ReceiveCoilName": "Head_32",
  "ReconMatrixPE": 82,
  "RepetitionTime": 0.46,
  "SAR": 0.097724,
  "ScanOptions": "FS",
  "ScanningSequence": "EP",
  "SequenceName": "epfid2d1_82",
  "SequenceVariant": "SK\\SS",
  "SeriesDescription": "func_run-04_task-alignvideo_acq-ap-mb8",
  "SeriesNumber": 36,
  "ShimSetting": [4218, -7789, -7297, 199, -116, -114, -108, 101],
  "SliceThickness": 2.7,
  "SliceTiming": [0, 0.2525, 0.0625, 0.315, 0.125, 0.3775, 0.1875, 0, 0.2525, 0.0625, 0.315, 0.125, 0.3775, 0.1875, 0, 0.2525, 0.0625, 0.315, 0.125, 0.3775, 0.1875, 0, 0.2525, 0.0625, 0.315, 0.125, 0.3775, 0.1875, 0, 0.2525, 0.0625, 0.315, 0.125, 0.3775, 0.1875, 0, 0.2525, 0.0625, 0.315, 0.125, 0.3775, 0.1875, 0, 0.2525, 0.0625, 0.315, 0.125, 0.3775, 0.1875, 0, 0.2525, 0.0625, 0.315, 0.125, 0.3775, 0.1875],
  "SoftwareVersions": "syngo MR E11",
  "SpacingBetweenSlices": 2.7,
  "StationName": "AWP66112",
  "TaskName": "alignvideo",
  "TotalReadoutTime": 0.03969,
  "TxRefAmp": 256.126,
  "WipMemBlock": "81b2356f-5dde-4c10-8e44-4df7b679c3e6||Sequence: R016 ve11e/master r/434b28f1; Aug  7 2019 18:53:46 by eja",
  "dcmmeta_affine": [
    [-2.680227756500244, 0.005613474175333977, -0.1209472268819809, 114.3491439819336],
    [0.007242554798722267, 2.6826727390289307, -0.0364469438791275, -93.98880004882812],
    [-0.12009526789188385, 0.03650447353720665, 2.6970436573028564, -75.74607849121094],
    [0.0, 0.0, 0.0, 1.0]
],
  "dcmmeta_reorient_transform": [
    [0.0, -1.0, 0.0, 81.0],
    [1.0, 0.0, 0.0, 0.0],
    [0.0, 0.0, 1.0, 0.0],
    [0.0, 0.0, 0.0, 1.0]
],
  "dcmmeta_shape": [82, 82, 56, 914],
  "dcmmeta_slice_dim": 2,
  "dcmmeta_version": 0.6,
  "global": {
    "const": {
      "AccessionNumber": "A004357",
      "AcquisitionMatrix": [82, 0, 0, 82],
      "AngioFlag": "N",
      "BitsAllocated": 16,
      "BitsStored": 16,
      "BodyPartExamined": "BRAIN",
      "Columns": 656,
      "EchoNumbers": 1,
      "EchoTime": 27.2,
      "EchoTrainLength": 82,
      "FlipAngle": 44.0,
      "HighBit": 15,
      "ImageOrientationPatient": [0.99899399708943, -0.0026994976646, -0.0447627802046, 0.00209229482567, 0.99990524215373, -0.0136062123993],
      "ImagePositionPatient": [-885.64029931958, -891.15612543481, -27.845093633535],
      "ImageType": [
        "ORIGINAL",
        "PRIMARY",
        "M",
        "MB",
        "ND",
        "NORM",
        "MOSAIC"
],
      "ImagedNucleus": "1H",
      "ImagingFrequency": 123.259098,
      "InPlanePhaseEncodingDirection": "COL",
      "MRAcquisitionType": "2D",
      "MagneticFieldStrength": 3.0,
      "Manufacturer": "SIEMENS",
      "ManufacturerModelName": "Prisma",
      "Modality": "MR",
      "NumberOfAverages": 1.0,
      "NumberOfPhaseEncodingSteps": 82,
      "PercentPhaseFieldOfView": 100.0,
      "PercentSampling": 100.0,
      "PerformedProcedureStepStartTime": "092303.821000",
      "PhotometricInterpretation": "MONOCHROME2",
      "PixelBandwidth": 3050.0,
      "PixelRepresentation": 0,
      "PixelSpacing": [2.6829268932343, 2.6829268932343],
      "ProtocolName": "func_run-04_task-alignvideo_acq-ap-mb8",
      "RepetitionTime": 460.0,
      "Rows": 656,
      "SAR": 0.09772404624535,
      "SamplesPerPixel": 1,
      "ScanOptions": "FS",
      "ScanningSequence": "EP",
      "SequenceName": "epfid2d1_82",
      "SequenceVariant": [
        "SK",
        "SS"
],
      "SeriesDescription": "func_run-04_task-alignvideo_acq-ap-mb8",
      "SeriesNumber": 36,
      "SeriesTime": "112607.148000",
      "SliceLocation": -79.516696320919,
      "SliceThickness": 2.7000000476837,
      "SmallestImagePixelValue": 0,
      "SoftwareVersions": "syngo MR E11",
      "SpacingBetweenSlices": 2.7000000868537,
      "SpecificCharacterSet": "ISO_IR 100",
      "StudyID": "2",
      "StudyTime": "092303.606000",
      "TransmitCoilName": "Body",
      "VariableFlipAngleFlag": "N",
      "WindowCenterWidthExplanation": "Algo1"
    },
    "slices": {}
  },
  "time": {
    "samples": {
      "AcquisitionNumber": [1, 2, 3, 4, 5, 6, 7, 8, 9, 10, 11, 12, 13, 14, 15, 16, 17, 18, 19, 20, 21, 22, 23, 24, 25, 26, 27, 28, 29, 30, 31, 32, 33, 34, 35, 36, 37, 38, 39, 40, 41, 42, 43, 44, 45, 46, 47, 48, 49, 50, 51, 52, 53, 54, 55, 56, 57, 58, 59, 60, 61, 62, 63, 64, 65, 66, 67, 68, 69, 70, 71, 72, 73, 74, 75, 76, 77, 78, 79, 80, 81, 82, 83, 84, 85, 86, 87, 88, 89, 90, 91, 92, 93, 94, 95, 96, 97, 98, 99, 100, 101, 102, 103, 104, 105, 106, 107, 108, 109, 110, 111, 112, 113, 114, 115, 116, 117, 118, 119, 120, 121, 122, 123, 124, 125, 126, 127, 128, 129, 130, 131, 132, 133, 134, 135, 136, 137, 138, 139, 140, 141, 142, 143, 144, 145, 146, 147, 148, 149, 150, 151, 152, 153, 154, 155, 156, 157, 158, 159, 160, 161, 162, 163, 164, 165, 166, 167, 168, 169, 170, 171, 172, 173, 174, 175, 176, 177, 178, 179, 180, 181, 182, 183, 184, 185, 186, 187, 188, 189, 190, 191, 192, 193, 194, 195, 196, 197, 198, 199, 200, 201, 202, 203, 204, 205, 206, 207, 208, 209, 210, 211, 212, 213, 214, 215, 216, 217, 218, 219, 220, 221, 222, 223, 224, 225, 226, 227, 228, 229, 230, 231, 232, 233, 234, 235, 236, 237, 238, 239, 240, 241, 242, 243, 244, 245, 246, 247, 248, 249, 250, 251, 252, 253, 254, 255, 256, 257, 258, 259, 260, 261, 262, 263, 264, 265, 266, 267, 268, 269, 270, 271, 272, 273, 274, 275, 276, 277, 278, 279, 280, 281, 282, 283, 284, 285, 286, 287, 288, 289, 290, 291, 292, 293, 294, 295, 296, 297, 298, 299, 300, 301, 302, 303, 304, 305, 306, 307, 308, 309, 310, 311, 312, 313, 314, 315, 316, 317, 318, 319, 320, 321, 322, 323, 324, 325, 326, 327, 328, 329, 330, 331, 332, 333, 334, 335, 336, 337, 338, 339, 340, 341, 342, 343, 344, 345, 346, 347, 348, 349, 350, 351, 352, 353, 354, 355, 356, 357, 358, 359, 360, 361, 362, 363, 364, 365, 366, 367, 368, 369, 370, 371, 372, 373, 374, 375, 376, 377, 378, 379, 380, 381, 382, 383, 384, 385, 386, 387, 388, 389, 390, 391, 392, 393, 394, 395, 396, 397, 398, 399, 400, 401, 402, 403, 404, 405, 406, 407, 408, 409, 410, 411, 412, 413, 414, 415, 416, 417, 418, 419, 420, 421, 422, 423, 424, 425, 426, 427, 428, 429, 430, 431, 432, 433, 434, 435, 436, 437, 438, 439, 440, 441, 442, 443, 444, 445, 446, 447, 448, 449, 450, 451, 452, 453, 454, 455, 456, 457, 458, 459, 460, 461, 462, 463, 464, 465, 466, 467, 468, 469, 470, 471, 472, 473, 474, 475, 476, 477, 478, 479, 480, 481, 482, 483, 484, 485, 486, 487, 488, 489, 490, 491, 492, 493, 494, 495, 496, 497, 498, 499, 500, 501, 502, 503, 504, 505, 506, 507, 508, 509, 510, 511, 512, 513, 514, 515, 516, 517, 518, 519, 520, 521, 522, 523, 524, 525, 526, 527, 528, 529, 530, 531, 532, 533, 534, 535, 536, 537, 538, 539, 540, 541, 542, 543, 544, 545, 546, 547, 548, 549, 550, 551, 552, 553, 554, 555, 556, 557, 558, 559, 560, 561, 562, 563, 564, 565, 566, 567, 568, 569, 570, 571, 572, 573, 574, 575, 576, 577, 578, 579, 580, 581, 582, 583, 584, 585, 586, 587, 588, 589, 590, 591, 592, 593, 594, 595, 596, 597, 598, 599, 600, 601, 602, 603, 604, 605, 606, 607, 608, 609, 610, 611, 612, 613, 614, 615, 616, 617, 618, 619, 620, 621, 622, 623, 624, 625, 626, 627, 628, 629, 630, 631, 632, 633, 634, 635, 636, 637, 638, 639, 640, 641, 642, 643, 644, 645, 646, 647, 648, 649, 650, 651, 652, 653, 654, 655, 656, 657, 658, 659, 660, 661, 662, 663, 664, 665, 666, 667, 668, 669, 670, 671, 672, 673, 674, 675, 676, 677, 678, 679, 680, 681, 682, 683, 684, 685, 686, 687, 688, 689, 690, 691, 692, 693, 694, 695, 696, 697, 698, 699, 700, 701, 702, 703, 704, 705, 706, 707, 708, 709, 710, 711, 712, 713, 714, 715, 716, 717, 718, 719, 720, 721, 722, 723, 724, 725, 726, 727, 728, 729, 730, 731, 732, 733, 734, 735, 736, 737, 738, 739, 740, 741, 742, 743, 744, 745, 746, 747, 748, 749, 750, 751, 752, 753, 754, 755, 756, 757, 758, 759, 760, 761, 762, 763, 764, 765, 766, 767, 768, 769, 770, 771, 772, 773, 774, 775, 776, 777, 778, 779, 780, 781, 782, 783, 784, 785, 786, 787, 788, 789, 790, 791, 792, 793, 794, 795, 796, 797, 798, 799, 800, 801, 802, 803, 804, 805, 806, 807, 808, 809, 810, 811, 812, 813, 814, 815, 816, 817, 818, 819, 820, 821, 822, 823, 824, 825, 826, 827, 828, 829, 830, 831, 832, 833, 834, 835, 836, 837, 838, 839, 840, 841, 842, 843, 844, 845, 846, 847, 848, 849, 850, 851, 852, 853, 854, 855, 856, 857, 858, 859, 860, 861, 862, 863, 864, 865, 866, 867, 868, 869, 870, 871, 872, 873, 874, 875, 876, 877, 878, 879, 880, 881, 882, 883, 884, 885, 886, 887, 888, 889, 890, 891, 892, 893, 894, 895, 896, 897, 898, 899, 900, 901, 902, 903, 904, 905, 906, 907, 908, 909, 910, 911, 912, 913, 914],
      "AcquisitionTime": ["112551.885000", "112552.345000", "112552.805000", "112553.265000", "112553.725000", "112554.185000", "112554.645000", "112555.105000", "112555.565000", "112556.025000", "112556.485000", "112556.945000", "112557.405000", "112557.865000", "112558.325000", "112558.785000", "112559.245000", "112559.705000", "112600.165000", "112600.625000", "112601.085000", "112601.545000", "112602.005000", "112602.465000", "112602.925000", "112603.385000", "112603.845000", "112604.305000", "112604.765000", "112605.225000", "112605.685000", "112606.145000", "112606.605000", "112607.065000", "112607.525000", "112607.985000", "112608.445000", "112608.905000", "112609.365000", "112609.825000", "112610.285000", "112610.745000", "112611.205000", "112611.665000", "112612.125000", "112612.585000", "112613.045000", "112613.505000", "112613.965000", "112614.425000", "112614.885000", "112615.345000", "112615.805000", "112616.265000", "112616.725000", "112617.185000", "112617.645000", "112618.105000", "112618.565000", "112619.025000", "112619.485000", "112619.945000", "112620.405000", "112620.865000", "112621.325000", "112621.785000", "112622.245000", "112622.705000", "112623.165000", "112623.625000", "112624.085000", "112624.545000", "112625.005000", "112625.465000", "112625.925000", "112626.385000", "112626.845000", "112627.305000", "112627.765000", "112628.225000", "112628.685000", "112629.145000", "112629.605000", "112630.065000", "112630.525000", "112630.985000", "112631.445000", "112631.905000", "112632.365000", "112632.825000", "112633.285000", "112633.745000", "112634.205000", "112634.665000", "112635.125000", "112635.585000", "112636.045000", "112636.505000", "112636.965000", "112637.425000", "112637.885000", "112638.345000", "112638.805000", "112639.265000", "112639.725000", "112640.185000", "112640.645000", "112641.105000", "112641.565000", "112642.025000", "112642.485000", "112642.945000", "112643.405000", "112643.865000", "112644.325000", "112644.785000", "112645.245000", "112645.705000", "112646.165000", "112646.625000", "112647.085000", "112647.545000", "112648.005000", "112648.465000", "112648.925000", "112649.385000", "112649.845000", "112650.305000", "112650.765000", "112651.225000", "112651.685000", "112652.145000", "112652.605000", "112653.065000", "112653.525000", "112653.985000", "112654.445000", "112654.905000", "112655.365000", "112655.825000", "112656.285000", "112656.745000", "112657.205000", "112657.665000", "112658.125000", "112658.585000", "112659.045000", "112659.505000", "112659.965000", "112700.425000", "112700.885000", "112701.345000", "112701.805000", "112702.265000", "112702.725000", "112703.185000", "112703.645000", "112704.105000", "112704.565000", "112705.025000", "112705.485000", "112705.945000", "112706.405000", "112706.865000", "112707.325000", "112707.785000", "112708.245000", "112708.705000", "112709.165000", "112709.625000", "112710.085000", "112710.545000", "112711.005000", "112711.465000", "112711.925000", "112712.385000", "112712.845000", "112713.305000", "112713.765000", "112714.225000", "112714.685000", "112715.145000", "112715.605000", "112716.065000", "112716.525000", "112716.985000", "112717.445000", "112717.905000", "112718.365000", "112718.825000", "112719.285000", "112719.745000", "112720.205000", "112720.665000", "112721.125000", "112721.585000", "112722.045000", "112722.505000", "112722.965000", "112723.425000", "112723.885000", "112724.345000", "112724.805000", "112725.265000", "112725.725000", "112726.185000", "112726.645000", "112727.105000", "112727.565000", "112728.025000", "112728.485000", "112728.945000", "112729.405000", "112729.865000", "112730.325000", "112730.785000", "112731.245000", "112731.705000", "112732.165000", "112732.625000", "112733.085000", "112733.545000", "112734.005000", "112734.465000", "112734.925000", "112735.385000", "112735.845000", "112736.305000", "112736.765000", "112737.225000", "112737.685000", "112738.145000", "112738.605000", "112739.065000", "112739.525000", "112739.985000", "112740.445000", "112740.905000", "112741.365000", "112741.825000", "112742.285000", "112742.745000", "112743.205000", "112743.665000", "112744.125000", "112744.585000", "112745.045000", "112745.505000", "112745.965000", "112746.425000", "112746.885000", "112747.345000", "112747.805000", "112748.265000", "112748.725000", "112749.185000", "112749.645000", "112750.105000", "112750.565000", "112751.025000", "112751.485000", "112751.945000", "112752.405000", "112752.865000", "112753.325000", "112753.785000", "112754.245000", "112754.705000", "112755.165000", "112755.625000", "112756.085000", "112756.545000", "112757.005000", "112757.465000", "112757.925000", "112758.385000", "112758.845000", "112759.305000", "112759.765000", "112800.225000", "112800.685000", "112801.145000", "112801.605000", "112802.065000", "112802.525000", "112802.985000", "112803.445000", "112803.905000", "112804.365000", "112804.825000", "112805.285000", "112805.745000", "112806.205000", "112806.665000", "112807.125000", "112807.585000", "112808.045000", "112808.505000", "112808.965000", "112809.425000", "112809.885000", "112810.345000", "112810.805000", "112811.265000", "112811.725000", "112812.185000", "112812.645000", "112813.105000", "112813.565000", "112814.025000", "112814.485000", "112814.945000", "112815.405000", "112815.865000", "112816.325000", "112816.785000", "112817.245000", "112817.705000", "112818.165000", "112818.625000", "112819.085000", "112819.545000", "112820.005000", "112820.465000", "112820.925000", "112821.385000", "112821.845000", "112822.305000", "112822.765000", "112823.225000", "112823.685000", "112824.145000", "112824.605000", "112825.065000", "112825.525000", "112825.985000", "112826.445000", "112826.905000", "112827.365000", "112827.825000", "112828.285000", "112828.745000", "112829.205000", "112829.665000", "112830.125000", "112830.585000", "112831.045000", "112831.505000", "112831.965000", "112832.425000", "112832.885000", "112833.345000", "112833.805000", "112834.265000", "112834.725000", "112835.185000", "112835.645000", "112836.105000", "112836.565000", "112837.025000", "112837.485000", "112837.945000", "112838.405000", "112838.865000", "112839.325000", "112839.785000", "112840.245000", "112840.705000", "112841.165000", "112841.625000", "112842.085000", "112842.545000", "112843.005000", "112843.465000", "112843.925000", "112844.385000", "112844.845000", "112845.305000", "112845.765000", "112846.225000", "112846.685000", "112847.145000", "112847.605000", "112848.065000", "112848.525000", "112848.985000", "112849.445000", "112849.905000", "112850.365000", "112850.825000", "112851.285000", "112851.745000", "112852.205000", "112852.665000", "112853.125000", "112853.585000", "112854.045000", "112854.505000", "112854.965000", "112855.425000", "112855.885000", "112856.345000", "112856.805000", "112857.265000", "112857.725000", "112858.185000", "112858.645000", "112859.105000", "112859.565000", "112900.025000", "112900.485000", "112900.945000", "112901.405000", "112901.865000", "112902.325000", "112902.785000", "112903.245000", "112903.705000", "112904.165000", "112904.625000", "112905.085000", "112905.545000", "112906.005000", "112906.465000", "112906.925000", "112907.385000", "112907.845000", "112908.305000", "112908.765000", "112909.225000", "112909.685000", "112910.145000", "112910.605000", "112911.065000", "112911.525000", "112911.985000", "112912.445000", "112912.905000", "112913.365000", "112913.825000", "112914.285000", "112914.745000", "112915.205000", "112915.665000", "112916.125000", "112916.585000", "112917.045000", "112917.505000", "112917.965000", "112918.425000", "112918.885000", "112919.345000", "112919.805000", "112920.265000", "112920.725000", "112921.185000", "112921.645000", "112922.105000", "112922.565000", "112923.025000", "112923.485000", "112923.945000", "112924.405000", "112924.865000", "112925.325000", "112925.785000", "112926.245000", "112926.705000", "112927.165000", "112927.625000", "112928.085000", "112928.545000", "112929.005000", "112929.465000", "112929.925000", "112930.385000", "112930.845000", "112931.305000", "112931.765000", "112932.225000", "112932.685000", "112933.145000", "112933.605000", "112934.065000", "112934.525000", "112934.985000", "112935.445000", "112935.905000", "112936.365000", "112936.825000", "112937.285000", "112937.745000", "112938.205000", "112938.665000", "112939.125000", "112939.585000", "112940.045000", "112940.505000", "112940.965000", "112941.425000", "112941.885000", "112942.345000", "112942.805000", "112943.265000", "112943.725000", "112944.185000", "112944.645000", "112945.105000", "112945.565000", "112946.025000", "112946.485000", "112946.945000", "112947.405000", "112947.865000", "112948.325000", "112948.785000", "112949.245000", "112949.705000", "112950.165000", "112950.625000", "112951.085000", "112951.545000", "112952.005000", "112952.465000", "112952.925000", "112953.385000", "112953.845000", "112954.305000", "112954.765000", "112955.225000", "112955.685000", "112956.145000", "112956.605000", "112957.065000", "112957.525000", "112957.985000", "112958.445000", "112958.905000", "112959.365000", "112959.825000", "113000.285000", "113000.745000", "113001.205000", "113001.665000", "113002.125000", "113002.585000", "113003.045000", "113003.505000", "113003.965000", "113004.425000", "113004.885000", "113005.345000", "113005.805000", "113006.265000", "113006.725000", "113007.185000", "113007.645000", "113008.105000", "113008.565000", "113009.025000", "113009.485000", "113009.945000", "113010.405000", "113010.865000", "113011.325000", "113011.785000", "113012.245000", "113012.705000", "113013.165000", "113013.625000", "113014.085000", "113014.545000", "113015.005000", "113015.465000", "113015.925000", "113016.385000", "113016.845000", "113017.305000", "113017.765000", "113018.225000", "113018.685000", "113019.145000", "113019.605000", "113020.065000", "113020.525000", "113020.985000", "113021.445000", "113021.905000", "113022.365000", "113022.825000", "113023.285000", "113023.745000", "113024.205000", "113024.665000", "113025.125000", "113025.585000", "113026.045000", "113026.505000", "113026.965000", "113027.425000", "113027.885000", "113028.345000", "113028.805000", "113029.265000", "113029.725000", "113030.185000", "113030.645000", "113031.105000", "113031.565000", "113032.025000", "113032.485000", "113032.945000", "113033.405000", "113033.865000", "113034.325000", "113034.785000", "113035.245000", "113035.705000", "113036.165000", "113036.625000", "113037.085000", "113037.545000", "113038.005000", "113038.465000", "113038.925000", "113039.385000", "113039.845000", "113040.305000", "113040.765000", "113041.225000", "113041.685000", "113042.145000", "113042.605000", "113043.065000", "113043.525000", "113043.985000", "113044.445000", "113044.905000", "113045.365000", "113045.825000", "113046.285000", "113046.745000", "113047.205000", "113047.665000", "113048.125000", "113048.585000", "113049.045000", "113049.505000", "113049.965000", "113050.425000", "113050.885000", "113051.345000", "113051.805000", "113052.265000", "113052.725000", "113053.185000", "113053.645000", "113054.105000", "113054.565000", "113055.025000", "113055.485000", "113055.945000", "113056.405000", "113056.865000", "113057.325000", "113057.785000", "113058.245000", "113058.705000", "113059.165000", "113059.625000", "113100.085000", "113100.545000", "113101.005000", "113101.465000", "113101.925000", "113102.385000", "113102.845000", "113103.305000", "113103.765000", "113104.225000", "113104.685000", "113105.145000", "113105.605000", "113106.065000", "113106.525000", "113106.985000", "113107.445000", "113107.905000", "113108.365000", "113108.825000", "113109.285000", "113109.745000", "113110.205000", "113110.665000", "113111.125000", "113111.585000", "113112.045000", "113112.505000", "113112.965000", "113113.425000", "113113.885000", "113114.345000", "113114.805000", "113115.265000", "113115.725000", "113116.185000", "113116.645000", "113117.105000", "113117.565000", "113118.025000", "113118.485000", "113118.945000", "113119.405000", "113119.865000", "113120.325000", "113120.785000", "113121.245000", "113121.705000", "113122.165000", "113122.625000", "113123.085000", "113123.545000", "113124.005000", "113124.465000", "113124.925000", "113125.385000", "113125.845000", "113126.305000", "113126.765000", "113127.225000", "113127.685000", "113128.145000", "113128.605000", "113129.065000", "113129.525000", "113129.985000", "113130.445000", "113130.905000", "113131.365000", "113131.825000", "113132.285000", "113132.745000", "113133.205000", "113133.665000", "113134.125000", "113134.585000", "113135.045000", "113135.505000", "113135.965000", "113136.425000", "113136.885000", "113137.345000", "113137.805000", "113138.265000", "113138.725000", "113139.185000", "113139.645000", "113140.105000", "113140.565000", "113141.025000", "113141.485000", "113141.945000", "113142.405000", "113142.865000", "113143.325000", "113143.785000", "113144.245000", "113144.705000", "113145.165000", "113145.625000", "113146.085000", "113146.545000", "113147.005000", "113147.465000", "113147.925000", "113148.385000", "113148.845000", "113149.305000", "113149.765000", "113150.225000", "113150.685000", "113151.145000", "113151.605000", "113152.065000", "113152.525000", "113152.985000", "113153.445000", "113153.905000", "113154.365000", "113154.825000", "113155.285000", "113155.745000", "113156.205000", "113156.665000", "113157.125000", "113157.585000", "113158.045000", "113158.505000", "113158.965000", "113159.425000", "113159.885000", "113200.345000", "113200.805000", "113201.265000", "113201.725000", "113202.185000", "113202.645000", "113203.105000", "113203.565000", "113204.025000", "113204.485000", "113204.945000", "113205.405000", "113205.865000", "113206.325000", "113206.785000", "113207.245000", "113207.705000", "113208.165000", "113208.625000", "113209.085000", "113209.545000", "113210.005000", "113210.465000", "113210.925000", "113211.385000", "113211.845000", "113212.305000", "113212.765000", "113213.225000", "113213.685000", "113214.145000", "113214.605000", "113215.065000", "113215.525000", "113215.985000", "113216.445000", "113216.905000", "113217.365000", "113217.825000", "113218.285000", "113218.745000", "113219.205000", "113219.665000", "113220.125000", "113220.585000", "113221.045000", "113221.505000", "113221.965000", "113222.425000", "113222.885000", "113223.345000", "113223.805000", "113224.265000", "113224.725000", "113225.185000", "113225.645000", "113226.105000", "113226.565000", "113227.025000", "113227.485000", "113227.945000", "113228.405000", "113228.865000", "113229.325000", "113229.785000", "113230.245000", "113230.705000", "113231.165000", "113231.625000", "113232.085000", "113232.545000", "113233.005000", "113233.465000", "113233.925000", "113234.385000", "113234.845000", "113235.305000", "113235.765000", "113236.225000", "113236.685000", "113237.145000", "113237.605000", "113238.065000", "113238.525000", "113238.985000", "113239.445000", "113239.905000", "113240.365000", "113240.825000", "113241.285000", "113241.745000", "113242.205000", "113242.665000", "113243.125000", "113243.585000", "113244.045000", "113244.505000", "113244.965000", "113245.425000", "113245.885000", "113246.345000", "113246.805000", "113247.265000", "113247.725000", "113248.185000", "113248.645000", "113249.105000", "113249.565000", "113250.025000", "113250.485000", "113250.945000", "113251.405000", "113251.865000"],
