{
  "AcquisitionMatrixPE": 82,
  "AcquisitionNumber": 1,
  "AcquisitionTime": "10:43:17.420000",
  "BandwidthPerPixelPhaseEncode": 24.888,
  "BaseResolution": 82,
  "BodyPartExamined": "BRAIN",
  "ConsistencyInfo": "N4_VE11E_LATEST_20181129",
  "ConversionSoftware": "dcm2niix",
  "ConversionSoftwareVersion": "v1.0.20201102",
  "DerivedVendorReportedEchoSpacing": 0.00049,
  "DeviceSerialNumber": "66112",
  "DwellTime": 2e-06,
  "EchoTime": 0.0272,
  "EchoTrainLength": 82,
  "EffectiveEchoSpacing": 0.00049,
  "FlipAngle": 44,
  "ImageComments": "Unaliased MB8/PE3",
  "ImageOrientationPatientDICOM": [0.99593, -0.022364, -0.0873077, 0.0140805, 0.995438, -0.0943647],
  "ImageType": [
    "ORIGINAL",
    "PRIMARY",
    "M",
    "MB",
    "ND",
    "NORM",
    "MOSAIC"
],
  "ImagingFrequency": 123.259,
  "InPlanePhaseEncodingDirectionDICOM": "COL",
  "InstitutionAddress": "Maynard 3,Hanover,NH,US,03755",
  "InstitutionName": "Dartmouth College - PBS",
  "InstitutionalDepartmentName": "Department",
  "MRAcquisitionType": "2D",
  "MagneticFieldStrength": 3,
  "Manufacturer": "Siemens",
  "ManufacturersModelName": "Prisma",
  "Modality": "MR",
  "MultibandAccelerationFactor": 8,
  "PartialFourier": 1,
  "PatientPosition": "HFS",
  "PercentPhaseFOV": 100,
  "PercentSampling": 100,
  "PhaseEncodingDirection": "j-",
  "PhaseEncodingSteps": 82,
  "PhaseResolution": 1,
  "PixelBandwidth": 3050,
  "ProcedureStepDescription": "Wager_Wager^1076_spacetop",
  "ProtocolName": "func_run-03_task-faces_acq-ap-mb8",
  "PulseSequenceDetails": "%CustomerSeq%\\cmrr_mbep2d_bold",
  "ReceiveCoilActiveElements": "HEA;HEP",
  "ReceiveCoilName": "Head_32",
  "ReconMatrixPE": 82,
  "RepetitionTime": 0.46,
  "SAR": 0.097724,
  "ScanOptions": "FS",
  "ScanningSequence": "EP",
  "SequenceName": "epfid2d1_82",
  "SequenceVariant": "SK\\SS",
  "SeriesDescription": "func_run-03_task-faces_acq-ap-mb8",
  "SeriesNumber": 22,
  "ShimSetting": [4218, -7791, -7296, 210, -124, -132, -114, 96],
  "SliceThickness": 2.7,
  "SliceTiming": [0, 0.25, 0.0625, 0.315, 0.125, 0.3775, 0.1875, 0, 0.25, 0.0625, 0.315, 0.125, 0.3775, 0.1875, 0, 0.25, 0.0625, 0.315, 0.125, 0.3775, 0.1875, 0, 0.25, 0.0625, 0.315, 0.125, 0.3775, 0.1875, 0, 0.25, 0.0625, 0.315, 0.125, 0.3775, 0.1875, 0, 0.25, 0.0625, 0.315, 0.125, 0.3775, 0.1875, 0, 0.25, 0.0625, 0.315, 0.125, 0.3775, 0.1875, 0, 0.25, 0.0625, 0.315, 0.125, 0.3775, 0.1875],
  "SoftwareVersions": "syngo MR E11",
  "SpacingBetweenSlices": 2.7,
  "StationName": "AWP66112",
  "TaskName": "faces",
  "TotalReadoutTime": 0.03969,
  "TxRefAmp": 256.126,
  "WipMemBlock": "ea2bce50-4ae9-4542-aef5-b97597bed378||Sequence: R016 ve11e/master r/434b28f1; Aug  7 2019 18:53:46 by eja",
  "dcmmeta_affine": [
    [-2.6720082759857178, 0.037777043879032135, -0.2403535544872284, 116.93028259277344],
    [0.06000104546546936, 2.670687675476074, -0.2504286766052246, -95.27086639404297],
    [-0.23424029350280762, 0.25317367911338806, 2.6775951385498047, -82.20867156982422],
    [0.0, 0.0, 0.0, 1.0]
],
  "dcmmeta_reorient_transform": [
    [0.0, -1.0, 0.0, 81.0],
    [1.0, 0.0, 0.0, 0.0],
    [0.0, 0.0, 1.0, 0.0],
    [0.0, 0.0, 0.0, 1.0]
],
  "dcmmeta_shape": [82, 82, 56, 914],
  "dcmmeta_slice_dim": 2,
  "dcmmeta_version": 0.6,
  "global": {
    "const": {
      "AccessionNumber": "A004357",
      "AcquisitionMatrix": [82, 0, 0, 82],
      "AngioFlag": "N",
      "BitsAllocated": 16,
      "BitsStored": 16,
      "BodyPartExamined": "BRAIN",
      "Columns": 656,
      "EchoNumbers": 1,
      "EchoTime": 27.2,
      "EchoTrainLength": 82,
      "FlipAngle": 44.0,
      "HighBit": 15,
      "ImageOrientationPatient": [0.99593032294551, -0.0223640252368, -0.0873077442892, 0.01408053461961, 0.99543811276556, -0.0943647296322],
      "ImagePositionPatient": [-897.69860153634, -870.32190197335, 78.186203469894],
      "ImageType": [
        "ORIGINAL",
        "PRIMARY",
        "M",
        "MB",
        "ND",
        "NORM",
        "MOSAIC"
],
      "ImagedNucleus": "1H",
      "ImagingFrequency": 123.259097,
      "InPlanePhaseEncodingDirection": "COL",
      "MRAcquisitionType": "2D",
      "MagneticFieldStrength": 3.0,
      "Manufacturer": "SIEMENS",
      "ManufacturerModelName": "Prisma",
      "Modality": "MR",
      "NumberOfAverages": 1.0,
      "NumberOfPhaseEncodingSteps": 82,
      "PercentPhaseFieldOfView": 100.0,
      "PercentSampling": 100.0,
      "PerformedProcedureStepStartTime": "092303.821000",
      "PhotometricInterpretation": "MONOCHROME2",
      "PixelBandwidth": 3050.0,
      "PixelRepresentation": 0,
      "PixelSpacing": [2.6829268932343, 2.6829268932343],
      "ProtocolName": "func_run-03_task-faces_acq-ap-mb8",
      "RepetitionTime": 460.0,
      "Rows": 656,
      "SAR": 0.09772404624535,
      "SamplesPerPixel": 1,
      "ScanOptions": "FS",
      "ScanningSequence": "EP",
      "SequenceName": "epfid2d1_82",
      "SequenceVariant": [
        "SK",
        "SS"
],
      "SeriesDescription": "func_run-03_task-faces_acq-ap-mb8",
      "SeriesNumber": 22,
      "SeriesTime": "104327.280000",
      "SliceLocation": -83.09910824864,
      "SliceThickness": 2.7000000476837,
      "SmallestImagePixelValue": 0,
      "SoftwareVersions": "syngo MR E11",
      "SpacingBetweenSlices": 2.7000001160758,
      "SpecificCharacterSet": "ISO_IR 100",
      "StudyID": "2",
      "StudyTime": "092303.606000",
      "TransmitCoilName": "Body",
      "VariableFlipAngleFlag": "N",
      "WindowCenterWidthExplanation": "Algo1"
    },
    "slices": {}
  },
  "time": {
    "samples": {
      "AcquisitionNumber": [1, 2, 3, 4, 5, 6, 7, 8, 9, 10, 11, 12, 13, 14, 15, 16, 17, 18, 19, 20, 21, 22, 23, 24, 25, 26, 27, 28, 29, 30, 31, 32, 33, 34, 35, 36, 37, 38, 39, 40, 41, 42, 43, 44, 45, 46, 47, 48, 49, 50, 51, 52, 53, 54, 55, 56, 57, 58, 59, 60, 61, 62, 63, 64, 65, 66, 67, 68, 69, 70, 71, 72, 73, 74, 75, 76, 77, 78, 79, 80, 81, 82, 83, 84, 85, 86, 87, 88, 89, 90, 91, 92, 93, 94, 95, 96, 97, 98, 99, 100, 101, 102, 103, 104, 105, 106, 107, 108, 109, 110, 111, 112, 113, 114, 115, 116, 117, 118, 119, 120, 121, 122, 123, 124, 125, 126, 127, 128, 129, 130, 131, 132, 133, 134, 135, 136, 137, 138, 139, 140, 141, 142, 143, 144, 145, 146, 147, 148, 149, 150, 151, 152, 153, 154, 155, 156, 157, 158, 159, 160, 161, 162, 163, 164, 165, 166, 167, 168, 169, 170, 171, 172, 173, 174, 175, 176, 177, 178, 179, 180, 181, 182, 183, 184, 185, 186, 187, 188, 189, 190, 191, 192, 193, 194, 195, 196, 197, 198, 199, 200, 201, 202, 203, 204, 205, 206, 207, 208, 209, 210, 211, 212, 213, 214, 215, 216, 217, 218, 219, 220, 221, 222, 223, 224, 225, 226, 227, 228, 229, 230, 231, 232, 233, 234, 235, 236, 237, 238, 239, 240, 241, 242, 243, 244, 245, 246, 247, 248, 249, 250, 251, 252, 253, 254, 255, 256, 257, 258, 259, 260, 261, 262, 263, 264, 265, 266, 267, 268, 269, 270, 271, 272, 273, 274, 275, 276, 277, 278, 279, 280, 281, 282, 283, 284, 285, 286, 287, 288, 289, 290, 291, 292, 293, 294, 295, 296, 297, 298, 299, 300, 301, 302, 303, 304, 305, 306, 307, 308, 309, 310, 311, 312, 313, 314, 315, 316, 317, 318, 319, 320, 321, 322, 323, 324, 325, 326, 327, 328, 329, 330, 331, 332, 333, 334, 335, 336, 337, 338, 339, 340, 341, 342, 343, 344, 345, 346, 347, 348, 349, 350, 351, 352, 353, 354, 355, 356, 357, 358, 359, 360, 361, 362, 363, 364, 365, 366, 367, 368, 369, 370, 371, 372, 373, 374, 375, 376, 377, 378, 379, 380, 381, 382, 383, 384, 385, 386, 387, 388, 389, 390, 391, 392, 393, 394, 395, 396, 397, 398, 399, 400, 401, 402, 403, 404, 405, 406, 407, 408, 409, 410, 411, 412, 413, 414, 415, 416, 417, 418, 419, 420, 421, 422, 423, 424, 425, 426, 427, 428, 429, 430, 431, 432, 433, 434, 435, 436, 437, 438, 439, 440, 441, 442, 443, 444, 445, 446, 447, 448, 449, 450, 451, 452, 453, 454, 455, 456, 457, 458, 459, 460, 461, 462, 463, 464, 465, 466, 467, 468, 469, 470, 471, 472, 473, 474, 475, 476, 477, 478, 479, 480, 481, 482, 483, 484, 485, 486, 487, 488, 489, 490, 491, 492, 493, 494, 495, 496, 497, 498, 499, 500, 501, 502, 503, 504, 505, 506, 507, 508, 509, 510, 511, 512, 513, 514, 515, 516, 517, 518, 519, 520, 521, 522, 523, 524, 525, 526, 527, 528, 529, 530, 531, 532, 533, 534, 535, 536, 537, 538, 539, 540, 541, 542, 543, 544, 545, 546, 547, 548, 549, 550, 551, 552, 553, 554, 555, 556, 557, 558, 559, 560, 561, 562, 563, 564, 565, 566, 567, 568, 569, 570, 571, 572, 573, 574, 575, 576, 577, 578, 579, 580, 581, 582, 583, 584, 585, 586, 587, 588, 589, 590, 591, 592, 593, 594, 595, 596, 597, 598, 599, 600, 601, 602, 603, 604, 605, 606, 607, 608, 609, 610, 611, 612, 613, 614, 615, 616, 617, 618, 619, 620, 621, 622, 623, 624, 625, 626, 627, 628, 629, 630, 631, 632, 633, 634, 635, 636, 637, 638, 639, 640, 641, 642, 643, 644, 645, 646, 647, 648, 649, 650, 651, 652, 653, 654, 655, 656, 657, 658, 659, 660, 661, 662, 663, 664, 665, 666, 667, 668, 669, 670, 671, 672, 673, 674, 675, 676, 677, 678, 679, 680, 681, 682, 683, 684, 685, 686, 687, 688, 689, 690, 691, 692, 693, 694, 695, 696, 697, 698, 699, 700, 701, 702, 703, 704, 705, 706, 707, 708, 709, 710, 711, 712, 713, 714, 715, 716, 717, 718, 719, 720, 721, 722, 723, 724, 725, 726, 727, 728, 729, 730, 731, 732, 733, 734, 735, 736, 737, 738, 739, 740, 741, 742, 743, 744, 745, 746, 747, 748, 749, 750, 751, 752, 753, 754, 755, 756, 757, 758, 759, 760, 761, 762, 763, 764, 765, 766, 767, 768, 769, 770, 771, 772, 773, 774, 775, 776, 777, 778, 779, 780, 781, 782, 783, 784, 785, 786, 787, 788, 789, 790, 791, 792, 793, 794, 795, 796, 797, 798, 799, 800, 801, 802, 803, 804, 805, 806, 807, 808, 809, 810, 811, 812, 813, 814, 815, 816, 817, 818, 819, 820, 821, 822, 823, 824, 825, 826, 827, 828, 829, 830, 831, 832, 833, 834, 835, 836, 837, 838, 839, 840, 841, 842, 843, 844, 845, 846, 847, 848, 849, 850, 851, 852, 853, 854, 855, 856, 857, 858, 859, 860, 861, 862, 863, 864, 865, 866, 867, 868, 869, 870, 871, 872, 873, 874, 875, 876, 877, 878, 879, 880, 881, 882, 883, 884, 885, 886, 887, 888, 889, 890, 891, 892, 893, 894, 895, 896, 897, 898, 899, 900, 901, 902, 903, 904, 905, 906, 907, 908, 909, 910, 911, 912, 913, 914],
      "AcquisitionTime": ["104317.420000", "104317.880000", "104318.340000", "104318.800000", "104319.260000", "104319.720000", "104320.180000", "104320.640000", "104321.100000", "104321.560000", "104322.020000", "104322.480000", "104322.940000", "104323.400000", "104323.860000", "104324.320000", "104324.780000", "104325.240000", "104325.700000", "104326.160000", "104326.620000", "104327.080000", "104327.540000", "104328.000000", "104328.460000", "104328.920000", "104329.380000", "104329.840000", "104330.300000", "104330.760000", "104331.220000", "104331.680000", "104332.140000", "104332.600000", "104333.060000", "104333.520000", "104333.980000", "104334.440000", "104334.900000", "104335.360000", "104335.820000", "104336.280000", "104336.740000", "104337.200000", "104337.660000", "104338.120000", "104338.580000", "104339.040000", "104339.500000", "104339.960000", "104340.420000", "104340.880000", "104341.340000", "104341.800000", "104342.260000", "104342.720000", "104343.180000", "104343.640000", "104344.100000", "104344.560000", "104345.020000", "104345.480000", "104345.940000", "104346.400000", "104346.860000", "104347.320000", "104347.780000", "104348.240000", "104348.700000", "104349.160000", "104349.620000", "104350.080000", "104350.540000", "104351.000000", "104351.460000", "104351.920000", "104352.380000", "104352.840000", "104353.300000", "104353.760000", "104354.220000", "104354.680000", "104355.140000", "104355.600000", "104356.060000", "104356.520000", "104356.980000", "104357.440000", "104357.900000", "104358.360000", "104358.820000", "104359.280000", "104359.740000", "104400.200000", "104400.660000", "104401.120000", "104401.580000", "104402.040000", "104402.500000", "104402.960000", "104403.420000", "104403.880000", "104404.340000", "104404.800000", "104405.260000", "104405.720000", "104406.180000", "104406.640000", "104407.100000", "104407.560000", "104408.020000", "104408.480000", "104408.940000", "104409.400000", "104409.860000", "104410.320000", "104410.780000", "104411.240000", "104411.700000", "104412.160000", "104412.620000", "104413.080000", "104413.540000", "104414.000000", "104414.460000", "104414.920000", "104415.380000", "104415.840000", "104416.300000", "104416.760000", "104417.220000", "104417.680000", "104418.140000", "104418.600000", "104419.060000", "104419.520000", "104419.980000", "104420.440000", "104420.900000", "104421.360000", "104421.820000", "104422.280000", "104422.740000", "104423.200000", "104423.660000", "104424.120000", "104424.580000", "104425.040000", "104425.500000", "104425.960000", "104426.420000", "104426.880000", "104427.340000", "104427.800000", "104428.260000", "104428.720000", "104429.180000", "104429.640000", "104430.100000", "104430.560000", "104431.020000", "104431.480000", "104431.940000", "104432.400000", "104432.860000", "104433.320000", "104433.780000", "104434.240000", "104434.700000", "104435.160000", "104435.620000", "104436.080000", "104436.540000", "104437.000000", "104437.460000", "104437.920000", "104438.380000", "104438.840000", "104439.300000", "104439.760000", "104440.220000", "104440.680000", "104441.140000", "104441.600000", "104442.060000", "104442.520000", "104442.980000", "104443.440000", "104443.900000", "104444.360000", "104444.820000", "104445.280000", "104445.740000", "104446.200000", "104446.660000", "104447.120000", "104447.580000", "104448.040000", "104448.500000", "104448.960000", "104449.420000", "104449.880000", "104450.340000", "104450.800000", "104451.260000", "104451.720000", "104452.180000", "104452.640000", "104453.100000", "104453.560000", "104454.020000", "104454.480000", "104454.940000", "104455.400000", "104455.860000", "104456.320000", "104456.780000", "104457.240000", "104457.700000", "104458.160000", "104458.620000", "104459.080000", "104459.540000", "104500.000000", "104500.460000", "104500.920000", "104501.380000", "104501.840000", "104502.300000", "104502.760000", "104503.220000", "104503.680000", "104504.140000", "104504.600000", "104505.060000", "104505.520000", "104505.980000", "104506.440000", "104506.900000", "104507.360000", "104507.820000", "104508.280000", "104508.740000", "104509.200000", "104509.660000", "104510.120000", "104510.580000", "104511.040000", "104511.500000", "104511.960000", "104512.420000", "104512.880000", "104513.340000", "104513.800000", "104514.260000", "104514.720000", "104515.180000", "104515.640000", "104516.100000", "104516.560000", "104517.020000", "104517.480000", "104517.940000", "104518.400000", "104518.860000", "104519.320000", "104519.780000", "104520.240000", "104520.700000", "104521.160000", "104521.620000", "104522.080000", "104522.540000", "104523.000000", "104523.460000", "104523.920000", "104524.380000", "104524.840000", "104525.300000", "104525.760000", "104526.220000", "104526.680000", "104527.140000", "104527.600000", "104528.060000", "104528.520000", "104528.980000", "104529.440000", "104529.900000", "104530.360000", "104530.820000", "104531.280000", "104531.740000", "104532.200000", "104532.660000", "104533.120000", "104533.580000", "104534.040000", "104534.500000", "104534.960000", "104535.420000", "104535.880000", "104536.340000", "104536.800000", "104537.260000", "104537.720000", "104538.180000", "104538.640000", "104539.100000", "104539.560000", "104540.020000", "104540.480000", "104540.940000", "104541.400000", "104541.860000", "104542.320000", "104542.780000", "104543.240000", "104543.700000", "104544.160000", "104544.620000", "104545.080000", "104545.540000", "104546.000000", "104546.460000", "104546.920000", "104547.380000", "104547.840000", "104548.300000", "104548.760000", "104549.220000", "104549.680000", "104550.140000", "104550.600000", "104551.060000", "104551.520000", "104551.980000", "104552.440000", "104552.900000", "104553.360000", "104553.820000", "104554.280000", "104554.740000", "104555.200000", "104555.660000", "104556.120000", "104556.580000", "104557.040000", "104557.500000", "104557.960000", "104558.420000", "104558.880000", "104559.340000", "104559.800000", "104600.260000", "104600.720000", "104601.180000", "104601.640000", "104602.100000", "104602.560000", "104603.020000", "104603.480000", "104603.940000", "104604.400000", "104604.860000", "104605.320000", "104605.780000", "104606.240000", "104606.700000", "104607.160000", "104607.620000", "104608.080000", "104608.540000", "104609.000000", "104609.460000", "104609.920000", "104610.380000", "104610.840000", "104611.300000", "104611.760000", "104612.220000", "104612.680000", "104613.140000", "104613.600000", "104614.060000", "104614.520000", "104614.980000", "104615.440000", "104615.900000", "104616.360000", "104616.820000", "104617.280000", "104617.740000", "104618.200000", "104618.660000", "104619.120000", "104619.580000", "104620.040000", "104620.500000", "104620.960000", "104621.420000", "104621.880000", "104622.340000", "104622.800000", "104623.260000", "104623.720000", "104624.180000", "104624.640000", "104625.100000", "104625.560000", "104626.020000", "104626.480000", "104626.940000", "104627.400000", "104627.860000", "104628.320000", "104628.780000", "104629.240000", "104629.700000", "104630.160000", "104630.620000", "104631.080000", "104631.540000", "104632.000000", "104632.460000", "104632.920000", "104633.380000", "104633.840000", "104634.300000", "104634.760000", "104635.220000", "104635.680000", "104636.140000", "104636.600000", "104637.060000", "104637.520000", "104637.980000", "104638.440000", "104638.900000", "104639.360000", "104639.820000", "104640.280000", "104640.740000", "104641.200000", "104641.660000", "104642.120000", "104642.580000", "104643.040000", "104643.500000", "104643.960000", "104644.420000", "104644.880000", "104645.340000", "104645.800000", "104646.260000", "104646.720000", "104647.180000", "104647.640000", "104648.100000", "104648.560000", "104649.020000", "104649.480000", "104649.940000", "104650.400000", "104650.860000", "104651.320000", "104651.780000", "104652.240000", "104652.700000", "104653.160000", "104653.620000", "104654.080000", "104654.540000", "104655.000000", "104655.460000", "104655.920000", "104656.380000", "104656.840000", "104657.300000", "104657.760000", "104658.220000", "104658.680000", "104659.140000", "104659.600000", "104700.060000", "104700.520000", "104700.980000", "104701.440000", "104701.900000", "104702.360000", "104702.820000", "104703.280000", "104703.740000", "104704.200000", "104704.660000", "104705.120000", "104705.580000", "104706.040000", "104706.500000", "104706.960000", "104707.420000", "104707.880000", "104708.340000", "104708.800000", "104709.260000", "104709.720000", "104710.180000", "104710.640000", "104711.100000", "104711.560000", "104712.020000", "104712.480000", "104712.940000", "104713.400000", "104713.860000", "104714.320000", "104714.780000", "104715.240000", "104715.700000", "104716.160000", "104716.620000", "104717.080000", "104717.540000", "104718.000000", "104718.460000", "104718.920000", "104719.380000", "104719.840000", "104720.300000", "104720.760000", "104721.220000", "104721.680000", "104722.140000", "104722.600000", "104723.060000", "104723.520000", "104723.980000", "104724.440000", "104724.900000", "104725.360000", "104725.820000", "104726.280000", "104726.740000", "104727.200000", "104727.660000", "104728.120000", "104728.580000", "104729.040000", "104729.500000", "104729.960000", "104730.420000", "104730.880000", "104731.340000", "104731.800000", "104732.260000", "104732.720000", "104733.180000", "104733.640000", "104734.100000", "104734.560000", "104735.020000", "104735.480000", "104735.940000", "104736.400000", "104736.860000", "104737.320000", "104737.780000", "104738.240000", "104738.700000", "104739.160000", "104739.620000", "104740.080000", "104740.540000", "104741.000000", "104741.460000", "104741.920000", "104742.380000", "104742.840000", "104743.300000", "104743.760000", "104744.220000", "104744.680000", "104745.140000", "104745.600000", "104746.060000", "104746.520000", "104746.980000", "104747.440000", "104747.900000", "104748.360000", "104748.820000", "104749.280000", "104749.740000", "104750.200000", "104750.660000", "104751.120000", "104751.580000", "104752.040000", "104752.500000", "104752.960000", "104753.420000", "104753.880000", "104754.340000", "104754.800000", "104755.260000", "104755.720000", "104756.180000", "104756.640000", "104757.100000", "104757.560000", "104758.020000", "104758.480000", "104758.940000", "104759.400000", "104759.860000", "104800.320000", "104800.780000", "104801.240000", "104801.700000", "104802.160000", "104802.620000", "104803.080000", "104803.540000", "104804.000000", "104804.460000", "104804.920000", "104805.380000", "104805.840000", "104806.300000", "104806.760000", "104807.220000", "104807.680000", "104808.140000", "104808.600000", "104809.060000", "104809.520000", "104809.980000", "104810.440000", "104810.900000", "104811.360000", "104811.820000", "104812.280000", "104812.740000", "104813.200000", "104813.660000", "104814.120000", "104814.580000", "104815.040000", "104815.500000", "104815.960000", "104816.420000", "104816.880000", "104817.340000", "104817.800000", "104818.260000", "104818.720000", "104819.180000", "104819.640000", "104820.100000", "104820.560000", "104821.020000", "104821.480000", "104821.940000", "104822.400000", "104822.860000", "104823.320000", "104823.780000", "104824.240000", "104824.700000", "104825.160000", "104825.620000", "104826.080000", "104826.540000", "104827.000000", "104827.460000", "104827.920000", "104828.380000", "104828.840000", "104829.300000", "104829.760000", "104830.220000", "104830.680000", "104831.140000", "104831.600000", "104832.060000", "104832.520000", "104832.980000", "104833.440000", "104833.900000", "104834.360000", "104834.820000", "104835.280000", "104835.740000", "104836.200000", "104836.660000", "104837.120000", "104837.580000", "104838.040000", "104838.500000", "104838.960000", "104839.420000", "104839.880000", "104840.340000", "104840.800000", "104841.260000", "104841.720000", "104842.180000", "104842.640000", "104843.100000", "104843.560000", "104844.020000", "104844.480000", "104844.940000", "104845.400000", "104845.860000", "104846.320000", "104846.780000", "104847.240000", "104847.700000", "104848.160000", "104848.620000", "104849.080000", "104849.540000", "104850.000000", "104850.460000", "104850.920000", "104851.380000", "104851.840000", "104852.300000", "104852.760000", "104853.220000", "104853.680000", "104854.140000", "104854.600000", "104855.060000", "104855.520000", "104855.980000", "104856.440000", "104856.900000", "104857.360000", "104857.820000", "104858.280000", "104858.740000", "104859.200000", "104859.660000", "104900.120000", "104900.580000", "104901.040000", "104901.500000", "104901.960000", "104902.420000", "104902.880000", "104903.340000", "104903.800000", "104904.260000", "104904.720000", "104905.180000", "104905.640000", "104906.100000", "104906.560000", "104907.020000", "104907.480000", "104907.940000", "104908.400000", "104908.860000", "104909.320000", "104909.780000", "104910.240000", "104910.700000", "104911.160000", "104911.620000", "104912.080000", "104912.540000", "104913.000000", "104913.460000", "104913.920000", "104914.380000", "104914.840000", "104915.300000", "104915.760000", "104916.220000", "104916.680000", "104917.140000", "104917.600000", "104918.060000", "104918.520000", "104918.980000", "104919.440000", "104919.900000", "104920.360000", "104920.820000", "104921.280000", "104921.740000", "104922.200000", "104922.660000", "104923.120000", "104923.580000", "104924.040000", "104924.500000", "104924.960000", "104925.420000", "104925.880000", "104926.340000", "104926.800000", "104927.260000", "104927.720000", "104928.180000", "104928.640000", "104929.100000", "104929.560000", "104930.020000", "104930.480000", "104930.940000", "104931.400000", "104931.860000", "104932.320000", "104932.780000", "104933.240000", "104933.700000", "104934.160000", "104934.620000", "104935.080000", "104935.540000", "104936.000000", "104936.460000", "104936.920000", "104937.380000", "104937.840000", "104938.300000", "104938.760000", "104939.220000", "104939.680000", "104940.140000", "104940.600000", "104941.060000", "104941.520000", "104941.980000", "104942.440000", "104942.900000", "104943.360000", "104943.820000", "104944.280000", "104944.740000", "104945.200000", "104945.660000", "104946.120000", "104946.580000", "104947.040000", "104947.500000", "104947.960000", "104948.420000", "104948.880000", "104949.340000", "104949.800000", "104950.260000", "104950.720000", "104951.180000", "104951.640000", "104952.100000", "104952.560000", "104953.020000", "104953.480000", "104953.940000", "104954.400000", "104954.860000", "104955.320000", "104955.780000", "104956.240000", "104956.700000", "104957.160000", "104957.620000", "104958.080000", "104958.540000", "104959.000000", "104959.460000", "104959.920000", "105000.380000", "105000.840000", "105001.300000", "105001.760000", "105002.220000", "105002.680000", "105003.140000", "105003.600000", "105004.060000", "105004.520000", "105004.980000", "105005.440000", "105005.900000", "105006.360000", "105006.820000", "105007.280000", "105007.740000", "105008.200000", "105008.660000", "105009.120000", "105009.580000", "105010.040000", "105010.500000", "105010.960000", "105011.420000", "105011.880000", "105012.340000", "105012.800000", "105013.260000", "105013.720000", "105014.180000", "105014.640000", "105015.100000", "105015.560000", "105016.020000", "105016.480000", "105016.940000", "105017.400000"],
