{
  "AcquisitionMatrixPE": 140,
  "AcquisitionNumber": 1,
  "AcquisitionTime": "21:41:29.217500",
  "BandwidthPerPixelPhaseEncode": 10.352,
  "BaseResolution": 140,
  "BodyPartExamined": "BRAIN",
  "ConsistencyInfo": "N4_VE11E_LATEST_20181129",
  "ConversionSoftware": "dcm2niix",
  "ConversionSoftwareVersion": "v1.0.20201102",
  "DerivedVendorReportedEchoSpacing": 0.000689998,
  "DeviceSerialNumber": "66112",
  "DiffusionScheme": "Monopolar",
  "DwellTime": 2.1e-06,
  "EchoTime": 0.088,
  "EchoTrainLength": 105,
  "EffectiveEchoSpacing": 0.000689998,
  "FlipAngle": 90,
  "ImageComments": "Unaliased MB3/PE3",
  "ImageOrientationPatientDICOM": [0.999738, 0.0218713, 0.0066866, -0.0223381, 0.996517, 0.0803378],
  "ImageType": [
    "ORIGINAL",
    "PRIMARY",
    "DIFFUSION",
    "NONE",
    "MB",
    "ND"
],
  "ImagingFrequency": 123.252,
  "InPlanePhaseEncodingDirectionDICOM": "COL",
  "InstitutionAddress": "Maynard 3,Hanover,NH,US,03755",
  "InstitutionName": "Dartmouth College - PBS",
  "InstitutionalDepartmentName": "Department",
  "IntendedFor": [
    "ses-01/dwi/sub-0087_ses-01_acq-96dirX6b0Xmb_dwi.nii.gz"
],
  "MRAcquisitionType": "2D",
  "MagneticFieldStrength": 3,
  "Manufacturer": "Siemens",
  "ManufacturersModelName": "Prisma",
  "Modality": "MR",
  "MultibandAccelerationFactor": 3,
  "PartialFourier": 0.75,
  "PatientPosition": "HFS",
  "PercentPhaseFOV": 100,
  "PercentSampling": 100,
  "PhaseEncodingDirection": "j",
  "PhaseEncodingSteps": 105,
  "PhaseResolution": 1,
  "PixelBandwidth": 1700,
  "ProcedureStepDescription": "Wager_Wager^1076_spacetop",
  "ProtocolName": "dwi_acq-discorr-PA",
  "PulseSequenceDetails": "%CustomerSeq%\\cmrr_mbep2d_diff",
  "ReceiveCoilActiveElements": "HEA;HEP",
  "ReceiveCoilName": "Head_32",
  "ReconMatrixPE": 140,
  "RepetitionTime": 4.1,
  "SAR": 0.153724,
  "ScanOptions": "PFP\\FS",
  "ScanningSequence": "EP",
  "SequenceName": "ep_b0",
  "SequenceVariant": "SK\\SS",
  "SeriesDescription": "dwi_acq-discorr-PA",
  "SeriesNumber": 6,
  "ShimSetting": [4162, -7777, -7242, 572, -32, 9, 29, 63],
  "SliceThickness": 1.7,
  "SliceTiming": [0, 2.10938, 0.15625, 2.26562, 0.29688, 2.42188, 0.45312, 2.5625, 0.60938, 2.71875, 0.75, 2.875, 0.90625, 3.01562, 1.0625, 3.17188, 1.20312, 3.32812, 1.35938, 3.46875, 1.51562, 3.625, 1.65625, 3.78125, 1.8125, 3.92188, 1.96875, 0, 2.10938, 0.15625, 2.26562, 0.29688, 2.42188, 0.45312, 2.5625, 0.60938, 2.71875, 0.75, 2.875, 0.90625, 3.01562, 1.0625, 3.17188, 1.20312, 3.32812, 1.35938, 3.46875, 1.51562, 3.625, 1.65625, 3.78125, 1.8125, 3.92188, 1.96875, 0, 2.10938, 0.15625, 2.26562, 0.29688, 2.42188, 0.45312, 2.5625, 0.60938, 2.71875, 0.75, 2.875, 0.90625, 3.01562, 1.0625, 3.17188, 1.20312, 3.32812, 1.35938, 3.46875, 1.51562, 3.625, 1.65625, 3.78125, 1.8125, 3.92188, 1.96875],
  "SoftwareVersions": "syngo MR E11",
  "SpacingBetweenSlices": 1.7,
  "StationName": "AWP66112",
  "TotalReadoutTime": 0.0959097,
  "TxRefAmp": 253.67,
  "WipMemBlock": "46f94abb-aaa1-4984-bb2e-4e5d2a1626d9||Sequence: R016 ve11e/master r/434b28f1; Aug  7 2019 19:06:17 by eja",
  "dcmmeta_affine": [
    [-1.7138373851776123, -0.038293931633234024, 0.008340597152709961, 124.92048645019531],
    [-0.03749360144138336, 1.7083154916763306, 0.1367931365966797, -97.85294342041016],
    [0.011462748982012272, -0.13772200047969818, 1.6944656372070312, -56.68186950683594],
    [0.0, 0.0, 0.0, 1.0]
],
  "dcmmeta_reorient_transform": [
    [0.0, -1.0, 0.0, 139.0],
    [1.0, 0.0, 0.0, 0.0],
    [0.0, 0.0, -1.0, 80.0],
    [0.0, 0.0, 0.0, 1.0]
],
  "dcmmeta_shape": [140, 140, 81],
  "dcmmeta_slice_dim": 2,
  "dcmmeta_version": 0.6,
  "global": {
    "const": {
      "AccessionNumber": "A004111",
      "AcquisitionMatrix": [140, 0, 0, 140],
      "AcquisitionNumber": 1,
      "AngioFlag": "N",
      "BitsAllocated": 16,
      "BitsStored": 16,
      "BodyPartExamined": "BRAIN",
      "Columns": 140,
      "EchoNumbers": 1,
      "EchoTime": 88.0,
      "EchoTrainLength": 105,
      "FlipAngle": 90.0,
      "HighBit": 15,
      "ImageOrientationPatient": [0.99973843431308, 0.02187126635088, 0.00668660343077, -0.022338126651, 0.99651735563134, 0.08033783680967],
      "ImageType": [
        "ORIGINAL",
        "PRIMARY",
        "DIFFUSION",
        "NONE",
        "MB",
        "ND"
],
      "ImagedNucleus": "1H",
      "ImagingFrequency": 123.252179,
      "InPlanePhaseEncodingDirection": "COL",
      "MRAcquisitionType": "2D",
      "MagneticFieldStrength": 3.0,
      "Manufacturer": "SIEMENS",
      "ManufacturerModelName": "Prisma",
      "Modality": "MR",
      "NumberOfAverages": 1.0,
      "NumberOfPhaseEncodingSteps": 105,
      "PercentPhaseFieldOfView": 100.0,
      "PercentSampling": 100.0,
      "PerformedProcedureStepStartTime": "213212.058000",
      "PhotometricInterpretation": "MONOCHROME2",
      "PixelBandwidth": 1700.0,
      "PixelRepresentation": 0,
      "PixelSpacing": [1.7142857313156, 1.7142857313156],
      "ProtocolName": "dwi_acq-discorr-PA",
      "RepetitionTime": 4100.0,
      "Rows": 140,
      "SAR": 0.15372405080655,
      "SamplesPerPixel": 1,
      "ScanOptions": [
        "PFP",
        "FS"
],
      "ScanningSequence": "EP",
      "SequenceName": "ep_b0",
      "SequenceVariant": [
        "SK",
        "SS"
],
      "SeriesDescription": "dwi_acq-discorr-PA",
      "SeriesNumber": 6,
      "SeriesTime": "214133.941000",
      "SliceThickness": 1.7000000476837,
      "SmallestImagePixelValue": 0,
      "SoftwareVersions": "syngo MR E11",
      "SpacingBetweenSlices": 1.7,
      "SpecificCharacterSet": "ISO_IR 100",
      "StudyID": "1",
      "StudyTime": "213211.994000",
      "TransmitCoilName": "Body",
      "VariableFlipAngleFlag": "N",
      "WindowCenterWidthExplanation": "Algo1"
    },
    "slices": {
      "AcquisitionTime": ["214129.217500", "214131.332500", "214129.370000", "214131.485000", "214129.520000", "214131.635000", "214129.672500", "214131.787500", "214129.822500", "214131.937500", "214129.972500", "214132.090000", "214130.125000", "214132.240000", "214130.275000", "214132.392500", "214130.427500", "214132.542500", "214130.577500", "214132.692500", "214130.730000", "214132.845000", "214130.880000", "214132.995000", "214131.032500", "214133.147500", "214131.182500", "214129.217500", "214131.332500", "214129.370000", "214131.485000", "214129.520000", "214131.635000", "214129.672500", "214131.787500", "214129.822500", "214131.937500", "214129.972500", "214132.090000", "214130.125000", "214132.240000", "214130.275000", "214132.392500", "214130.427500", "214132.542500", "214130.577500", "214132.692500", "214130.730000", "214132.845000", "214130.880000", "214132.995000", "214131.032500", "214133.147500", "214131.182500", "214129.217500", "214131.332500", "214129.370000", "214131.485000", "214129.520000", "214131.635000", "214129.672500", "214131.787500", "214129.822500", "214131.937500", "214129.972500", "214132.090000", "214130.125000", "214132.240000", "214130.275000", "214132.392500", "214130.427500", "214132.542500", "214130.577500", "214132.692500", "214130.730000", "214132.845000", "214130.880000", "214132.995000", "214131.032500", "214133.147500", "214131.182500"],
      "ContentTime": ["214133.944000", "214134.046000", "214133.952000", "214134.052000", "214133.958000", "214134.058000", "214133.964000", "214134.064000", "214133.970000", "214134.070000", "214133.985000", "214134.076000", "214133.991000", "214134.083000", "214133.997000", "214134.090000", "214134.004000", "214134.096000", "214134.011000", "214134.103000", "214134.017000", "214134.109000", "214134.028000", "214134.115000", "214134.034000", "214134.122000", "214134.040000", "214133.948000", "214134.048000", "214133.954000", "214134.054000", "214133.960000", "214134.060000", "214133.966000", "214134.066000", "214133.981000", "214134.072000", "214133.987000", "214134.079000", "214133.993000", "214134.085000", "214134.000000", "214134.092000", "214134.006000", "214134.098000", "214134.013000", "214134.105000", "214134.018000", "214134.111000", "214134.030000", "214134.117000", "214134.036000", "214134.124000", "214134.042000", "214133.950000", "214134.050000", "214133.956000", "214134.056000", "214133.962000", "214134.062000", "214133.968000", "214134.068000", "214133.983000", "214134.074000", "214133.989000", "214134.081000", "214133.995000", "214134.087000", "214134.002000", "214134.094000", "214134.008000", "214134.100000", "214134.015000", "214134.107000", "214134.020000", "214134.113000", "214134.032000", "214134.119000", "214134.038000", "214134.126000", "214134.044000"],
      "CsaImage.GSWDDataType": [
        "predicted",
        "predicted",
        "predicted",
        "predicted",
        "predicted",
        "predicted",
        "predicted",
        "predicted",
        "predicted",
        "predicted",
        "predicted",
        "predicted",
        "predicted",
        "predicted",
        "predicted",
        "predicted",
        "predicted",
        "predicted",
        "predicted",
        "predicted",
        "predicted",
        "predicted",
        "predicted",
        "measured",
        "predicted",
        "measured",
        "predicted",
        "predicted",
        "predicted",
        "predicted",
        "predicted",
        "predicted",
        "predicted",
        "predicted",
        "predicted",
        "predicted",
        "predicted",
        "predicted",
        "predicted",
        "predicted",
        "predicted",
        "predicted",
        "predicted",
        "predicted",
        "predicted",
        "predicted",
        "predicted",
        "predicted",
        "predicted",
        "predicted",
        "measured",
        "predicted",
        "measured",
        "predicted",
        "predicted",
        "predicted",
        "predicted",
        "predicted",
        "predicted",
        "predicted",
        "predicted",
        "predicted",
        "predicted",
        "predicted",
        "predicted",
        "predicted",
        "predicted",
        "predicted",
        "predicted",
        "predicted",
        "predicted",
        "predicted",
        "predicted",
        "predicted",
        "predicted",
        "predicted",
        "predicted",
        "measured",
        "predicted",
        "measured",
        "predicted"
],
      "CsaImage.ICE_Dims": [
        "X_1_1_1_1_1_1_1_1_1_1_1_262",
        "X_1_1_1_1_1_1_42_1_1_2_1_262",
        "X_1_1_1_1_1_1_2_1_1_3_1_262",
        "X_1_1_1_1_1_1_43_1_1_4_1_262",
        "X_1_1_1_1_1_1_3_1_1_5_1_262",
        "X_1_1_1_1_1_1_44_1_1_6_1_262",
        "X_1_1_1_1_1_1_4_1_1_7_1_262",
        "X_1_1_1_1_1_1_45_1_1_8_1_262",
        "X_1_1_1_1_1_1_5_1_1_9_1_262",
        "X_1_1_1_1_1_1_46_1_1_10_1_262",
        "X_1_1_1_1_1_1_6_1_1_11_1_262",
        "X_1_1_1_1_1_1_47_1_1_12_1_262",
        "X_1_1_1_1_1_1_7_1_1_13_1_262",
        "X_1_1_1_1_1_1_48_1_1_14_1_262",
        "X_1_1_1_1_1_1_8_1_1_15_1_262",
        "X_1_1_1_1_1_1_49_1_1_16_1_262",
        "X_1_1_1_1_1_1_9_1_1_17_1_262",
        "X_1_1_1_1_1_1_50_1_1_18_1_262",
        "X_1_1_1_1_1_1_10_1_1_19_1_262",
        "X_1_1_1_1_1_1_51_1_1_20_1_262",
        "X_1_1_1_1_1_1_11_1_1_21_1_262",
        "X_1_1_1_1_1_1_52_1_1_22_1_262",
        "X_1_1_1_1_1_1_12_1_1_23_1_262",
        "X_1_1_1_1_1_1_53_1_1_24_1_262",
        "X_1_1_1_1_1_1_13_1_1_25_1_262",
        "X_1_1_1_1_1_1_54_1_1_26_1_262",
        "X_1_1_1_1_1_1_14_1_1_27_1_262",
        "X_1_1_1_1_1_1_55_1_1_28_1_262",
        "X_1_1_1_1_1_1_15_1_1_29_1_262",
        "X_1_1_1_1_1_1_56_1_1_30_1_262",
        "X_1_1_1_1_1_1_16_1_1_31_1_262",
        "X_1_1_1_1_1_1_57_1_1_32_1_262",
        "X_1_1_1_1_1_1_17_1_1_33_1_262",
        "X_1_1_1_1_1_1_58_1_1_34_1_262",
        "X_1_1_1_1_1_1_18_1_1_35_1_262",
        "X_1_1_1_1_1_1_59_1_1_36_1_262",
        "X_1_1_1_1_1_1_19_1_1_37_1_262",
        "X_1_1_1_1_1_1_60_1_1_38_1_262",
        "X_1_1_1_1_1_1_20_1_1_39_1_262",
        "X_1_1_1_1_1_1_61_1_1_40_1_262",
        "X_1_1_1_1_1_1_21_1_1_41_1_262",
        "X_1_1_1_1_1_1_62_1_1_42_1_262",
        "X_1_1_1_1_1_1_22_1_1_43_1_262",
        "X_1_1_1_1_1_1_63_1_1_44_1_262",
        "X_1_1_1_1_1_1_23_1_1_45_1_262",
        "X_1_1_1_1_1_1_64_1_1_46_1_262",
        "X_1_1_1_1_1_1_24_1_1_47_1_262",
        "X_1_1_1_1_1_1_65_1_1_48_1_262",
        "X_1_1_1_1_1_1_25_1_1_49_1_262",
        "X_1_1_1_1_1_1_66_1_1_50_1_262",
        "X_1_1_1_1_1_1_26_1_1_51_1_262",
        "X_1_1_1_1_1_1_67_1_1_52_1_262",
        "X_1_1_1_1_1_1_27_1_1_53_1_262",
        "X_1_1_1_1_1_1_68_1_1_54_1_262",
        "X_1_1_1_1_1_1_28_1_1_55_1_262",
        "X_1_1_1_1_1_1_69_1_1_56_1_262",
        "X_1_1_1_1_1_1_29_1_1_57_1_262",
        "X_1_1_1_1_1_1_70_1_1_58_1_262",
        "X_1_1_1_1_1_1_30_1_1_59_1_262",
        "X_1_1_1_1_1_1_71_1_1_60_1_262",
        "X_1_1_1_1_1_1_31_1_1_61_1_262",
        "X_1_1_1_1_1_1_72_1_1_62_1_262",
        "X_1_1_1_1_1_1_32_1_1_63_1_262",
        "X_1_1_1_1_1_1_73_1_1_64_1_262",
        "X_1_1_1_1_1_1_33_1_1_65_1_262",
        "X_1_1_1_1_1_1_74_1_1_66_1_262",
        "X_1_1_1_1_1_1_34_1_1_67_1_262",
        "X_1_1_1_1_1_1_75_1_1_68_1_262",
        "X_1_1_1_1_1_1_35_1_1_69_1_262",
        "X_1_1_1_1_1_1_76_1_1_70_1_262",
        "X_1_1_1_1_1_1_36_1_1_71_1_262",
        "X_1_1_1_1_1_1_77_1_1_72_1_262",
        "X_1_1_1_1_1_1_37_1_1_73_1_262",
        "X_1_1_1_1_1_1_78_1_1_74_1_262",
        "X_1_1_1_1_1_1_38_1_1_75_1_262",
        "X_1_1_1_1_1_1_79_1_1_76_1_262",
        "X_1_1_1_1_1_1_39_1_1_77_1_262",
        "X_1_1_1_1_1_1_80_1_1_78_1_262",
        "X_1_1_1_1_1_1_40_1_1_79_1_262",
        "X_1_1_1_1_1_1_81_1_1_80_1_262",
        "X_1_1_1_1_1_1_41_1_1_81_1_262"
],
      "CsaImage.ProtocolSliceNumber": [0, 1, 2, 3, 4, 5, 6, 7, 8, 9, 10, 11, 12, 13, 14, 15, 16, 17, 18, 19, 20, 21, 22, 23, 24, 25, 26, 27, 28, 29, 30, 31, 32, 33, 34, 35, 36, 37, 38, 39, 40, 41, 42, 43, 44, 45, 46, 47, 48, 49, 50, 51, 52, 53, 54, 55, 56, 57, 58, 59, 60, 61, 62, 63, 64, 65, 66, 67, 68, 69, 70, 71, 72, 73, 74, 75, 76, 77, 78, 79, 80],
      "CsaImage.RFSWDDataType": [
        "predicted",
        "predicted",
        "predicted",
        "predicted",
        "predicted",
        "predicted",
        "predicted",
        "predicted",
        "predicted",
        "predicted",
        "predicted",
        "predicted",
        "predicted",
        "predicted",
        "predicted",
        "predicted",
        "predicted",
        "predicted",
        "predicted",
        "predicted",
        "predicted",
        "predicted",
        "predicted",
        "measured",
        "predicted",
        "measured",
        "predicted",
        "predicted",
        "predicted",
        "predicted",
        "predicted",
        "predicted",
        "predicted",
        "predicted",
        "predicted",
        "predicted",
        "predicted",
        "predicted",
        "predicted",
        "predicted",
        "predicted",
        "predicted",
        "predicted",
        "predicted",
        "predicted",
        "predicted",
        "predicted",
        "predicted",
        "predicted",
        "predicted",
        "measured",
        "predicted",
        "measured",
        "predicted",
        "predicted",
        "predicted",
        "predicted",
        "predicted",
        "predicted",
        "predicted",
        "predicted",
        "predicted",
        "predicted",
        "predicted",
        "predicted",
        "predicted",
        "predicted",
        "predicted",
        "predicted",
        "predicted",
        "predicted",
        "predicted",
        "predicted",
        "predicted",
        "predicted",
        "predicted",
        "predicted",
        "measured",
        "predicted",
        "measured",
        "predicted"
],
      "CsaImage.SlicePosition_PCS": [
        [-119.59762914, -139.6029581, -75.82533345],
        [-119.60596974, -139.73975124, -74.13086399],
        [-119.61431033, -139.87654438, -72.43639836],
        [-119.62265093, -140.0133356, -70.74193272],
        [-119.63099153, -140.15012874, -69.04746327],
        [-119.63933213, -140.28692188, -67.35299763],
        [-119.64767272, -140.42371501, -65.65852818],
        [-119.65601332, -140.56050624, -63.96406254],
        [-119.66435392, -140.69729938, -62.2695969],
        [-119.67269451, -140.83409252, -60.57512745],
        [-119.68103511, -140.97088375, -58.88066181],
        [-119.68937547, -141.10767688, -57.18619618],
        [-119.69771607, -141.24447002, -55.49172673],
        [-119.70605666, -141.38126125, -53.79726109],
        [-119.71439726, -141.51805439, -52.10279545],
        [-119.72273786, -141.65484752, -50.408326],
        [-119.73107846, -141.79163875, -48.71386036],
        [-119.73941905, -141.92843189, -47.01939472],
        [-119.74775965, -142.06522502, -45.32492527],
        [-119.75610025, -142.20201625, -43.63045964],
        [-119.76444084, -142.33880939, -41.93599209],
        [-119.77278144, -142.47560253, -40.24152645],
        [-119.78112204, -142.61239376, -38.54705891],
        [-119.78946264, -142.74918689, -36.85259136],
        [-119.79780323, -142.88598003, -35.15812573],
        [-119.80614383, -143.02277126, -33.46365818],
        [-119.81448443, -143.15956439, -31.76919064],
        [-119.82282502, -143.29635753, -30.074725],
        [-119.83116562, -143.43314876, -28.38025746],
        [-119.83950622, -143.5699419, -26.68578991],
        [-119.84784682, -143.70673503, -24.99132332],
        [-119.85618741, -143.84352626, -23.29685673],
        [-119.86452777, -143.9803194, -21.60238919],
        [-119.87286837, -144.11711254, -19.90792259],
        [-119.88120897, -144.25390567, -18.21345553],
        [-119.88954956, -144.3906969, -16.51898846],
        [-119.89789016, -144.52749004, -14.82452139],
        [-119.90623076, -144.66428318, -13.13005456],
        [-119.91457135, -144.8010744, -11.43558761],
        [-119.92291195, -144.93786754, -9.74112067],
        [-119.93125255, -145.07466068, -8.04665384],
        [-119.93959315, -145.21145191, -6.35218701],
        [-119.94793374, -145.34824504, -4.65771994],
        [-119.95627434, -145.48503818, -2.96325287],
        [-119.96461494, -145.62182941, -1.26878628],
        [-119.97295553, -145.75862255, 0.42568126],
        [-119.98129613, -145.89541568, 2.12014786],
        [-119.98963673, -146.03220691, 3.81461445],
        [-119.99797733, -146.16900005, 5.50908199],
        [-120.00631792, -146.30579319, 7.20354954],
        [-120.01465852, -146.44258441, 8.89801517],
        [-120.02299912, -146.57937755, 10.59248272],
        [-120.03133948, -146.71617069, 12.28695026],
        [-120.03968007, -146.85296192, 13.9814159],
        [-120.04802067, -146.98975505, 15.67588344],
        [-120.05636127, -147.12654819, 17.37035099],
        [-120.06470186, -147.26333942, 19.06481662],
        [-120.07304246, -147.40013256, 20.75928417],
        [-120.08138306, -147.53692569, 22.45374981],
        [-120.08972366, -147.67371692, 24.14821926],
        [-120.09806425, -147.81051006, 25.8426849],
        [-120.10640485, -147.9473032, 27.53715053],
        [-120.11474545, -148.08409633, 29.23161998],
        [-120.12308604, -148.22088756, 30.92608562],
        [-120.13142664, -148.3576807, 32.62055126],
        [-120.13976724, -148.49447383, 34.31502071],
        [-120.14810784, -148.63126506, 36.00948635],
        [-120.15644843, -148.7680582, 37.70395199],
        [-120.16478903, -148.90485134, 39.39842144],
        [-120.17312963, -149.04164257, 41.09288707],
        [-120.18147022, -149.1784357, 42.78735653],
        [-120.18981082, -149.31522884, 44.48182216],
        [-120.19815142, -149.45202007, 46.1762878],
        [-120.20649178, -149.5888132, 47.87075725],
        [-120.21483238, -149.72560634, 49.56522289],
        [-120.22317297, -149.86239757, 51.25968853],
        [-120.23151357, -149.99919071, 52.95415798],
        [-120.23985417, -150.13598384, 54.6486198],
        [-120.24819476, -150.27277507, 56.34309307],
        [-120.25653536, -150.40956821, 58.03755871],
        [-120.26487596, -150.54636135, 59.73202434]
],
      "CsaImage.TimeAfterStart": [16.4, 18.515, 16.5525, 18.6675, 16.7025, 18.8175, 16.8525, 18.97, 17.005, 19.12, 17.155, 19.27, 17.3075, 19.4225, 17.4575, 19.5725, 17.61, 19.725, 17.76, 19.875, 17.91, 20.0275, 18.0625, 20.1775, 18.2125, 20.33, 18.365, 16.4, 18.515, 16.5525, 18.6675, 16.7025, 18.8175, 16.8525, 18.97, 17.005, 19.12, 17.155, 19.27, 17.3075, 19.4225, 17.4575, 19.5725, 17.61, 19.725, 17.76, 19.875, 17.91, 20.0275, 18.0625, 20.1775, 18.2125, 20.33, 18.365, 16.4, 18.515, 16.5525, 18.6675, 16.7025, 18.8175, 16.8525, 18.97, 17.005, 19.12, 17.155, 19.27, 17.3075, 19.4225, 17.4575, 19.5725, 17.61, 19.725, 17.76, 19.875, 17.91, 20.0275, 18.0625, 20.1775, 18.2125, 20.33, 18.365],
      "ImagePositionPatient": [
        [-119.59762913952, -139.60295810225, -75.825333445289],
        [-119.60596973668, -139.73975123884, -74.130863993384],
        [-119.61431033383, -139.87654437544, -72.436398356177],
        [-119.62265093098, -140.01333560469, -70.74193271897],
        [-119.63099152813, -140.15012874128, -69.047463267066],
        [-119.63933212529, -140.28692187788, -67.352997629859],
        [-119.64767272244, -140.42371501448, -65.658528177955],
        [-119.65601331959, -140.56050624373, -63.964062540748],
        [-119.66435391674, -140.69729938032, -62.269596903541],
        [-119.6726945139, -140.83409251692, -60.575127451636],
        [-119.68103511105, -140.97088374617, -58.880661814429],
        [-119.68937546978, -141.10767688276, -57.186196177222],
        [-119.69771606694, -141.24447001936, -55.491726725318],
        [-119.70605666409, -141.38126124861, -53.797261088111],
        [-119.71439726124, -141.51805438521, -52.102795450904],
        [-119.72273785839, -141.6548475218, -50.408325999],
        [-119.73107845555, -141.79163875105, -48.713860361793],
        [-119.7394190527, -141.92843188765, -47.019394724586],
        [-119.74775964985, -142.06522502424, -45.324925272681],
        [-119.75610024701, -142.20201625349, -43.630459635474],
        [-119.76444084416, -142.33880939009, -41.935992090919],
        [-119.77278144131, -142.47560252669, -40.241526453712],
        [-119.78112203846, -142.61239375593, -38.547058909156],
        [-119.78946263562, -142.74918689253, -36.8525913646],
        [-119.79780323277, -142.88598002913, -35.158125727393],
        [-119.80614382992, -143.02277125837, -33.463658182838],
        [-119.81448442707, -143.15956439497, -31.769190638282],
        [-119.82282502423, -143.29635753157, -30.074725001075],
        [-119.83116562138, -143.43314876082, -28.380257456519],
        [-119.83950621853, -143.56994189741, -26.685789911964],
        [-119.84784681569, -143.70673503401, -24.991323321082],
        [-119.85618741284, -143.84352626326, -23.296856730201],
        [-119.86452777157, -143.98031939985, -21.602389185645],
        [-119.87286836872, -144.11711253645, -19.907922594764],
        [-119.88120896588, -144.25390567305, -18.213455527045],
        [-119.88954956303, -144.3906969023, -16.518988459327],
        [-119.89789016018, -144.52749003889, -14.824521391608],
        [-119.90623075734, -144.66428317549, -13.130054562308],
        [-119.91457135449, -144.80107440474, -11.435587613799],
        [-119.92291195164, -144.93786754133, -9.7411206652899],
        [-119.93125254879, -145.07466067793, -8.04665383599],
        [-119.93959314595, -145.21145190718, -6.3521870066901],
        [-119.9479337431, -145.34824504377, -4.6577199389716],
        [-119.95627434025, -145.48503818037, -2.9632528712531],
        [-119.9646149374, -145.62182940962, -1.2687862803717],
        [-119.97295553456, -145.75862254622, 0.42568126418393],
        [-119.98129613171, -145.89541568281, 2.1201478550653],
        [-119.98963672886, -146.03220691206, 3.8146144459466],
        [-119.99797732602, -146.16900004866, 5.5090819905023],
        [-120.00631792317, -146.30579318525, 7.2035495350579],
        [-120.01465852032, -146.4425844145, 8.898015172265],
        [-120.02299911747, -146.5793775511, 10.592482716821],
        [-120.03133947621, -146.7161706877, 12.286950261376],
        [-120.03968007336, -146.85296191694, 13.981415898583],
        [-120.04802067051, -146.98975505354, 15.675883443139],
        [-120.05636126767, -147.12654819014, 17.370350987695],
        [-120.06470186482, -147.26333941939, 19.064816624902],
        [-120.07304246197, -147.40013255598, 20.759284169457],
        [-120.08138305912, -147.53692569258, 22.453749806664],
        [-120.08972365628, -147.67371692183, 24.148219258569],
        [-120.09806425343, -147.81051005842, 25.842684895776],
        [-120.10640485058, -147.94730319502, 27.537150532983],
        [-120.11474544773, -148.08409633162, 29.231619984887],
        [-120.12308604489, -148.22088756086, 30.926085622094],
        [-120.13142664204, -148.35768069746, 32.620551259301],
        [-120.13976723919, -148.49447383406, 34.315020711205],
        [-120.14810783635, -148.63126506331, 36.009486348412],
        [-120.1564484335, -148.7680581999, 37.703951985619],
        [-120.16478903065, -148.9048513365, 39.398421437524],
        [-120.1731296278, -149.04164256575, 41.092887074731],
        [-120.18147022496, -149.17843570234, 42.787356526635],
        [-120.18981082211, -149.31522883894, 44.481822163842],
        [-120.19815141926, -149.45202006819, 46.176287801049],
        [-120.206491778, -149.58881320479, 47.870757252953],
        [-120.21483237515, -149.72560634138, 49.56522289016],
        [-120.2231729723, -149.86239757063, 51.259688527368],
        [-120.23151356945, -149.99919070723, 52.954157979272],
        [-120.23985416661, -150.13598384382, 54.648619801782],
        [-120.24819476376, -150.27277507307, 56.343093068383],
        [-120.25653536091, -150.40956820967, 58.03755870559],
        [-120.26487595806, -150.54636134627, 59.732024342797]
],
      "InstanceCreationTime": ["214133.944000", "214134.046000", "214133.952000", "214134.052000", "214133.958000", "214134.058000", "214133.964000", "214134.064000", "214133.970000", "214134.070000", "214133.985000", "214134.076000", "214133.991000", "214134.083000", "214133.997000", "214134.090000", "214134.004000", "214134.096000", "214134.011000", "214134.103000", "214134.017000", "214134.109000", "214134.028000", "214134.115000", "214134.034000", "214134.122000", "214134.040000", "214133.948000", "214134.048000", "214133.954000", "214134.054000", "214133.960000", "214134.060000", "214133.966000", "214134.066000", "214133.981000", "214134.072000", "214133.987000", "214134.079000", "214133.993000", "214134.085000", "214134.000000", "214134.092000", "214134.006000", "214134.098000", "214134.013000", "214134.105000", "214134.018000", "214134.111000", "214134.030000", "214134.117000", "214134.036000", "214134.124000", "214134.042000", "214133.950000", "214134.050000", "214133.956000", "214134.056000", "214133.962000", "214134.062000", "214133.968000", "214134.068000", "214133.983000", "214134.074000", "214133.989000", "214134.081000", "214133.995000", "214134.087000", "214134.002000", "214134.094000", "214134.008000", "214134.100000", "214134.015000", "214134.107000", "214134.020000", "214134.113000", "214134.032000", "214134.119000", "214134.038000", "214134.126000", "214134.044000"],
      "InstanceNumber": [1, 2, 3, 4, 5, 6, 7, 8, 9, 10, 11, 12, 13, 14, 15, 16, 17, 18, 19, 20, 21, 22, 23, 24, 25, 26, 27, 28, 29, 30, 31, 32, 33, 34, 35, 36, 37, 38, 39, 40, 41, 42, 43, 44, 45, 46, 47, 48, 49, 50, 51, 52, 53, 54, 55, 56, 57, 58, 59, 60, 61, 62, 63, 64, 65, 66, 67, 68, 69, 70, 71, 72, 73, 74, 75, 76, 77, 78, 79, 80, 81],
      "LargestImagePixelValue": [24317, 25951, 24095, 17249, 22331, 28682, 28085, 32619, 33153, 34606, 34819, 22484, 23826, 33134, 25893, 30750, 43734, 37154, 50309, 37588, 53924, 33231, 49400, 57919, 65535, 65535, 65535, 65535, 65535, 65535, 62805, 48643, 35913, 39755, 45449, 46747, 58290, 55466, 56020, 55355, 46762, 43895, 37185, 39293, 46329, 40831, 37844, 41152, 35636, 33196, 37288, 40060, 37048, 35840, 44550, 33970, 35245, 34589, 37631, 46583, 40232, 41510, 39371, 45083, 41594, 50096, 60738, 44691, 35853, 35775, 36953, 41558, 43114, 42043, 37877, 35378, 39811, 44572, 37395, 45486, 33547],
      "SliceLocation": [-63.758450923372, -62.058448378898, -60.358449636706, -58.65845104799, -56.958448503517, -55.258449761324, -53.55844721685, -51.858448628135, -50.158449885943, -48.458447341469, -46.758448752754, -45.058450011731, -43.358447467257, -41.658448878542, -39.958450136349, -38.258447591875, -36.55844900316, -34.858450260968, -33.158447716494, -31.458449127779, -29.758448484445, -28.058449742253, -26.358449252397, -24.658448609064, -22.958449866872, -21.258449377016, -19.558448733682, -17.85844999149, -16.158449501634, -14.458448858301, -12.758449165538, -11.058449626252, -9.358448984089, -7.6584492913263, -5.9584491232783, -4.2584491087075, -2.5584489406595, -0.8584490102542, 0.84155088549538, 2.541550934722, 4.2415508651274, 5.9415506420556, 7.6415508101036, 9.3415509781515, 11.041550517437, 12.74155116077, 14.441550853533, 16.141550392819, 17.841551036152, 19.541551679485, 21.2415502682, 22.941550911533, 24.641551553697, 26.341550142412, 28.041550785745, 29.741551429078, 31.441550017794, 33.141550661127, 34.841549403319, 36.541551794316, 38.241550536508, 39.941549278701, 41.641551823175, 43.34155041189, 45.041549154082, 46.741551698556, 48.441550287271, 50.141549029464, 51.841551573938, 53.541550162653, 55.241552707127, 56.941551449319, 58.641550038035, 60.341552581339, 62.041551323531, 63.741549912246, 65.44155245672, 67.141547396631, 68.841553589909, 70.541552332102, 72.241551074294],
