{
  "AcquisitionMatrixPE": 140,
  "AcquisitionNumber": 1,
  "AcquisitionTime": "09:03:50.030000",
  "BandwidthPerPixelPhaseEncode": 10.352,
  "BaseResolution": 140,
  "BodyPartExamined": "BRAIN",
  "ConsistencyInfo": "N4_VE11E_LATEST_20181129",
  "ConversionSoftware": "dcm2niix",
  "ConversionSoftwareVersion": "v1.0.20201102",
  "DerivedVendorReportedEchoSpacing": 0.000689998,
  "DeviceSerialNumber": "66112",
  "DiffusionScheme": "Monopolar",
  "DwellTime": 2.1e-06,
  "EchoTime": 0.0884,
  "EchoTrainLength": 105,
  "EffectiveEchoSpacing": 0.000689998,
  "FlipAngle": 90,
  "ImageComments": "Unaliased MB3/PE3 SENSE1",
  "ImageOrientationPatientDICOM": [0.997457, 0.0640468, -0.031279, -0.056465, 0.977838, 0.201603],
  "ImageType": [
    "ORIGINAL",
    "PRIMARY",
    "DIFFUSION",
    "NONE",
    "MB",
    "ND",
    "MOSAIC"
],
  "ImagingFrequency": 123.252,
  "InPlanePhaseEncodingDirectionDICOM": "COL",
  "InstitutionAddress": "Maynard 3,Hanover,NH,US,03755",
  "InstitutionName": "Dartmouth College - PBS",
  "InstitutionalDepartmentName": "Department",
  "MRAcquisitionType": "2D",
  "MagneticFieldStrength": 3,
  "Manufacturer": "Siemens",
  "ManufacturersModelName": "Prisma",
  "Modality": "MR",
  "MultibandAccelerationFactor": 3,
  "PartialFourier": 0.75,
  "PatientPosition": "HFS",
  "PercentPhaseFOV": 100,
  "PercentSampling": 100,
  "PhaseEncodingDirection": "j-",
  "PhaseEncodingSteps": 105,
  "PhaseResolution": 1,
  "PixelBandwidth": 1700,
  "ProcedureStepDescription": "Wager_Wager^1076_spacetop",
  "ProtocolName": "dwi_acq-96dir-6b0-mb",
  "PulseSequenceDetails": "%CustomerSeq%\\cmrr_mbep2d_diff",
  "ReceiveCoilActiveElements": "HEA;HEP",
  "ReceiveCoilName": "Head_32",
  "ReconMatrixPE": 140,
  "RepetitionTime": 4.11,
  "SAR": 0.240041,
  "ScanOptions": "PFP\\FS",
  "ScanningSequence": "EP",
  "SequenceName": "ep_b5#1",
  "SequenceVariant": "SK\\SS",
  "SeriesDescription": "dwi_acq-96dir-6b0-mb",
  "SeriesNumber": 8,
  "ShimSetting": [4142, -7736, -7313, 454, -47, -67, 23, 65],
  "SliceThickness": 1.7,
  "SliceTiming": [0, 2.12, 0.15, 2.2725, 0.3025, 2.4225, 0.455, 2.575, 0.605, 2.7275, 0.7575, 2.8775, 0.9075, 3.03, 1.06, 3.18, 1.2125, 3.3325, 1.3625, 3.4825, 1.515, 3.635, 1.665, 3.7875, 1.8175, 3.9375, 1.97, 0, 2.12, 0.15, 2.2725, 0.3025, 2.4225, 0.455, 2.575, 0.605, 2.7275, 0.7575, 2.8775, 0.9075, 3.03, 1.06, 3.18, 1.2125, 3.3325, 1.3625, 3.4825, 1.515, 3.635, 1.665, 3.7875, 1.8175, 3.9375, 1.97, 0, 2.12, 0.15, 2.2725, 0.3025, 2.4225, 0.455, 2.575, 0.605, 2.7275, 0.7575, 2.8775, 0.9075, 3.03, 1.06, 3.18, 1.2125, 3.3325, 1.3625, 3.4825, 1.515, 3.635, 1.665, 3.7875, 1.8175, 3.9375, 1.97],
  "SoftwareVersions": "syngo MR E11",
  "SpacingBetweenSlices": 1.7,
  "StationName": "AWP66112",
  "TotalReadoutTime": 0.0959097,
  "TxRefAmp": 257.392,
  "WipMemBlock": "539e4cf1-7908-485a-b663-8758ada43dce||Sequence: R016 ve11e/master r/434b28f1; Aug  7 2019 19:06:17 by eja",
  "dcmmeta_affine": [
    [-1.7099255323410034, -0.09679720550775528, -0.07394639402627945, 129.77908325195312],
    [-0.10979445278644562, 1.6762943267822266, 0.33885157108306885, -93.59498596191406],
    [-0.05362119525671005, -0.3456058204174042, 1.6642450094223022, -15.93458080291748],
    [0.0, 0.0, 0.0, 1.0]
],
  "dcmmeta_reorient_transform": [
    [0.0, -1.0, 0.0, 139.0],
    [1.0, 0.0, 0.0, 0.0],
    [0.0, 0.0, 1.0, 0.0],
    [0.0, 0.0, 0.0, 1.0]
],
  "dcmmeta_shape": [140, 140, 81, 103],
  "dcmmeta_slice_dim": 2,
  "dcmmeta_version": 0.6,
  "global": {
    "const": {
      "AccessionNumber": "A003930",
      "AcquisitionMatrix": [140, 0, 0, 140],
      "AngioFlag": "N",
      "BitsAllocated": 16,
      "BitsStored": 16,
      "BodyPartExamined": "BRAIN",
      "Columns": 1260,
      "EchoNumbers": 1,
      "EchoTime": 88.4,
      "EchoTrainLength": 105,
      "FlipAngle": 90.0,
      "HighBit": 15,
      "ImageOrientationPatient": [0.99745658269057, 0.06404676366472, -0.0312790298976, -0.0564650351343, 0.97783831589708, 0.20160339226024],
      "ImagePositionPatient": [-1019.6761656228, -1139.6196022441, -227.48517951203],
      "ImageType": [
        "ORIGINAL",
        "PRIMARY",
        "DIFFUSION",
        "NONE",
        "MB",
        "ND",
        "MOSAIC"
],
      "ImagedNucleus": "1H",
      "ImagingFrequency": 123.252174,
      "InPlanePhaseEncodingDirection": "COL",
      "MRAcquisitionType": "2D",
      "MagneticFieldStrength": 3.0,
      "Manufacturer": "SIEMENS",
      "ManufacturerModelName": "Prisma",
      "Modality": "MR",
      "NumberOfAverages": 1.0,
      "NumberOfPhaseEncodingSteps": 105,
      "PercentPhaseFieldOfView": 100.0,
      "PercentSampling": 100.0,
      "PerformedProcedureStepStartTime": "084529.773000",
      "PhotometricInterpretation": "MONOCHROME2",
      "PixelBandwidth": 1700.0,
      "PixelRepresentation": 0,
      "PixelSpacing": [1.7142857313156, 1.7142857313156],
      "ProtocolName": "dwi_acq-96dir-6b0-mb",
      "RepetitionTime": 4110.0,
      "Rows": 1260,
      "SAR": 0.24004097843163,
      "SamplesPerPixel": 1,
      "ScanOptions": [
        "PFP",
        "FS"
],
      "ScanningSequence": "EP",
      "SequenceVariant": [
        "SK",
        "SS"
],
      "SeriesDescription": "dwi_acq-96dir-6b0-mb",
      "SeriesNumber": 8,
      "SeriesTime": "090516.956000",
      "SliceLocation": -39.900324950085,
      "SliceThickness": 1.7000000476837,
      "SmallestImagePixelValue": 0,
      "SoftwareVersions": "syngo MR E11",
      "SpacingBetweenSlices": 1.699999991147,
      "SpecificCharacterSet": "ISO_IR 100",
      "StudyID": "1",
      "StudyTime": "084529.622000",
      "TransmitCoilName": "Body",
      "VariableFlipAngleFlag": "N",
      "WindowCenterWidthExplanation": "Algo1"
    },
    "slices": {}
  },
  "time": {
    "samples": {
      "AcquisitionNumber": [1, 2, 3, 4, 5, 6, 7, 8, 9, 10, 11, 12, 13, 14, 15, 16, 17, 18, 19, 20, 21, 22, 23, 24, 25, 26, 27, 28, 29, 30, 31, 32, 33, 34, 35, 36, 37, 38, 39, 40, 41, 42, 43, 44, 45, 46, 47, 48, 49, 50, 51, 52, 53, 54, 55, 56, 57, 58, 59, 60, 61, 62, 63, 64, 65, 66, 67, 68, 69, 70, 71, 72, 73, 74, 75, 76, 77, 78, 79, 80, 81, 82, 83, 84, 85, 86, 87, 88, 89, 90, 91, 92, 93, 94, 95, 96, 97, 98, 99, 100, 101, 102, 103],
      "AcquisitionTime": ["090350.030000", "090354.140000", "090358.250000", "090402.360000", "090406.470000", "090410.580000", "090414.690000", "090418.800000", "090422.910000", "090427.020000", "090431.130000", "090435.240000", "090439.350000", "090443.460000", "090447.570000", "090451.680000", "090455.790000", "090459.900000", "090504.010000", "090508.120000", "090512.230000", "090516.340000", "090520.450000", "090524.560000", "090528.670000", "090532.780000", "090536.890000", "090541.000000", "090545.110000", "090549.220000", "090553.330000", "090557.440000", "090601.550000", "090605.660000", "090609.770000", "090613.880000", "090617.990000", "090622.100000", "090626.210000", "090630.320000", "090634.430000", "090638.540000", "090642.650000", "090646.760000", "090650.870000", "090654.980000", "090659.090000", "090703.200000", "090707.310000", "090711.420000", "090715.530000", "090719.640000", "090723.750000", "090727.860000", "090731.970000", "090736.080000", "090740.190000", "090744.300000", "090748.410000", "090752.520000", "090756.630000", "090800.740000", "090804.850000", "090808.960000", "090813.070000", "090817.180000", "090821.290000", "090825.400000", "090829.510000", "090833.620000", "090837.730000", "090841.840000", "090845.950000", "090850.060000", "090854.170000", "090858.280000", "090902.390000", "090906.500000", "090910.610000", "090914.720000", "090918.830000", "090922.940000", "090927.050000", "090931.160000", "090935.270000", "090939.380000", "090943.490000", "090947.600000", "090951.710000", "090955.820000", "090959.930000", "091004.040000", "091008.150000", "091012.260000", "091016.370000", "091020.480000", "091024.590000", "091028.700000", "091032.810000", "091036.920000", "091041.030000", "091045.140000", "091049.250000"],
      "ContentTime": ["090516.961000", "090516.965000", "090516.978000", "090516.981000", "090516.984000", "090516.987000", "090516.990000", "090516.993000", "090516.996000", "090517.000000", "090517.007000", "090517.011000", "090517.014000", "090517.017000", "090517.020000", "090517.023000", "090517.026000", "090517.029000", "090517.032000", "090517.035000", "090517.038000", "090656.956000", "090656.959000", "090656.963000", "090656.966000", "090656.969000", "090656.971000", "090656.975000", "090656.978000", "090656.981000", "090656.984000", "090656.987000", "090656.990000", "090656.993000", "090656.996000", "090657.000000", "090657.003000", "090657.006000", "090657.009000", "090657.012000", "090657.015000", "090657.026000", "090657.029000", "090657.032000", "090657.035000", "090836.956000", "090836.959000", "090836.962000", "090836.965000", "090836.968000", "090836.971000", "090836.975000", "090836.978000", "090836.981000", "090836.984000", "090836.987000", "090836.990000", "090836.993000", "090837.004000", "090837.007000", "090837.010000", "090837.013000", "090837.016000", "090837.019000", "090837.022000", "090837.025000", "090837.028000", "090837.036000", "090837.039000", "090956.956000", "090956.959000", "090956.962000", "090956.965000", "090956.968000", "090956.971000", "090956.974000", "090956.977000", "090956.980000", "090956.983000", "090956.986000", "090956.989000", "090956.992000", "090956.996000", "090957.000000", "090957.003000", "090957.006000", "090957.009000", "090957.012000", "090957.015000", "091053.683000", "091053.686000", "091053.689000", "091053.692000", "091053.696000", "091053.699000", "091053.702000", "091053.705000", "091053.708000", "091053.711000", "091053.714000", "091053.717000", "091053.720000", "091053.723000"],
      "InstanceCreationTime": ["090516.961000", "090516.965000", "090516.978000", "090516.981000", "090516.984000", "090516.987000", "090516.990000", "090516.993000", "090516.996000", "090517.000000", "090517.007000", "090517.011000", "090517.014000", "090517.017000", "090517.020000", "090517.023000", "090517.026000", "090517.029000", "090517.032000", "090517.035000", "090517.038000", "090656.956000", "090656.959000", "090656.963000", "090656.966000", "090656.969000", "090656.971000", "090656.975000", "090656.978000", "090656.981000", "090656.984000", "090656.987000", "090656.990000", "090656.993000", "090656.996000", "090657.000000", "090657.003000", "090657.006000", "090657.009000", "090657.012000", "090657.015000", "090657.026000", "090657.029000", "090657.032000", "090657.035000", "090836.956000", "090836.959000", "090836.962000", "090836.965000", "090836.968000", "090836.971000", "090836.975000", "090836.978000", "090836.981000", "090836.984000", "090836.987000", "090836.990000", "090836.993000", "090837.004000", "090837.007000", "090837.010000", "090837.013000", "090837.016000", "090837.019000", "090837.022000", "090837.025000", "090837.028000", "090837.036000", "090837.039000", "090956.956000", "090956.959000", "090956.962000", "090956.965000", "090956.968000", "090956.971000", "090956.974000", "090956.977000", "090956.980000", "090956.983000", "090956.986000", "090956.989000", "090956.992000", "090956.996000", "090957.000000", "090957.003000", "090957.006000", "090957.009000", "090957.012000", "090957.015000", "091053.683000", "091053.686000", "091053.689000", "091053.692000", "091053.696000", "091053.699000", "091053.702000", "091053.705000", "091053.708000", "091053.711000", "091053.714000", "091053.717000", "091053.720000", "091053.723000"],
      "InstanceNumber": [1, 2, 3, 4, 5, 6, 7, 8, 9, 10, 11, 12, 13, 14, 15, 16, 17, 18, 19, 20, 21, 22, 23, 24, 25, 26, 27, 28, 29, 30, 31, 32, 33, 34, 35, 36, 37, 38, 39, 40, 41, 42, 43, 44, 45, 46, 47, 48, 49, 50, 51, 52, 53, 54, 55, 56, 57, 58, 59, 60, 61, 62, 63, 64, 65, 66, 67, 68, 69, 70, 71, 72, 73, 74, 75, 76, 77, 78, 79, 80, 81, 82, 83, 84, 85, 86, 87, 88, 89, 90, 91, 92, 93, 94, 95, 96, 97, 98, 99, 100, 101, 102, 103],
      "LargestImagePixelValue": [65535, 65535, 65535, 65535, 65535, 65535, 65535, 65535, 65535, 58705, 57608, 53620, 53849, 52429, 47136, 52621, 54345, 59267, 56139, 51772, 50895, 53990, 55969, 52361, 65535, 29172, 28780, 25292, 27362, 27362, 27033, 27811, 32297, 28358, 27384, 29854, 27646, 27008, 27033, 26416, 65535, 15783, 15898, 20160, 18007, 15575, 16587, 15388, 16581, 14571, 16121, 15888, 16056, 16686, 18053, 14872, 14406, 15872, 16794, 17284, 14493, 17871, 14883, 16222, 15538, 16395, 15330, 15450, 14164, 14158, 15007, 15826, 15532, 65535, 17505, 16024, 17413, 16729, 15727, 18718, 16983, 19059, 13021, 15224, 16051, 17568, 18507, 18121, 17110, 15002, 16454, 15686, 15527, 14306, 18607, 19012, 14367, 15819, 14963, 16122, 15281, 17443, 65535],
      "SequenceName": [
 "ep_b5#1",
 "ep_b5#1",
 "ep_b500#2",
 "ep_b500#3",
 "ep_b500#4",
 "ep_b505#5",
 "ep_b495#6",
 "ep_b500#7",
 "ep_b5#8",
 "ep_b1000#9",
 "ep_b1005#10",
 "ep_b995#11",
 "ep_b1005#12",
 "ep_b995#13",
 "ep_b995#14",
 "ep_b1005#15",
 "ep_b1000#16",
 "ep_b1000#17",
 "ep_b995#18",
 "ep_b1000#19",
 "ep_b995#20",
 "ep_b1000#21",
 "ep_b1005#22",
 "ep_b1005#23",
 "ep_b5#24",
 "ep_b2000#25",
 "ep_b1995#26",
 "ep_b1995#27",
 "ep_b1995#28",
 "ep_b2005#29",
 "ep_b2010#30",
 "ep_b2005#31",
 "ep_b2005#32",
 "ep_b1995#33",
 "ep_b1990#34",
 "ep_b1995#35",
 "ep_b2005#36",
 "ep_b2000#37",
 "ep_b2010#38",
 "ep_b2000#39",
 "ep_b5#40",
 "ep_b3000#41",
 "ep_b3005#42",
 "ep_b3010#43",
 "ep_b3010#44",
 "ep_b3000#45",
 "ep_b3000#46",
 "ep_b2990#47",
 "ep_b3005#48",
 "ep_b3000#49",
 "ep_b2990#50",
 "ep_b2990#51",
 "ep_b2995#52",
 "ep_b2995#53",
 "ep_b3010#54",
 "ep_b3000#55",
 "ep_b2995#56",
 "ep_b3000#57",
 "ep_b2990#58",
 "ep_b2990#59",
 "ep_b3000#60",
 "ep_b2990#61",
 "ep_b2990#62",
 "ep_b2995#63",
 "ep_b3005#64",
 "ep_b3010#65",
 "ep_b3000#66",
 "ep_b3005#67",
 "ep_b3010#68",
 "ep_b3005#69",
 "ep_b3005#70",
 "ep_b3010#71",
 "ep_b2990#72",
 "ep_b5#73",
 "ep_b3010#74",
 "ep_b3000#75",
 "ep_b3005#76",
 "ep_b3005#77",
 "ep_b2995#78",
 "ep_b3005#79",
 "ep_b3000#80",
 "ep_b3010#81",
 "ep_b3010#82",
 "ep_b3005#83",
 "ep_b3000#84",
 "ep_b3005#85",
 "ep_b3010#86",
 "ep_b3010#87",
 "ep_b2990#88",
 "ep_b3010#89",
 "ep_b2995#90",
 "ep_b2995#91",
 "ep_b2995#92",
 "ep_b2995#93",
 "ep_b3005#94",
 "ep_b3005#95",
 "ep_b2995#96",
 "ep_b3000#97",
 "ep_b2990#98",
 "ep_b3000#99",
 "ep_b2995#100",
 "ep_b2995#101",
 "ep_b5#102"
],
      "WindowCenter": [11180.0, 11188.0, 8339.0, 8336.0, 8327.0, 8279.0, 8353.0, 8351.0, 11194.0, 6604.0, 6501.0, 6520.0, 6493.0, 6479.0, 6444.0, 6457.0, 6554.0, 6570.0, 6585.0, 6487.0, 6503.0, 6526.0, 6526.0, 6498.0, 11187.0, 4256.0, 4193.0, 4097.0, 4266.0, 4162.0, 4109.0, 4212.0, 4191.0, 4212.0, 4205.0, 4247.0, 4168.0, 4138.0, 4144.0, 4150.0, 11177.0, 2969.0, 2873.0, 3024.0, 2936.0, 2921.0, 2974.0, 2919.0, 2919.0, 2905.0, 2877.0, 2904.0, 2985.0, 2977.0, 2991.0, 2909.0, 2936.0, 2892.0, 2943.0, 2940.0, 2905.0, 2966.0, 2944.0, 3004.0, 2977.0, 2941.0, 2883.0, 2916.0, 2878.0, 2892.0, 2920.0, 2965.0, 2929.0, 11172.0, 2925.0, 2947.0, 2895.0, 2987.0, 2874.0, 2943.0, 2936.0, 2945.0, 2863.0, 2896.0, 2950.0, 2997.0, 2905.0, 2920.0, 2954.0, 2868.0, 2976.0, 2897.0, 2890.0, 2904.0, 2962.0, 3005.0, 2948.0, 2885.0, 2924.0, 2910.0, 2929.0, 3029.0, 11189.0],
      "WindowWidth": [25481.0, 25518.0, 17845.0, 17831.0, 17801.0, 17735.0, 17858.0, 17856.0, 25532.0, 14032.0, 13857.0, 13901.0, 13871.0, 13845.0, 13786.0, 13781.0, 13944.0, 13970.0, 13999.0, 13824.0, 13869.0, 13885.0, 13917.0, 13825.0, 25530.0, 9440.0, 9322.0, 9178.0, 9434.0, 9273.0, 9186.0, 9344.0, 9325.0, 9356.0, 9329.0, 9421.0, 9279.0, 9218.0, 9220.0, 9237.0, 25485.0, 6991.0, 6769.0, 7026.0, 6857.0, 6887.0, 6956.0, 6860.0, 6837.0, 6873.0, 6772.0, 6817.0, 6998.0, 6990.0, 6982.0, 6864.0, 6946.0, 6790.0, 6892.0, 6876.0, 6847.0, 6933.0, 6904.0, 7022.0, 6968.0, 6891.0, 6811.0, 6866.0, 6819.0, 6853.0, 6905.0, 6940.0, 6862.0, 25477.0, 6845.0, 6902.0, 6796.0, 6978.0, 6762.0, 6885.0, 6881.0, 6879.0, 6786.0, 6837.0, 6942.0, 7020.0, 6808.0, 6841.0, 6919.0, 6766.0, 6989.0, 6802.0, 6800.0, 6877.0, 6933.0, 7017.0, 6937.0, 6796.0, 6876.0, 6834.0, 6913.0, 7055.0, 25522.0]
    },
    "slices": {}
  }
}