{
  "AcquisitionMatrixPE": 82,
  "AcquisitionNumber": 1,
  "AcquisitionTime": "10:57:17.300000",
  "BandwidthPerPixelPhaseEncode": 24.888,
  "BaseResolution": 82,
  "BodyPartExamined": "BRAIN",
  "ConsistencyInfo": "N4_VE11E_LATEST_20181129",
  "ConversionSoftware": "dcm2niix",
  "ConversionSoftwareVersion": "v1.0.20201102",
  "DerivedVendorReportedEchoSpacing": 0.00049,
  "DeviceSerialNumber": "66112",
  "DwellTime": 2e-06,
  "EchoTime": 0.0272,
  "EchoTrainLength": 82,
  "EffectiveEchoSpacing": 0.00049,
  "FlipAngle": 44,
  "ImageComments": "Unaliased MB8/PE3",
  "ImageOrientationPatientDICOM": [0.995623, -0.0573651, 0.0737813, 0.0589765, 0.998062, -0.0198489],
  "ImageType": [
    "ORIGINAL",
    "PRIMARY",
    "M",
    "MB",
    "ND",
    "NORM",
    "MOSAIC"
],
  "ImagingFrequency": 123.259,
  "InPlanePhaseEncodingDirectionDICOM": "COL",
  "InstitutionAddress": "Maynard 3,Hanover,NH,US,03755",
  "InstitutionName": "Dartmouth College - PBS",
  "InstitutionalDepartmentName": "Department",
  "MRAcquisitionType": "2D",
  "MagneticFieldStrength": 3,
  "Manufacturer": "Siemens",
  "ManufacturersModelName": "Prisma",
  "Modality": "MR",
  "MultibandAccelerationFactor": 8,
  "PartialFourier": 1,
  "PatientPosition": "HFS",
  "PercentPhaseFOV": 100,
  "PercentSampling": 100,
  "PhaseEncodingDirection": "j-",
  "PhaseEncodingSteps": 82,
  "PhaseResolution": 1,
  "PixelBandwidth": 3050,
  "ProcedureStepDescription": "Wager_Wager^1076_spacetop",
  "ProtocolName": "func_run-03_task-alignvideo_acq-ap-mb8",
  "PulseSequenceDetails": "%CustomerSeq%\\cmrr_mbep2d_bold",
  "ReceiveCoilActiveElements": "HEA;HEP",
  "ReceiveCoilName": "Head_32",
  "ReconMatrixPE": 82,
  "RepetitionTime": 0.46,
  "SAR": 0.080207,
  "ScanOptions": "FS",
  "ScanningSequence": "EP",
  "SequenceName": "epfid2d1_82",
  "SequenceVariant": "SK\\SS",
  "SeriesDescription": "func_run-03_task-alignvideo_acq-ap-mb8",
  "SeriesNumber": 32,
  "ShimSetting": [4233, -7672, -7259, 375, -247, 157, -69, 114],
  "SliceThickness": 2.7,
  "SliceTiming": [0, 0.25, 0.0625, 0.315, 0.125, 0.3775, 0.1875, 0, 0.25, 0.0625, 0.315, 0.125, 0.3775, 0.1875, 0, 0.25, 0.0625, 0.315, 0.125, 0.3775, 0.1875, 0, 0.25, 0.0625, 0.315, 0.125, 0.3775, 0.1875, 0, 0.25, 0.0625, 0.315, 0.125, 0.3775, 0.1875, 0, 0.25, 0.0625, 0.315, 0.125, 0.3775, 0.1875, 0, 0.25, 0.0625, 0.315, 0.125, 0.3775, 0.1875, 0, 0.25, 0.0625, 0.315, 0.125, 0.3775, 0.1875],
  "SoftwareVersions": "syngo MR E11",
  "SpacingBetweenSlices": 2.7,
  "StationName": "AWP66112",
  "TaskName": "alignvideo",
  "TotalReadoutTime": 0.03969,
  "TxRefAmp": 232.377,
  "WipMemBlock": "be9909f9-8eef-4e55-a6bb-03d70c975b30||Sequence: R016 ve11e/master r/434b28f1; Aug  7 2019 18:53:46 by eja",
  "dcmmeta_affine": [
    [-2.6711843013763428, 0.15822969377040863, 0.19574902951717377, 99.90518951416016],
    [0.15390634536743164, 2.677727460861206, -0.06510608643293381, -109.04674530029297],
    [0.19794973731040955, 0.05325308442115784, 2.692107677459717, -86.46448516845703],
    [0.0, 0.0, 0.0, 1.0]
],
  "dcmmeta_reorient_transform": [
    [0.0, -1.0, 0.0, 81.0],
    [1.0, 0.0, 0.0, 0.0],
    [0.0, 0.0, 1.0, 0.0],
    [0.0, 0.0, 0.0, 1.0]
],
  "dcmmeta_shape": [82, 82, 56, 1065],
  "dcmmeta_slice_dim": 2,
  "dcmmeta_version": 0.6,
  "global": {
    "const": {
      "AccessionNumber": "A004860",
      "AcquisitionMatrix": [82, 0, 0, 82],
      "AngioFlag": "N",
      "BitsAllocated": 16,
      "BitsStored": 16,
      "BodyPartExamined": "BRAIN",
      "Columns": 656,
      "EchoNumbers": 1,
      "EchoTime": 27.2,
      "EchoTrainLength": 82,
      "FlipAngle": 44.0,
      "HighBit": 15,
      "ImageOrientationPatient": [0.99562320781061, -0.057365089337, 0.07378126180992, 0.05897652000562, 0.9980620181968, -0.0198488770703],
      "ImagePositionPatient": [-924.76360673186, -832.18583138111, -123.67892163842],
      "ImageType": [
        "ORIGINAL",
        "PRIMARY",
        "M",
        "MB",
        "ND",
        "NORM",
        "MOSAIC"
],
      "ImagedNucleus": "1H",
      "ImagingFrequency": 123.259131,
      "InPlanePhaseEncodingDirection": "COL",
      "MRAcquisitionType": "2D",
      "MagneticFieldStrength": 3.0,
      "Manufacturer": "SIEMENS",
      "ManufacturerModelName": "Prisma",
      "Modality": "MR",
      "NumberOfAverages": 1.0,
      "NumberOfPhaseEncodingSteps": 82,
      "PercentPhaseFieldOfView": 100.0,
      "PercentSampling": 100.0,
      "PerformedProcedureStepStartTime": "091902.088000",
      "PhotometricInterpretation": "MONOCHROME2",
      "PixelBandwidth": 3050.0,
      "PixelRepresentation": 0,
      "PixelSpacing": [2.6829268932343, 2.6829268932343],
      "ProtocolName": "func_run-03_task-alignvideo_acq-ap-mb8",
      "RepetitionTime": 460.0,
      "Rows": 656,
      "SAR": 0.08020701143269,
      "SamplesPerPixel": 1,
      "ScanOptions": "FS",
      "ScanningSequence": "EP",
      "SequenceName": "epfid2d1_82",
      "SequenceVariant": [
        "SK",
        "SS"
],
      "SeriesDescription": "func_run-03_task-alignvideo_acq-ap-mb8",
      "SeriesNumber": 32,
      "SeriesTime": "105741.520000",
      "SliceLocation": -76.339165587809,
      "SliceThickness": 2.7000000476837,
      "SmallestImagePixelValue": 0,
      "SoftwareVersions": "syngo MR E11",
      "SpacingBetweenSlices": 2.6999999661769,
      "SpecificCharacterSet": "ISO_IR 100",
      "StudyID": "1",
      "StudyTime": "091902.026000",
      "TransmitCoilName": "Body",
      "VariableFlipAngleFlag": "N",
      "WindowCenterWidthExplanation": "Algo1"
    },
    "slices": {}
  },
  "time": {
    "samples": {
      "AcquisitionNumber": [1, 2, 3, 4, 5, 6, 7, 8, 9, 10, 11, 12, 13, 14, 15, 16, 17, 18, 19, 20, 21, 22, 23, 24, 25, 26, 27, 28, 29, 30, 31, 32, 33, 34, 35, 36, 37, 38, 39, 40, 41, 42, 43, 44, 45, 46, 47, 48, 49, 50, 51, 52, 53, 54, 55, 56, 57, 58, 59, 60, 61, 62, 63, 64, 65, 66, 67, 68, 69, 70, 71, 72, 73, 74, 75, 76, 77, 78, 79, 80, 81, 82, 83, 84, 85, 86, 87, 88, 89, 90, 91, 92, 93, 94, 95, 96, 97, 98, 99, 100, 101, 102, 103, 104, 105, 106, 107, 108, 109, 110, 111, 112, 113, 114, 115, 116, 117, 118, 119, 120, 121, 122, 123, 124, 125, 126, 127, 128, 129, 130, 131, 132, 133, 134, 135, 136, 137, 138, 139, 140, 141, 142, 143, 144, 145, 146, 147, 148, 149, 150, 151, 152, 153, 154, 155, 156, 157, 158, 159, 160, 161, 162, 163, 164, 165, 166, 167, 168, 169, 170, 171, 172, 173, 174, 175, 176, 177, 178, 179, 180, 181, 182, 183, 184, 185, 186, 187, 188, 189, 190, 191, 192, 193, 194, 195, 196, 197, 198, 199, 200, 201, 202, 203, 204, 205, 206, 207, 208, 209, 210, 211, 212, 213, 214, 215, 216, 217, 218, 219, 220, 221, 222, 223, 224, 225, 226, 227, 228, 229, 230, 231, 232, 233, 234, 235, 236, 237, 238, 239, 240, 241, 242, 243, 244, 245, 246, 247, 248, 249, 250, 251, 252, 253, 254, 255, 256, 257, 258, 259, 260, 261, 262, 263, 264, 265, 266, 267, 268, 269, 270, 271, 272, 273, 274, 275, 276, 277, 278, 279, 280, 281, 282, 283, 284, 285, 286, 287, 288, 289, 290, 291, 292, 293, 294, 295, 296, 297, 298, 299, 300, 301, 302, 303, 304, 305, 306, 307, 308, 309, 310, 311, 312, 313, 314, 315, 316, 317, 318, 319, 320, 321, 322, 323, 324, 325, 326, 327, 328, 329, 330, 331, 332, 333, 334, 335, 336, 337, 338, 339, 340, 341, 342, 343, 344, 345, 346, 347, 348, 349, 350, 351, 352, 353, 354, 355, 356, 357, 358, 359, 360, 361, 362, 363, 364, 365, 366, 367, 368, 369, 370, 371, 372, 373, 374, 375, 376, 377, 378, 379, 380, 381, 382, 383, 384, 385, 386, 387, 388, 389, 390, 391, 392, 393, 394, 395, 396, 397, 398, 399, 400, 401, 402, 403, 404, 405, 406, 407, 408, 409, 410, 411, 412, 413, 414, 415, 416, 417, 418, 419, 420, 421, 422, 423, 424, 425, 426, 427, 428, 429, 430, 431, 432, 433, 434, 435, 436, 437, 438, 439, 440, 441, 442, 443, 444, 445, 446, 447, 448, 449, 450, 451, 452, 453, 454, 455, 456, 457, 458, 459, 460, 461, 462, 463, 464, 465, 466, 467, 468, 469, 470, 471, 472, 473, 474, 475, 476, 477, 478, 479, 480, 481, 482, 483, 484, 485, 486, 487, 488, 489, 490, 491, 492, 493, 494, 495, 496, 497, 498, 499, 500, 501, 502, 503, 504, 505, 506, 507, 508, 509, 510, 511, 512, 513, 514, 515, 516, 517, 518, 519, 520, 521, 522, 523, 524, 525, 526, 527, 528, 529, 530, 531, 532, 533, 534, 535, 536, 537, 538, 539, 540, 541, 542, 543, 544, 545, 546, 547, 548, 549, 550, 551, 552, 553, 554, 555, 556, 557, 558, 559, 560, 561, 562, 563, 564, 565, 566, 567, 568, 569, 570, 571, 572, 573, 574, 575, 576, 577, 578, 579, 580, 581, 582, 583, 584, 585, 586, 587, 588, 589, 590, 591, 592, 593, 594, 595, 596, 597, 598, 599, 600, 601, 602, 603, 604, 605, 606, 607, 608, 609, 610, 611, 612, 613, 614, 615, 616, 617, 618, 619, 620, 621, 622, 623, 624, 625, 626, 627, 628, 629, 630, 631, 632, 633, 634, 635, 636, 637, 638, 639, 640, 641, 642, 643, 644, 645, 646, 647, 648, 649, 650, 651, 652, 653, 654, 655, 656, 657, 658, 659, 660, 661, 662, 663, 664, 665, 666, 667, 668, 669, 670, 671, 672, 673, 674, 675, 676, 677, 678, 679, 680, 681, 682, 683, 684, 685, 686, 687, 688, 689, 690, 691, 692, 693, 694, 695, 696, 697, 698, 699, 700, 701, 702, 703, 704, 705, 706, 707, 708, 709, 710, 711, 712, 713, 714, 715, 716, 717, 718, 719, 720, 721, 722, 723, 724, 725, 726, 727, 728, 729, 730, 731, 732, 733, 734, 735, 736, 737, 738, 739, 740, 741, 742, 743, 744, 745, 746, 747, 748, 749, 750, 751, 752, 753, 754, 755, 756, 757, 758, 759, 760, 761, 762, 763, 764, 765, 766, 767, 768, 769, 770, 771, 772, 773, 774, 775, 776, 777, 778, 779, 780, 781, 782, 783, 784, 785, 786, 787, 788, 789, 790, 791, 792, 793, 794, 795, 796, 797, 798, 799, 800, 801, 802, 803, 804, 805, 806, 807, 808, 809, 810, 811, 812, 813, 814, 815, 816, 817, 818, 819, 820, 821, 822, 823, 824, 825, 826, 827, 828, 829, 830, 831, 832, 833, 834, 835, 836, 837, 838, 839, 840, 841, 842, 843, 844, 845, 846, 847, 848, 849, 850, 851, 852, 853, 854, 855, 856, 857, 858, 859, 860, 861, 862, 863, 864, 865, 866, 867, 868, 869, 870, 871, 872, 873, 874, 875, 876, 877, 878, 879, 880, 881, 882, 883, 884, 885, 886, 887, 888, 889, 890, 891, 892, 893, 894, 895, 896, 897, 898, 899, 900, 901, 902, 903, 904, 905, 906, 907, 908, 909, 910, 911, 912, 913, 914, 915, 916, 917, 918, 919, 920, 921, 922, 923, 924, 925, 926, 927, 928, 929, 930, 931, 932, 933, 934, 935, 936, 937, 938, 939, 940, 941, 942, 943, 944, 945, 946, 947, 948, 949, 950, 951, 952, 953, 954, 955, 956, 957, 958, 959, 960, 961, 962, 963, 964, 965, 966, 967, 968, 969, 970, 971, 972, 973, 974, 975, 976, 977, 978, 979, 980, 981, 982, 983, 984, 985, 986, 987, 988, 989, 990, 991, 992, 993, 994, 995, 996, 997, 998, 999, 1000, 1001, 1002, 1003, 1004, 1005, 1006, 1007, 1008, 1009, 1010, 1011, 1012, 1013, 1014, 1015, 1016, 1017, 1018, 1019, 1020, 1021, 1022, 1023, 1024, 1025, 1026, 1027, 1028, 1029, 1030, 1031, 1032, 1033, 1034, 1035, 1036, 1037, 1038, 1039, 1040, 1041, 1042, 1043, 1044, 1045, 1046, 1047, 1048, 1049, 1050, 1051, 1052, 1053, 1054, 1055, 1056, 1057, 1058, 1059, 1060, 1061, 1062, 1063, 1064, 1065],
      "AcquisitionTime": ["105717.300000", "105717.760000", "105718.220000", "105718.680000", "105719.140000", "105719.600000", "105720.060000", "105720.520000", "105720.980000", "105721.440000", "105721.900000", "105722.360000", "105722.820000", "105723.280000", "105723.740000", "105724.200000", "105724.660000", "105725.120000", "105725.580000", "105726.040000", "105726.500000", "105726.960000", "105727.420000", "105727.880000", "105728.340000", "105728.800000", "105729.260000", "105729.720000", "105730.180000", "105730.640000", "105731.100000", "105731.560000", "105732.020000", "105732.480000", "105732.940000", "105733.400000", "105733.860000", "105734.320000", "105734.780000", "105735.240000", "105735.700000", "105736.160000", "105736.620000", "105737.080000", "105737.540000", "105738.000000", "105738.460000", "105738.920000", "105739.380000", "105739.840000", "105740.300000", "105740.760000", "105741.220000", "105741.680000", "105742.140000", "105742.600000", "105743.060000", "105743.520000", "105743.980000", "105744.440000", "105744.900000", "105745.360000", "105745.820000", "105746.280000", "105746.740000", "105747.200000", "105747.660000", "105748.120000", "105748.580000", "105749.040000", "105749.500000", "105749.960000", "105750.420000", "105750.880000", "105751.340000", "105751.800000", "105752.260000", "105752.720000", "105753.180000", "105753.640000", "105754.100000", "105754.560000", "105755.020000", "105755.480000", "105755.940000", "105756.400000", "105756.860000", "105757.320000", "105757.780000", "105758.240000", "105758.700000", "105759.160000", "105759.620000", "105800.080000", "105800.540000", "105801.000000", "105801.460000", "105801.920000", "105802.380000", "105802.840000", "105803.300000", "105803.760000", "105804.220000", "105804.680000", "105805.140000", "105805.600000", "105806.060000", "105806.520000", "105806.980000", "105807.440000", "105807.900000", "105808.360000", "105808.820000", "105809.280000", "105809.740000", "105810.200000", "105810.660000", "105811.120000", "105811.580000", "105812.040000", "105812.500000", "105812.960000", "105813.420000", "105813.880000", "105814.340000", "105814.800000", "105815.260000", "105815.720000", "105816.180000", "105816.640000", "105817.100000", "105817.560000", "105818.020000", "105818.480000", "105818.940000", "105819.400000", "105819.860000", "105820.320000", "105820.780000", "105821.240000", "105821.700000", "105822.160000", "105822.620000", "105823.080000", "105823.540000", "105824.000000", "105824.460000", "105824.920000", "105825.380000", "105825.840000", "105826.300000", "105826.760000", "105827.220000", "105827.680000", "105828.140000", "105828.600000", "105829.060000", "105829.520000", "105829.980000", "105830.440000", "105830.900000", "105831.360000", "105831.820000", "105832.280000", "105832.740000", "105833.200000", "105833.660000", "105834.120000", "105834.580000", "105835.040000", "105835.500000", "105835.960000", "105836.420000", "105836.880000", "105837.340000", "105837.800000", "105838.260000", "105838.720000", "105839.180000", "105839.640000", "105840.100000", "105840.560000", "105841.020000", "105841.480000", "105841.940000", "105842.400000", "105842.860000", "105843.320000", "105843.780000", "105844.240000", "105844.700000", "105845.160000", "105845.620000", "105846.080000", "105846.540000", "105847.000000", "105847.460000", "105847.920000", "105848.380000", "105848.840000", "105849.300000", "105849.760000", "105850.220000", "105850.680000", "105851.140000", "105851.600000", "105852.060000", "105852.520000", "105852.980000", "105853.440000", "105853.900000", "105854.360000", "105854.820000", "105855.280000", "105855.740000", "105856.200000", "105856.660000", "105857.120000", "105857.580000", "105858.040000", "105858.500000", "105858.960000", "105859.420000", "105859.880000", "105900.340000", "105900.800000", "105901.260000", "105901.720000", "105902.180000", "105902.640000", "105903.100000", "105903.560000", "105904.020000", "105904.480000", "105904.940000", "105905.400000", "105905.860000", "105906.320000", "105906.780000", "105907.240000", "105907.700000", "105908.160000", "105908.620000", "105909.080000", "105909.540000", "105910.000000", "105910.460000", "105910.920000", "105911.380000", "105911.840000", "105912.300000", "105912.760000", "105913.220000", "105913.680000", "105914.140000", "105914.600000", "105915.060000", "105915.520000", "105915.980000", "105916.440000", "105916.900000", "105917.360000", "105917.820000", "105918.280000", "105918.740000", "105919.200000", "105919.660000", "105920.120000", "105920.580000", "105921.040000", "105921.500000", "105921.960000", "105922.420000", "105922.880000", "105923.340000", "105923.800000", "105924.260000", "105924.720000", "105925.180000", "105925.640000", "105926.100000", "105926.560000", "105927.020000", "105927.480000", "105927.940000", "105928.400000", "105928.860000", "105929.320000", "105929.780000", "105930.240000", "105930.700000", "105931.160000", "105931.620000", "105932.080000", "105932.540000", "105933.000000", "105933.460000", "105933.920000", "105934.380000", "105934.840000", "105935.300000", "105935.760000", "105936.220000", "105936.680000", "105937.140000", "105937.600000", "105938.060000", "105938.520000", "105938.980000", "105939.440000", "105939.900000", "105940.360000", "105940.820000", "105941.280000", "105941.740000", "105942.200000", "105942.660000", "105943.120000", "105943.580000", "105944.040000", "105944.500000", "105944.960000", "105945.420000", "105945.880000", "105946.340000", "105946.800000", "105947.260000", "105947.720000", "105948.180000", "105948.640000", "105949.100000", "105949.560000", "105950.020000", "105950.480000", "105950.940000", "105951.400000", "105951.860000", "105952.320000", "105952.780000", "105953.240000", "105953.700000", "105954.160000", "105954.620000", "105955.080000", "105955.540000", "105956.000000", "105956.460000", "105956.920000", "105957.380000", "105957.840000", "105958.300000", "105958.760000", "105959.220000", "105959.680000", "110000.140000", "110000.600000", "110001.060000", "110001.520000", "110001.980000", "110002.440000", "110002.900000", "110003.360000", "110003.820000", "110004.280000", "110004.740000", "110005.200000", "110005.660000", "110006.120000", "110006.580000", "110007.040000", "110007.500000", "110007.960000", "110008.420000", "110008.880000", "110009.340000", "110009.800000", "110010.260000", "110010.720000", "110011.180000", "110011.640000", "110012.100000", "110012.560000", "110013.020000", "110013.480000", "110013.940000", "110014.400000", "110014.860000", "110015.320000", "110015.780000", "110016.240000", "110016.700000", "110017.160000", "110017.620000", "110018.080000", "110018.540000", "110019.000000", "110019.460000", "110019.920000", "110020.380000", "110020.840000", "110021.300000", "110021.760000", "110022.220000", "110022.680000", "110023.140000", "110023.600000", "110024.060000", "110024.520000", "110024.980000", "110025.440000", "110025.900000", "110026.360000", "110026.820000", "110027.280000", "110027.740000", "110028.200000", "110028.660000", "110029.120000", "110029.580000", "110030.040000", "110030.500000", "110030.960000", "110031.420000", "110031.880000", "110032.340000", "110032.800000", "110033.260000", "110033.720000", "110034.180000", "110034.640000", "110035.100000", "110035.560000", "110036.020000", "110036.480000", "110036.940000", "110037.400000", "110037.860000", "110038.320000", "110038.780000", "110039.240000", "110039.700000", "110040.160000", "110040.620000", "110041.080000", "110041.540000", "110042.000000", "110042.460000", "110042.920000", "110043.380000", "110043.840000", "110044.300000", "110044.760000", "110045.220000", "110045.680000", "110046.140000", "110046.600000", "110047.060000", "110047.520000", "110047.980000", "110048.440000", "110048.900000", "110049.360000", "110049.820000", "110050.280000", "110050.740000", "110051.200000", "110051.660000", "110052.120000", "110052.580000", "110053.040000", "110053.500000", "110053.960000", "110054.420000", "110054.880000", "110055.340000", "110055.800000", "110056.260000", "110056.720000", "110057.180000", "110057.640000", "110058.100000", "110058.560000", "110059.020000", "110059.480000", "110059.940000", "110100.400000", "110100.860000", "110101.320000", "110101.780000", "110102.240000", "110102.700000", "110103.160000", "110103.620000", "110104.080000", "110104.540000", "110105.000000", "110105.460000", "110105.920000", "110106.380000", "110106.840000", "110107.300000", "110107.760000", "110108.220000", "110108.680000", "110109.140000", "110109.600000", "110110.060000", "110110.520000", "110110.980000", "110111.440000", "110111.900000", "110112.360000", "110112.820000", "110113.280000", "110113.740000", "110114.200000", "110114.660000", "110115.120000", "110115.580000", "110116.040000", "110116.500000", "110116.960000", "110117.420000", "110117.880000", "110118.340000", "110118.800000", "110119.260000", "110119.720000", "110120.180000", "110120.640000", "110121.100000", "110121.560000", "110122.020000", "110122.480000", "110122.940000", "110123.400000", "110123.860000", "110124.320000", "110124.780000", "110125.240000", "110125.700000", "110126.160000", "110126.620000", "110127.080000", "110127.540000", "110128.000000", "110128.460000", "110128.920000", "110129.380000", "110129.840000", "110130.300000", "110130.760000", "110131.220000", "110131.680000", "110132.140000", "110132.600000", "110133.060000", "110133.520000", "110133.980000", "110134.440000", "110134.900000", "110135.360000", "110135.820000", "110136.280000", "110136.740000", "110137.200000", "110137.660000", "110138.120000", "110138.580000", "110139.040000", "110139.500000", "110139.960000", "110140.420000", "110140.880000", "110141.340000", "110141.800000", "110142.260000", "110142.720000", "110143.180000", "110143.640000", "110144.100000", "110144.560000", "110145.020000", "110145.480000", "110145.940000", "110146.400000", "110146.860000", "110147.320000", "110147.780000", "110148.240000", "110148.700000", "110149.160000", "110149.620000", "110150.080000", "110150.540000", "110151.000000", "110151.460000", "110151.920000", "110152.380000", "110152.840000", "110153.300000", "110153.760000", "110154.220000", "110154.680000", "110155.140000", "110155.600000", "110156.060000", "110156.520000", "110156.980000", "110157.440000", "110157.900000", "110158.360000", "110158.820000", "110159.280000", "110159.740000", "110200.200000", "110200.660000", "110201.120000", "110201.580000", "110202.040000", "110202.500000", "110202.960000", "110203.420000", "110203.880000", "110204.340000", "110204.800000", "110205.260000", "110205.720000", "110206.180000", "110206.640000", "110207.100000", "110207.560000", "110208.020000", "110208.480000", "110208.940000", "110209.400000", "110209.860000", "110210.320000", "110210.780000", "110211.240000", "110211.700000", "110212.160000", "110212.620000", "110213.080000", "110213.540000", "110214.000000", "110214.460000", "110214.920000", "110215.380000", "110215.840000", "110216.300000", "110216.760000", "110217.220000", "110217.680000", "110218.140000", "110218.600000", "110219.060000", "110219.520000", "110219.980000", "110220.440000", "110220.900000", "110221.360000", "110221.820000", "110222.280000", "110222.740000", "110223.200000", "110223.660000", "110224.120000", "110224.580000", "110225.040000", "110225.500000", "110225.960000", "110226.420000", "110226.880000", "110227.340000", "110227.800000", "110228.260000", "110228.720000", "110229.180000", "110229.640000", "110230.100000", "110230.560000", "110231.020000", "110231.480000", "110231.940000", "110232.400000", "110232.860000", "110233.320000", "110233.780000", "110234.240000", "110234.700000", "110235.160000", "110235.620000", "110236.080000", "110236.540000", "110237.000000", "110237.460000", "110237.920000", "110238.380000", "110238.840000", "110239.300000", "110239.760000", "110240.220000", "110240.680000", "110241.140000", "110241.600000", "110242.060000", "110242.520000", "110242.980000", "110243.440000", "110243.900000", "110244.360000", "110244.820000", "110245.280000", "110245.740000", "110246.200000", "110246.660000", "110247.120000", "110247.580000", "110248.040000", "110248.500000", "110248.960000", "110249.420000", "110249.880000", "110250.340000", "110250.800000", "110251.260000", "110251.720000", "110252.180000", "110252.640000", "110253.100000", "110253.560000", "110254.020000", "110254.480000", "110254.940000", "110255.400000", "110255.860000", "110256.320000", "110256.780000", "110257.240000", "110257.700000", "110258.160000", "110258.620000", "110259.080000", "110259.540000", "110300.000000", "110300.460000", "110300.920000", "110301.380000", "110301.840000", "110302.300000", "110302.760000", "110303.220000", "110303.680000", "110304.140000", "110304.600000", "110305.060000", "110305.520000", "110305.980000", "110306.440000", "110306.900000", "110307.360000", "110307.820000", "110308.280000", "110308.740000", "110309.200000", "110309.660000", "110310.120000", "110310.580000", "110311.040000", "110311.500000", "110311.960000", "110312.420000", "110312.880000", "110313.340000", "110313.800000", "110314.260000", "110314.720000", "110315.180000", "110315.640000", "110316.100000", "110316.560000", "110317.020000", "110317.480000", "110317.940000", "110318.400000", "110318.860000", "110319.320000", "110319.780000", "110320.240000", "110320.700000", "110321.160000", "110321.620000", "110322.080000", "110322.540000", "110323.000000", "110323.460000", "110323.920000", "110324.380000", "110324.840000", "110325.300000", "110325.760000", "110326.220000", "110326.680000", "110327.140000", "110327.600000", "110328.060000", "110328.520000", "110328.980000", "110329.440000", "110329.900000", "110330.360000", "110330.820000", "110331.280000", "110331.740000", "110332.200000", "110332.660000", "110333.120000", "110333.580000", "110334.040000", "110334.500000", "110334.960000", "110335.420000", "110335.880000", "110336.340000", "110336.800000", "110337.260000", "110337.720000", "110338.180000", "110338.640000", "110339.100000", "110339.560000", "110340.020000", "110340.480000", "110340.940000", "110341.400000", "110341.860000", "110342.320000", "110342.780000", "110343.240000", "110343.700000", "110344.160000", "110344.620000", "110345.080000", "110345.540000", "110346.000000", "110346.460000", "110346.920000", "110347.380000", "110347.840000", "110348.300000", "110348.760000", "110349.220000", "110349.680000", "110350.140000", "110350.600000", "110351.060000", "110351.520000", "110351.980000", "110352.440000", "110352.900000", "110353.360000", "110353.820000", "110354.280000", "110354.740000", "110355.200000", "110355.660000", "110356.120000", "110356.580000", "110357.040000", "110357.500000", "110357.960000", "110358.420000", "110358.880000", "110359.340000", "110359.800000", "110400.260000", "110400.720000", "110401.180000", "110401.640000", "110402.100000", "110402.560000", "110403.020000", "110403.480000", "110403.940000", "110404.400000", "110404.860000", "110405.320000", "110405.780000", "110406.240000", "110406.700000", "110407.160000", "110407.620000", "110408.080000", "110408.540000", "110409.000000", "110409.460000", "110409.920000", "110410.380000", "110410.840000", "110411.300000", "110411.760000", "110412.220000", "110412.680000", "110413.140000", "110413.600000", "110414.060000", "110414.520000", "110414.980000", "110415.440000", "110415.900000", "110416.360000", "110416.820000", "110417.280000", "110417.740000", "110418.200000", "110418.660000", "110419.120000", "110419.580000", "110420.040000", "110420.500000", "110420.960000", "110421.420000", "110421.880000", "110422.340000", "110422.800000", "110423.260000", "110423.720000", "110424.180000", "110424.640000", "110425.100000", "110425.560000", "110426.020000", "110426.480000", "110426.940000", "110427.400000", "110427.860000", "110428.320000", "110428.780000", "110429.240000", "110429.700000", "110430.160000", "110430.620000", "110431.080000", "110431.540000", "110432.000000", "110432.460000", "110432.920000", "110433.380000", "110433.840000", "110434.300000", "110434.760000", "110435.220000", "110435.680000", "110436.140000", "110436.600000", "110437.060000", "110437.520000", "110437.980000", "110438.440000", "110438.900000", "110439.360000", "110439.820000", "110440.280000", "110440.740000", "110441.200000", "110441.660000", "110442.120000", "110442.580000", "110443.040000", "110443.500000", "110443.960000", "110444.420000", "110444.880000", "110445.340000", "110445.800000", "110446.260000", "110446.720000", "110447.180000", "110447.640000", "110448.100000", "110448.560000", "110449.020000", "110449.480000", "110449.940000", "110450.400000", "110450.860000", "110451.320000", "110451.780000", "110452.240000", "110452.700000", "110453.160000", "110453.620000", "110454.080000", "110454.540000", "110455.000000", "110455.460000", "110455.920000", "110456.380000", "110456.840000", "110457.300000", "110457.760000", "110458.220000", "110458.680000", "110459.140000", "110459.600000", "110500.060000", "110500.520000", "110500.980000", "110501.440000", "110501.900000", "110502.360000", "110502.820000", "110503.280000", "110503.740000", "110504.200000", "110504.660000", "110505.120000", "110505.580000", "110506.040000", "110506.500000", "110506.960000", "110507.420000", "110507.880000", "110508.340000", "110508.800000", "110509.260000", "110509.720000", "110510.180000", "110510.640000", "110511.100000", "110511.560000", "110512.020000", "110512.480000", "110512.940000", "110513.400000", "110513.860000", "110514.320000", "110514.780000", "110515.240000", "110515.700000", "110516.160000", "110516.620000", "110517.080000", "110517.540000", "110518.000000", "110518.460000", "110518.920000", "110519.380000", "110519.840000", "110520.300000", "110520.760000", "110521.220000", "110521.680000", "110522.140000", "110522.600000", "110523.060000", "110523.520000", "110523.980000", "110524.440000", "110524.900000", "110525.360000", "110525.820000", "110526.280000", "110526.740000"],
