{
  "AcquisitionMatrixPE": 82,
  "AcquisitionNumber": 1,
  "AcquisitionTime": "09:51:28.490000",
  "BandwidthPerPixelPhaseEncode": 24.888,
  "BaseResolution": 82,
  "BodyPartExamined": "BRAIN",
  "ConsistencyInfo": "N4_VE11E_LATEST_20181129",
  "ConversionSoftware": "dcm2niix",
  "ConversionSoftwareVersion": "v1.0.20201102",
  "DerivedVendorReportedEchoSpacing": 0.00049,
  "DeviceSerialNumber": "66112",
  "DwellTime": 2e-06,
  "EchoTime": 0.0272,
  "EchoTrainLength": 82,
  "EffectiveEchoSpacing": 0.00049,
  "FlipAngle": 44,
  "ImageComments": "Unaliased MB8/PE3",
  "ImageOrientationPatientDICOM": [0.994857, -0.0518089, 0.0870417, 0.0575373, 0.996248, -0.0646451],
  "ImageType": [
    "ORIGINAL",
    "PRIMARY",
    "M",
    "MB",
    "ND",
    "NORM",
    "MOSAIC"
],
  "ImagingFrequency": 123.259,
  "InPlanePhaseEncodingDirectionDICOM": "COL",
  "InstitutionAddress": "Maynard 3,Hanover,NH,US,03755",
  "InstitutionName": "Dartmouth College - PBS",
  "InstitutionalDepartmentName": "Department",
  "MRAcquisitionType": "2D",
  "MagneticFieldStrength": 3,
  "Manufacturer": "Siemens",
  "ManufacturersModelName": "Prisma",
  "Modality": "MR",
  "MultibandAccelerationFactor": 8,
  "PartialFourier": 1,
  "PatientPosition": "HFS",
  "PercentPhaseFOV": 100,
  "PercentSampling": 100,
  "PhaseEncodingDirection": "j-",
  "PhaseEncodingSteps": 82,
  "PhaseResolution": 1,
  "PixelBandwidth": 3050,
  "ProcedureStepDescription": "Wager_Wager^1076_spacetop",
  "ProtocolName": "func_run-03_task-social_acq-ap-mb8",
  "PulseSequenceDetails": "%CustomerSeq%\\cmrr_mbep2d_bold",
  "ReceiveCoilActiveElements": "HEA;HEP",
  "ReceiveCoilName": "Head_32",
  "ReconMatrixPE": 82,
  "RepetitionTime": 0.46,
  "SAR": 0.0801166,
  "ScanOptions": "FS",
  "ScanningSequence": "EP",
  "SequenceName": "epfid2d1_82",
  "SequenceVariant": "SK\\SS",
  "SeriesDescription": "func_run-03_task-social_acq-ap-mb8",
  "SeriesNumber": 12,
  "ShimSetting": [4233, -7670, -7256, 385, -252, 179, -74, 115],
  "SliceThickness": 2.7,
  "SliceTiming": [0, 0.2525, 0.065, 0.315, 0.1275, 0.3775, 0.19, 0, 0.2525, 0.065, 0.315, 0.1275, 0.3775, 0.19, 0, 0.2525, 0.065, 0.315, 0.1275, 0.3775, 0.19, 0, 0.2525, 0.065, 0.315, 0.1275, 0.3775, 0.19, 0, 0.2525, 0.065, 0.315, 0.1275, 0.3775, 0.19, 0, 0.2525, 0.065, 0.315, 0.1275, 0.3775, 0.19, 0, 0.2525, 0.065, 0.315, 0.1275, 0.3775, 0.19, 0, 0.2525, 0.065, 0.315, 0.1275, 0.3775, 0.19],
  "SoftwareVersions": "syngo MR E11",
  "SpacingBetweenSlices": 2.7,
  "StationName": "AWP66112",
  "TaskName": "social",
  "TotalReadoutTime": 0.03969,
  "TxRefAmp": 232.377,
  "WipMemBlock": "23e09509-a118-45c6-9e6c-6ff59a2625e0||Sequence: R016 ve11e/master r/434b28f1; Aug  7 2019 18:53:46 by eja",
  "dcmmeta_affine": [
    [-2.6691274642944336, 0.1543683558702469, 0.2250880002975464, 99.16458129882812],
    [0.13899953663349152, 2.672861099243164, -0.1871659755706787, -105.13819122314453],
    [0.23352646827697754, 0.17343804240226746, 2.6840834617614746, -89.83116149902344],
    [0.0, 0.0, 0.0, 1.0]
],
  "dcmmeta_reorient_transform": [
    [0.0, -1.0, 0.0, 81.0],
    [1.0, 0.0, 0.0, 0.0],
    [0.0, 0.0, 1.0, 0.0],
    [0.0, 0.0, 0.0, 1.0]
],
  "dcmmeta_shape": [82, 82, 56, 872],
  "dcmmeta_slice_dim": 2,
  "dcmmeta_version": 0.6,
  "global": {
    "const": {
      "AccessionNumber": "A004860",
      "AcquisitionMatrix": [82, 0, 0, 82],
      "AngioFlag": "N",
      "BitsAllocated": 16,
      "BitsStored": 16,
      "BodyPartExamined": "BRAIN",
      "Columns": 656,
      "EchoNumbers": 1,
      "EchoTime": 27.2,
      "EchoTrainLength": 82,
      "FlipAngle": 44.0,
      "HighBit": 15,
      "ImageOrientationPatient": [0.99485656346447, -0.0518089153188, 0.08704168211357, 0.05753729504103, 0.99624819822112, -0.0646450865923],
      "ImagePositionPatient": [-922.01170789697, -838.58182423132, -93.028058178525],
      "ImageType": [
        "ORIGINAL",
        "PRIMARY",
        "M",
        "MB",
        "ND",
        "NORM",
        "MOSAIC"
],
      "ImagedNucleus": "1H",
      "ImagingFrequency": 123.259108,
      "InPlanePhaseEncodingDirection": "COL",
      "MRAcquisitionType": "2D",
      "MagneticFieldStrength": 3.0,
      "Manufacturer": "SIEMENS",
      "ManufacturerModelName": "Prisma",
      "Modality": "MR",
      "NumberOfAverages": 1.0,
      "NumberOfPhaseEncodingSteps": 82,
      "PercentPhaseFieldOfView": 100.0,
      "PercentSampling": 100.0,
      "PerformedProcedureStepStartTime": "091902.088000",
      "PhotometricInterpretation": "MONOCHROME2",
      "PixelBandwidth": 3050.0,
      "PixelRepresentation": 0,
      "PixelSpacing": [2.6829268932343, 2.6829268932343],
      "ProtocolName": "func_run-03_task-social_acq-ap-mb8",
      "RepetitionTime": 460.0,
      "Rows": 656,
      "SAR": 0.08011663233709,
      "SamplesPerPixel": 1,
      "ScanOptions": "FS",
      "ScanningSequence": "EP",
      "SequenceName": "epfid2d1_82",
      "SequenceVariant": [
        "SK",
        "SS"
],
      "SeriesDescription": "func_run-03_task-social_acq-ap-mb8",
      "SeriesNumber": 12,
      "SeriesTime": "095141.441000",
      "SliceLocation": -73.746402831416,
      "SliceThickness": 2.7000000476837,
      "SmallestImagePixelValue": 0,
      "SoftwareVersions": "syngo MR E11",
      "SpacingBetweenSlices": 2.7000000482207,
      "SpecificCharacterSet": "ISO_IR 100",
      "StudyID": "1",
      "StudyTime": "091902.026000",
      "TransmitCoilName": "Body",
      "VariableFlipAngleFlag": "N",
      "WindowCenterWidthExplanation": "Algo1"
    },
    "slices": {}
  },
  "time": {
    "samples": {
      "AcquisitionNumber": [1, 2, 3, 4, 5, 6, 7, 8, 9, 10, 11, 12, 13, 14, 15, 16, 17, 18, 19, 20, 21, 22, 23, 24, 25, 26, 27, 28, 29, 30, 31, 32, 33, 34, 35, 36, 37, 38, 39, 40, 41, 42, 43, 44, 45, 46, 47, 48, 49, 50, 51, 52, 53, 54, 55, 56, 57, 58, 59, 60, 61, 62, 63, 64, 65, 66, 67, 68, 69, 70, 71, 72, 73, 74, 75, 76, 77, 78, 79, 80, 81, 82, 83, 84, 85, 86, 87, 88, 89, 90, 91, 92, 93, 94, 95, 96, 97, 98, 99, 100, 101, 102, 103, 104, 105, 106, 107, 108, 109, 110, 111, 112, 113, 114, 115, 116, 117, 118, 119, 120, 121, 122, 123, 124, 125, 126, 127, 128, 129, 130, 131, 132, 133, 134, 135, 136, 137, 138, 139, 140, 141, 142, 143, 144, 145, 146, 147, 148, 149, 150, 151, 152, 153, 154, 155, 156, 157, 158, 159, 160, 161, 162, 163, 164, 165, 166, 167, 168, 169, 170, 171, 172, 173, 174, 175, 176, 177, 178, 179, 180, 181, 182, 183, 184, 185, 186, 187, 188, 189, 190, 191, 192, 193, 194, 195, 196, 197, 198, 199, 200, 201, 202, 203, 204, 205, 206, 207, 208, 209, 210, 211, 212, 213, 214, 215, 216, 217, 218, 219, 220, 221, 222, 223, 224, 225, 226, 227, 228, 229, 230, 231, 232, 233, 234, 235, 236, 237, 238, 239, 240, 241, 242, 243, 244, 245, 246, 247, 248, 249, 250, 251, 252, 253, 254, 255, 256, 257, 258, 259, 260, 261, 262, 263, 264, 265, 266, 267, 268, 269, 270, 271, 272, 273, 274, 275, 276, 277, 278, 279, 280, 281, 282, 283, 284, 285, 286, 287, 288, 289, 290, 291, 292, 293, 294, 295, 296, 297, 298, 299, 300, 301, 302, 303, 304, 305, 306, 307, 308, 309, 310, 311, 312, 313, 314, 315, 316, 317, 318, 319, 320, 321, 322, 323, 324, 325, 326, 327, 328, 329, 330, 331, 332, 333, 334, 335, 336, 337, 338, 339, 340, 341, 342, 343, 344, 345, 346, 347, 348, 349, 350, 351, 352, 353, 354, 355, 356, 357, 358, 359, 360, 361, 362, 363, 364, 365, 366, 367, 368, 369, 370, 371, 372, 373, 374, 375, 376, 377, 378, 379, 380, 381, 382, 383, 384, 385, 386, 387, 388, 389, 390, 391, 392, 393, 394, 395, 396, 397, 398, 399, 400, 401, 402, 403, 404, 405, 406, 407, 408, 409, 410, 411, 412, 413, 414, 415, 416, 417, 418, 419, 420, 421, 422, 423, 424, 425, 426, 427, 428, 429, 430, 431, 432, 433, 434, 435, 436, 437, 438, 439, 440, 441, 442, 443, 444, 445, 446, 447, 448, 449, 450, 451, 452, 453, 454, 455, 456, 457, 458, 459, 460, 461, 462, 463, 464, 465, 466, 467, 468, 469, 470, 471, 472, 473, 474, 475, 476, 477, 478, 479, 480, 481, 482, 483, 484, 485, 486, 487, 488, 489, 490, 491, 492, 493, 494, 495, 496, 497, 498, 499, 500, 501, 502, 503, 504, 505, 506, 507, 508, 509, 510, 511, 512, 513, 514, 515, 516, 517, 518, 519, 520, 521, 522, 523, 524, 525, 526, 527, 528, 529, 530, 531, 532, 533, 534, 535, 536, 537, 538, 539, 540, 541, 542, 543, 544, 545, 546, 547, 548, 549, 550, 551, 552, 553, 554, 555, 556, 557, 558, 559, 560, 561, 562, 563, 564, 565, 566, 567, 568, 569, 570, 571, 572, 573, 574, 575, 576, 577, 578, 579, 580, 581, 582, 583, 584, 585, 586, 587, 588, 589, 590, 591, 592, 593, 594, 595, 596, 597, 598, 599, 600, 601, 602, 603, 604, 605, 606, 607, 608, 609, 610, 611, 612, 613, 614, 615, 616, 617, 618, 619, 620, 621, 622, 623, 624, 625, 626, 627, 628, 629, 630, 631, 632, 633, 634, 635, 636, 637, 638, 639, 640, 641, 642, 643, 644, 645, 646, 647, 648, 649, 650, 651, 652, 653, 654, 655, 656, 657, 658, 659, 660, 661, 662, 663, 664, 665, 666, 667, 668, 669, 670, 671, 672, 673, 674, 675, 676, 677, 678, 679, 680, 681, 682, 683, 684, 685, 686, 687, 688, 689, 690, 691, 692, 693, 694, 695, 696, 697, 698, 699, 700, 701, 702, 703, 704, 705, 706, 707, 708, 709, 710, 711, 712, 713, 714, 715, 716, 717, 718, 719, 720, 721, 722, 723, 724, 725, 726, 727, 728, 729, 730, 731, 732, 733, 734, 735, 736, 737, 738, 739, 740, 741, 742, 743, 744, 745, 746, 747, 748, 749, 750, 751, 752, 753, 754, 755, 756, 757, 758, 759, 760, 761, 762, 763, 764, 765, 766, 767, 768, 769, 770, 771, 772, 773, 774, 775, 776, 777, 778, 779, 780, 781, 782, 783, 784, 785, 786, 787, 788, 789, 790, 791, 792, 793, 794, 795, 796, 797, 798, 799, 800, 801, 802, 803, 804, 805, 806, 807, 808, 809, 810, 811, 812, 813, 814, 815, 816, 817, 818, 819, 820, 821, 822, 823, 824, 825, 826, 827, 828, 829, 830, 831, 832, 833, 834, 835, 836, 837, 838, 839, 840, 841, 842, 843, 844, 845, 846, 847, 848, 849, 850, 851, 852, 853, 854, 855, 856, 857, 858, 859, 860, 861, 862, 863, 864, 865, 866, 867, 868, 869, 870, 871, 872],
      "AcquisitionTime": ["095128.490000", "095128.950000", "095129.410000", "095129.870000", "095130.330000", "095130.790000", "095131.250000", "095131.710000", "095132.170000", "095132.630000", "095133.090000", "095133.550000", "095134.010000", "095134.470000", "095134.930000", "095135.390000", "095135.850000", "095136.310000", "095136.770000", "095137.230000", "095137.690000", "095138.150000", "095138.610000", "095139.070000", "095139.530000", "095139.990000", "095140.450000", "095140.910000", "095141.370000", "095141.830000", "095142.290000", "095142.750000", "095143.210000", "095143.670000", "095144.130000", "095144.590000", "095145.050000", "095145.510000", "095145.970000", "095146.430000", "095146.890000", "095147.350000", "095147.810000", "095148.270000", "095148.730000", "095149.190000", "095149.650000", "095150.110000", "095150.570000", "095151.030000", "095151.490000", "095151.950000", "095152.410000", "095152.870000", "095153.330000", "095153.790000", "095154.250000", "095154.710000", "095155.170000", "095155.630000", "095156.090000", "095156.550000", "095157.010000", "095157.470000", "095157.930000", "095158.390000", "095158.850000", "095159.310000", "095159.770000", "095200.230000", "095200.690000", "095201.150000", "095201.610000", "095202.070000", "095202.530000", "095202.990000", "095203.450000", "095203.910000", "095204.370000", "095204.830000", "095205.290000", "095205.750000", "095206.210000", "095206.670000", "095207.130000", "095207.590000", "095208.050000", "095208.510000", "095208.970000", "095209.430000", "095209.890000", "095210.350000", "095210.810000", "095211.270000", "095211.730000", "095212.190000", "095212.650000", "095213.110000", "095213.570000", "095214.030000", "095214.490000", "095214.950000", "095215.410000", "095215.870000", "095216.330000", "095216.790000", "095217.250000", "095217.710000", "095218.170000", "095218.630000", "095219.090000", "095219.550000", "095220.010000", "095220.470000", "095220.930000", "095221.390000", "095221.850000", "095222.310000", "095222.770000", "095223.230000", "095223.690000", "095224.150000", "095224.610000", "095225.070000", "095225.530000", "095225.990000", "095226.450000", "095226.910000", "095227.370000", "095227.830000", "095228.290000", "095228.750000", "095229.210000", "095229.670000", "095230.130000", "095230.590000", "095231.050000", "095231.510000", "095231.970000", "095232.430000", "095232.890000", "095233.350000", "095233.810000", "095234.270000", "095234.730000", "095235.190000", "095235.650000", "095236.110000", "095236.570000", "095237.030000", "095237.490000", "095237.950000", "095238.410000", "095238.870000", "095239.330000", "095239.790000", "095240.250000", "095240.710000", "095241.170000", "095241.630000", "095242.090000", "095242.550000", "095243.010000", "095243.470000", "095243.930000", "095244.390000", "095244.850000", "095245.310000", "095245.770000", "095246.230000", "095246.690000", "095247.150000", "095247.610000", "095248.070000", "095248.530000", "095248.990000", "095249.450000", "095249.910000", "095250.370000", "095250.830000", "095251.290000", "095251.750000", "095252.210000", "095252.670000", "095253.130000", "095253.590000", "095254.050000", "095254.510000", "095254.970000", "095255.430000", "095255.890000", "095256.350000", "095256.810000", "095257.270000", "095257.730000", "095258.190000", "095258.650000", "095259.110000", "095259.570000", "095300.030000", "095300.490000", "095300.950000", "095301.410000", "095301.870000", "095302.330000", "095302.790000", "095303.250000", "095303.710000", "095304.170000", "095304.630000", "095305.090000", "095305.550000", "095306.010000", "095306.470000", "095306.930000", "095307.390000", "095307.850000", "095308.310000", "095308.770000", "095309.230000", "095309.690000", "095310.150000", "095310.610000", "095311.070000", "095311.530000", "095311.990000", "095312.450000", "095312.910000", "095313.370000", "095313.830000", "095314.290000", "095314.750000", "095315.210000", "095315.670000", "095316.130000", "095316.590000", "095317.050000", "095317.510000", "095317.970000", "095318.430000", "095318.890000", "095319.350000", "095319.810000", "095320.270000", "095320.730000", "095321.190000", "095321.650000", "095322.110000", "095322.570000", "095323.030000", "095323.490000", "095323.950000", "095324.410000", "095324.870000", "095325.330000", "095325.790000", "095326.250000", "095326.710000", "095327.170000", "095327.630000", "095328.090000", "095328.550000", "095329.010000", "095329.470000", "095329.930000", "095330.390000", "095330.850000", "095331.310000", "095331.770000", "095332.230000", "095332.690000", "095333.150000", "095333.610000", "095334.070000", "095334.530000", "095334.990000", "095335.450000", "095335.910000", "095336.370000", "095336.830000", "095337.290000", "095337.750000", "095338.210000", "095338.670000", "095339.130000", "095339.590000", "095340.050000", "095340.510000", "095340.970000", "095341.430000", "095341.890000", "095342.350000", "095342.810000", "095343.270000", "095343.730000", "095344.190000", "095344.650000", "095345.110000", "095345.570000", "095346.030000", "095346.490000", "095346.950000", "095347.410000", "095347.870000", "095348.330000", "095348.790000", "095349.250000", "095349.710000", "095350.170000", "095350.630000", "095351.090000", "095351.550000", "095352.010000", "095352.470000", "095352.930000", "095353.390000", "095353.850000", "095354.310000", "095354.770000", "095355.230000", "095355.690000", "095356.150000", "095356.610000", "095357.070000", "095357.530000", "095357.990000", "095358.450000", "095358.910000", "095359.370000", "095359.830000", "095400.290000", "095400.750000", "095401.210000", "095401.670000", "095402.130000", "095402.590000", "095403.050000", "095403.510000", "095403.970000", "095404.430000", "095404.890000", "095405.350000", "095405.810000", "095406.270000", "095406.730000", "095407.190000", "095407.650000", "095408.110000", "095408.570000", "095409.030000", "095409.490000", "095409.950000", "095410.410000", "095410.870000", "095411.330000", "095411.790000", "095412.250000", "095412.710000", "095413.170000", "095413.630000", "095414.090000", "095414.550000", "095415.010000", "095415.470000", "095415.930000", "095416.390000", "095416.850000", "095417.310000", "095417.770000", "095418.230000", "095418.690000", "095419.150000", "095419.610000", "095420.070000", "095420.530000", "095420.990000", "095421.450000", "095421.910000", "095422.370000", "095422.830000", "095423.290000", "095423.750000", "095424.210000", "095424.670000", "095425.130000", "095425.590000", "095426.050000", "095426.510000", "095426.970000", "095427.430000", "095427.890000", "095428.350000", "095428.810000", "095429.270000", "095429.730000", "095430.190000", "095430.650000", "095431.110000", "095431.570000", "095432.030000", "095432.490000", "095432.950000", "095433.410000", "095433.870000", "095434.330000", "095434.790000", "095435.250000", "095435.710000", "095436.170000", "095436.630000", "095437.090000", "095437.550000", "095438.010000", "095438.470000", "095438.930000", "095439.390000", "095439.850000", "095440.310000", "095440.770000", "095441.230000", "095441.690000", "095442.150000", "095442.610000", "095443.070000", "095443.530000", "095443.990000", "095444.450000", "095444.910000", "095445.370000", "095445.830000", "095446.290000", "095446.750000", "095447.210000", "095447.670000", "095448.130000", "095448.590000", "095449.050000", "095449.510000", "095449.970000", "095450.430000", "095450.890000", "095451.350000", "095451.810000", "095452.270000", "095452.730000", "095453.190000", "095453.650000", "095454.110000", "095454.570000", "095455.030000", "095455.490000", "095455.950000", "095456.410000", "095456.870000", "095457.330000", "095457.790000", "095458.250000", "095458.710000", "095459.170000", "095459.630000", "095500.090000", "095500.550000", "095501.010000", "095501.470000", "095501.930000", "095502.390000", "095502.850000", "095503.310000", "095503.770000", "095504.230000", "095504.690000", "095505.150000", "095505.610000", "095506.070000", "095506.530000", "095506.990000", "095507.450000", "095507.910000", "095508.370000", "095508.830000", "095509.290000", "095509.750000", "095510.210000", "095510.670000", "095511.130000", "095511.590000", "095512.050000", "095512.510000", "095512.970000", "095513.430000", "095513.890000", "095514.350000", "095514.810000", "095515.270000", "095515.730000", "095516.190000", "095516.650000", "095517.110000", "095517.570000", "095518.030000", "095518.490000", "095518.950000", "095519.410000", "095519.870000", "095520.330000", "095520.790000", "095521.250000", "095521.710000", "095522.170000", "095522.630000", "095523.090000", "095523.550000", "095524.010000", "095524.470000", "095524.930000", "095525.390000", "095525.850000", "095526.310000", "095526.770000", "095527.230000", "095527.690000", "095528.150000", "095528.610000", "095529.070000", "095529.530000", "095529.990000", "095530.450000", "095530.910000", "095531.370000", "095531.830000", "095532.290000", "095532.750000", "095533.210000", "095533.670000", "095534.130000", "095534.590000", "095535.050000", "095535.510000", "095535.970000", "095536.430000", "095536.890000", "095537.350000", "095537.810000", "095538.270000", "095538.730000", "095539.190000", "095539.650000", "095540.110000", "095540.570000", "095541.030000", "095541.490000", "095541.950000", "095542.410000", "095542.870000", "095543.330000", "095543.790000", "095544.250000", "095544.710000", "095545.170000", "095545.630000", "095546.090000", "095546.550000", "095547.010000", "095547.470000", "095547.930000", "095548.390000", "095548.850000", "095549.310000", "095549.770000", "095550.230000", "095550.690000", "095551.150000", "095551.610000", "095552.070000", "095552.530000", "095552.990000", "095553.450000", "095553.910000", "095554.370000", "095554.830000", "095555.290000", "095555.750000", "095556.210000", "095556.670000", "095557.130000", "095557.590000", "095558.050000", "095558.510000", "095558.970000", "095559.430000", "095559.890000", "095600.350000", "095600.810000", "095601.270000", "095601.730000", "095602.190000", "095602.650000", "095603.110000", "095603.570000", "095604.030000", "095604.490000", "095604.950000", "095605.410000", "095605.870000", "095606.330000", "095606.790000", "095607.250000", "095607.710000", "095608.170000", "095608.630000", "095609.090000", "095609.550000", "095610.010000", "095610.470000", "095610.930000", "095611.390000", "095611.850000", "095612.310000", "095612.770000", "095613.230000", "095613.690000", "095614.150000", "095614.610000", "095615.070000", "095615.530000", "095615.990000", "095616.450000", "095616.910000", "095617.370000", "095617.830000", "095618.290000", "095618.750000", "095619.210000", "095619.670000", "095620.130000", "095620.590000", "095621.050000", "095621.510000", "095621.970000", "095622.430000", "095622.890000", "095623.350000", "095623.810000", "095624.270000", "095624.730000", "095625.190000", "095625.650000", "095626.110000", "095626.570000", "095627.030000", "095627.490000", "095627.950000", "095628.410000", "095628.870000", "095629.330000", "095629.790000", "095630.250000", "095630.710000", "095631.170000", "095631.630000", "095632.090000", "095632.550000", "095633.010000", "095633.470000", "095633.930000", "095634.390000", "095634.850000", "095635.310000", "095635.770000", "095636.230000", "095636.690000", "095637.150000", "095637.610000", "095638.070000", "095638.530000", "095638.990000", "095639.450000", "095639.910000", "095640.370000", "095640.830000", "095641.290000", "095641.750000", "095642.210000", "095642.670000", "095643.130000", "095643.590000", "095644.050000", "095644.510000", "095644.970000", "095645.430000", "095645.890000", "095646.350000", "095646.810000", "095647.270000", "095647.730000", "095648.190000", "095648.650000", "095649.110000", "095649.570000", "095650.030000", "095650.490000", "095650.950000", "095651.410000", "095651.870000", "095652.330000", "095652.790000", "095653.250000", "095653.710000", "095654.170000", "095654.630000", "095655.090000", "095655.550000", "095656.010000", "095656.470000", "095656.930000", "095657.390000", "095657.850000", "095658.310000", "095658.770000", "095659.230000", "095659.690000", "095700.150000", "095700.610000", "095701.070000", "095701.530000", "095701.990000", "095702.450000", "095702.910000", "095703.370000", "095703.830000", "095704.290000", "095704.750000", "095705.210000", "095705.670000", "095706.130000", "095706.590000", "095707.050000", "095707.510000", "095707.970000", "095708.430000", "095708.890000", "095709.350000", "095709.810000", "095710.270000", "095710.730000", "095711.190000", "095711.650000", "095712.110000", "095712.570000", "095713.030000", "095713.490000", "095713.950000", "095714.410000", "095714.870000", "095715.330000", "095715.790000", "095716.250000", "095716.710000", "095717.170000", "095717.630000", "095718.090000", "095718.550000", "095719.010000", "095719.470000", "095719.930000", "095720.390000", "095720.850000", "095721.310000", "095721.770000", "095722.230000", "095722.690000", "095723.150000", "095723.610000", "095724.070000", "095724.530000", "095724.990000", "095725.450000", "095725.910000", "095726.370000", "095726.830000", "095727.290000", "095727.750000", "095728.210000", "095728.670000", "095729.130000", "095729.590000", "095730.050000", "095730.510000", "095730.970000", "095731.430000", "095731.890000", "095732.350000", "095732.810000", "095733.270000", "095733.730000", "095734.190000", "095734.650000", "095735.110000", "095735.570000", "095736.030000", "095736.490000", "095736.950000", "095737.410000", "095737.870000", "095738.330000", "095738.790000", "095739.250000", "095739.710000", "095740.170000", "095740.630000", "095741.090000", "095741.550000", "095742.010000", "095742.470000", "095742.930000", "095743.390000", "095743.850000", "095744.310000", "095744.770000", "095745.230000", "095745.690000", "095746.150000", "095746.610000", "095747.070000", "095747.530000", "095747.990000", "095748.450000", "095748.910000", "095749.370000", "095749.830000", "095750.290000", "095750.750000", "095751.210000", "095751.670000", "095752.130000", "095752.590000", "095753.050000", "095753.510000", "095753.970000", "095754.430000", "095754.890000", "095755.350000", "095755.810000", "095756.270000", "095756.730000", "095757.190000", "095757.650000", "095758.110000", "095758.570000", "095759.030000", "095759.490000", "095759.950000", "095800.410000", "095800.870000", "095801.330000", "095801.790000", "095802.250000", "095802.710000", "095803.170000", "095803.630000", "095804.090000", "095804.550000", "095805.010000", "095805.470000", "095805.930000", "095806.390000", "095806.850000", "095807.310000", "095807.770000", "095808.230000", "095808.690000", "095809.150000"],
