{
  "AcquisitionMatrixPE": 82,
  "AcquisitionNumber": 1,
  "AcquisitionTime": "10:14:18.970000",
  "BandwidthPerPixelPhaseEncode": 24.888,
  "BaseResolution": 82,
  "BodyPartExamined": "BRAIN",
  "ConsistencyInfo": "N4_VE11E_LATEST_20181129",
  "ConversionSoftware": "dcm2niix",
  "ConversionSoftwareVersion": "v1.0.20201102",
  "DerivedVendorReportedEchoSpacing": 0.00049,
  "DeviceSerialNumber": "66112",
  "DwellTime": 2e-06,
  "EchoTime": 0.0272,
  "EchoTrainLength": 82,
  "EffectiveEchoSpacing": 0.00049,
  "FlipAngle": 44,
  "ImageComments": "Unaliased MB8/PE3",
  "ImageOrientationPatientDICOM": [0.994857, -0.0518089, 0.0870417, 0.0575373, 0.996248, -0.0646451],
  "ImageType": [
    "ORIGINAL",
    "PRIMARY",
    "M",
    "MB",
    "ND",
    "NORM",
    "MOSAIC"
],
  "ImagingFrequency": 123.259,
  "InPlanePhaseEncodingDirectionDICOM": "COL",
  "InstitutionAddress": "Maynard 3,Hanover,NH,US,03755",
  "InstitutionName": "Dartmouth College - PBS",
  "InstitutionalDepartmentName": "Department",
  "MRAcquisitionType": "2D",
  "MagneticFieldStrength": 3,
  "Manufacturer": "Siemens",
  "ManufacturersModelName": "Prisma",
  "Modality": "MR",
  "MultibandAccelerationFactor": 8,
  "PartialFourier": 1,
  "PatientPosition": "HFS",
  "PercentPhaseFOV": 100,
  "PercentSampling": 100,
  "PhaseEncodingDirection": "j-",
  "PhaseEncodingSteps": 82,
  "PhaseResolution": 1,
  "PixelBandwidth": 3050,
  "ProcedureStepDescription": "Wager_Wager^1076_spacetop",
  "ProtocolName": "func_run-06_task-social_acq-ap-mb8",
  "PulseSequenceDetails": "%CustomerSeq%\\cmrr_mbep2d_bold",
  "ReceiveCoilActiveElements": "HEA;HEP",
  "ReceiveCoilName": "Head_32",
  "ReconMatrixPE": 82,
  "RepetitionTime": 0.46,
  "SAR": 0.0801166,
  "ScanOptions": "FS",
  "ScanningSequence": "EP",
  "SequenceName": "epfid2d1_82",
  "SequenceVariant": "SK\\SS",
  "SeriesDescription": "func_run-06_task-social_acq-ap-mb8",
  "SeriesNumber": 18,
  "ShimSetting": [4233, -7670, -7256, 385, -252, 179, -74, 115],
  "SliceThickness": 2.7,
  "SliceTiming": [0, 0.2525, 0.0625, 0.315, 0.1275, 0.3775, 0.19, 0, 0.2525, 0.0625, 0.315, 0.1275, 0.3775, 0.19, 0, 0.2525, 0.0625, 0.315, 0.1275, 0.3775, 0.19, 0, 0.2525, 0.0625, 0.315, 0.1275, 0.3775, 0.19, 0, 0.2525, 0.0625, 0.315, 0.1275, 0.3775, 0.19, 0, 0.2525, 0.0625, 0.315, 0.1275, 0.3775, 0.19, 0, 0.2525, 0.0625, 0.315, 0.1275, 0.3775, 0.19, 0, 0.2525, 0.0625, 0.315, 0.1275, 0.3775, 0.19],
  "SoftwareVersions": "syngo MR E11",
  "SpacingBetweenSlices": 2.7,
  "StationName": "AWP66112",
  "TaskName": "social",
  "TotalReadoutTime": 0.03969,
  "TxRefAmp": 232.377,
  "WipMemBlock": "ef9a4801-5410-409c-a634-d8c65d8e385a||Sequence: R016 ve11e/master r/434b28f1; Aug  7 2019 18:53:46 by eja",
  "dcmmeta_affine": [
    [-2.6691274642944336, 0.1543683558702469, 0.2250880002975464, 99.16458129882812],
    [0.13899953663349152, 2.672861099243164, -0.1871659755706787, -105.13819122314453],
    [0.23352646827697754, 0.17343804240226746, 2.6840834617614746, -89.83116149902344],
    [0.0, 0.0, 0.0, 1.0]
],
  "dcmmeta_reorient_transform": [
    [0.0, -1.0, 0.0, 81.0],
    [1.0, 0.0, 0.0, 0.0],
    [0.0, 0.0, 1.0, 0.0],
    [0.0, 0.0, 0.0, 1.0]
],
  "dcmmeta_shape": [82, 82, 56, 872],
  "dcmmeta_slice_dim": 2,
  "dcmmeta_version": 0.6,
  "global": {
    "const": {
      "AccessionNumber": "A004860",
      "AcquisitionMatrix": [82, 0, 0, 82],
      "AngioFlag": "N",
      "BitsAllocated": 16,
      "BitsStored": 16,
      "BodyPartExamined": "BRAIN",
      "Columns": 656,
      "EchoNumbers": 1,
      "EchoTime": 27.2,
      "EchoTrainLength": 82,
      "FlipAngle": 44.0,
      "HighBit": 15,
      "ImageOrientationPatient": [0.99485656346447, -0.0518089153188, 0.08704168211357, 0.05753729504103, 0.99624819822112, -0.0646450865923],
      "ImagePositionPatient": [-922.01170789697, -838.58182423132, -93.028058178525],
      "ImageType": [
        "ORIGINAL",
        "PRIMARY",
        "M",
        "MB",
        "ND",
        "NORM",
        "MOSAIC"
],
      "ImagedNucleus": "1H",
      "ImagingFrequency": 123.25912,
      "InPlanePhaseEncodingDirection": "COL",
      "MRAcquisitionType": "2D",
      "MagneticFieldStrength": 3.0,
      "Manufacturer": "SIEMENS",
      "ManufacturerModelName": "Prisma",
      "Modality": "MR",
      "NumberOfAverages": 1.0,
      "NumberOfPhaseEncodingSteps": 82,
      "PercentPhaseFieldOfView": 100.0,
      "PercentSampling": 100.0,
      "PerformedProcedureStepStartTime": "091902.088000",
      "PhotometricInterpretation": "MONOCHROME2",
      "PixelBandwidth": 3050.0,
      "PixelRepresentation": 0,
      "PixelSpacing": [2.6829268932343, 2.6829268932343],
      "ProtocolName": "func_run-06_task-social_acq-ap-mb8",
      "RepetitionTime": 460.0,
      "Rows": 656,
      "SAR": 0.08011663233709,
      "SamplesPerPixel": 1,
      "ScanOptions": "FS",
      "ScanningSequence": "EP",
      "SequenceName": "epfid2d1_82",
      "SequenceVariant": [
        "SK",
        "SS"
],
      "SeriesDescription": "func_run-06_task-social_acq-ap-mb8",
      "SeriesNumber": 18,
      "SeriesTime": "101441.430000",
      "SliceLocation": -73.746402831416,
      "SliceThickness": 2.7000000476837,
      "SmallestImagePixelValue": 0,
      "SoftwareVersions": "syngo MR E11",
      "SpacingBetweenSlices": 2.7000000482207,
      "SpecificCharacterSet": "ISO_IR 100",
      "StudyID": "1",
      "StudyTime": "091902.026000",
      "TransmitCoilName": "Body",
      "VariableFlipAngleFlag": "N",
      "WindowCenterWidthExplanation": "Algo1"
    },
    "slices": {}
  },
  "time": {
    "samples": {
      "AcquisitionNumber": [1, 2, 3, 4, 5, 6, 7, 8, 9, 10, 11, 12, 13, 14, 15, 16, 17, 18, 19, 20, 21, 22, 23, 24, 25, 26, 27, 28, 29, 30, 31, 32, 33, 34, 35, 36, 37, 38, 39, 40, 41, 42, 43, 44, 45, 46, 47, 48, 49, 50, 51, 52, 53, 54, 55, 56, 57, 58, 59, 60, 61, 62, 63, 64, 65, 66, 67, 68, 69, 70, 71, 72, 73, 74, 75, 76, 77, 78, 79, 80, 81, 82, 83, 84, 85, 86, 87, 88, 89, 90, 91, 92, 93, 94, 95, 96, 97, 98, 99, 100, 101, 102, 103, 104, 105, 106, 107, 108, 109, 110, 111, 112, 113, 114, 115, 116, 117, 118, 119, 120, 121, 122, 123, 124, 125, 126, 127, 128, 129, 130, 131, 132, 133, 134, 135, 136, 137, 138, 139, 140, 141, 142, 143, 144, 145, 146, 147, 148, 149, 150, 151, 152, 153, 154, 155, 156, 157, 158, 159, 160, 161, 162, 163, 164, 165, 166, 167, 168, 169, 170, 171, 172, 173, 174, 175, 176, 177, 178, 179, 180, 181, 182, 183, 184, 185, 186, 187, 188, 189, 190, 191, 192, 193, 194, 195, 196, 197, 198, 199, 200, 201, 202, 203, 204, 205, 206, 207, 208, 209, 210, 211, 212, 213, 214, 215, 216, 217, 218, 219, 220, 221, 222, 223, 224, 225, 226, 227, 228, 229, 230, 231, 232, 233, 234, 235, 236, 237, 238, 239, 240, 241, 242, 243, 244, 245, 246, 247, 248, 249, 250, 251, 252, 253, 254, 255, 256, 257, 258, 259, 260, 261, 262, 263, 264, 265, 266, 267, 268, 269, 270, 271, 272, 273, 274, 275, 276, 277, 278, 279, 280, 281, 282, 283, 284, 285, 286, 287, 288, 289, 290, 291, 292, 293, 294, 295, 296, 297, 298, 299, 300, 301, 302, 303, 304, 305, 306, 307, 308, 309, 310, 311, 312, 313, 314, 315, 316, 317, 318, 319, 320, 321, 322, 323, 324, 325, 326, 327, 328, 329, 330, 331, 332, 333, 334, 335, 336, 337, 338, 339, 340, 341, 342, 343, 344, 345, 346, 347, 348, 349, 350, 351, 352, 353, 354, 355, 356, 357, 358, 359, 360, 361, 362, 363, 364, 365, 366, 367, 368, 369, 370, 371, 372, 373, 374, 375, 376, 377, 378, 379, 380, 381, 382, 383, 384, 385, 386, 387, 388, 389, 390, 391, 392, 393, 394, 395, 396, 397, 398, 399, 400, 401, 402, 403, 404, 405, 406, 407, 408, 409, 410, 411, 412, 413, 414, 415, 416, 417, 418, 419, 420, 421, 422, 423, 424, 425, 426, 427, 428, 429, 430, 431, 432, 433, 434, 435, 436, 437, 438, 439, 440, 441, 442, 443, 444, 445, 446, 447, 448, 449, 450, 451, 452, 453, 454, 455, 456, 457, 458, 459, 460, 461, 462, 463, 464, 465, 466, 467, 468, 469, 470, 471, 472, 473, 474, 475, 476, 477, 478, 479, 480, 481, 482, 483, 484, 485, 486, 487, 488, 489, 490, 491, 492, 493, 494, 495, 496, 497, 498, 499, 500, 501, 502, 503, 504, 505, 506, 507, 508, 509, 510, 511, 512, 513, 514, 515, 516, 517, 518, 519, 520, 521, 522, 523, 524, 525, 526, 527, 528, 529, 530, 531, 532, 533, 534, 535, 536, 537, 538, 539, 540, 541, 542, 543, 544, 545, 546, 547, 548, 549, 550, 551, 552, 553, 554, 555, 556, 557, 558, 559, 560, 561, 562, 563, 564, 565, 566, 567, 568, 569, 570, 571, 572, 573, 574, 575, 576, 577, 578, 579, 580, 581, 582, 583, 584, 585, 586, 587, 588, 589, 590, 591, 592, 593, 594, 595, 596, 597, 598, 599, 600, 601, 602, 603, 604, 605, 606, 607, 608, 609, 610, 611, 612, 613, 614, 615, 616, 617, 618, 619, 620, 621, 622, 623, 624, 625, 626, 627, 628, 629, 630, 631, 632, 633, 634, 635, 636, 637, 638, 639, 640, 641, 642, 643, 644, 645, 646, 647, 648, 649, 650, 651, 652, 653, 654, 655, 656, 657, 658, 659, 660, 661, 662, 663, 664, 665, 666, 667, 668, 669, 670, 671, 672, 673, 674, 675, 676, 677, 678, 679, 680, 681, 682, 683, 684, 685, 686, 687, 688, 689, 690, 691, 692, 693, 694, 695, 696, 697, 698, 699, 700, 701, 702, 703, 704, 705, 706, 707, 708, 709, 710, 711, 712, 713, 714, 715, 716, 717, 718, 719, 720, 721, 722, 723, 724, 725, 726, 727, 728, 729, 730, 731, 732, 733, 734, 735, 736, 737, 738, 739, 740, 741, 742, 743, 744, 745, 746, 747, 748, 749, 750, 751, 752, 753, 754, 755, 756, 757, 758, 759, 760, 761, 762, 763, 764, 765, 766, 767, 768, 769, 770, 771, 772, 773, 774, 775, 776, 777, 778, 779, 780, 781, 782, 783, 784, 785, 786, 787, 788, 789, 790, 791, 792, 793, 794, 795, 796, 797, 798, 799, 800, 801, 802, 803, 804, 805, 806, 807, 808, 809, 810, 811, 812, 813, 814, 815, 816, 817, 818, 819, 820, 821, 822, 823, 824, 825, 826, 827, 828, 829, 830, 831, 832, 833, 834, 835, 836, 837, 838, 839, 840, 841, 842, 843, 844, 845, 846, 847, 848, 849, 850, 851, 852, 853, 854, 855, 856, 857, 858, 859, 860, 861, 862, 863, 864, 865, 866, 867, 868, 869, 870, 871, 872],
      "AcquisitionTime": ["101418.970000", "101419.430000", "101419.890000", "101420.350000", "101420.810000", "101421.270000", "101421.730000", "101422.190000", "101422.650000", "101423.110000", "101423.570000", "101424.030000", "101424.490000", "101424.950000", "101425.410000", "101425.870000", "101426.330000", "101426.790000", "101427.250000", "101427.710000", "101428.170000", "101428.630000", "101429.090000", "101429.550000", "101430.010000", "101430.470000", "101430.930000", "101431.390000", "101431.850000", "101432.310000", "101432.770000", "101433.230000", "101433.690000", "101434.150000", "101434.610000", "101435.070000", "101435.530000", "101435.990000", "101436.450000", "101436.910000", "101437.370000", "101437.830000", "101438.290000", "101438.750000", "101439.210000", "101439.670000", "101440.130000", "101440.590000", "101441.050000", "101441.510000", "101441.970000", "101442.430000", "101442.890000", "101443.350000", "101443.810000", "101444.270000", "101444.730000", "101445.190000", "101445.650000", "101446.110000", "101446.570000", "101447.030000", "101447.490000", "101447.950000", "101448.410000", "101448.870000", "101449.330000", "101449.790000", "101450.250000", "101450.710000", "101451.170000", "101451.630000", "101452.090000", "101452.550000", "101453.010000", "101453.470000", "101453.930000", "101454.390000", "101454.850000", "101455.310000", "101455.770000", "101456.230000", "101456.690000", "101457.150000", "101457.610000", "101458.070000", "101458.530000", "101458.990000", "101459.450000", "101459.910000", "101500.370000", "101500.830000", "101501.290000", "101501.750000", "101502.210000", "101502.670000", "101503.130000", "101503.590000", "101504.050000", "101504.510000", "101504.970000", "101505.430000", "101505.890000", "101506.350000", "101506.810000", "101507.270000", "101507.730000", "101508.190000", "101508.650000", "101509.110000", "101509.570000", "101510.030000", "101510.490000", "101510.950000", "101511.410000", "101511.870000", "101512.330000", "101512.790000", "101513.250000", "101513.710000", "101514.170000", "101514.630000", "101515.090000", "101515.550000", "101516.010000", "101516.470000", "101516.930000", "101517.390000", "101517.850000", "101518.310000", "101518.770000", "101519.230000", "101519.690000", "101520.150000", "101520.610000", "101521.070000", "101521.530000", "101521.990000", "101522.450000", "101522.910000", "101523.370000", "101523.830000", "101524.290000", "101524.750000", "101525.210000", "101525.670000", "101526.130000", "101526.590000", "101527.050000", "101527.510000", "101527.970000", "101528.430000", "101528.890000", "101529.350000", "101529.810000", "101530.270000", "101530.730000", "101531.190000", "101531.650000", "101532.110000", "101532.570000", "101533.030000", "101533.490000", "101533.950000", "101534.410000", "101534.870000", "101535.330000", "101535.790000", "101536.250000", "101536.710000", "101537.170000", "101537.630000", "101538.090000", "101538.550000", "101539.010000", "101539.470000", "101539.930000", "101540.390000", "101540.850000", "101541.310000", "101541.770000", "101542.230000", "101542.690000", "101543.150000", "101543.610000", "101544.070000", "101544.530000", "101544.990000", "101545.450000", "101545.910000", "101546.370000", "101546.830000", "101547.290000", "101547.750000", "101548.210000", "101548.670000", "101549.130000", "101549.590000", "101550.050000", "101550.510000", "101550.970000", "101551.430000", "101551.890000", "101552.350000", "101552.810000", "101553.270000", "101553.730000", "101554.190000", "101554.650000", "101555.110000", "101555.570000", "101556.030000", "101556.490000", "101556.950000", "101557.410000", "101557.870000", "101558.330000", "101558.790000", "101559.250000", "101559.710000", "101600.170000", "101600.630000", "101601.090000", "101601.550000", "101602.010000", "101602.470000", "101602.930000", "101603.390000", "101603.850000", "101604.310000", "101604.770000", "101605.230000", "101605.690000", "101606.150000", "101606.610000", "101607.070000", "101607.530000", "101607.990000", "101608.450000", "101608.910000", "101609.370000", "101609.830000", "101610.290000", "101610.750000", "101611.210000", "101611.670000", "101612.130000", "101612.590000", "101613.050000", "101613.510000", "101613.970000", "101614.430000", "101614.890000", "101615.350000", "101615.810000", "101616.270000", "101616.730000", "101617.190000", "101617.650000", "101618.110000", "101618.570000", "101619.030000", "101619.490000", "101619.950000", "101620.410000", "101620.870000", "101621.330000", "101621.790000", "101622.250000", "101622.710000", "101623.170000", "101623.630000", "101624.090000", "101624.550000", "101625.010000", "101625.470000", "101625.930000", "101626.390000", "101626.850000", "101627.310000", "101627.770000", "101628.230000", "101628.690000", "101629.150000", "101629.610000", "101630.070000", "101630.530000", "101630.990000", "101631.450000", "101631.910000", "101632.370000", "101632.830000", "101633.290000", "101633.750000", "101634.210000", "101634.670000", "101635.130000", "101635.590000", "101636.050000", "101636.510000", "101636.970000", "101637.430000", "101637.890000", "101638.350000", "101638.810000", "101639.270000", "101639.730000", "101640.190000", "101640.650000", "101641.110000", "101641.570000", "101642.030000", "101642.490000", "101642.950000", "101643.410000", "101643.870000", "101644.330000", "101644.790000", "101645.250000", "101645.710000", "101646.170000", "101646.630000", "101647.090000", "101647.550000", "101648.010000", "101648.470000", "101648.930000", "101649.390000", "101649.850000", "101650.310000", "101650.770000", "101651.230000", "101651.690000", "101652.150000", "101652.610000", "101653.070000", "101653.530000", "101653.990000", "101654.450000", "101654.910000", "101655.370000", "101655.830000", "101656.290000", "101656.750000", "101657.210000", "101657.670000", "101658.130000", "101658.590000", "101659.050000", "101659.510000", "101659.970000", "101700.430000", "101700.890000", "101701.350000", "101701.810000", "101702.270000", "101702.730000", "101703.190000", "101703.650000", "101704.110000", "101704.570000", "101705.030000", "101705.490000", "101705.950000", "101706.410000", "101706.870000", "101707.330000", "101707.790000", "101708.250000", "101708.710000", "101709.170000", "101709.630000", "101710.090000", "101710.550000", "101711.010000", "101711.470000", "101711.930000", "101712.390000", "101712.850000", "101713.310000", "101713.770000", "101714.230000", "101714.690000", "101715.150000", "101715.610000", "101716.070000", "101716.530000", "101716.990000", "101717.450000", "101717.910000", "101718.370000", "101718.830000", "101719.290000", "101719.750000", "101720.210000", "101720.670000", "101721.130000", "101721.590000", "101722.050000", "101722.510000", "101722.970000", "101723.430000", "101723.890000", "101724.350000", "101724.810000", "101725.270000", "101725.730000", "101726.190000", "101726.650000", "101727.110000", "101727.570000", "101728.030000", "101728.490000", "101728.950000", "101729.410000", "101729.870000", "101730.330000", "101730.790000", "101731.250000", "101731.710000", "101732.170000", "101732.630000", "101733.090000", "101733.550000", "101734.010000", "101734.470000", "101734.930000", "101735.390000", "101735.850000", "101736.310000", "101736.770000", "101737.230000", "101737.690000", "101738.150000", "101738.610000", "101739.070000", "101739.530000", "101739.990000", "101740.450000", "101740.910000", "101741.370000", "101741.830000", "101742.290000", "101742.750000", "101743.210000", "101743.670000", "101744.130000", "101744.590000", "101745.050000", "101745.510000", "101745.970000", "101746.430000", "101746.890000", "101747.350000", "101747.810000", "101748.270000", "101748.730000", "101749.190000", "101749.650000", "101750.110000", "101750.570000", "101751.030000", "101751.490000", "101751.950000", "101752.410000", "101752.870000", "101753.330000", "101753.790000", "101754.250000", "101754.710000", "101755.170000", "101755.630000", "101756.090000", "101756.550000", "101757.010000", "101757.470000", "101757.930000", "101758.390000", "101758.850000", "101759.310000", "101759.770000", "101800.230000", "101800.690000", "101801.150000", "101801.610000", "101802.070000", "101802.530000", "101802.990000", "101803.450000", "101803.910000", "101804.370000", "101804.830000", "101805.290000", "101805.750000", "101806.210000", "101806.670000", "101807.130000", "101807.590000", "101808.050000", "101808.510000", "101808.970000", "101809.430000", "101809.890000", "101810.350000", "101810.810000", "101811.270000", "101811.730000", "101812.190000", "101812.650000", "101813.110000", "101813.570000", "101814.030000", "101814.490000", "101814.950000", "101815.410000", "101815.870000", "101816.330000", "101816.790000", "101817.250000", "101817.710000", "101818.170000", "101818.630000", "101819.090000", "101819.550000", "101820.010000", "101820.470000", "101820.930000", "101821.390000", "101821.850000", "101822.310000", "101822.770000", "101823.230000", "101823.690000", "101824.150000", "101824.610000", "101825.070000", "101825.530000", "101825.990000", "101826.450000", "101826.910000", "101827.370000", "101827.830000", "101828.290000", "101828.750000", "101829.210000", "101829.670000", "101830.130000", "101830.590000", "101831.050000", "101831.510000", "101831.970000", "101832.430000", "101832.890000", "101833.350000", "101833.810000", "101834.270000", "101834.730000", "101835.190000", "101835.650000", "101836.110000", "101836.570000", "101837.030000", "101837.490000", "101837.950000", "101838.410000", "101838.870000", "101839.330000", "101839.790000", "101840.250000", "101840.710000", "101841.170000", "101841.630000", "101842.090000", "101842.550000", "101843.010000", "101843.470000", "101843.930000", "101844.390000", "101844.850000", "101845.310000", "101845.770000", "101846.230000", "101846.690000", "101847.150000", "101847.610000", "101848.070000", "101848.530000", "101848.990000", "101849.450000", "101849.910000", "101850.370000", "101850.830000", "101851.290000", "101851.750000", "101852.210000", "101852.670000", "101853.130000", "101853.590000", "101854.050000", "101854.510000", "101854.970000", "101855.430000", "101855.890000", "101856.350000", "101856.810000", "101857.270000", "101857.730000", "101858.190000", "101858.650000", "101859.110000", "101859.570000", "101900.030000", "101900.490000", "101900.950000", "101901.410000", "101901.870000", "101902.330000", "101902.790000", "101903.250000", "101903.710000", "101904.170000", "101904.630000", "101905.090000", "101905.550000", "101906.010000", "101906.470000", "101906.930000", "101907.390000", "101907.850000", "101908.310000", "101908.770000", "101909.230000", "101909.690000", "101910.150000", "101910.610000", "101911.070000", "101911.530000", "101911.990000", "101912.450000", "101912.910000", "101913.370000", "101913.830000", "101914.290000", "101914.750000", "101915.210000", "101915.670000", "101916.130000", "101916.590000", "101917.050000", "101917.510000", "101917.970000", "101918.430000", "101918.890000", "101919.350000", "101919.810000", "101920.270000", "101920.730000", "101921.190000", "101921.650000", "101922.110000", "101922.570000", "101923.030000", "101923.490000", "101923.950000", "101924.410000", "101924.870000", "101925.330000", "101925.790000", "101926.250000", "101926.710000", "101927.170000", "101927.630000", "101928.090000", "101928.550000", "101929.010000", "101929.470000", "101929.930000", "101930.390000", "101930.850000", "101931.310000", "101931.770000", "101932.230000", "101932.690000", "101933.150000", "101933.610000", "101934.070000", "101934.530000", "101934.990000", "101935.450000", "101935.910000", "101936.370000", "101936.830000", "101937.290000", "101937.750000", "101938.210000", "101938.670000", "101939.130000", "101939.590000", "101940.050000", "101940.510000", "101940.970000", "101941.430000", "101941.890000", "101942.350000", "101942.810000", "101943.270000", "101943.730000", "101944.190000", "101944.650000", "101945.110000", "101945.570000", "101946.030000", "101946.490000", "101946.950000", "101947.410000", "101947.870000", "101948.330000", "101948.790000", "101949.250000", "101949.710000", "101950.170000", "101950.630000", "101951.090000", "101951.550000", "101952.010000", "101952.470000", "101952.930000", "101953.390000", "101953.850000", "101954.310000", "101954.770000", "101955.230000", "101955.690000", "101956.150000", "101956.610000", "101957.070000", "101957.530000", "101957.990000", "101958.450000", "101958.910000", "101959.370000", "101959.830000", "102000.290000", "102000.750000", "102001.210000", "102001.670000", "102002.130000", "102002.590000", "102003.050000", "102003.510000", "102003.970000", "102004.430000", "102004.890000", "102005.350000", "102005.810000", "102006.270000", "102006.730000", "102007.190000", "102007.650000", "102008.110000", "102008.570000", "102009.030000", "102009.490000", "102009.950000", "102010.410000", "102010.870000", "102011.330000", "102011.790000", "102012.250000", "102012.710000", "102013.170000", "102013.630000", "102014.090000", "102014.550000", "102015.010000", "102015.470000", "102015.930000", "102016.390000", "102016.850000", "102017.310000", "102017.770000", "102018.230000", "102018.690000", "102019.150000", "102019.610000", "102020.070000", "102020.530000", "102020.990000", "102021.450000", "102021.910000", "102022.370000", "102022.830000", "102023.290000", "102023.750000", "102024.210000", "102024.670000", "102025.130000", "102025.590000", "102026.050000", "102026.510000", "102026.970000", "102027.430000", "102027.890000", "102028.350000", "102028.810000", "102029.270000", "102029.730000", "102030.190000", "102030.650000", "102031.110000", "102031.570000", "102032.030000", "102032.490000", "102032.950000", "102033.410000", "102033.870000", "102034.330000", "102034.790000", "102035.250000", "102035.710000", "102036.170000", "102036.630000", "102037.090000", "102037.550000", "102038.010000", "102038.470000", "102038.930000", "102039.390000", "102039.850000", "102040.310000", "102040.770000", "102041.230000", "102041.690000", "102042.150000", "102042.610000", "102043.070000", "102043.530000", "102043.990000", "102044.450000", "102044.910000", "102045.370000", "102045.830000", "102046.290000", "102046.750000", "102047.210000", "102047.670000", "102048.130000", "102048.590000", "102049.050000", "102049.510000", "102049.970000", "102050.430000", "102050.890000", "102051.350000", "102051.810000", "102052.270000", "102052.730000", "102053.190000", "102053.650000", "102054.110000", "102054.570000", "102055.030000", "102055.490000", "102055.950000", "102056.410000", "102056.870000", "102057.330000", "102057.790000", "102058.250000", "102058.710000", "102059.170000", "102059.630000"],
