{
  "AcquisitionMatrixPE": 82,
  "AcquisitionNumber": 1,
  "AcquisitionTime": "09:36:1.082500",
  "BandwidthPerPixelPhaseEncode": 24.888,
  "BaseResolution": 82,
  "BodyPartExamined": "BRAIN",
  "ConsistencyInfo": "N4_VE11E_LATEST_20181129",
  "ConversionSoftware": "dcm2niix",
  "ConversionSoftwareVersion": "v1.0.20201102",
  "DerivedVendorReportedEchoSpacing": 0.00049,
  "DeviceSerialNumber": "66112",
  "DwellTime": 2e-06,
  "EchoTime": 0.0272,
  "EchoTrainLength": 82,
  "EffectiveEchoSpacing": 0.00049,
  "FlipAngle": 44,
  "ImageComments": "Unaliased MB8/PE3",
  "ImageOrientationPatientDICOM": [0.994857, -0.0518089, 0.0870417, 0.0575373, 0.996248, -0.0646451],
  "ImageType": [
    "ORIGINAL",
    "PRIMARY",
    "M",
    "MB",
    "ND",
    "NORM",
    "MOSAIC"
],
  "ImagingFrequency": 123.259,
  "InPlanePhaseEncodingDirectionDICOM": "COL",
  "InstitutionAddress": "Maynard 3,Hanover,NH,US,03755",
  "InstitutionName": "Dartmouth College - PBS",
  "InstitutionalDepartmentName": "Department",
  "MRAcquisitionType": "2D",
  "MagneticFieldStrength": 3,
  "Manufacturer": "Siemens",
  "ManufacturersModelName": "Prisma",
  "Modality": "MR",
  "MultibandAccelerationFactor": 8,
  "PartialFourier": 1,
  "PatientPosition": "HFS",
  "PercentPhaseFOV": 100,
  "PercentSampling": 100,
  "PhaseEncodingDirection": "j-",
  "PhaseEncodingSteps": 82,
  "PhaseResolution": 1,
  "PixelBandwidth": 3050,
  "ProcedureStepDescription": "Wager_Wager^1076_spacetop",
  "ProtocolName": "func_run-01_task-social_acq-ap-mb8",
  "PulseSequenceDetails": "%CustomerSeq%\\cmrr_mbep2d_bold",
  "ReceiveCoilActiveElements": "HEA;HEP",
  "ReceiveCoilName": "Head_32",
  "ReconMatrixPE": 82,
  "RepetitionTime": 0.46,
  "SAR": 0.0801166,
  "ScanOptions": "FS",
  "ScanningSequence": "EP",
  "SequenceName": "epfid2d1_82",
  "SequenceVariant": "SK\\SS",
  "SeriesDescription": "func_run-01_task-social_acq-ap-mb8",
  "SeriesNumber": 8,
  "ShimSetting": [4233, -7670, -7256, 385, -252, 179, -74, 115],
  "SliceThickness": 2.7,
  "SliceTiming": [0, 0.2525, 0.0625, 0.315, 0.125, 0.3775, 0.1875, 0, 0.2525, 0.0625, 0.315, 0.125, 0.3775, 0.1875, 0, 0.2525, 0.0625, 0.315, 0.125, 0.3775, 0.1875, 0, 0.2525, 0.0625, 0.315, 0.125, 0.3775, 0.1875, 0, 0.2525, 0.0625, 0.315, 0.125, 0.3775, 0.1875, 0, 0.2525, 0.0625, 0.315, 0.125, 0.3775, 0.1875, 0, 0.2525, 0.0625, 0.315, 0.125, 0.3775, 0.1875, 0, 0.2525, 0.0625, 0.315, 0.125, 0.3775, 0.1875],
  "SoftwareVersions": "syngo MR E11",
  "SpacingBetweenSlices": 2.7,
  "StationName": "AWP66112",
  "TaskName": "social",
  "TotalReadoutTime": 0.03969,
  "TxRefAmp": 232.377,
  "WipMemBlock": "69591cdd-e215-4a2a-acb7-39597c06b486||Sequence: R016 ve11e/master r/434b28f1; Aug  7 2019 18:53:46 by eja",
  "dcmmeta_affine": [
    [-2.6691274642944336, 0.1543683558702469, 0.2250880002975464, 99.16458129882812],
    [0.13899953663349152, 2.672861099243164, -0.1871659755706787, -105.13819122314453],
    [0.23352646827697754, 0.17343804240226746, 2.6840834617614746, -89.83116149902344],
    [0.0, 0.0, 0.0, 1.0]
],
  "dcmmeta_reorient_transform": [
    [0.0, -1.0, 0.0, 81.0],
    [1.0, 0.0, 0.0, 0.0],
    [0.0, 0.0, 1.0, 0.0],
    [0.0, 0.0, 0.0, 1.0]
],
  "dcmmeta_shape": [82, 82, 56, 872],
  "dcmmeta_slice_dim": 2,
  "dcmmeta_version": 0.6,
  "global": {
    "const": {
      "AccessionNumber": "A004860",
      "AcquisitionMatrix": [82, 0, 0, 82],
      "AngioFlag": "N",
      "BitsAllocated": 16,
      "BitsStored": 16,
      "BodyPartExamined": "BRAIN",
      "Columns": 656,
      "EchoNumbers": 1,
      "EchoTime": 27.2,
      "EchoTrainLength": 82,
      "FlipAngle": 44.0,
      "HighBit": 15,
      "ImageOrientationPatient": [0.99485656346447, -0.0518089153188, 0.08704168211357, 0.05753729504103, 0.99624819822112, -0.0646450865923],
      "ImagePositionPatient": [-922.01170789697, -838.58182423132, -93.028058178525],
      "ImageType": [
        "ORIGINAL",
        "PRIMARY",
        "M",
        "MB",
        "ND",
        "NORM",
        "MOSAIC"
],
      "ImagedNucleus": "1H",
      "ImagingFrequency": 123.259095,
      "InPlanePhaseEncodingDirection": "COL",
      "MRAcquisitionType": "2D",
      "MagneticFieldStrength": 3.0,
      "Manufacturer": "SIEMENS",
      "ManufacturerModelName": "Prisma",
      "Modality": "MR",
      "NumberOfAverages": 1.0,
      "NumberOfPhaseEncodingSteps": 82,
      "PercentPhaseFieldOfView": 100.0,
      "PercentSampling": 100.0,
      "PerformedProcedureStepStartTime": "091902.088000",
      "PhotometricInterpretation": "MONOCHROME2",
      "PixelBandwidth": 3050.0,
      "PixelRepresentation": 0,
      "PixelSpacing": [2.6829268932343, 2.6829268932343],
      "ProtocolName": "func_run-01_task-social_acq-ap-mb8",
      "RepetitionTime": 460.0,
      "Rows": 656,
      "SAR": 0.08011663233709,
      "SamplesPerPixel": 1,
      "ScanOptions": "FS",
      "ScanningSequence": "EP",
      "SequenceName": "epfid2d1_82",
      "SequenceVariant": [
        "SK",
        "SS"
],
      "SeriesDescription": "func_run-01_task-social_acq-ap-mb8",
      "SeriesNumber": 8,
      "SeriesTime": "093621.527000",
      "SliceLocation": -73.746402831416,
      "SliceThickness": 2.7000000476837,
      "SmallestImagePixelValue": 0,
      "SoftwareVersions": "syngo MR E11",
      "SpacingBetweenSlices": 2.7000000482207,
      "SpecificCharacterSet": "ISO_IR 100",
      "StudyID": "1",
      "StudyTime": "091902.026000",
      "TransmitCoilName": "Body",
      "VariableFlipAngleFlag": "N",
      "WindowCenterWidthExplanation": "Algo1"
    },
    "slices": {}
  },
  "time": {
    "samples": {
      "AcquisitionNumber": [1, 2, 3, 4, 5, 6, 7, 8, 9, 10, 11, 12, 13, 14, 15, 16, 17, 18, 19, 20, 21, 22, 23, 24, 25, 26, 27, 28, 29, 30, 31, 32, 33, 34, 35, 36, 37, 38, 39, 40, 41, 42, 43, 44, 45, 46, 47, 48, 49, 50, 51, 52, 53, 54, 55, 56, 57, 58, 59, 60, 61, 62, 63, 64, 65, 66, 67, 68, 69, 70, 71, 72, 73, 74, 75, 76, 77, 78, 79, 80, 81, 82, 83, 84, 85, 86, 87, 88, 89, 90, 91, 92, 93, 94, 95, 96, 97, 98, 99, 100, 101, 102, 103, 104, 105, 106, 107, 108, 109, 110, 111, 112, 113, 114, 115, 116, 117, 118, 119, 120, 121, 122, 123, 124, 125, 126, 127, 128, 129, 130, 131, 132, 133, 134, 135, 136, 137, 138, 139, 140, 141, 142, 143, 144, 145, 146, 147, 148, 149, 150, 151, 152, 153, 154, 155, 156, 157, 158, 159, 160, 161, 162, 163, 164, 165, 166, 167, 168, 169, 170, 171, 172, 173, 174, 175, 176, 177, 178, 179, 180, 181, 182, 183, 184, 185, 186, 187, 188, 189, 190, 191, 192, 193, 194, 195, 196, 197, 198, 199, 200, 201, 202, 203, 204, 205, 206, 207, 208, 209, 210, 211, 212, 213, 214, 215, 216, 217, 218, 219, 220, 221, 222, 223, 224, 225, 226, 227, 228, 229, 230, 231, 232, 233, 234, 235, 236, 237, 238, 239, 240, 241, 242, 243, 244, 245, 246, 247, 248, 249, 250, 251, 252, 253, 254, 255, 256, 257, 258, 259, 260, 261, 262, 263, 264, 265, 266, 267, 268, 269, 270, 271, 272, 273, 274, 275, 276, 277, 278, 279, 280, 281, 282, 283, 284, 285, 286, 287, 288, 289, 290, 291, 292, 293, 294, 295, 296, 297, 298, 299, 300, 301, 302, 303, 304, 305, 306, 307, 308, 309, 310, 311, 312, 313, 314, 315, 316, 317, 318, 319, 320, 321, 322, 323, 324, 325, 326, 327, 328, 329, 330, 331, 332, 333, 334, 335, 336, 337, 338, 339, 340, 341, 342, 343, 344, 345, 346, 347, 348, 349, 350, 351, 352, 353, 354, 355, 356, 357, 358, 359, 360, 361, 362, 363, 364, 365, 366, 367, 368, 369, 370, 371, 372, 373, 374, 375, 376, 377, 378, 379, 380, 381, 382, 383, 384, 385, 386, 387, 388, 389, 390, 391, 392, 393, 394, 395, 396, 397, 398, 399, 400, 401, 402, 403, 404, 405, 406, 407, 408, 409, 410, 411, 412, 413, 414, 415, 416, 417, 418, 419, 420, 421, 422, 423, 424, 425, 426, 427, 428, 429, 430, 431, 432, 433, 434, 435, 436, 437, 438, 439, 440, 441, 442, 443, 444, 445, 446, 447, 448, 449, 450, 451, 452, 453, 454, 455, 456, 457, 458, 459, 460, 461, 462, 463, 464, 465, 466, 467, 468, 469, 470, 471, 472, 473, 474, 475, 476, 477, 478, 479, 480, 481, 482, 483, 484, 485, 486, 487, 488, 489, 490, 491, 492, 493, 494, 495, 496, 497, 498, 499, 500, 501, 502, 503, 504, 505, 506, 507, 508, 509, 510, 511, 512, 513, 514, 515, 516, 517, 518, 519, 520, 521, 522, 523, 524, 525, 526, 527, 528, 529, 530, 531, 532, 533, 534, 535, 536, 537, 538, 539, 540, 541, 542, 543, 544, 545, 546, 547, 548, 549, 550, 551, 552, 553, 554, 555, 556, 557, 558, 559, 560, 561, 562, 563, 564, 565, 566, 567, 568, 569, 570, 571, 572, 573, 574, 575, 576, 577, 578, 579, 580, 581, 582, 583, 584, 585, 586, 587, 588, 589, 590, 591, 592, 593, 594, 595, 596, 597, 598, 599, 600, 601, 602, 603, 604, 605, 606, 607, 608, 609, 610, 611, 612, 613, 614, 615, 616, 617, 618, 619, 620, 621, 622, 623, 624, 625, 626, 627, 628, 629, 630, 631, 632, 633, 634, 635, 636, 637, 638, 639, 640, 641, 642, 643, 644, 645, 646, 647, 648, 649, 650, 651, 652, 653, 654, 655, 656, 657, 658, 659, 660, 661, 662, 663, 664, 665, 666, 667, 668, 669, 670, 671, 672, 673, 674, 675, 676, 677, 678, 679, 680, 681, 682, 683, 684, 685, 686, 687, 688, 689, 690, 691, 692, 693, 694, 695, 696, 697, 698, 699, 700, 701, 702, 703, 704, 705, 706, 707, 708, 709, 710, 711, 712, 713, 714, 715, 716, 717, 718, 719, 720, 721, 722, 723, 724, 725, 726, 727, 728, 729, 730, 731, 732, 733, 734, 735, 736, 737, 738, 739, 740, 741, 742, 743, 744, 745, 746, 747, 748, 749, 750, 751, 752, 753, 754, 755, 756, 757, 758, 759, 760, 761, 762, 763, 764, 765, 766, 767, 768, 769, 770, 771, 772, 773, 774, 775, 776, 777, 778, 779, 780, 781, 782, 783, 784, 785, 786, 787, 788, 789, 790, 791, 792, 793, 794, 795, 796, 797, 798, 799, 800, 801, 802, 803, 804, 805, 806, 807, 808, 809, 810, 811, 812, 813, 814, 815, 816, 817, 818, 819, 820, 821, 822, 823, 824, 825, 826, 827, 828, 829, 830, 831, 832, 833, 834, 835, 836, 837, 838, 839, 840, 841, 842, 843, 844, 845, 846, 847, 848, 849, 850, 851, 852, 853, 854, 855, 856, 857, 858, 859, 860, 861, 862, 863, 864, 865, 866, 867, 868, 869, 870, 871, 872],
      "AcquisitionTime": ["093601.082500", "093601.542500", "093602.002500", "093602.462500", "093602.922500", "093603.382500", "093603.842500", "093604.302500", "093604.762500", "093605.222500", "093605.682500", "093606.142500", "093606.602500", "093607.062500", "093607.522500", "093607.982500", "093608.442500", "093608.902500", "093609.362500", "093609.822500", "093610.282500", "093610.742500", "093611.202500", "093611.662500", "093612.122500", "093612.582500", "093613.042500", "093613.502500", "093613.962500", "093614.422500", "093614.882500", "093615.342500", "093615.802500", "093616.262500", "093616.722500", "093617.182500", "093617.642500", "093618.102500", "093618.562500", "093619.022500", "093619.482500", "093619.942500", "093620.402500", "093620.862500", "093621.322500", "093621.782500", "093622.242500", "093622.702500", "093623.162500", "093623.622500", "093624.082500", "093624.542500", "093625.002500", "093625.462500", "093625.922500", "093626.382500", "093626.842500", "093627.302500", "093627.762500", "093628.222500", "093628.682500", "093629.142500", "093629.602500", "093630.062500", "093630.522500", "093630.982500", "093631.442500", "093631.902500", "093632.362500", "093632.822500", "093633.282500", "093633.742500", "093634.202500", "093634.662500", "093635.122500", "093635.582500", "093636.042500", "093636.502500", "093636.962500", "093637.422500", "093637.882500", "093638.342500", "093638.802500", "093639.262500", "093639.722500", "093640.182500", "093640.642500", "093641.102500", "093641.562500", "093642.022500", "093642.482500", "093642.942500", "093643.402500", "093643.862500", "093644.322500", "093644.782500", "093645.242500", "093645.702500", "093646.162500", "093646.622500", "093647.082500", "093647.542500", "093648.002500", "093648.462500", "093648.922500", "093649.382500", "093649.842500", "093650.302500", "093650.762500", "093651.222500", "093651.682500", "093652.142500", "093652.602500", "093653.062500", "093653.522500", "093653.982500", "093654.442500", "093654.902500", "093655.362500", "093655.822500", "093656.282500", "093656.742500", "093657.202500", "093657.662500", "093658.122500", "093658.582500", "093659.042500", "093659.502500", "093659.962500", "093700.422500", "093700.882500", "093701.342500", "093701.802500", "093702.262500", "093702.722500", "093703.182500", "093703.642500", "093704.102500", "093704.562500", "093705.022500", "093705.482500", "093705.942500", "093706.402500", "093706.862500", "093707.322500", "093707.782500", "093708.242500", "093708.702500", "093709.162500", "093709.622500", "093710.082500", "093710.542500", "093711.002500", "093711.462500", "093711.922500", "093712.382500", "093712.842500", "093713.302500", "093713.762500", "093714.222500", "093714.682500", "093715.142500", "093715.602500", "093716.062500", "093716.522500", "093716.982500", "093717.442500", "093717.902500", "093718.362500", "093718.822500", "093719.282500", "093719.742500", "093720.202500", "093720.662500", "093721.122500", "093721.582500", "093722.042500", "093722.502500", "093722.962500", "093723.422500", "093723.882500", "093724.342500", "093724.802500", "093725.262500", "093725.722500", "093726.182500", "093726.642500", "093727.102500", "093727.562500", "093728.022500", "093728.482500", "093728.942500", "093729.402500", "093729.862500", "093730.322500", "093730.782500", "093731.242500", "093731.702500", "093732.162500", "093732.622500", "093733.082500", "093733.542500", "093734.002500", "093734.462500", "093734.922500", "093735.382500", "093735.842500", "093736.302500", "093736.762500", "093737.222500", "093737.682500", "093738.142500", "093738.602500", "093739.062500", "093739.522500", "093739.982500", "093740.442500", "093740.902500", "093741.362500", "093741.822500", "093742.282500", "093742.742500", "093743.202500", "093743.662500", "093744.122500", "093744.582500", "093745.042500", "093745.502500", "093745.962500", "093746.422500", "093746.882500", "093747.342500", "093747.802500", "093748.262500", "093748.722500", "093749.182500", "093749.642500", "093750.102500", "093750.562500", "093751.022500", "093751.482500", "093751.942500", "093752.402500", "093752.862500", "093753.322500", "093753.782500", "093754.242500", "093754.702500", "093755.162500", "093755.622500", "093756.082500", "093756.542500", "093757.002500", "093757.462500", "093757.922500", "093758.382500", "093758.842500", "093759.302500", "093759.762500", "093800.222500", "093800.682500", "093801.142500", "093801.602500", "093802.062500", "093802.522500", "093802.982500", "093803.442500", "093803.902500", "093804.362500", "093804.822500", "093805.282500", "093805.742500", "093806.202500", "093806.662500", "093807.122500", "093807.582500", "093808.042500", "093808.502500", "093808.962500", "093809.422500", "093809.882500", "093810.342500", "093810.802500", "093811.262500", "093811.722500", "093812.182500", "093812.642500", "093813.102500", "093813.562500", "093814.022500", "093814.482500", "093814.942500", "093815.402500", "093815.862500", "093816.322500", "093816.782500", "093817.242500", "093817.702500", "093818.162500", "093818.622500", "093819.082500", "093819.542500", "093820.002500", "093820.462500", "093820.922500", "093821.382500", "093821.842500", "093822.302500", "093822.762500", "093823.222500", "093823.682500", "093824.142500", "093824.602500", "093825.062500", "093825.522500", "093825.982500", "093826.442500", "093826.902500", "093827.362500", "093827.822500", "093828.282500", "093828.742500", "093829.202500", "093829.662500", "093830.122500", "093830.582500", "093831.042500", "093831.502500", "093831.962500", "093832.422500", "093832.882500", "093833.342500", "093833.802500", "093834.262500", "093834.722500", "093835.182500", "093835.642500", "093836.102500", "093836.562500", "093837.022500", "093837.482500", "093837.942500", "093838.402500", "093838.862500", "093839.322500", "093839.782500", "093840.242500", "093840.702500", "093841.162500", "093841.622500", "093842.082500", "093842.542500", "093843.002500", "093843.462500", "093843.922500", "093844.382500", "093844.842500", "093845.302500", "093845.762500", "093846.222500", "093846.682500", "093847.142500", "093847.602500", "093848.062500", "093848.522500", "093848.982500", "093849.442500", "093849.902500", "093850.362500", "093850.822500", "093851.282500", "093851.742500", "093852.202500", "093852.662500", "093853.122500", "093853.582500", "093854.042500", "093854.502500", "093854.962500", "093855.422500", "093855.882500", "093856.342500", "093856.802500", "093857.262500", "093857.722500", "093858.182500", "093858.642500", "093859.102500", "093859.562500", "093900.022500", "093900.482500", "093900.942500", "093901.402500", "093901.862500", "093902.322500", "093902.782500", "093903.242500", "093903.702500", "093904.162500", "093904.622500", "093905.082500", "093905.542500", "093906.002500", "093906.462500", "093906.922500", "093907.382500", "093907.842500", "093908.302500", "093908.762500", "093909.222500", "093909.682500", "093910.142500", "093910.602500", "093911.062500", "093911.522500", "093911.982500", "093912.442500", "093912.902500", "093913.362500", "093913.822500", "093914.282500", "093914.742500", "093915.202500", "093915.662500", "093916.122500", "093916.582500", "093917.042500", "093917.502500", "093917.962500", "093918.422500", "093918.882500", "093919.342500", "093919.802500", "093920.262500", "093920.722500", "093921.182500", "093921.642500", "093922.102500", "093922.562500", "093923.022500", "093923.482500", "093923.942500", "093924.402500", "093924.862500", "093925.322500", "093925.782500", "093926.242500", "093926.702500", "093927.162500", "093927.622500", "093928.082500", "093928.542500", "093929.002500", "093929.462500", "093929.922500", "093930.382500", "093930.842500", "093931.302500", "093931.762500", "093932.222500", "093932.682500", "093933.142500", "093933.602500", "093934.062500", "093934.522500", "093934.982500", "093935.442500", "093935.902500", "093936.362500", "093936.822500", "093937.282500", "093937.742500", "093938.202500", "093938.662500", "093939.122500", "093939.582500", "093940.042500", "093940.502500", "093940.962500", "093941.422500", "093941.882500", "093942.342500", "093942.802500", "093943.262500", "093943.722500", "093944.182500", "093944.642500", "093945.102500", "093945.562500", "093946.022500", "093946.482500", "093946.942500", "093947.402500", "093947.862500", "093948.322500", "093948.782500", "093949.242500", "093949.702500", "093950.162500", "093950.622500", "093951.082500", "093951.542500", "093952.002500", "093952.462500", "093952.922500", "093953.382500", "093953.842500", "093954.302500", "093954.762500", "093955.222500", "093955.682500", "093956.142500", "093956.602500", "093957.062500", "093957.522500", "093957.982500", "093958.442500", "093958.902500", "093959.362500", "093959.822500", "094000.282500", "094000.742500", "094001.202500", "094001.662500", "094002.122500", "094002.582500", "094003.042500", "094003.502500", "094003.962500", "094004.422500", "094004.882500", "094005.342500", "094005.802500", "094006.262500", "094006.722500", "094007.182500", "094007.642500", "094008.102500", "094008.562500", "094009.022500", "094009.482500", "094009.942500", "094010.402500", "094010.862500", "094011.322500", "094011.782500", "094012.242500", "094012.702500", "094013.162500", "094013.622500", "094014.082500", "094014.542500", "094015.002500", "094015.462500", "094015.922500", "094016.382500", "094016.842500", "094017.302500", "094017.762500", "094018.222500", "094018.682500", "094019.142500", "094019.602500", "094020.062500", "094020.522500", "094020.982500", "094021.442500", "094021.902500", "094022.362500", "094022.822500", "094023.282500", "094023.742500", "094024.202500", "094024.662500", "094025.122500", "094025.582500", "094026.042500", "094026.502500", "094026.962500", "094027.422500", "094027.882500", "094028.342500", "094028.802500", "094029.262500", "094029.722500", "094030.182500", "094030.642500", "094031.102500", "094031.562500", "094032.022500", "094032.482500", "094032.942500", "094033.402500", "094033.862500", "094034.322500", "094034.782500", "094035.242500", "094035.702500", "094036.162500", "094036.622500", "094037.082500", "094037.542500", "094038.002500", "094038.462500", "094038.922500", "094039.382500", "094039.842500", "094040.302500", "094040.762500", "094041.222500", "094041.682500", "094042.142500", "094042.602500", "094043.062500", "094043.522500", "094043.982500", "094044.442500", "094044.902500", "094045.362500", "094045.822500", "094046.282500", "094046.742500", "094047.202500", "094047.662500", "094048.122500", "094048.582500", "094049.042500", "094049.502500", "094049.962500", "094050.422500", "094050.882500", "094051.342500", "094051.802500", "094052.262500", "094052.722500", "094053.182500", "094053.642500", "094054.102500", "094054.562500", "094055.022500", "094055.482500", "094055.942500", "094056.402500", "094056.862500", "094057.322500", "094057.782500", "094058.242500", "094058.702500", "094059.162500", "094059.622500", "094100.082500", "094100.542500", "094101.002500", "094101.462500", "094101.922500", "094102.382500", "094102.842500", "094103.302500", "094103.762500", "094104.222500", "094104.682500", "094105.142500", "094105.602500", "094106.062500", "094106.522500", "094106.982500", "094107.442500", "094107.902500", "094108.362500", "094108.822500", "094109.282500", "094109.742500", "094110.202500", "094110.662500", "094111.122500", "094111.582500", "094112.042500", "094112.502500", "094112.962500", "094113.422500", "094113.882500", "094114.342500", "094114.802500", "094115.262500", "094115.722500", "094116.182500", "094116.642500", "094117.102500", "094117.562500", "094118.022500", "094118.482500", "094118.942500", "094119.402500", "094119.862500", "094120.322500", "094120.782500", "094121.242500", "094121.702500", "094122.162500", "094122.622500", "094123.082500", "094123.542500", "094124.002500", "094124.462500", "094124.922500", "094125.382500", "094125.842500", "094126.302500", "094126.762500", "094127.222500", "094127.682500", "094128.142500", "094128.602500", "094129.062500", "094129.522500", "094129.982500", "094130.442500", "094130.902500", "094131.362500", "094131.822500", "094132.282500", "094132.742500", "094133.202500", "094133.662500", "094134.122500", "094134.582500", "094135.042500", "094135.502500", "094135.962500", "094136.422500", "094136.882500", "094137.342500", "094137.802500", "094138.262500", "094138.722500", "094139.182500", "094139.642500", "094140.102500", "094140.562500", "094141.022500", "094141.482500", "094141.942500", "094142.402500", "094142.862500", "094143.322500", "094143.782500", "094144.242500", "094144.702500", "094145.162500", "094145.622500", "094146.082500", "094146.542500", "094147.002500", "094147.462500", "094147.922500", "094148.382500", "094148.842500", "094149.302500", "094149.762500", "094150.222500", "094150.682500", "094151.142500", "094151.602500", "094152.062500", "094152.522500", "094152.982500", "094153.442500", "094153.902500", "094154.362500", "094154.822500", "094155.282500", "094155.742500", "094156.202500", "094156.662500", "094157.122500", "094157.582500", "094158.042500", "094158.502500", "094158.962500", "094159.422500", "094159.882500", "094200.342500", "094200.802500", "094201.262500", "094201.722500", "094202.182500", "094202.642500", "094203.102500", "094203.562500", "094204.022500", "094204.482500", "094204.942500", "094205.402500", "094205.862500", "094206.322500", "094206.782500", "094207.242500", "094207.702500", "094208.162500", "094208.622500", "094209.082500", "094209.542500", "094210.002500", "094210.462500", "094210.922500", "094211.382500", "094211.842500", "094212.302500", "094212.762500", "094213.222500", "094213.682500", "094214.142500", "094214.602500", "094215.062500", "094215.522500", "094215.982500", "094216.442500", "094216.902500", "094217.362500", "094217.822500", "094218.282500", "094218.742500", "094219.202500", "094219.662500", "094220.122500", "094220.582500", "094221.042500", "094221.502500", "094221.962500", "094222.422500", "094222.882500", "094223.342500", "094223.802500", "094224.262500", "094224.722500", "094225.182500", "094225.642500", "094226.102500", "094226.562500", "094227.022500", "094227.482500", "094227.942500", "094228.402500", "094228.862500", "094229.322500", "094229.782500", "094230.242500", "094230.702500", "094231.162500", "094231.622500", "094232.082500", "094232.542500", "094233.002500", "094233.462500", "094233.922500", "094234.382500", "094234.842500", "094235.302500", "094235.762500", "094236.222500", "094236.682500", "094237.142500", "094237.602500", "094238.062500", "094238.522500", "094238.982500", "094239.442500", "094239.902500", "094240.362500", "094240.822500", "094241.282500", "094241.742500"],
