{
  "AcquisitionMatrixPE": 82,
  "AcquisitionNumber": 1,
  "AcquisitionTime": "10:07:14.232500",
  "BandwidthPerPixelPhaseEncode": 24.888,
  "BaseResolution": 82,
  "BodyPartExamined": "BRAIN",
  "ConsistencyInfo": "N4_VE11E_LATEST_20181129",
  "ConversionSoftware": "dcm2niix",
  "ConversionSoftwareVersion": "v1.0.20201102",
  "DerivedVendorReportedEchoSpacing": 0.00049,
  "DeviceSerialNumber": "66112",
  "DwellTime": 2e-06,
  "EchoTime": 0.0272,
  "EchoTrainLength": 82,
  "EffectiveEchoSpacing": 0.00049,
  "FlipAngle": 44,
  "ImageComments": "Unaliased MB8/PE3",
  "ImageOrientationPatientDICOM": [0.994857, -0.0518089, 0.0870417, 0.0575373, 0.996248, -0.0646451],
  "ImageType": [
    "ORIGINAL",
    "PRIMARY",
    "M",
    "MB",
    "ND",
    "NORM",
    "MOSAIC"
],
  "ImagingFrequency": 123.259,
  "InPlanePhaseEncodingDirectionDICOM": "COL",
  "InstitutionAddress": "Maynard 3,Hanover,NH,US,03755",
  "InstitutionName": "Dartmouth College - PBS",
  "InstitutionalDepartmentName": "Department",
  "MRAcquisitionType": "2D",
  "MagneticFieldStrength": 3,
  "Manufacturer": "Siemens",
  "ManufacturersModelName": "Prisma",
  "Modality": "MR",
  "MultibandAccelerationFactor": 8,
  "PartialFourier": 1,
  "PatientPosition": "HFS",
  "PercentPhaseFOV": 100,
  "PercentSampling": 100,
  "PhaseEncodingDirection": "j-",
  "PhaseEncodingSteps": 82,
  "PhaseResolution": 1,
  "PixelBandwidth": 3050,
  "ProcedureStepDescription": "Wager_Wager^1076_spacetop",
  "ProtocolName": "func_run-05_task-social_acq-ap-mb8",
  "PulseSequenceDetails": "%CustomerSeq%\\cmrr_mbep2d_bold",
  "ReceiveCoilActiveElements": "HEA;HEP",
  "ReceiveCoilName": "Head_32",
  "ReconMatrixPE": 82,
  "RepetitionTime": 0.46,
  "SAR": 0.0801166,
  "ScanOptions": "FS",
  "ScanningSequence": "EP",
  "SequenceName": "epfid2d1_82",
  "SequenceVariant": "SK\\SS",
  "SeriesDescription": "func_run-05_task-social_acq-ap-mb8",
  "SeriesNumber": 16,
  "ShimSetting": [4233, -7670, -7256, 385, -252, 179, -74, 115],
  "SliceThickness": 2.7,
  "SliceTiming": [0, 0.25, 0.0625, 0.3125, 0.125, 0.375, 0.1875, 0, 0.25, 0.0625, 0.3125, 0.125, 0.375, 0.1875, 0, 0.25, 0.0625, 0.3125, 0.125, 0.375, 0.1875, 0, 0.25, 0.0625, 0.3125, 0.125, 0.375, 0.1875, 0, 0.25, 0.0625, 0.3125, 0.125, 0.375, 0.1875, 0, 0.25, 0.0625, 0.3125, 0.125, 0.375, 0.1875, 0, 0.25, 0.0625, 0.3125, 0.125, 0.375, 0.1875, 0, 0.25, 0.0625, 0.3125, 0.125, 0.375, 0.1875],
  "SoftwareVersions": "syngo MR E11",
  "SpacingBetweenSlices": 2.7,
  "StationName": "AWP66112",
  "TaskName": "social",
  "TotalReadoutTime": 0.03969,
  "TxRefAmp": 232.377,
  "WipMemBlock": "ac3391e5-462e-428a-87c2-09ea0bb68367||Sequence: R016 ve11e/master r/434b28f1; Aug  7 2019 18:53:46 by eja",
  "dcmmeta_affine": [
    [-2.6691274642944336, 0.1543683558702469, 0.2250880002975464, 99.16458129882812],
    [0.13899953663349152, 2.672861099243164, -0.1871659755706787, -105.13819122314453],
    [0.23352646827697754, 0.17343804240226746, 2.6840834617614746, -89.83116149902344],
    [0.0, 0.0, 0.0, 1.0]
],
  "dcmmeta_reorient_transform": [
    [0.0, -1.0, 0.0, 81.0],
    [1.0, 0.0, 0.0, 0.0],
    [0.0, 0.0, 1.0, 0.0],
    [0.0, 0.0, 0.0, 1.0]
],
  "dcmmeta_shape": [82, 82, 56, 872],
  "dcmmeta_slice_dim": 2,
  "dcmmeta_version": 0.6,
  "global": {
    "const": {
      "AccessionNumber": "A004860",
      "AcquisitionMatrix": [82, 0, 0, 82],
      "AngioFlag": "N",
      "BitsAllocated": 16,
      "BitsStored": 16,
      "BodyPartExamined": "BRAIN",
      "Columns": 656,
      "EchoNumbers": 1,
      "EchoTime": 27.2,
      "EchoTrainLength": 82,
      "FlipAngle": 44.0,
      "HighBit": 15,
      "ImageOrientationPatient": [0.99485656346447, -0.0518089153188, 0.08704168211357, 0.05753729504103, 0.99624819822112, -0.0646450865923],
      "ImagePositionPatient": [-922.01170789697, -838.58182423132, -93.028058178525],
      "ImageType": [
        "ORIGINAL",
        "PRIMARY",
        "M",
        "MB",
        "ND",
        "NORM",
        "MOSAIC"
],
      "ImagedNucleus": "1H",
      "ImagingFrequency": 123.259118,
      "InPlanePhaseEncodingDirection": "COL",
      "MRAcquisitionType": "2D",
      "MagneticFieldStrength": 3.0,
      "Manufacturer": "SIEMENS",
      "ManufacturerModelName": "Prisma",
      "Modality": "MR",
      "NumberOfAverages": 1.0,
      "NumberOfPhaseEncodingSteps": 82,
      "PercentPhaseFieldOfView": 100.0,
      "PercentSampling": 100.0,
      "PerformedProcedureStepStartTime": "091902.088000",
      "PhotometricInterpretation": "MONOCHROME2",
      "PixelBandwidth": 3050.0,
      "PixelRepresentation": 0,
      "PixelSpacing": [2.6829268932343, 2.6829268932343],
      "ProtocolName": "func_run-05_task-social_acq-ap-mb8",
      "RepetitionTime": 460.0,
      "Rows": 656,
      "SAR": 0.08011663233709,
      "SamplesPerPixel": 1,
      "ScanOptions": "FS",
      "ScanningSequence": "EP",
      "SequenceName": "epfid2d1_82",
      "SequenceVariant": [
        "SK",
        "SS"
],
      "SeriesDescription": "func_run-05_task-social_acq-ap-mb8",
      "SeriesNumber": 16,
      "SeriesTime": "100741.612000",
      "SliceLocation": -73.746402831416,
      "SliceThickness": 2.7000000476837,
      "SmallestImagePixelValue": 0,
      "SoftwareVersions": "syngo MR E11",
      "SpacingBetweenSlices": 2.7000000482207,
      "SpecificCharacterSet": "ISO_IR 100",
      "StudyID": "1",
      "StudyTime": "091902.026000",
      "TransmitCoilName": "Body",
      "VariableFlipAngleFlag": "N",
      "WindowCenterWidthExplanation": "Algo1"
    },
    "slices": {}
  },
  "time": {
    "samples": {
      "AcquisitionNumber": [1, 2, 3, 4, 5, 6, 7, 8, 9, 10, 11, 12, 13, 14, 15, 16, 17, 18, 19, 20, 21, 22, 23, 24, 25, 26, 27, 28, 29, 30, 31, 32, 33, 34, 35, 36, 37, 38, 39, 40, 41, 42, 43, 44, 45, 46, 47, 48, 49, 50, 51, 52, 53, 54, 55, 56, 57, 58, 59, 60, 61, 62, 63, 64, 65, 66, 67, 68, 69, 70, 71, 72, 73, 74, 75, 76, 77, 78, 79, 80, 81, 82, 83, 84, 85, 86, 87, 88, 89, 90, 91, 92, 93, 94, 95, 96, 97, 98, 99, 100, 101, 102, 103, 104, 105, 106, 107, 108, 109, 110, 111, 112, 113, 114, 115, 116, 117, 118, 119, 120, 121, 122, 123, 124, 125, 126, 127, 128, 129, 130, 131, 132, 133, 134, 135, 136, 137, 138, 139, 140, 141, 142, 143, 144, 145, 146, 147, 148, 149, 150, 151, 152, 153, 154, 155, 156, 157, 158, 159, 160, 161, 162, 163, 164, 165, 166, 167, 168, 169, 170, 171, 172, 173, 174, 175, 176, 177, 178, 179, 180, 181, 182, 183, 184, 185, 186, 187, 188, 189, 190, 191, 192, 193, 194, 195, 196, 197, 198, 199, 200, 201, 202, 203, 204, 205, 206, 207, 208, 209, 210, 211, 212, 213, 214, 215, 216, 217, 218, 219, 220, 221, 222, 223, 224, 225, 226, 227, 228, 229, 230, 231, 232, 233, 234, 235, 236, 237, 238, 239, 240, 241, 242, 243, 244, 245, 246, 247, 248, 249, 250, 251, 252, 253, 254, 255, 256, 257, 258, 259, 260, 261, 262, 263, 264, 265, 266, 267, 268, 269, 270, 271, 272, 273, 274, 275, 276, 277, 278, 279, 280, 281, 282, 283, 284, 285, 286, 287, 288, 289, 290, 291, 292, 293, 294, 295, 296, 297, 298, 299, 300, 301, 302, 303, 304, 305, 306, 307, 308, 309, 310, 311, 312, 313, 314, 315, 316, 317, 318, 319, 320, 321, 322, 323, 324, 325, 326, 327, 328, 329, 330, 331, 332, 333, 334, 335, 336, 337, 338, 339, 340, 341, 342, 343, 344, 345, 346, 347, 348, 349, 350, 351, 352, 353, 354, 355, 356, 357, 358, 359, 360, 361, 362, 363, 364, 365, 366, 367, 368, 369, 370, 371, 372, 373, 374, 375, 376, 377, 378, 379, 380, 381, 382, 383, 384, 385, 386, 387, 388, 389, 390, 391, 392, 393, 394, 395, 396, 397, 398, 399, 400, 401, 402, 403, 404, 405, 406, 407, 408, 409, 410, 411, 412, 413, 414, 415, 416, 417, 418, 419, 420, 421, 422, 423, 424, 425, 426, 427, 428, 429, 430, 431, 432, 433, 434, 435, 436, 437, 438, 439, 440, 441, 442, 443, 444, 445, 446, 447, 448, 449, 450, 451, 452, 453, 454, 455, 456, 457, 458, 459, 460, 461, 462, 463, 464, 465, 466, 467, 468, 469, 470, 471, 472, 473, 474, 475, 476, 477, 478, 479, 480, 481, 482, 483, 484, 485, 486, 487, 488, 489, 490, 491, 492, 493, 494, 495, 496, 497, 498, 499, 500, 501, 502, 503, 504, 505, 506, 507, 508, 509, 510, 511, 512, 513, 514, 515, 516, 517, 518, 519, 520, 521, 522, 523, 524, 525, 526, 527, 528, 529, 530, 531, 532, 533, 534, 535, 536, 537, 538, 539, 540, 541, 542, 543, 544, 545, 546, 547, 548, 549, 550, 551, 552, 553, 554, 555, 556, 557, 558, 559, 560, 561, 562, 563, 564, 565, 566, 567, 568, 569, 570, 571, 572, 573, 574, 575, 576, 577, 578, 579, 580, 581, 582, 583, 584, 585, 586, 587, 588, 589, 590, 591, 592, 593, 594, 595, 596, 597, 598, 599, 600, 601, 602, 603, 604, 605, 606, 607, 608, 609, 610, 611, 612, 613, 614, 615, 616, 617, 618, 619, 620, 621, 622, 623, 624, 625, 626, 627, 628, 629, 630, 631, 632, 633, 634, 635, 636, 637, 638, 639, 640, 641, 642, 643, 644, 645, 646, 647, 648, 649, 650, 651, 652, 653, 654, 655, 656, 657, 658, 659, 660, 661, 662, 663, 664, 665, 666, 667, 668, 669, 670, 671, 672, 673, 674, 675, 676, 677, 678, 679, 680, 681, 682, 683, 684, 685, 686, 687, 688, 689, 690, 691, 692, 693, 694, 695, 696, 697, 698, 699, 700, 701, 702, 703, 704, 705, 706, 707, 708, 709, 710, 711, 712, 713, 714, 715, 716, 717, 718, 719, 720, 721, 722, 723, 724, 725, 726, 727, 728, 729, 730, 731, 732, 733, 734, 735, 736, 737, 738, 739, 740, 741, 742, 743, 744, 745, 746, 747, 748, 749, 750, 751, 752, 753, 754, 755, 756, 757, 758, 759, 760, 761, 762, 763, 764, 765, 766, 767, 768, 769, 770, 771, 772, 773, 774, 775, 776, 777, 778, 779, 780, 781, 782, 783, 784, 785, 786, 787, 788, 789, 790, 791, 792, 793, 794, 795, 796, 797, 798, 799, 800, 801, 802, 803, 804, 805, 806, 807, 808, 809, 810, 811, 812, 813, 814, 815, 816, 817, 818, 819, 820, 821, 822, 823, 824, 825, 826, 827, 828, 829, 830, 831, 832, 833, 834, 835, 836, 837, 838, 839, 840, 841, 842, 843, 844, 845, 846, 847, 848, 849, 850, 851, 852, 853, 854, 855, 856, 857, 858, 859, 860, 861, 862, 863, 864, 865, 866, 867, 868, 869, 870, 871, 872],
      "AcquisitionTime": ["100714.232500", "100714.692500", "100715.152500", "100715.612500", "100716.072500", "100716.532500", "100716.992500", "100717.452500", "100717.912500", "100718.372500", "100718.832500", "100719.292500", "100719.752500", "100720.212500", "100720.672500", "100721.132500", "100721.592500", "100722.052500", "100722.512500", "100722.972500", "100723.432500", "100723.892500", "100724.352500", "100724.812500", "100725.272500", "100725.732500", "100726.192500", "100726.652500", "100727.112500", "100727.572500", "100728.032500", "100728.492500", "100728.952500", "100729.412500", "100729.872500", "100730.332500", "100730.792500", "100731.252500", "100731.712500", "100732.172500", "100732.632500", "100733.092500", "100733.552500", "100734.012500", "100734.472500", "100734.932500", "100735.392500", "100735.852500", "100736.312500", "100736.772500", "100737.232500", "100737.692500", "100738.152500", "100738.612500", "100739.072500", "100739.532500", "100739.992500", "100740.452500", "100740.912500", "100741.372500", "100741.832500", "100742.292500", "100742.752500", "100743.212500", "100743.672500", "100744.132500", "100744.592500", "100745.052500", "100745.512500", "100745.972500", "100746.432500", "100746.892500", "100747.352500", "100747.812500", "100748.272500", "100748.732500", "100749.192500", "100749.652500", "100750.112500", "100750.572500", "100751.032500", "100751.492500", "100751.952500", "100752.412500", "100752.872500", "100753.332500", "100753.792500", "100754.252500", "100754.712500", "100755.172500", "100755.632500", "100756.092500", "100756.552500", "100757.012500", "100757.472500", "100757.932500", "100758.392500", "100758.852500", "100759.312500", "100759.772500", "100800.232500", "100800.692500", "100801.152500", "100801.612500", "100802.072500", "100802.532500", "100802.992500", "100803.452500", "100803.912500", "100804.372500", "100804.832500", "100805.292500", "100805.752500", "100806.212500", "100806.672500", "100807.132500", "100807.592500", "100808.052500", "100808.512500", "100808.972500", "100809.432500", "100809.892500", "100810.352500", "100810.812500", "100811.272500", "100811.732500", "100812.192500", "100812.652500", "100813.112500", "100813.572500", "100814.032500", "100814.492500", "100814.952500", "100815.412500", "100815.872500", "100816.332500", "100816.792500", "100817.252500", "100817.712500", "100818.172500", "100818.632500", "100819.092500", "100819.552500", "100820.012500", "100820.472500", "100820.932500", "100821.392500", "100821.852500", "100822.312500", "100822.772500", "100823.232500", "100823.692500", "100824.152500", "100824.612500", "100825.072500", "100825.532500", "100825.992500", "100826.452500", "100826.912500", "100827.372500", "100827.832500", "100828.292500", "100828.752500", "100829.212500", "100829.672500", "100830.132500", "100830.592500", "100831.052500", "100831.512500", "100831.972500", "100832.432500", "100832.892500", "100833.352500", "100833.812500", "100834.272500", "100834.732500", "100835.192500", "100835.652500", "100836.112500", "100836.572500", "100837.032500", "100837.492500", "100837.952500", "100838.412500", "100838.872500", "100839.332500", "100839.792500", "100840.252500", "100840.712500", "100841.172500", "100841.632500", "100842.092500", "100842.552500", "100843.012500", "100843.472500", "100843.932500", "100844.392500", "100844.852500", "100845.312500", "100845.772500", "100846.232500", "100846.692500", "100847.152500", "100847.612500", "100848.072500", "100848.532500", "100848.992500", "100849.452500", "100849.912500", "100850.372500", "100850.832500", "100851.292500", "100851.752500", "100852.212500", "100852.672500", "100853.132500", "100853.592500", "100854.052500", "100854.512500", "100854.972500", "100855.432500", "100855.892500", "100856.352500", "100856.812500", "100857.272500", "100857.732500", "100858.192500", "100858.652500", "100859.112500", "100859.572500", "100900.032500", "100900.492500", "100900.952500", "100901.412500", "100901.872500", "100902.332500", "100902.792500", "100903.252500", "100903.712500", "100904.172500", "100904.632500", "100905.092500", "100905.552500", "100906.012500", "100906.472500", "100906.932500", "100907.392500", "100907.852500", "100908.312500", "100908.772500", "100909.232500", "100909.692500", "100910.152500", "100910.612500", "100911.072500", "100911.532500", "100911.992500", "100912.452500", "100912.912500", "100913.372500", "100913.832500", "100914.292500", "100914.752500", "100915.212500", "100915.672500", "100916.132500", "100916.592500", "100917.052500", "100917.512500", "100917.972500", "100918.432500", "100918.892500", "100919.352500", "100919.812500", "100920.272500", "100920.732500", "100921.192500", "100921.652500", "100922.112500", "100922.572500", "100923.032500", "100923.492500", "100923.952500", "100924.412500", "100924.872500", "100925.332500", "100925.792500", "100926.252500", "100926.712500", "100927.172500", "100927.632500", "100928.092500", "100928.552500", "100929.012500", "100929.472500", "100929.932500", "100930.392500", "100930.852500", "100931.312500", "100931.772500", "100932.232500", "100932.692500", "100933.152500", "100933.612500", "100934.072500", "100934.532500", "100934.992500", "100935.452500", "100935.912500", "100936.372500", "100936.832500", "100937.292500", "100937.752500", "100938.212500", "100938.672500", "100939.132500", "100939.592500", "100940.052500", "100940.512500", "100940.972500", "100941.432500", "100941.892500", "100942.352500", "100942.812500", "100943.272500", "100943.732500", "100944.192500", "100944.652500", "100945.112500", "100945.572500", "100946.032500", "100946.492500", "100946.952500", "100947.412500", "100947.872500", "100948.332500", "100948.792500", "100949.252500", "100949.712500", "100950.172500", "100950.632500", "100951.092500", "100951.552500", "100952.012500", "100952.472500", "100952.932500", "100953.392500", "100953.852500", "100954.312500", "100954.772500", "100955.232500", "100955.692500", "100956.152500", "100956.612500", "100957.072500", "100957.532500", "100957.992500", "100958.452500", "100958.912500", "100959.372500", "100959.832500", "101000.292500", "101000.752500", "101001.212500", "101001.672500", "101002.132500", "101002.592500", "101003.052500", "101003.512500", "101003.972500", "101004.432500", "101004.892500", "101005.352500", "101005.812500", "101006.272500", "101006.732500", "101007.192500", "101007.652500", "101008.112500", "101008.572500", "101009.032500", "101009.492500", "101009.952500", "101010.412500", "101010.872500", "101011.332500", "101011.792500", "101012.252500", "101012.712500", "101013.172500", "101013.632500", "101014.092500", "101014.552500", "101015.012500", "101015.472500", "101015.932500", "101016.392500", "101016.852500", "101017.312500", "101017.772500", "101018.232500", "101018.692500", "101019.152500", "101019.612500", "101020.072500", "101020.532500", "101020.992500", "101021.452500", "101021.912500", "101022.372500", "101022.832500", "101023.292500", "101023.752500", "101024.212500", "101024.672500", "101025.132500", "101025.592500", "101026.052500", "101026.512500", "101026.972500", "101027.432500", "101027.892500", "101028.352500", "101028.812500", "101029.272500", "101029.732500", "101030.192500", "101030.652500", "101031.112500", "101031.572500", "101032.032500", "101032.492500", "101032.952500", "101033.412500", "101033.872500", "101034.332500", "101034.792500", "101035.252500", "101035.712500", "101036.172500", "101036.632500", "101037.092500", "101037.552500", "101038.012500", "101038.472500", "101038.932500", "101039.392500", "101039.852500", "101040.312500", "101040.772500", "101041.232500", "101041.692500", "101042.152500", "101042.612500", "101043.072500", "101043.532500", "101043.992500", "101044.452500", "101044.912500", "101045.372500", "101045.832500", "101046.292500", "101046.752500", "101047.212500", "101047.672500", "101048.132500", "101048.592500", "101049.052500", "101049.512500", "101049.972500", "101050.432500", "101050.892500", "101051.352500", "101051.812500", "101052.272500", "101052.732500", "101053.192500", "101053.652500", "101054.112500", "101054.572500", "101055.032500", "101055.492500", "101055.952500", "101056.412500", "101056.872500", "101057.332500", "101057.792500", "101058.252500", "101058.712500", "101059.172500", "101059.632500", "101100.092500", "101100.552500", "101101.012500", "101101.472500", "101101.932500", "101102.392500", "101102.852500", "101103.312500", "101103.772500", "101104.232500", "101104.692500", "101105.152500", "101105.612500", "101106.072500", "101106.532500", "101106.992500", "101107.452500", "101107.912500", "101108.372500", "101108.832500", "101109.292500", "101109.752500", "101110.212500", "101110.672500", "101111.132500", "101111.592500", "101112.052500", "101112.512500", "101112.972500", "101113.432500", "101113.892500", "101114.352500", "101114.812500", "101115.272500", "101115.732500", "101116.192500", "101116.652500", "101117.112500", "101117.572500", "101118.032500", "101118.492500", "101118.952500", "101119.412500", "101119.872500", "101120.332500", "101120.792500", "101121.252500", "101121.712500", "101122.172500", "101122.632500", "101123.092500", "101123.552500", "101124.012500", "101124.472500", "101124.932500", "101125.392500", "101125.852500", "101126.312500", "101126.772500", "101127.232500", "101127.692500", "101128.152500", "101128.612500", "101129.072500", "101129.532500", "101129.992500", "101130.452500", "101130.912500", "101131.372500", "101131.832500", "101132.292500", "101132.752500", "101133.212500", "101133.672500", "101134.132500", "101134.592500", "101135.052500", "101135.512500", "101135.972500", "101136.432500", "101136.892500", "101137.352500", "101137.812500", "101138.272500", "101138.732500", "101139.192500", "101139.652500", "101140.112500", "101140.572500", "101141.032500", "101141.492500", "101141.952500", "101142.412500", "101142.872500", "101143.332500", "101143.792500", "101144.252500", "101144.712500", "101145.172500", "101145.632500", "101146.092500", "101146.552500", "101147.012500", "101147.472500", "101147.932500", "101148.392500", "101148.852500", "101149.312500", "101149.772500", "101150.232500", "101150.692500", "101151.152500", "101151.612500", "101152.072500", "101152.532500", "101152.992500", "101153.452500", "101153.912500", "101154.372500", "101154.832500", "101155.292500", "101155.752500", "101156.212500", "101156.672500", "101157.132500", "101157.592500", "101158.052500", "101158.512500", "101158.972500", "101159.432500", "101159.892500", "101200.352500", "101200.812500", "101201.272500", "101201.732500", "101202.192500", "101202.652500", "101203.112500", "101203.572500", "101204.032500", "101204.492500", "101204.952500", "101205.412500", "101205.872500", "101206.332500", "101206.792500", "101207.252500", "101207.712500", "101208.172500", "101208.632500", "101209.092500", "101209.552500", "101210.012500", "101210.472500", "101210.932500", "101211.392500", "101211.852500", "101212.312500", "101212.772500", "101213.232500", "101213.692500", "101214.152500", "101214.612500", "101215.072500", "101215.532500", "101215.992500", "101216.452500", "101216.912500", "101217.372500", "101217.832500", "101218.292500", "101218.752500", "101219.212500", "101219.672500", "101220.132500", "101220.592500", "101221.052500", "101221.512500", "101221.972500", "101222.432500", "101222.892500", "101223.352500", "101223.812500", "101224.272500", "101224.732500", "101225.192500", "101225.652500", "101226.112500", "101226.572500", "101227.032500", "101227.492500", "101227.952500", "101228.412500", "101228.872500", "101229.332500", "101229.792500", "101230.252500", "101230.712500", "101231.172500", "101231.632500", "101232.092500", "101232.552500", "101233.012500", "101233.472500", "101233.932500", "101234.392500", "101234.852500", "101235.312500", "101235.772500", "101236.232500", "101236.692500", "101237.152500", "101237.612500", "101238.072500", "101238.532500", "101238.992500", "101239.452500", "101239.912500", "101240.372500", "101240.832500", "101241.292500", "101241.752500", "101242.212500", "101242.672500", "101243.132500", "101243.592500", "101244.052500", "101244.512500", "101244.972500", "101245.432500", "101245.892500", "101246.352500", "101246.812500", "101247.272500", "101247.732500", "101248.192500", "101248.652500", "101249.112500", "101249.572500", "101250.032500", "101250.492500", "101250.952500", "101251.412500", "101251.872500", "101252.332500", "101252.792500", "101253.252500", "101253.712500", "101254.172500", "101254.632500", "101255.092500", "101255.552500", "101256.012500", "101256.472500", "101256.932500", "101257.392500", "101257.852500", "101258.312500", "101258.772500", "101259.232500", "101259.692500", "101300.152500", "101300.612500", "101301.072500", "101301.532500", "101301.992500", "101302.452500", "101302.912500", "101303.372500", "101303.832500", "101304.292500", "101304.752500", "101305.212500", "101305.672500", "101306.132500", "101306.592500", "101307.052500", "101307.512500", "101307.972500", "101308.432500", "101308.892500", "101309.352500", "101309.812500", "101310.272500", "101310.732500", "101311.192500", "101311.652500", "101312.112500", "101312.572500", "101313.032500", "101313.492500", "101313.952500", "101314.412500", "101314.872500", "101315.332500", "101315.792500", "101316.252500", "101316.712500", "101317.172500", "101317.632500", "101318.092500", "101318.552500", "101319.012500", "101319.472500", "101319.932500", "101320.392500", "101320.852500", "101321.312500", "101321.772500", "101322.232500", "101322.692500", "101323.152500", "101323.612500", "101324.072500", "101324.532500", "101324.992500", "101325.452500", "101325.912500", "101326.372500", "101326.832500", "101327.292500", "101327.752500", "101328.212500", "101328.672500", "101329.132500", "101329.592500", "101330.052500", "101330.512500", "101330.972500", "101331.432500", "101331.892500", "101332.352500", "101332.812500", "101333.272500", "101333.732500", "101334.192500", "101334.652500", "101335.112500", "101335.572500", "101336.032500", "101336.492500", "101336.952500", "101337.412500", "101337.872500", "101338.332500", "101338.792500", "101339.252500", "101339.712500", "101340.172500", "101340.632500", "101341.092500", "101341.552500", "101342.012500", "101342.472500", "101342.932500", "101343.392500", "101343.852500", "101344.312500", "101344.772500", "101345.232500", "101345.692500", "101346.152500", "101346.612500", "101347.072500", "101347.532500", "101347.992500", "101348.452500", "101348.912500", "101349.372500", "101349.832500", "101350.292500", "101350.752500", "101351.212500", "101351.672500", "101352.132500", "101352.592500", "101353.052500", "101353.512500", "101353.972500", "101354.432500", "101354.892500"],
