{
  "AcquisitionMatrixPE": 82,
  "AcquisitionNumber": 1,
  "AcquisitionTime": "16:35:33.665000",
  "BandwidthPerPixelPhaseEncode": 24.888,
  "BaseResolution": 82,
  "BodyPartExamined": "BRAIN",
  "ConsistencyInfo": "N4_VE11E_LATEST_20181129",
  "ConversionSoftware": "dcm2niix",
  "ConversionSoftwareVersion": "v1.0.20201102",
  "DerivedVendorReportedEchoSpacing": 0.00049,
  "DeviceSerialNumber": "66112",
  "DwellTime": 2e-06,
  "EchoTime": 0.0272,
  "EchoTrainLength": 82,
  "EffectiveEchoSpacing": 0.00049,
  "FlipAngle": 44,
  "ImageComments": "Unaliased MB8/PE3",
  "ImageOrientationPatientDICOM": [0.998957, 0.0452406, 0.00615712, -0.0450129, 0.998437, -0.0331174],
  "ImageType": [
    "ORIGINAL",
    "PRIMARY",
    "M",
    "MB",
    "ND",
    "NORM",
    "MOSAIC"
],
  "ImagingFrequency": 123.252,
  "InPlanePhaseEncodingDirectionDICOM": "COL",
  "InstitutionAddress": "Maynard 3,Hanover,NH,US,03755",
  "InstitutionName": "Dartmouth College - PBS",
  "InstitutionalDepartmentName": "Department",
  "MRAcquisitionType": "2D",
  "MagneticFieldStrength": 3,
  "Manufacturer": "Siemens",
  "ManufacturersModelName": "Prisma",
  "Modality": "MR",
  "MultibandAccelerationFactor": 8,
  "PartialFourier": 1,
  "PatientPosition": "HFS",
  "PercentPhaseFOV": 100,
  "PercentSampling": 100,
  "PhaseEncodingDirection": "j-",
  "PhaseEncodingSteps": 82,
  "PhaseResolution": 1,
  "PixelBandwidth": 3050,
  "ProcedureStepDescription": "Wager_Wager^1076_spacetop",
  "ProtocolName": "func_run-04_task-social_acq-ap-mb8",
  "PulseSequenceDetails": "%CustomerSeq%\\cmrr_mbep2d_bold",
  "ReceiveCoilActiveElements": "HEA;HEP",
  "ReceiveCoilName": "Head_32",
  "ReconMatrixPE": 82,
  "RepetitionTime": 0.46,
  "SAR": 0.0807544,
  "ScanOptions": "FS",
  "ScanningSequence": "EP",
  "SequenceName": "epfid2d1_82",
  "SequenceVariant": "SK\\SS",
  "SeriesDescription": "func_run-04_task-social_acq-ap-mb8",
  "SeriesNumber": 18,
  "ShimSetting": [4139, -7755, -7242, 579, -86, -135, 17, 59],
  "SliceThickness": 2.7,
  "SliceTiming": [0, 0.25, 0.0625, 0.3125, 0.125, 0.3775, 0.1875, 0, 0.25, 0.0625, 0.3125, 0.125, 0.3775, 0.1875, 0, 0.25, 0.0625, 0.3125, 0.125, 0.3775, 0.1875, 0, 0.25, 0.0625, 0.3125, 0.125, 0.3775, 0.1875, 0, 0.25, 0.0625, 0.3125, 0.125, 0.3775, 0.1875, 0, 0.25, 0.0625, 0.3125, 0.125, 0.3775, 0.1875, 0, 0.25, 0.0625, 0.3125, 0.125, 0.3775, 0.1875, 0, 0.25, 0.0625, 0.3125, 0.125, 0.3775, 0.1875],
  "SoftwareVersions": "syngo MR E11",
  "SpacingBetweenSlices": 2.7,
  "StationName": "AWP66112",
  "TaskName": "social",
  "TotalReadoutTime": 0.03969,
  "TxRefAmp": 233.639,
  "WipMemBlock": "5d1db262-39f7-4923-bb91-888ac0ed0e40||Sequence: R016 ve11e/master r/434b28f1; Aug  7 2019 18:53:46 by eja",
  "dcmmeta_affine": [
    [-2.680129051208496, -0.12076639384031296, 0.02064351737499237, 116.19573974609375],
    [-0.12137719988822937, 2.678734302520752, -0.08857546001672745, -87.8153076171875],
    [0.01651909574866295, 0.08885159343481064, 2.69846773147583, -52.05359649658203],
    [0.0, 0.0, 0.0, 1.0]
],
  "dcmmeta_reorient_transform": [
    [0.0, -1.0, 0.0, 81.0],
    [1.0, 0.0, 0.0, 0.0],
    [0.0, 0.0, 1.0, 0.0],
    [0.0, 0.0, 0.0, 1.0]
],
  "dcmmeta_shape": [82, 82, 56, 872],
  "dcmmeta_slice_dim": 2,
  "dcmmeta_version": 0.6,
  "global": {
    "const": {
      "AccessionNumber": "A003886",
      "AcquisitionMatrix": [82, 0, 0, 82],
      "AngioFlag": "N",
      "BitsAllocated": 16,
      "BitsStored": 16,
      "BodyPartExamined": "BRAIN",
      "Columns": 656,
      "EchoNumbers": 1,
      "EchoTime": 27.2,
      "EchoTrainLength": 82,
      "FlipAngle": 44.0,
      "HighBit": 15,
      "ImageOrientationPatient": [0.99895714562453, 0.0452405913818, 0.00615711759866, -0.0450129287498, 0.99843731565558, -0.0331174116114],
      "ImagePositionPatient": [-840.95072679711, -932.79417934855, -24.09719106934],
      "ImageType": [
        "ORIGINAL",
        "PRIMARY",
        "M",
        "MB",
        "ND",
        "NORM",
        "MOSAIC"
],
      "ImagedNucleus": "1H",
      "ImagingFrequency": 123.252158,
      "InPlanePhaseEncodingDirection": "COL",
      "MRAcquisitionType": "2D",
      "MagneticFieldStrength": 3.0,
      "Manufacturer": "SIEMENS",
      "ManufacturerModelName": "Prisma",
      "Modality": "MR",
      "NumberOfAverages": 1.0,
      "NumberOfPhaseEncodingSteps": 82,
      "PercentPhaseFieldOfView": 100.0,
      "PercentSampling": 100.0,
      "PerformedProcedureStepStartTime": "154132.250000",
      "PhotometricInterpretation": "MONOCHROME2",
      "PixelBandwidth": 3050.0,
      "PixelRepresentation": 0,
      "PixelSpacing": [2.6829268932343, 2.6829268932343],
      "ProtocolName": "func_run-04_task-social_acq-ap-mb8",
      "RepetitionTime": 460.0,
      "Rows": 656,
      "SAR": 0.08075436603298,
      "SamplesPerPixel": 1,
      "ScanOptions": "FS",
      "ScanningSequence": "EP",
      "SequenceName": "epfid2d1_82",
      "SequenceVariant": [
        "SK",
        "SS"
],
      "SeriesDescription": "func_run-04_task-social_acq-ap-mb8",
      "SeriesNumber": 18,
      "SeriesTime": "163553.529000",
      "SliceLocation": -48.254808664598,
      "SliceThickness": 2.7000000476837,
      "SmallestImagePixelValue": 0,
      "SoftwareVersions": "syngo MR E11",
      "SpacingBetweenSlices": 2.6999999838424,
      "SpecificCharacterSet": "ISO_IR 100",
      "StudyID": "1",
      "StudyTime": "154132.128000",
      "TransmitCoilName": "Body",
      "VariableFlipAngleFlag": "N",
      "WindowCenterWidthExplanation": "Algo1"
    },
    "slices": {}
  },
  "time": {
    "samples": {
      "AcquisitionNumber": [1, 2, 3, 4, 5, 6, 7, 8, 9, 10, 11, 12, 13, 14, 15, 16, 17, 18, 19, 20, 21, 22, 23, 24, 25, 26, 27, 28, 29, 30, 31, 32, 33, 34, 35, 36, 37, 38, 39, 40, 41, 42, 43, 44, 45, 46, 47, 48, 49, 50, 51, 52, 53, 54, 55, 56, 57, 58, 59, 60, 61, 62, 63, 64, 65, 66, 67, 68, 69, 70, 71, 72, 73, 74, 75, 76, 77, 78, 79, 80, 81, 82, 83, 84, 85, 86, 87, 88, 89, 90, 91, 92, 93, 94, 95, 96, 97, 98, 99, 100, 101, 102, 103, 104, 105, 106, 107, 108, 109, 110, 111, 112, 113, 114, 115, 116, 117, 118, 119, 120, 121, 122, 123, 124, 125, 126, 127, 128, 129, 130, 131, 132, 133, 134, 135, 136, 137, 138, 139, 140, 141, 142, 143, 144, 145, 146, 147, 148, 149, 150, 151, 152, 153, 154, 155, 156, 157, 158, 159, 160, 161, 162, 163, 164, 165, 166, 167, 168, 169, 170, 171, 172, 173, 174, 175, 176, 177, 178, 179, 180, 181, 182, 183, 184, 185, 186, 187, 188, 189, 190, 191, 192, 193, 194, 195, 196, 197, 198, 199, 200, 201, 202, 203, 204, 205, 206, 207, 208, 209, 210, 211, 212, 213, 214, 215, 216, 217, 218, 219, 220, 221, 222, 223, 224, 225, 226, 227, 228, 229, 230, 231, 232, 233, 234, 235, 236, 237, 238, 239, 240, 241, 242, 243, 244, 245, 246, 247, 248, 249, 250, 251, 252, 253, 254, 255, 256, 257, 258, 259, 260, 261, 262, 263, 264, 265, 266, 267, 268, 269, 270, 271, 272, 273, 274, 275, 276, 277, 278, 279, 280, 281, 282, 283, 284, 285, 286, 287, 288, 289, 290, 291, 292, 293, 294, 295, 296, 297, 298, 299, 300, 301, 302, 303, 304, 305, 306, 307, 308, 309, 310, 311, 312, 313, 314, 315, 316, 317, 318, 319, 320, 321, 322, 323, 324, 325, 326, 327, 328, 329, 330, 331, 332, 333, 334, 335, 336, 337, 338, 339, 340, 341, 342, 343, 344, 345, 346, 347, 348, 349, 350, 351, 352, 353, 354, 355, 356, 357, 358, 359, 360, 361, 362, 363, 364, 365, 366, 367, 368, 369, 370, 371, 372, 373, 374, 375, 376, 377, 378, 379, 380, 381, 382, 383, 384, 385, 386, 387, 388, 389, 390, 391, 392, 393, 394, 395, 396, 397, 398, 399, 400, 401, 402, 403, 404, 405, 406, 407, 408, 409, 410, 411, 412, 413, 414, 415, 416, 417, 418, 419, 420, 421, 422, 423, 424, 425, 426, 427, 428, 429, 430, 431, 432, 433, 434, 435, 436, 437, 438, 439, 440, 441, 442, 443, 444, 445, 446, 447, 448, 449, 450, 451, 452, 453, 454, 455, 456, 457, 458, 459, 460, 461, 462, 463, 464, 465, 466, 467, 468, 469, 470, 471, 472, 473, 474, 475, 476, 477, 478, 479, 480, 481, 482, 483, 484, 485, 486, 487, 488, 489, 490, 491, 492, 493, 494, 495, 496, 497, 498, 499, 500, 501, 502, 503, 504, 505, 506, 507, 508, 509, 510, 511, 512, 513, 514, 515, 516, 517, 518, 519, 520, 521, 522, 523, 524, 525, 526, 527, 528, 529, 530, 531, 532, 533, 534, 535, 536, 537, 538, 539, 540, 541, 542, 543, 544, 545, 546, 547, 548, 549, 550, 551, 552, 553, 554, 555, 556, 557, 558, 559, 560, 561, 562, 563, 564, 565, 566, 567, 568, 569, 570, 571, 572, 573, 574, 575, 576, 577, 578, 579, 580, 581, 582, 583, 584, 585, 586, 587, 588, 589, 590, 591, 592, 593, 594, 595, 596, 597, 598, 599, 600, 601, 602, 603, 604, 605, 606, 607, 608, 609, 610, 611, 612, 613, 614, 615, 616, 617, 618, 619, 620, 621, 622, 623, 624, 625, 626, 627, 628, 629, 630, 631, 632, 633, 634, 635, 636, 637, 638, 639, 640, 641, 642, 643, 644, 645, 646, 647, 648, 649, 650, 651, 652, 653, 654, 655, 656, 657, 658, 659, 660, 661, 662, 663, 664, 665, 666, 667, 668, 669, 670, 671, 672, 673, 674, 675, 676, 677, 678, 679, 680, 681, 682, 683, 684, 685, 686, 687, 688, 689, 690, 691, 692, 693, 694, 695, 696, 697, 698, 699, 700, 701, 702, 703, 704, 705, 706, 707, 708, 709, 710, 711, 712, 713, 714, 715, 716, 717, 718, 719, 720, 721, 722, 723, 724, 725, 726, 727, 728, 729, 730, 731, 732, 733, 734, 735, 736, 737, 738, 739, 740, 741, 742, 743, 744, 745, 746, 747, 748, 749, 750, 751, 752, 753, 754, 755, 756, 757, 758, 759, 760, 761, 762, 763, 764, 765, 766, 767, 768, 769, 770, 771, 772, 773, 774, 775, 776, 777, 778, 779, 780, 781, 782, 783, 784, 785, 786, 787, 788, 789, 790, 791, 792, 793, 794, 795, 796, 797, 798, 799, 800, 801, 802, 803, 804, 805, 806, 807, 808, 809, 810, 811, 812, 813, 814, 815, 816, 817, 818, 819, 820, 821, 822, 823, 824, 825, 826, 827, 828, 829, 830, 831, 832, 833, 834, 835, 836, 837, 838, 839, 840, 841, 842, 843, 844, 845, 846, 847, 848, 849, 850, 851, 852, 853, 854, 855, 856, 857, 858, 859, 860, 861, 862, 863, 864, 865, 866, 867, 868, 869, 870, 871, 872],
      "AcquisitionTime": ["163533.665000", "163534.125000", "163534.585000", "163535.045000", "163535.505000", "163535.965000", "163536.425000", "163536.885000", "163537.345000", "163537.805000", "163538.265000", "163538.725000", "163539.185000", "163539.645000", "163540.105000", "163540.565000", "163541.025000", "163541.485000", "163541.945000", "163542.405000", "163542.865000", "163543.325000", "163543.785000", "163544.245000", "163544.705000", "163545.165000", "163545.625000", "163546.085000", "163546.545000", "163547.005000", "163547.465000", "163547.925000", "163548.385000", "163548.845000", "163549.305000", "163549.765000", "163550.225000", "163550.685000", "163551.145000", "163551.605000", "163552.065000", "163552.525000", "163552.985000", "163553.445000", "163553.905000", "163554.365000", "163554.825000", "163555.285000", "163555.745000", "163556.205000", "163556.665000", "163557.125000", "163557.585000", "163558.045000", "163558.505000", "163558.965000", "163559.425000", "163559.885000", "163600.345000", "163600.805000", "163601.265000", "163601.725000", "163602.185000", "163602.645000", "163603.105000", "163603.565000", "163604.025000", "163604.485000", "163604.945000", "163605.405000", "163605.865000", "163606.325000", "163606.785000", "163607.245000", "163607.705000", "163608.165000", "163608.625000", "163609.085000", "163609.545000", "163610.005000", "163610.465000", "163610.925000", "163611.385000", "163611.845000", "163612.305000", "163612.765000", "163613.225000", "163613.685000", "163614.145000", "163614.605000", "163615.065000", "163615.525000", "163615.985000", "163616.445000", "163616.905000", "163617.365000", "163617.825000", "163618.285000", "163618.745000", "163619.205000", "163619.665000", "163620.125000", "163620.585000", "163621.045000", "163621.505000", "163621.965000", "163622.425000", "163622.885000", "163623.345000", "163623.805000", "163624.265000", "163624.725000", "163625.185000", "163625.645000", "163626.105000", "163626.565000", "163627.025000", "163627.485000", "163627.945000", "163628.405000", "163628.865000", "163629.325000", "163629.785000", "163630.245000", "163630.705000", "163631.165000", "163631.625000", "163632.085000", "163632.545000", "163633.005000", "163633.465000", "163633.925000", "163634.385000", "163634.845000", "163635.305000", "163635.765000", "163636.225000", "163636.685000", "163637.145000", "163637.605000", "163638.065000", "163638.525000", "163638.985000", "163639.445000", "163639.905000", "163640.365000", "163640.825000", "163641.285000", "163641.745000", "163642.205000", "163642.665000", "163643.125000", "163643.585000", "163644.045000", "163644.505000", "163644.965000", "163645.425000", "163645.885000", "163646.345000", "163646.805000", "163647.265000", "163647.725000", "163648.185000", "163648.645000", "163649.105000", "163649.565000", "163650.025000", "163650.485000", "163650.945000", "163651.405000", "163651.865000", "163652.325000", "163652.785000", "163653.245000", "163653.705000", "163654.165000", "163654.625000", "163655.085000", "163655.545000", "163656.005000", "163656.465000", "163656.925000", "163657.385000", "163657.845000", "163658.305000", "163658.765000", "163659.225000", "163659.685000", "163700.145000", "163700.605000", "163701.065000", "163701.525000", "163701.985000", "163702.445000", "163702.905000", "163703.365000", "163703.825000", "163704.285000", "163704.745000", "163705.205000", "163705.665000", "163706.125000", "163706.585000", "163707.045000", "163707.505000", "163707.965000", "163708.425000", "163708.885000", "163709.345000", "163709.805000", "163710.265000", "163710.725000", "163711.185000", "163711.645000", "163712.105000", "163712.565000", "163713.025000", "163713.485000", "163713.945000", "163714.405000", "163714.865000", "163715.325000", "163715.785000", "163716.245000", "163716.705000", "163717.165000", "163717.625000", "163718.085000", "163718.545000", "163719.005000", "163719.465000", "163719.925000", "163720.385000", "163720.845000", "163721.305000", "163721.765000", "163722.225000", "163722.685000", "163723.145000", "163723.605000", "163724.065000", "163724.525000", "163724.985000", "163725.445000", "163725.905000", "163726.365000", "163726.825000", "163727.285000", "163727.745000", "163728.205000", "163728.665000", "163729.125000", "163729.585000", "163730.045000", "163730.505000", "163730.965000", "163731.425000", "163731.885000", "163732.345000", "163732.805000", "163733.265000", "163733.725000", "163734.185000", "163734.645000", "163735.105000", "163735.565000", "163736.025000", "163736.485000", "163736.945000", "163737.405000", "163737.865000", "163738.325000", "163738.785000", "163739.245000", "163739.705000", "163740.165000", "163740.625000", "163741.085000", "163741.545000", "163742.005000", "163742.465000", "163742.925000", "163743.385000", "163743.845000", "163744.305000", "163744.765000", "163745.225000", "163745.685000", "163746.145000", "163746.605000", "163747.065000", "163747.525000", "163747.985000", "163748.445000", "163748.905000", "163749.365000", "163749.825000", "163750.285000", "163750.745000", "163751.205000", "163751.665000", "163752.125000", "163752.585000", "163753.045000", "163753.505000", "163753.965000", "163754.425000", "163754.885000", "163755.345000", "163755.805000", "163756.265000", "163756.725000", "163757.185000", "163757.645000", "163758.105000", "163758.565000", "163759.025000", "163759.485000", "163759.945000", "163800.405000", "163800.865000", "163801.325000", "163801.785000", "163802.245000", "163802.705000", "163803.165000", "163803.625000", "163804.085000", "163804.545000", "163805.005000", "163805.465000", "163805.925000", "163806.385000", "163806.845000", "163807.305000", "163807.765000", "163808.225000", "163808.685000", "163809.145000", "163809.605000", "163810.065000", "163810.525000", "163810.985000", "163811.445000", "163811.905000", "163812.365000", "163812.825000", "163813.285000", "163813.745000", "163814.205000", "163814.665000", "163815.125000", "163815.585000", "163816.045000", "163816.505000", "163816.965000", "163817.425000", "163817.885000", "163818.345000", "163818.805000", "163819.265000", "163819.725000", "163820.185000", "163820.645000", "163821.105000", "163821.565000", "163822.025000", "163822.485000", "163822.945000", "163823.405000", "163823.865000", "163824.325000", "163824.785000", "163825.245000", "163825.705000", "163826.165000", "163826.625000", "163827.085000", "163827.545000", "163828.005000", "163828.465000", "163828.925000", "163829.385000", "163829.845000", "163830.305000", "163830.765000", "163831.225000", "163831.685000", "163832.145000", "163832.605000", "163833.065000", "163833.525000", "163833.985000", "163834.445000", "163834.905000", "163835.365000", "163835.825000", "163836.285000", "163836.745000", "163837.205000", "163837.665000", "163838.125000", "163838.585000", "163839.045000", "163839.505000", "163839.965000", "163840.425000", "163840.885000", "163841.345000", "163841.805000", "163842.265000", "163842.725000", "163843.185000", "163843.645000", "163844.105000", "163844.565000", "163845.025000", "163845.485000", "163845.945000", "163846.405000", "163846.865000", "163847.325000", "163847.785000", "163848.245000", "163848.705000", "163849.165000", "163849.625000", "163850.085000", "163850.545000", "163851.005000", "163851.465000", "163851.925000", "163852.385000", "163852.845000", "163853.305000", "163853.765000", "163854.225000", "163854.685000", "163855.145000", "163855.605000", "163856.065000", "163856.525000", "163856.985000", "163857.445000", "163857.905000", "163858.365000", "163858.825000", "163859.285000", "163859.745000", "163900.205000", "163900.665000", "163901.125000", "163901.585000", "163902.045000", "163902.505000", "163902.965000", "163903.425000", "163903.885000", "163904.345000", "163904.805000", "163905.265000", "163905.725000", "163906.185000", "163906.645000", "163907.105000", "163907.565000", "163908.025000", "163908.485000", "163908.945000", "163909.405000", "163909.865000", "163910.325000", "163910.785000", "163911.245000", "163911.705000", "163912.165000", "163912.625000", "163913.085000", "163913.545000", "163914.005000", "163914.465000", "163914.925000", "163915.385000", "163915.845000", "163916.305000", "163916.765000", "163917.225000", "163917.685000", "163918.145000", "163918.605000", "163919.065000", "163919.525000", "163919.985000", "163920.445000", "163920.905000", "163921.365000", "163921.825000", "163922.285000", "163922.745000", "163923.205000", "163923.665000", "163924.125000", "163924.585000", "163925.045000", "163925.505000", "163925.965000", "163926.425000", "163926.885000", "163927.345000", "163927.805000", "163928.265000", "163928.725000", "163929.185000", "163929.645000", "163930.105000", "163930.565000", "163931.025000", "163931.485000", "163931.945000", "163932.405000", "163932.865000", "163933.325000", "163933.785000", "163934.245000", "163934.705000", "163935.165000", "163935.625000", "163936.085000", "163936.545000", "163937.005000", "163937.465000", "163937.925000", "163938.385000", "163938.845000", "163939.305000", "163939.765000", "163940.225000", "163940.685000", "163941.145000", "163941.605000", "163942.065000", "163942.525000", "163942.985000", "163943.445000", "163943.905000", "163944.365000", "163944.825000", "163945.285000", "163945.745000", "163946.205000", "163946.665000", "163947.125000", "163947.585000", "163948.045000", "163948.505000", "163948.965000", "163949.425000", "163949.885000", "163950.345000", "163950.805000", "163951.265000", "163951.725000", "163952.185000", "163952.645000", "163953.105000", "163953.565000", "163954.025000", "163954.485000", "163954.945000", "163955.405000", "163955.865000", "163956.325000", "163956.785000", "163957.245000", "163957.705000", "163958.165000", "163958.625000", "163959.085000", "163959.545000", "164000.005000", "164000.465000", "164000.925000", "164001.385000", "164001.845000", "164002.305000", "164002.765000", "164003.225000", "164003.685000", "164004.145000", "164004.605000", "164005.065000", "164005.525000", "164005.985000", "164006.445000", "164006.905000", "164007.365000", "164007.825000", "164008.285000", "164008.745000", "164009.205000", "164009.665000", "164010.125000", "164010.585000", "164011.045000", "164011.505000", "164011.965000", "164012.425000", "164012.885000", "164013.345000", "164013.805000", "164014.265000", "164014.725000", "164015.185000", "164015.645000", "164016.105000", "164016.565000", "164017.025000", "164017.485000", "164017.945000", "164018.405000", "164018.865000", "164019.325000", "164019.785000", "164020.245000", "164020.705000", "164021.165000", "164021.625000", "164022.085000", "164022.545000", "164023.005000", "164023.465000", "164023.925000", "164024.385000", "164024.845000", "164025.305000", "164025.765000", "164026.225000", "164026.685000", "164027.145000", "164027.605000", "164028.065000", "164028.525000", "164028.985000", "164029.445000", "164029.905000", "164030.365000", "164030.825000", "164031.285000", "164031.745000", "164032.205000", "164032.665000", "164033.125000", "164033.585000", "164034.045000", "164034.505000", "164034.965000", "164035.425000", "164035.885000", "164036.345000", "164036.805000", "164037.265000", "164037.725000", "164038.185000", "164038.645000", "164039.105000", "164039.565000", "164040.025000", "164040.485000", "164040.945000", "164041.405000", "164041.865000", "164042.325000", "164042.785000", "164043.245000", "164043.705000", "164044.165000", "164044.625000", "164045.085000", "164045.545000", "164046.005000", "164046.465000", "164046.925000", "164047.385000", "164047.845000", "164048.305000", "164048.765000", "164049.225000", "164049.685000", "164050.145000", "164050.605000", "164051.065000", "164051.525000", "164051.985000", "164052.445000", "164052.905000", "164053.365000", "164053.825000", "164054.285000", "164054.745000", "164055.205000", "164055.665000", "164056.125000", "164056.585000", "164057.045000", "164057.505000", "164057.965000", "164058.425000", "164058.885000", "164059.345000", "164059.805000", "164100.265000", "164100.725000", "164101.185000", "164101.645000", "164102.105000", "164102.565000", "164103.025000", "164103.485000", "164103.945000", "164104.405000", "164104.865000", "164105.325000", "164105.785000", "164106.245000", "164106.705000", "164107.165000", "164107.625000", "164108.085000", "164108.545000", "164109.005000", "164109.465000", "164109.925000", "164110.385000", "164110.845000", "164111.305000", "164111.765000", "164112.225000", "164112.685000", "164113.145000", "164113.605000", "164114.065000", "164114.525000", "164114.985000", "164115.445000", "164115.905000", "164116.365000", "164116.825000", "164117.285000", "164117.745000", "164118.205000", "164118.665000", "164119.125000", "164119.585000", "164120.045000", "164120.505000", "164120.965000", "164121.425000", "164121.885000", "164122.345000", "164122.805000", "164123.265000", "164123.725000", "164124.185000", "164124.645000", "164125.105000", "164125.565000", "164126.025000", "164126.485000", "164126.945000", "164127.405000", "164127.865000", "164128.325000", "164128.785000", "164129.245000", "164129.705000", "164130.165000", "164130.625000", "164131.085000", "164131.545000", "164132.005000", "164132.465000", "164132.925000", "164133.385000", "164133.845000", "164134.305000", "164134.765000", "164135.225000", "164135.685000", "164136.145000", "164136.605000", "164137.065000", "164137.525000", "164137.985000", "164138.445000", "164138.905000", "164139.365000", "164139.825000", "164140.285000", "164140.745000", "164141.205000", "164141.665000", "164142.125000", "164142.585000", "164143.045000", "164143.505000", "164143.965000", "164144.425000", "164144.885000", "164145.345000", "164145.805000", "164146.265000", "164146.725000", "164147.185000", "164147.645000", "164148.105000", "164148.565000", "164149.025000", "164149.485000", "164149.945000", "164150.405000", "164150.865000", "164151.325000", "164151.785000", "164152.245000", "164152.705000", "164153.165000", "164153.625000", "164154.085000", "164154.545000", "164155.005000", "164155.465000", "164155.925000", "164156.385000", "164156.845000", "164157.305000", "164157.765000", "164158.225000", "164158.685000", "164159.145000", "164159.605000", "164200.065000", "164200.525000", "164200.985000", "164201.445000", "164201.905000", "164202.365000", "164202.825000", "164203.285000", "164203.745000", "164204.205000", "164204.665000", "164205.125000", "164205.585000", "164206.045000", "164206.505000", "164206.965000", "164207.425000", "164207.885000", "164208.345000", "164208.805000", "164209.265000", "164209.725000", "164210.185000", "164210.645000", "164211.105000", "164211.565000", "164212.025000", "164212.485000", "164212.945000", "164213.405000", "164213.865000", "164214.325000"],
