{
  "AcquisitionMatrixPE": 82,
  "AcquisitionNumber": 1,
  "AcquisitionTime": "16:50:54.917500",
  "BandwidthPerPixelPhaseEncode": 24.888,
  "BaseResolution": 82,
  "BodyPartExamined": "BRAIN",
  "ConsistencyInfo": "N4_VE11E_LATEST_20181129",
  "ConversionSoftware": "dcm2niix",
  "ConversionSoftwareVersion": "v1.0.20201102",
  "DerivedVendorReportedEchoSpacing": 0.00049,
  "DeviceSerialNumber": "66112",
  "DwellTime": 2e-06,
  "EchoTime": 0.0272,
  "EchoTrainLength": 82,
  "EffectiveEchoSpacing": 0.00049,
  "FlipAngle": 44,
  "ImageComments": "Unaliased MB8/PE3",
  "ImageOrientationPatientDICOM": [0.998957, 0.0452406, 0.00615712, -0.0450129, 0.998437, -0.0331174],
  "ImageType": [
    "ORIGINAL",
    "PRIMARY",
    "M",
    "MB",
    "ND",
    "NORM",
    "MOSAIC"
],
  "ImagingFrequency": 123.252,
  "InPlanePhaseEncodingDirectionDICOM": "COL",
  "InstitutionAddress": "Maynard 3,Hanover,NH,US,03755",
  "InstitutionName": "Dartmouth College - PBS",
  "InstitutionalDepartmentName": "Department",
  "MRAcquisitionType": "2D",
  "MagneticFieldStrength": 3,
  "Manufacturer": "Siemens",
  "ManufacturersModelName": "Prisma",
  "Modality": "MR",
  "MultibandAccelerationFactor": 8,
  "PartialFourier": 1,
  "PatientPosition": "HFS",
  "PercentPhaseFOV": 100,
  "PercentSampling": 100,
  "PhaseEncodingDirection": "j-",
  "PhaseEncodingSteps": 82,
  "PhaseResolution": 1,
  "PixelBandwidth": 3050,
  "ProcedureStepDescription": "Wager_Wager^1076_spacetop",
  "ProtocolName": "func_run-06_task-social_acq-ap-mb8",
  "PulseSequenceDetails": "%CustomerSeq%\\cmrr_mbep2d_bold",
  "ReceiveCoilActiveElements": "HEA;HEP",
  "ReceiveCoilName": "Head_32",
  "ReconMatrixPE": 82,
  "RepetitionTime": 0.46,
  "SAR": 0.0807544,
  "ScanOptions": "FS",
  "ScanningSequence": "EP",
  "SequenceName": "epfid2d1_82",
  "SequenceVariant": "SK\\SS",
  "SeriesDescription": "func_run-06_task-social_acq-ap-mb8",
  "SeriesNumber": 22,
  "ShimSetting": [4139, -7755, -7242, 579, -86, -135, 17, 59],
  "SliceThickness": 2.7,
  "SliceTiming": [0, 0.2525, 0.0625, 0.315, 0.1275, 0.3775, 0.19, 0, 0.2525, 0.0625, 0.315, 0.1275, 0.3775, 0.19, 0, 0.2525, 0.0625, 0.315, 0.1275, 0.3775, 0.19, 0, 0.2525, 0.0625, 0.315, 0.1275, 0.3775, 0.19, 0, 0.2525, 0.0625, 0.315, 0.1275, 0.3775, 0.19, 0, 0.2525, 0.0625, 0.315, 0.1275, 0.3775, 0.19, 0, 0.2525, 0.0625, 0.315, 0.1275, 0.3775, 0.19, 0, 0.2525, 0.0625, 0.315, 0.1275, 0.3775, 0.19],
  "SoftwareVersions": "syngo MR E11",
  "SpacingBetweenSlices": 2.7,
  "StationName": "AWP66112",
  "TaskName": "social",
  "TotalReadoutTime": 0.03969,
  "TxRefAmp": 233.639,
  "WipMemBlock": "8e528df7-f96c-4ef9-8c93-8babea8ab145||Sequence: R016 ve11e/master r/434b28f1; Aug  7 2019 18:53:46 by eja",
  "dcmmeta_affine": [
    [-2.680129051208496, -0.12076639384031296, 0.02064351737499237, 116.19573974609375],
    [-0.12137719988822937, 2.678734302520752, -0.08857546001672745, -87.8153076171875],
    [0.01651909574866295, 0.08885159343481064, 2.69846773147583, -52.05359649658203],
    [0.0, 0.0, 0.0, 1.0]
],
  "dcmmeta_reorient_transform": [
    [0.0, -1.0, 0.0, 81.0],
    [1.0, 0.0, 0.0, 0.0],
    [0.0, 0.0, 1.0, 0.0],
    [0.0, 0.0, 0.0, 1.0]
],
  "dcmmeta_shape": [82, 82, 56, 872],
  "dcmmeta_slice_dim": 2,
  "dcmmeta_version": 0.6,
  "global": {
    "const": {
      "AccessionNumber": "A003886",
      "AcquisitionMatrix": [82, 0, 0, 82],
      "AngioFlag": "N",
      "BitsAllocated": 16,
      "BitsStored": 16,
      "BodyPartExamined": "BRAIN",
      "Columns": 656,
      "EchoNumbers": 1,
      "EchoTime": 27.2,
      "EchoTrainLength": 82,
      "FlipAngle": 44.0,
      "HighBit": 15,
      "ImageOrientationPatient": [0.99895714562453, 0.0452405913818, 0.00615711759866, -0.0450129287498, 0.99843731565558, -0.0331174116114],
      "ImagePositionPatient": [-840.95072679711, -932.79417934855, -24.09719106934],
      "ImageType": [
        "ORIGINAL",
        "PRIMARY",
        "M",
        "MB",
        "ND",
        "NORM",
        "MOSAIC"
],
      "ImagedNucleus": "1H",
      "ImagingFrequency": 123.252163,
      "InPlanePhaseEncodingDirection": "COL",
      "MRAcquisitionType": "2D",
      "MagneticFieldStrength": 3.0,
      "Manufacturer": "SIEMENS",
      "ManufacturerModelName": "Prisma",
      "Modality": "MR",
      "NumberOfAverages": 1.0,
      "NumberOfPhaseEncodingSteps": 82,
      "PercentPhaseFieldOfView": 100.0,
      "PercentSampling": 100.0,
      "PerformedProcedureStepStartTime": "154132.250000",
      "PhotometricInterpretation": "MONOCHROME2",
      "PixelBandwidth": 3050.0,
      "PixelRepresentation": 0,
      "PixelSpacing": [2.6829268932343, 2.6829268932343],
      "ProtocolName": "func_run-06_task-social_acq-ap-mb8",
      "RepetitionTime": 460.0,
      "Rows": 656,
      "SAR": 0.08075436603298,
      "SamplesPerPixel": 1,
      "ScanOptions": "FS",
      "ScanningSequence": "EP",
      "SequenceName": "epfid2d1_82",
      "SequenceVariant": [
        "SK",
        "SS"
],
      "SeriesDescription": "func_run-06_task-social_acq-ap-mb8",
      "SeriesNumber": 22,
      "SeriesTime": "165113.449000",
      "SliceLocation": -48.254808664598,
      "SliceThickness": 2.7000000476837,
      "SmallestImagePixelValue": 0,
      "SoftwareVersions": "syngo MR E11",
      "SpacingBetweenSlices": 2.6999999838424,
      "SpecificCharacterSet": "ISO_IR 100",
      "StudyID": "1",
      "StudyTime": "154132.128000",
      "TransmitCoilName": "Body",
      "VariableFlipAngleFlag": "N",
      "WindowCenterWidthExplanation": "Algo1"
    },
    "slices": {}
  },
  "time": {
    "samples": {
      "AcquisitionNumber": [1, 2, 3, 4, 5, 6, 7, 8, 9, 10, 11, 12, 13, 14, 15, 16, 17, 18, 19, 20, 21, 22, 23, 24, 25, 26, 27, 28, 29, 30, 31, 32, 33, 34, 35, 36, 37, 38, 39, 40, 41, 42, 43, 44, 45, 46, 47, 48, 49, 50, 51, 52, 53, 54, 55, 56, 57, 58, 59, 60, 61, 62, 63, 64, 65, 66, 67, 68, 69, 70, 71, 72, 73, 74, 75, 76, 77, 78, 79, 80, 81, 82, 83, 84, 85, 86, 87, 88, 89, 90, 91, 92, 93, 94, 95, 96, 97, 98, 99, 100, 101, 102, 103, 104, 105, 106, 107, 108, 109, 110, 111, 112, 113, 114, 115, 116, 117, 118, 119, 120, 121, 122, 123, 124, 125, 126, 127, 128, 129, 130, 131, 132, 133, 134, 135, 136, 137, 138, 139, 140, 141, 142, 143, 144, 145, 146, 147, 148, 149, 150, 151, 152, 153, 154, 155, 156, 157, 158, 159, 160, 161, 162, 163, 164, 165, 166, 167, 168, 169, 170, 171, 172, 173, 174, 175, 176, 177, 178, 179, 180, 181, 182, 183, 184, 185, 186, 187, 188, 189, 190, 191, 192, 193, 194, 195, 196, 197, 198, 199, 200, 201, 202, 203, 204, 205, 206, 207, 208, 209, 210, 211, 212, 213, 214, 215, 216, 217, 218, 219, 220, 221, 222, 223, 224, 225, 226, 227, 228, 229, 230, 231, 232, 233, 234, 235, 236, 237, 238, 239, 240, 241, 242, 243, 244, 245, 246, 247, 248, 249, 250, 251, 252, 253, 254, 255, 256, 257, 258, 259, 260, 261, 262, 263, 264, 265, 266, 267, 268, 269, 270, 271, 272, 273, 274, 275, 276, 277, 278, 279, 280, 281, 282, 283, 284, 285, 286, 287, 288, 289, 290, 291, 292, 293, 294, 295, 296, 297, 298, 299, 300, 301, 302, 303, 304, 305, 306, 307, 308, 309, 310, 311, 312, 313, 314, 315, 316, 317, 318, 319, 320, 321, 322, 323, 324, 325, 326, 327, 328, 329, 330, 331, 332, 333, 334, 335, 336, 337, 338, 339, 340, 341, 342, 343, 344, 345, 346, 347, 348, 349, 350, 351, 352, 353, 354, 355, 356, 357, 358, 359, 360, 361, 362, 363, 364, 365, 366, 367, 368, 369, 370, 371, 372, 373, 374, 375, 376, 377, 378, 379, 380, 381, 382, 383, 384, 385, 386, 387, 388, 389, 390, 391, 392, 393, 394, 395, 396, 397, 398, 399, 400, 401, 402, 403, 404, 405, 406, 407, 408, 409, 410, 411, 412, 413, 414, 415, 416, 417, 418, 419, 420, 421, 422, 423, 424, 425, 426, 427, 428, 429, 430, 431, 432, 433, 434, 435, 436, 437, 438, 439, 440, 441, 442, 443, 444, 445, 446, 447, 448, 449, 450, 451, 452, 453, 454, 455, 456, 457, 458, 459, 460, 461, 462, 463, 464, 465, 466, 467, 468, 469, 470, 471, 472, 473, 474, 475, 476, 477, 478, 479, 480, 481, 482, 483, 484, 485, 486, 487, 488, 489, 490, 491, 492, 493, 494, 495, 496, 497, 498, 499, 500, 501, 502, 503, 504, 505, 506, 507, 508, 509, 510, 511, 512, 513, 514, 515, 516, 517, 518, 519, 520, 521, 522, 523, 524, 525, 526, 527, 528, 529, 530, 531, 532, 533, 534, 535, 536, 537, 538, 539, 540, 541, 542, 543, 544, 545, 546, 547, 548, 549, 550, 551, 552, 553, 554, 555, 556, 557, 558, 559, 560, 561, 562, 563, 564, 565, 566, 567, 568, 569, 570, 571, 572, 573, 574, 575, 576, 577, 578, 579, 580, 581, 582, 583, 584, 585, 586, 587, 588, 589, 590, 591, 592, 593, 594, 595, 596, 597, 598, 599, 600, 601, 602, 603, 604, 605, 606, 607, 608, 609, 610, 611, 612, 613, 614, 615, 616, 617, 618, 619, 620, 621, 622, 623, 624, 625, 626, 627, 628, 629, 630, 631, 632, 633, 634, 635, 636, 637, 638, 639, 640, 641, 642, 643, 644, 645, 646, 647, 648, 649, 650, 651, 652, 653, 654, 655, 656, 657, 658, 659, 660, 661, 662, 663, 664, 665, 666, 667, 668, 669, 670, 671, 672, 673, 674, 675, 676, 677, 678, 679, 680, 681, 682, 683, 684, 685, 686, 687, 688, 689, 690, 691, 692, 693, 694, 695, 696, 697, 698, 699, 700, 701, 702, 703, 704, 705, 706, 707, 708, 709, 710, 711, 712, 713, 714, 715, 716, 717, 718, 719, 720, 721, 722, 723, 724, 725, 726, 727, 728, 729, 730, 731, 732, 733, 734, 735, 736, 737, 738, 739, 740, 741, 742, 743, 744, 745, 746, 747, 748, 749, 750, 751, 752, 753, 754, 755, 756, 757, 758, 759, 760, 761, 762, 763, 764, 765, 766, 767, 768, 769, 770, 771, 772, 773, 774, 775, 776, 777, 778, 779, 780, 781, 782, 783, 784, 785, 786, 787, 788, 789, 790, 791, 792, 793, 794, 795, 796, 797, 798, 799, 800, 801, 802, 803, 804, 805, 806, 807, 808, 809, 810, 811, 812, 813, 814, 815, 816, 817, 818, 819, 820, 821, 822, 823, 824, 825, 826, 827, 828, 829, 830, 831, 832, 833, 834, 835, 836, 837, 838, 839, 840, 841, 842, 843, 844, 845, 846, 847, 848, 849, 850, 851, 852, 853, 854, 855, 856, 857, 858, 859, 860, 861, 862, 863, 864, 865, 866, 867, 868, 869, 870, 871, 872],
      "AcquisitionTime": ["165054.917500", "165055.377500", "165055.837500", "165056.297500", "165056.757500", "165057.217500", "165057.677500", "165058.137500", "165058.597500", "165059.057500", "165059.517500", "165059.977500", "165100.437500", "165100.897500", "165101.357500", "165101.817500", "165102.277500", "165102.737500", "165103.197500", "165103.657500", "165104.117500", "165104.577500", "165105.037500", "165105.497500", "165105.957500", "165106.417500", "165106.877500", "165107.337500", "165107.797500", "165108.257500", "165108.717500", "165109.177500", "165109.637500", "165110.097500", "165110.557500", "165111.017500", "165111.477500", "165111.937500", "165112.397500", "165112.857500", "165113.317500", "165113.777500", "165114.237500", "165114.697500", "165115.157500", "165115.617500", "165116.077500", "165116.537500", "165116.997500", "165117.457500", "165117.917500", "165118.377500", "165118.837500", "165119.297500", "165119.757500", "165120.217500", "165120.677500", "165121.137500", "165121.597500", "165122.057500", "165122.517500", "165122.977500", "165123.437500", "165123.897500", "165124.357500", "165124.817500", "165125.277500", "165125.737500", "165126.197500", "165126.657500", "165127.117500", "165127.577500", "165128.037500", "165128.497500", "165128.957500", "165129.417500", "165129.877500", "165130.337500", "165130.797500", "165131.257500", "165131.717500", "165132.177500", "165132.637500", "165133.097500", "165133.557500", "165134.017500", "165134.477500", "165134.937500", "165135.397500", "165135.857500", "165136.317500", "165136.777500", "165137.237500", "165137.697500", "165138.157500", "165138.617500", "165139.077500", "165139.537500", "165139.997500", "165140.457500", "165140.917500", "165141.377500", "165141.837500", "165142.297500", "165142.757500", "165143.217500", "165143.677500", "165144.137500", "165144.597500", "165145.057500", "165145.517500", "165145.977500", "165146.437500", "165146.897500", "165147.357500", "165147.817500", "165148.277500", "165148.737500", "165149.197500", "165149.657500", "165150.117500", "165150.577500", "165151.037500", "165151.497500", "165151.957500", "165152.417500", "165152.877500", "165153.337500", "165153.797500", "165154.257500", "165154.717500", "165155.177500", "165155.637500", "165156.097500", "165156.557500", "165157.017500", "165157.477500", "165157.937500", "165158.397500", "165158.857500", "165159.317500", "165159.777500", "165200.237500", "165200.697500", "165201.157500", "165201.617500", "165202.077500", "165202.537500", "165202.997500", "165203.457500", "165203.917500", "165204.377500", "165204.837500", "165205.297500", "165205.757500", "165206.217500", "165206.677500", "165207.137500", "165207.597500", "165208.057500", "165208.517500", "165208.977500", "165209.437500", "165209.897500", "165210.357500", "165210.817500", "165211.277500", "165211.737500", "165212.197500", "165212.657500", "165213.117500", "165213.577500", "165214.037500", "165214.497500", "165214.957500", "165215.417500", "165215.877500", "165216.337500", "165216.797500", "165217.257500", "165217.717500", "165218.177500", "165218.637500", "165219.097500", "165219.557500", "165220.017500", "165220.477500", "165220.937500", "165221.397500", "165221.857500", "165222.317500", "165222.777500", "165223.237500", "165223.697500", "165224.157500", "165224.617500", "165225.077500", "165225.537500", "165225.997500", "165226.457500", "165226.917500", "165227.377500", "165227.837500", "165228.297500", "165228.757500", "165229.217500", "165229.677500", "165230.137500", "165230.597500", "165231.057500", "165231.517500", "165231.977500", "165232.437500", "165232.897500", "165233.357500", "165233.817500", "165234.277500", "165234.737500", "165235.197500", "165235.657500", "165236.117500", "165236.577500", "165237.037500", "165237.497500", "165237.957500", "165238.417500", "165238.877500", "165239.337500", "165239.797500", "165240.257500", "165240.717500", "165241.177500", "165241.637500", "165242.097500", "165242.557500", "165243.017500", "165243.477500", "165243.937500", "165244.397500", "165244.857500", "165245.317500", "165245.777500", "165246.237500", "165246.697500", "165247.157500", "165247.617500", "165248.077500", "165248.537500", "165248.997500", "165249.457500", "165249.917500", "165250.377500", "165250.837500", "165251.297500", "165251.757500", "165252.217500", "165252.677500", "165253.137500", "165253.597500", "165254.057500", "165254.517500", "165254.977500", "165255.437500", "165255.897500", "165256.357500", "165256.817500", "165257.277500", "165257.737500", "165258.197500", "165258.657500", "165259.117500", "165259.577500", "165300.037500", "165300.497500", "165300.957500", "165301.417500", "165301.877500", "165302.337500", "165302.797500", "165303.257500", "165303.717500", "165304.177500", "165304.637500", "165305.097500", "165305.557500", "165306.017500", "165306.477500", "165306.937500", "165307.397500", "165307.857500", "165308.317500", "165308.777500", "165309.237500", "165309.697500", "165310.157500", "165310.617500", "165311.077500", "165311.537500", "165311.997500", "165312.457500", "165312.917500", "165313.377500", "165313.837500", "165314.297500", "165314.757500", "165315.217500", "165315.677500", "165316.137500", "165316.597500", "165317.057500", "165317.517500", "165317.977500", "165318.437500", "165318.897500", "165319.357500", "165319.817500", "165320.277500", "165320.737500", "165321.197500", "165321.657500", "165322.117500", "165322.577500", "165323.037500", "165323.497500", "165323.957500", "165324.417500", "165324.877500", "165325.337500", "165325.797500", "165326.257500", "165326.717500", "165327.177500", "165327.637500", "165328.097500", "165328.557500", "165329.017500", "165329.477500", "165329.937500", "165330.397500", "165330.857500", "165331.317500", "165331.777500", "165332.237500", "165332.697500", "165333.157500", "165333.617500", "165334.077500", "165334.537500", "165334.997500", "165335.457500", "165335.917500", "165336.377500", "165336.837500", "165337.297500", "165337.757500", "165338.217500", "165338.677500", "165339.137500", "165339.597500", "165340.057500", "165340.517500", "165340.977500", "165341.437500", "165341.897500", "165342.357500", "165342.817500", "165343.277500", "165343.737500", "165344.197500", "165344.657500", "165345.117500", "165345.577500", "165346.037500", "165346.497500", "165346.957500", "165347.417500", "165347.877500", "165348.337500", "165348.797500", "165349.257500", "165349.717500", "165350.177500", "165350.637500", "165351.097500", "165351.557500", "165352.017500", "165352.477500", "165352.937500", "165353.397500", "165353.857500", "165354.317500", "165354.777500", "165355.237500", "165355.697500", "165356.157500", "165356.617500", "165357.077500", "165357.537500", "165357.997500", "165358.457500", "165358.917500", "165359.377500", "165359.837500", "165400.297500", "165400.757500", "165401.217500", "165401.677500", "165402.137500", "165402.597500", "165403.057500", "165403.517500", "165403.977500", "165404.437500", "165404.897500", "165405.357500", "165405.817500", "165406.277500", "165406.737500", "165407.197500", "165407.657500", "165408.117500", "165408.577500", "165409.037500", "165409.497500", "165409.957500", "165410.417500", "165410.877500", "165411.337500", "165411.797500", "165412.257500", "165412.717500", "165413.177500", "165413.637500", "165414.097500", "165414.557500", "165415.017500", "165415.477500", "165415.937500", "165416.397500", "165416.857500", "165417.317500", "165417.777500", "165418.237500", "165418.697500", "165419.157500", "165419.617500", "165420.077500", "165420.537500", "165420.997500", "165421.457500", "165421.917500", "165422.377500", "165422.837500", "165423.297500", "165423.757500", "165424.217500", "165424.677500", "165425.137500", "165425.597500", "165426.057500", "165426.517500", "165426.977500", "165427.437500", "165427.897500", "165428.357500", "165428.817500", "165429.277500", "165429.737500", "165430.197500", "165430.657500", "165431.117500", "165431.577500", "165432.037500", "165432.497500", "165432.957500", "165433.417500", "165433.877500", "165434.337500", "165434.797500", "165435.257500", "165435.717500", "165436.177500", "165436.637500", "165437.097500", "165437.557500", "165438.017500", "165438.477500", "165438.937500", "165439.397500", "165439.857500", "165440.317500", "165440.777500", "165441.237500", "165441.697500", "165442.157500", "165442.617500", "165443.077500", "165443.537500", "165443.997500", "165444.457500", "165444.917500", "165445.377500", "165445.837500", "165446.297500", "165446.757500", "165447.217500", "165447.677500", "165448.137500", "165448.597500", "165449.057500", "165449.517500", "165449.977500", "165450.437500", "165450.897500", "165451.357500", "165451.817500", "165452.277500", "165452.737500", "165453.197500", "165453.657500", "165454.117500", "165454.577500", "165455.037500", "165455.497500", "165455.957500", "165456.417500", "165456.877500", "165457.337500", "165457.797500", "165458.257500", "165458.717500", "165459.177500", "165459.637500", "165500.097500", "165500.557500", "165501.017500", "165501.477500", "165501.937500", "165502.397500", "165502.857500", "165503.317500", "165503.777500", "165504.237500", "165504.697500", "165505.157500", "165505.617500", "165506.077500", "165506.537500", "165506.997500", "165507.457500", "165507.917500", "165508.377500", "165508.837500", "165509.297500", "165509.757500", "165510.217500", "165510.677500", "165511.137500", "165511.597500", "165512.057500", "165512.517500", "165512.977500", "165513.437500", "165513.897500", "165514.357500", "165514.817500", "165515.277500", "165515.737500", "165516.197500", "165516.657500", "165517.117500", "165517.577500", "165518.037500", "165518.497500", "165518.957500", "165519.417500", "165519.877500", "165520.337500", "165520.797500", "165521.257500", "165521.717500", "165522.177500", "165522.637500", "165523.097500", "165523.557500", "165524.017500", "165524.477500", "165524.937500", "165525.397500", "165525.857500", "165526.317500", "165526.777500", "165527.237500", "165527.697500", "165528.157500", "165528.617500", "165529.077500", "165529.537500", "165529.997500", "165530.457500", "165530.917500", "165531.377500", "165531.837500", "165532.297500", "165532.757500", "165533.217500", "165533.677500", "165534.137500", "165534.597500", "165535.057500", "165535.517500", "165535.977500", "165536.437500", "165536.897500", "165537.357500", "165537.817500", "165538.277500", "165538.737500", "165539.197500", "165539.657500", "165540.117500", "165540.577500", "165541.037500", "165541.497500", "165541.957500", "165542.417500", "165542.877500", "165543.337500", "165543.797500", "165544.257500", "165544.717500", "165545.177500", "165545.637500", "165546.097500", "165546.557500", "165547.017500", "165547.477500", "165547.937500", "165548.397500", "165548.857500", "165549.317500", "165549.777500", "165550.237500", "165550.697500", "165551.157500", "165551.617500", "165552.077500", "165552.537500", "165552.997500", "165553.457500", "165553.917500", "165554.377500", "165554.837500", "165555.297500", "165555.757500", "165556.217500", "165556.677500", "165557.137500", "165557.597500", "165558.057500", "165558.517500", "165558.977500", "165559.437500", "165559.897500", "165600.357500", "165600.817500", "165601.277500", "165601.737500", "165602.197500", "165602.657500", "165603.117500", "165603.577500", "165604.037500", "165604.497500", "165604.957500", "165605.417500", "165605.877500", "165606.337500", "165606.797500", "165607.257500", "165607.717500", "165608.177500", "165608.637500", "165609.097500", "165609.557500", "165610.017500", "165610.477500", "165610.937500", "165611.397500", "165611.857500", "165612.317500", "165612.777500", "165613.237500", "165613.697500", "165614.157500", "165614.617500", "165615.077500", "165615.537500", "165615.997500", "165616.457500", "165616.917500", "165617.377500", "165617.837500", "165618.297500", "165618.757500", "165619.217500", "165619.677500", "165620.137500", "165620.597500", "165621.057500", "165621.517500", "165621.977500", "165622.437500", "165622.897500", "165623.357500", "165623.817500", "165624.277500", "165624.737500", "165625.197500", "165625.657500", "165626.117500", "165626.577500", "165627.037500", "165627.497500", "165627.957500", "165628.417500", "165628.877500", "165629.337500", "165629.797500", "165630.257500", "165630.717500", "165631.177500", "165631.637500", "165632.097500", "165632.557500", "165633.017500", "165633.477500", "165633.937500", "165634.397500", "165634.857500", "165635.317500", "165635.777500", "165636.237500", "165636.697500", "165637.157500", "165637.617500", "165638.077500", "165638.537500", "165638.997500", "165639.457500", "165639.917500", "165640.377500", "165640.837500", "165641.297500", "165641.757500", "165642.217500", "165642.677500", "165643.137500", "165643.597500", "165644.057500", "165644.517500", "165644.977500", "165645.437500", "165645.897500", "165646.357500", "165646.817500", "165647.277500", "165647.737500", "165648.197500", "165648.657500", "165649.117500", "165649.577500", "165650.037500", "165650.497500", "165650.957500", "165651.417500", "165651.877500", "165652.337500", "165652.797500", "165653.257500", "165653.717500", "165654.177500", "165654.637500", "165655.097500", "165655.557500", "165656.017500", "165656.477500", "165656.937500", "165657.397500", "165657.857500", "165658.317500", "165658.777500", "165659.237500", "165659.697500", "165700.157500", "165700.617500", "165701.077500", "165701.537500", "165701.997500", "165702.457500", "165702.917500", "165703.377500", "165703.837500", "165704.297500", "165704.757500", "165705.217500", "165705.677500", "165706.137500", "165706.597500", "165707.057500", "165707.517500", "165707.977500", "165708.437500", "165708.897500", "165709.357500", "165709.817500", "165710.277500", "165710.737500", "165711.197500", "165711.657500", "165712.117500", "165712.577500", "165713.037500", "165713.497500", "165713.957500", "165714.417500", "165714.877500", "165715.337500", "165715.797500", "165716.257500", "165716.717500", "165717.177500", "165717.637500", "165718.097500", "165718.557500", "165719.017500", "165719.477500", "165719.937500", "165720.397500", "165720.857500", "165721.317500", "165721.777500", "165722.237500", "165722.697500", "165723.157500", "165723.617500", "165724.077500", "165724.537500", "165724.997500", "165725.457500", "165725.917500", "165726.377500", "165726.837500", "165727.297500", "165727.757500", "165728.217500", "165728.677500", "165729.137500", "165729.597500", "165730.057500", "165730.517500", "165730.977500", "165731.437500", "165731.897500", "165732.357500", "165732.817500", "165733.277500", "165733.737500", "165734.197500", "165734.657500", "165735.117500", "165735.577500"],
