{
  "AcquisitionMatrixPE": 82,
  "AcquisitionNumber": 1,
  "AcquisitionTime": "21:07:36.252500",
  "BandwidthPerPixelPhaseEncode": 24.888,
  "BaseResolution": 82,
  "BodyPartExamined": "BRAIN",
  "ConsistencyInfo": "N4_VE11E_LATEST_20181129",
  "ConversionSoftware": "dcm2niix",
  "ConversionSoftwareVersion": "v1.0.20201102",
  "DerivedVendorReportedEchoSpacing": 0.00049,
  "DeviceSerialNumber": "66112",
  "DwellTime": 2e-06,
  "EchoTime": 0.0272,
  "EchoTrainLength": 82,
  "EffectiveEchoSpacing": 0.00049,
  "FlipAngle": 44,
  "ImageComments": "Unaliased MB8/PE3",
  "ImageOrientationPatientDICOM": [0.99849, -0.0217415, 0.0504503, 0.0155112, 0.992561, 0.120753],
  "ImageType": [
    "ORIGINAL",
    "PRIMARY",
    "M",
    "MB",
    "ND",
    "NORM",
    "MOSAIC"
],
  "ImagingFrequency": 123.252,
  "InPlanePhaseEncodingDirectionDICOM": "COL",
  "InstitutionAddress": "Maynard 3,Hanover,NH,US,03755",
  "InstitutionName": "Dartmouth College - PBS",
  "InstitutionalDepartmentName": "Department",
  "MRAcquisitionType": "2D",
  "MagneticFieldStrength": 3,
  "Manufacturer": "Siemens",
  "ManufacturersModelName": "Prisma",
  "Modality": "MR",
  "MultibandAccelerationFactor": 8,
  "PartialFourier": 1,
  "PatientPosition": "HFS",
  "PercentPhaseFOV": 100,
  "PercentSampling": 100,
  "PhaseEncodingDirection": "j-",
  "PhaseEncodingSteps": 82,
  "PhaseResolution": 1,
  "PixelBandwidth": 3050,
  "ProcedureStepDescription": "Wager_Wager^1076_spacetop",
  "ProtocolName": "func_run-01_task-social_acq-ap-mb8",
  "PulseSequenceDetails": "%CustomerSeq%\\cmrr_mbep2d_bold",
  "ReceiveCoilActiveElements": "HEA;HEP",
  "ReceiveCoilName": "Head_32",
  "ReconMatrixPE": 82,
  "RepetitionTime": 0.46,
  "SAR": 0.0963024,
  "ScanOptions": "FS",
  "ScanningSequence": "EP",
  "SequenceName": "epfid2d1_82",
  "SequenceVariant": "SK\\SS",
  "SeriesDescription": "func_run-01_task-social_acq-ap-mb8",
  "SeriesNumber": 8,
  "ShimSetting": [4153, -7890, -7276, 749, -83, -724, 253, 25],
  "SliceThickness": 2.7,
  "SliceTiming": [0, 0.25, 0.0625, 0.3125, 0.125, 0.3775, 0.1875, 0, 0.25, 0.0625, 0.3125, 0.125, 0.3775, 0.1875, 0, 0.25, 0.0625, 0.3125, 0.125, 0.3775, 0.1875, 0, 0.25, 0.0625, 0.3125, 0.125, 0.3775, 0.1875, 0, 0.25, 0.0625, 0.3125, 0.125, 0.3775, 0.1875, 0, 0.25, 0.0625, 0.3125, 0.125, 0.3775, 0.1875, 0, 0.25, 0.0625, 0.3125, 0.125, 0.3775, 0.1875, 0, 0.25, 0.0625, 0.3125, 0.125, 0.3775, 0.1875],
  "SoftwareVersions": "syngo MR E11",
  "SpacingBetweenSlices": 2.7,
  "StationName": "AWP66112",
  "TaskName": "social",
  "TotalReadoutTime": 0.03969,
  "TxRefAmp": 235.076,
  "WipMemBlock": "cb5622b2-5a88-4015-b995-4e1f96d30271||Sequence: R016 ve11e/master r/434b28f1; Aug  7 2019 18:53:46 by eja",
  "dcmmeta_affine": [
    [-2.67887544631958, 0.04161541908979416, 0.1422908753156662, 106.50147247314453],
    [0.05833085998892784, 2.6629698276519775, 0.3234267234802246, -106.35067749023438],
    [0.13535435497760773, -0.32397031784057617, 2.6767795085906982, -57.5254020690918],
    [0.0, 0.0, 0.0, 1.0]
],
  "dcmmeta_reorient_transform": [
    [0.0, -1.0, 0.0, 81.0],
    [1.0, 0.0, 0.0, 0.0],
    [0.0, 0.0, 1.0, 0.0],
    [0.0, 0.0, 0.0, 1.0]
],
  "dcmmeta_shape": [82, 82, 56, 872],
  "dcmmeta_slice_dim": 2,
  "dcmmeta_version": 0.6,
  "global": {
    "const": {
      "AccessionNumber": "A004117",
      "AcquisitionMatrix": [82, 0, 0, 82],
      "AngioFlag": "N",
      "BitsAllocated": 16,
      "BitsStored": 16,
      "BodyPartExamined": "BRAIN",
      "Columns": 656,
      "EchoNumbers": 1,
      "EchoTime": 27.2,
      "EchoTrainLength": 82,
      "FlipAngle": 44.0,
      "HighBit": 15,
      "ImageOrientationPatient": [0.99848989902381, -0.0217415015971, 0.05045025922368, 0.01551120147442, 0.99256144422229, 0.12075256548906],
      "ImagePositionPatient": [-890.65318547185, -856.88124724122, -215.5931740926],
      "ImageType": [
        "ORIGINAL",
        "PRIMARY",
        "M",
        "MB",
        "ND",
        "NORM",
        "MOSAIC"
],
      "ImagedNucleus": "1H",
      "ImagingFrequency": 123.25221,
      "InPlanePhaseEncodingDirection": "COL",
      "MRAcquisitionType": "2D",
      "MagneticFieldStrength": 3.0,
      "Manufacturer": "SIEMENS",
      "ManufacturerModelName": "Prisma",
      "Modality": "MR",
      "NumberOfAverages": 1.0,
      "NumberOfPhaseEncodingSteps": 82,
      "PercentPhaseFieldOfView": 100.0,
      "PercentSampling": 100.0,
      "PerformedProcedureStepStartTime": "204932.339000",
      "PhotometricInterpretation": "MONOCHROME2",
      "PixelBandwidth": 3050.0,
      "PixelRepresentation": 0,
      "PixelSpacing": [2.6829268932343, 2.6829268932343],
      "ProtocolName": "func_run-01_task-social_acq-ap-mb8",
      "RepetitionTime": 460.0,
      "Rows": 656,
      "SAR": 0.09630236336474,
      "SamplesPerPixel": 1,
      "ScanOptions": "FS",
      "ScanningSequence": "EP",
      "SequenceName": "epfid2d1_82",
      "SequenceVariant": [
        "SK",
        "SS"
],
      "SeriesDescription": "func_run-01_task-social_acq-ap-mb8",
      "SeriesNumber": 8,
      "SeriesTime": "210747.473000",
      "SliceLocation": -64.157510353542,
      "SliceThickness": 2.7000000476837,
      "SmallestImagePixelValue": 0,
      "SoftwareVersions": "syngo MR E11",
      "SpacingBetweenSlices": 2.7000000943778,
      "SpecificCharacterSet": "ISO_IR 100",
      "StudyID": "1",
      "StudyTime": "204932.253000",
      "TransmitCoilName": "Body",
      "VariableFlipAngleFlag": "N",
      "WindowCenterWidthExplanation": "Algo1"
    },
    "slices": {}
  },
  "time": {
    "samples": {
      "AcquisitionNumber": [1, 2, 3, 4, 5, 6, 7, 8, 9, 10, 11, 12, 13, 14, 15, 16, 17, 18, 19, 20, 21, 22, 23, 24, 25, 26, 27, 28, 29, 30, 31, 32, 33, 34, 35, 36, 37, 38, 39, 40, 41, 42, 43, 44, 45, 46, 47, 48, 49, 50, 51, 52, 53, 54, 55, 56, 57, 58, 59, 60, 61, 62, 63, 64, 65, 66, 67, 68, 69, 70, 71, 72, 73, 74, 75, 76, 77, 78, 79, 80, 81, 82, 83, 84, 85, 86, 87, 88, 89, 90, 91, 92, 93, 94, 95, 96, 97, 98, 99, 100, 101, 102, 103, 104, 105, 106, 107, 108, 109, 110, 111, 112, 113, 114, 115, 116, 117, 118, 119, 120, 121, 122, 123, 124, 125, 126, 127, 128, 129, 130, 131, 132, 133, 134, 135, 136, 137, 138, 139, 140, 141, 142, 143, 144, 145, 146, 147, 148, 149, 150, 151, 152, 153, 154, 155, 156, 157, 158, 159, 160, 161, 162, 163, 164, 165, 166, 167, 168, 169, 170, 171, 172, 173, 174, 175, 176, 177, 178, 179, 180, 181, 182, 183, 184, 185, 186, 187, 188, 189, 190, 191, 192, 193, 194, 195, 196, 197, 198, 199, 200, 201, 202, 203, 204, 205, 206, 207, 208, 209, 210, 211, 212, 213, 214, 215, 216, 217, 218, 219, 220, 221, 222, 223, 224, 225, 226, 227, 228, 229, 230, 231, 232, 233, 234, 235, 236, 237, 238, 239, 240, 241, 242, 243, 244, 245, 246, 247, 248, 249, 250, 251, 252, 253, 254, 255, 256, 257, 258, 259, 260, 261, 262, 263, 264, 265, 266, 267, 268, 269, 270, 271, 272, 273, 274, 275, 276, 277, 278, 279, 280, 281, 282, 283, 284, 285, 286, 287, 288, 289, 290, 291, 292, 293, 294, 295, 296, 297, 298, 299, 300, 301, 302, 303, 304, 305, 306, 307, 308, 309, 310, 311, 312, 313, 314, 315, 316, 317, 318, 319, 320, 321, 322, 323, 324, 325, 326, 327, 328, 329, 330, 331, 332, 333, 334, 335, 336, 337, 338, 339, 340, 341, 342, 343, 344, 345, 346, 347, 348, 349, 350, 351, 352, 353, 354, 355, 356, 357, 358, 359, 360, 361, 362, 363, 364, 365, 366, 367, 368, 369, 370, 371, 372, 373, 374, 375, 376, 377, 378, 379, 380, 381, 382, 383, 384, 385, 386, 387, 388, 389, 390, 391, 392, 393, 394, 395, 396, 397, 398, 399, 400, 401, 402, 403, 404, 405, 406, 407, 408, 409, 410, 411, 412, 413, 414, 415, 416, 417, 418, 419, 420, 421, 422, 423, 424, 425, 426, 427, 428, 429, 430, 431, 432, 433, 434, 435, 436, 437, 438, 439, 440, 441, 442, 443, 444, 445, 446, 447, 448, 449, 450, 451, 452, 453, 454, 455, 456, 457, 458, 459, 460, 461, 462, 463, 464, 465, 466, 467, 468, 469, 470, 471, 472, 473, 474, 475, 476, 477, 478, 479, 480, 481, 482, 483, 484, 485, 486, 487, 488, 489, 490, 491, 492, 493, 494, 495, 496, 497, 498, 499, 500, 501, 502, 503, 504, 505, 506, 507, 508, 509, 510, 511, 512, 513, 514, 515, 516, 517, 518, 519, 520, 521, 522, 523, 524, 525, 526, 527, 528, 529, 530, 531, 532, 533, 534, 535, 536, 537, 538, 539, 540, 541, 542, 543, 544, 545, 546, 547, 548, 549, 550, 551, 552, 553, 554, 555, 556, 557, 558, 559, 560, 561, 562, 563, 564, 565, 566, 567, 568, 569, 570, 571, 572, 573, 574, 575, 576, 577, 578, 579, 580, 581, 582, 583, 584, 585, 586, 587, 588, 589, 590, 591, 592, 593, 594, 595, 596, 597, 598, 599, 600, 601, 602, 603, 604, 605, 606, 607, 608, 609, 610, 611, 612, 613, 614, 615, 616, 617, 618, 619, 620, 621, 622, 623, 624, 625, 626, 627, 628, 629, 630, 631, 632, 633, 634, 635, 636, 637, 638, 639, 640, 641, 642, 643, 644, 645, 646, 647, 648, 649, 650, 651, 652, 653, 654, 655, 656, 657, 658, 659, 660, 661, 662, 663, 664, 665, 666, 667, 668, 669, 670, 671, 672, 673, 674, 675, 676, 677, 678, 679, 680, 681, 682, 683, 684, 685, 686, 687, 688, 689, 690, 691, 692, 693, 694, 695, 696, 697, 698, 699, 700, 701, 702, 703, 704, 705, 706, 707, 708, 709, 710, 711, 712, 713, 714, 715, 716, 717, 718, 719, 720, 721, 722, 723, 724, 725, 726, 727, 728, 729, 730, 731, 732, 733, 734, 735, 736, 737, 738, 739, 740, 741, 742, 743, 744, 745, 746, 747, 748, 749, 750, 751, 752, 753, 754, 755, 756, 757, 758, 759, 760, 761, 762, 763, 764, 765, 766, 767, 768, 769, 770, 771, 772, 773, 774, 775, 776, 777, 778, 779, 780, 781, 782, 783, 784, 785, 786, 787, 788, 789, 790, 791, 792, 793, 794, 795, 796, 797, 798, 799, 800, 801, 802, 803, 804, 805, 806, 807, 808, 809, 810, 811, 812, 813, 814, 815, 816, 817, 818, 819, 820, 821, 822, 823, 824, 825, 826, 827, 828, 829, 830, 831, 832, 833, 834, 835, 836, 837, 838, 839, 840, 841, 842, 843, 844, 845, 846, 847, 848, 849, 850, 851, 852, 853, 854, 855, 856, 857, 858, 859, 860, 861, 862, 863, 864, 865, 866, 867, 868, 869, 870, 871, 872],
      "AcquisitionTime": ["210736.252500", "210736.712500", "210737.172500", "210737.632500", "210738.092500", "210738.552500", "210739.012500", "210739.472500", "210739.932500", "210740.392500", "210740.852500", "210741.312500", "210741.772500", "210742.232500", "210742.692500", "210743.152500", "210743.612500", "210744.072500", "210744.532500", "210744.992500", "210745.452500", "210745.912500", "210746.372500", "210746.832500", "210747.292500", "210747.752500", "210748.212500", "210748.672500", "210749.132500", "210749.592500", "210750.052500", "210750.512500", "210750.972500", "210751.432500", "210751.892500", "210752.352500", "210752.812500", "210753.272500", "210753.732500", "210754.192500", "210754.652500", "210755.112500", "210755.572500", "210756.032500", "210756.492500", "210756.952500", "210757.412500", "210757.872500", "210758.332500", "210758.792500", "210759.252500", "210759.712500", "210800.172500", "210800.632500", "210801.092500", "210801.552500", "210802.012500", "210802.472500", "210802.932500", "210803.392500", "210803.852500", "210804.312500", "210804.772500", "210805.232500", "210805.692500", "210806.152500", "210806.612500", "210807.072500", "210807.532500", "210807.992500", "210808.452500", "210808.912500", "210809.372500", "210809.832500", "210810.292500", "210810.752500", "210811.212500", "210811.672500", "210812.132500", "210812.592500", "210813.052500", "210813.512500", "210813.972500", "210814.432500", "210814.892500", "210815.352500", "210815.812500", "210816.272500", "210816.732500", "210817.192500", "210817.652500", "210818.112500", "210818.572500", "210819.032500", "210819.492500", "210819.952500", "210820.412500", "210820.872500", "210821.332500", "210821.792500", "210822.252500", "210822.712500", "210823.172500", "210823.632500", "210824.092500", "210824.552500", "210825.012500", "210825.472500", "210825.932500", "210826.392500", "210826.852500", "210827.312500", "210827.772500", "210828.232500", "210828.692500", "210829.152500", "210829.612500", "210830.072500", "210830.532500", "210830.992500", "210831.452500", "210831.912500", "210832.372500", "210832.832500", "210833.292500", "210833.752500", "210834.212500", "210834.672500", "210835.132500", "210835.592500", "210836.052500", "210836.512500", "210836.972500", "210837.432500", "210837.892500", "210838.352500", "210838.812500", "210839.272500", "210839.732500", "210840.192500", "210840.652500", "210841.112500", "210841.572500", "210842.032500", "210842.492500", "210842.952500", "210843.412500", "210843.872500", "210844.332500", "210844.792500", "210845.252500", "210845.712500", "210846.172500", "210846.632500", "210847.092500", "210847.552500", "210848.012500", "210848.472500", "210848.932500", "210849.392500", "210849.852500", "210850.312500", "210850.772500", "210851.232500", "210851.692500", "210852.152500", "210852.612500", "210853.072500", "210853.532500", "210853.992500", "210854.452500", "210854.912500", "210855.372500", "210855.832500", "210856.292500", "210856.752500", "210857.212500", "210857.672500", "210858.132500", "210858.592500", "210859.052500", "210859.512500", "210859.972500", "210900.432500", "210900.892500", "210901.352500", "210901.812500", "210902.272500", "210902.732500", "210903.192500", "210903.652500", "210904.112500", "210904.572500", "210905.032500", "210905.492500", "210905.952500", "210906.412500", "210906.872500", "210907.332500", "210907.792500", "210908.252500", "210908.712500", "210909.172500", "210909.632500", "210910.092500", "210910.552500", "210911.012500", "210911.472500", "210911.932500", "210912.392500", "210912.852500", "210913.312500", "210913.772500", "210914.232500", "210914.692500", "210915.152500", "210915.612500", "210916.072500", "210916.532500", "210916.992500", "210917.452500", "210917.912500", "210918.372500", "210918.832500", "210919.292500", "210919.752500", "210920.212500", "210920.672500", "210921.132500", "210921.592500", "210922.052500", "210922.512500", "210922.972500", "210923.432500", "210923.892500", "210924.352500", "210924.812500", "210925.272500", "210925.732500", "210926.192500", "210926.652500", "210927.112500", "210927.572500", "210928.032500", "210928.492500", "210928.952500", "210929.412500", "210929.872500", "210930.332500", "210930.792500", "210931.252500", "210931.712500", "210932.172500", "210932.632500", "210933.092500", "210933.552500", "210934.012500", "210934.472500", "210934.932500", "210935.392500", "210935.852500", "210936.312500", "210936.772500", "210937.232500", "210937.692500", "210938.152500", "210938.612500", "210939.072500", "210939.532500", "210939.992500", "210940.452500", "210940.912500", "210941.372500", "210941.832500", "210942.292500", "210942.752500", "210943.212500", "210943.672500", "210944.132500", "210944.592500", "210945.052500", "210945.512500", "210945.972500", "210946.432500", "210946.892500", "210947.352500", "210947.812500", "210948.272500", "210948.732500", "210949.192500", "210949.652500", "210950.112500", "210950.572500", "210951.032500", "210951.492500", "210951.952500", "210952.412500", "210952.872500", "210953.332500", "210953.792500", "210954.252500", "210954.712500", "210955.172500", "210955.632500", "210956.092500", "210956.552500", "210957.012500", "210957.472500", "210957.932500", "210958.392500", "210958.852500", "210959.312500", "210959.772500", "211000.232500", "211000.692500", "211001.152500", "211001.612500", "211002.072500", "211002.532500", "211002.992500", "211003.452500", "211003.912500", "211004.372500", "211004.832500", "211005.292500", "211005.752500", "211006.212500", "211006.672500", "211007.132500", "211007.592500", "211008.052500", "211008.512500", "211008.972500", "211009.432500", "211009.892500", "211010.352500", "211010.812500", "211011.272500", "211011.732500", "211012.192500", "211012.652500", "211013.112500", "211013.572500", "211014.032500", "211014.492500", "211014.952500", "211015.412500", "211015.872500", "211016.332500", "211016.792500", "211017.252500", "211017.712500", "211018.172500", "211018.632500", "211019.092500", "211019.552500", "211020.012500", "211020.472500", "211020.932500", "211021.392500", "211021.852500", "211022.312500", "211022.772500", "211023.232500", "211023.692500", "211024.152500", "211024.612500", "211025.072500", "211025.532500", "211025.992500", "211026.452500", "211026.912500", "211027.372500", "211027.832500", "211028.292500", "211028.752500", "211029.212500", "211029.672500", "211030.132500", "211030.592500", "211031.052500", "211031.512500", "211031.972500", "211032.432500", "211032.892500", "211033.352500", "211033.812500", "211034.272500", "211034.732500", "211035.192500", "211035.652500", "211036.112500", "211036.572500", "211037.032500", "211037.492500", "211037.952500", "211038.412500", "211038.872500", "211039.332500", "211039.792500", "211040.252500", "211040.712500", "211041.172500", "211041.632500", "211042.092500", "211042.552500", "211043.012500", "211043.472500", "211043.932500", "211044.392500", "211044.852500", "211045.312500", "211045.772500", "211046.232500", "211046.692500", "211047.152500", "211047.612500", "211048.072500", "211048.532500", "211048.992500", "211049.452500", "211049.912500", "211050.372500", "211050.832500", "211051.292500", "211051.752500", "211052.212500", "211052.672500", "211053.132500", "211053.592500", "211054.052500", "211054.512500", "211054.972500", "211055.432500", "211055.892500", "211056.352500", "211056.812500", "211057.272500", "211057.732500", "211058.192500", "211058.652500", "211059.112500", "211059.572500", "211100.032500", "211100.492500", "211100.952500", "211101.412500", "211101.872500", "211102.332500", "211102.792500", "211103.252500", "211103.712500", "211104.172500", "211104.632500", "211105.092500", "211105.552500", "211106.012500", "211106.472500", "211106.932500", "211107.392500", "211107.852500", "211108.312500", "211108.772500", "211109.232500", "211109.692500", "211110.152500", "211110.612500", "211111.072500", "211111.532500", "211111.992500", "211112.452500", "211112.912500", "211113.372500", "211113.832500", "211114.292500", "211114.752500", "211115.212500", "211115.672500", "211116.132500", "211116.592500", "211117.052500", "211117.512500", "211117.972500", "211118.432500", "211118.892500", "211119.352500", "211119.812500", "211120.272500", "211120.732500", "211121.192500", "211121.652500", "211122.112500", "211122.572500", "211123.032500", "211123.492500", "211123.952500", "211124.412500", "211124.872500", "211125.332500", "211125.792500", "211126.252500", "211126.712500", "211127.172500", "211127.632500", "211128.092500", "211128.552500", "211129.012500", "211129.472500", "211129.932500", "211130.392500", "211130.852500", "211131.312500", "211131.772500", "211132.232500", "211132.692500", "211133.152500", "211133.612500", "211134.072500", "211134.532500", "211134.992500", "211135.452500", "211135.912500", "211136.372500", "211136.832500", "211137.292500", "211137.752500", "211138.212500", "211138.672500", "211139.132500", "211139.592500", "211140.052500", "211140.512500", "211140.972500", "211141.432500", "211141.892500", "211142.352500", "211142.812500", "211143.272500", "211143.732500", "211144.192500", "211144.652500", "211145.112500", "211145.572500", "211146.032500", "211146.492500", "211146.952500", "211147.412500", "211147.872500", "211148.332500", "211148.792500", "211149.252500", "211149.712500", "211150.172500", "211150.632500", "211151.092500", "211151.552500", "211152.012500", "211152.472500", "211152.932500", "211153.392500", "211153.852500", "211154.312500", "211154.772500", "211155.232500", "211155.692500", "211156.152500", "211156.612500", "211157.072500", "211157.532500", "211157.992500", "211158.452500", "211158.912500", "211159.372500", "211159.832500", "211200.292500", "211200.752500", "211201.212500", "211201.672500", "211202.132500", "211202.592500", "211203.052500", "211203.512500", "211203.972500", "211204.432500", "211204.892500", "211205.352500", "211205.812500", "211206.272500", "211206.732500", "211207.192500", "211207.652500", "211208.112500", "211208.572500", "211209.032500", "211209.492500", "211209.952500", "211210.412500", "211210.872500", "211211.332500", "211211.792500", "211212.252500", "211212.712500", "211213.172500", "211213.632500", "211214.092500", "211214.552500", "211215.012500", "211215.472500", "211215.932500", "211216.392500", "211216.852500", "211217.312500", "211217.772500", "211218.232500", "211218.692500", "211219.152500", "211219.612500", "211220.072500", "211220.532500", "211220.992500", "211221.452500", "211221.912500", "211222.372500", "211222.832500", "211223.292500", "211223.752500", "211224.212500", "211224.672500", "211225.132500", "211225.592500", "211226.052500", "211226.512500", "211226.972500", "211227.432500", "211227.892500", "211228.352500", "211228.812500", "211229.272500", "211229.732500", "211230.192500", "211230.652500", "211231.112500", "211231.572500", "211232.032500", "211232.492500", "211232.952500", "211233.412500", "211233.872500", "211234.332500", "211234.792500", "211235.252500", "211235.712500", "211236.172500", "211236.632500", "211237.092500", "211237.552500", "211238.012500", "211238.472500", "211238.932500", "211239.392500", "211239.852500", "211240.312500", "211240.772500", "211241.232500", "211241.692500", "211242.152500", "211242.612500", "211243.072500", "211243.532500", "211243.992500", "211244.452500", "211244.912500", "211245.372500", "211245.832500", "211246.292500", "211246.752500", "211247.212500", "211247.672500", "211248.132500", "211248.592500", "211249.052500", "211249.512500", "211249.972500", "211250.432500", "211250.892500", "211251.352500", "211251.812500", "211252.272500", "211252.732500", "211253.192500", "211253.652500", "211254.112500", "211254.572500", "211255.032500", "211255.492500", "211255.952500", "211256.412500", "211256.872500", "211257.332500", "211257.792500", "211258.252500", "211258.712500", "211259.172500", "211259.632500", "211300.092500", "211300.552500", "211301.012500", "211301.472500", "211301.932500", "211302.392500", "211302.852500", "211303.312500", "211303.772500", "211304.232500", "211304.692500", "211305.152500", "211305.612500", "211306.072500", "211306.532500", "211306.992500", "211307.452500", "211307.912500", "211308.372500", "211308.832500", "211309.292500", "211309.752500", "211310.212500", "211310.672500", "211311.132500", "211311.592500", "211312.052500", "211312.512500", "211312.972500", "211313.432500", "211313.892500", "211314.352500", "211314.812500", "211315.272500", "211315.732500", "211316.192500", "211316.652500", "211317.112500", "211317.572500", "211318.032500", "211318.492500", "211318.952500", "211319.412500", "211319.872500", "211320.332500", "211320.792500", "211321.252500", "211321.712500", "211322.172500", "211322.632500", "211323.092500", "211323.552500", "211324.012500", "211324.472500", "211324.932500", "211325.392500", "211325.852500", "211326.312500", "211326.772500", "211327.232500", "211327.692500", "211328.152500", "211328.612500", "211329.072500", "211329.532500", "211329.992500", "211330.452500", "211330.912500", "211331.372500", "211331.832500", "211332.292500", "211332.752500", "211333.212500", "211333.672500", "211334.132500", "211334.592500", "211335.052500", "211335.512500", "211335.972500", "211336.432500", "211336.892500", "211337.352500", "211337.812500", "211338.272500", "211338.732500", "211339.192500", "211339.652500", "211340.112500", "211340.572500", "211341.032500", "211341.492500", "211341.952500", "211342.412500", "211342.872500", "211343.332500", "211343.792500", "211344.252500", "211344.712500", "211345.172500", "211345.632500", "211346.092500", "211346.552500", "211347.012500", "211347.472500", "211347.932500", "211348.392500", "211348.852500", "211349.312500", "211349.772500", "211350.232500", "211350.692500", "211351.152500", "211351.612500", "211352.072500", "211352.532500", "211352.992500", "211353.452500", "211353.912500", "211354.372500", "211354.832500", "211355.292500", "211355.752500", "211356.212500", "211356.672500", "211357.132500", "211357.592500", "211358.052500", "211358.512500", "211358.972500", "211359.432500", "211359.892500", "211400.352500", "211400.812500", "211401.272500", "211401.732500", "211402.192500", "211402.652500", "211403.112500", "211403.572500", "211404.032500", "211404.492500", "211404.952500", "211405.412500", "211405.872500", "211406.332500", "211406.792500", "211407.252500", "211407.712500", "211408.172500", "211408.632500", "211409.092500", "211409.552500", "211410.012500", "211410.472500", "211410.932500", "211411.392500", "211411.852500", "211412.312500", "211412.772500", "211413.232500", "211413.692500", "211414.152500", "211414.612500", "211415.072500", "211415.532500", "211415.992500", "211416.452500", "211416.912500"],
