{
  "AcquisitionMatrixPE": 82,
  "AcquisitionNumber": 1,
  "AcquisitionTime": "21:31:1.367500",
  "BandwidthPerPixelPhaseEncode": 24.888,
  "BaseResolution": 82,
  "BodyPartExamined": "BRAIN",
  "ConsistencyInfo": "N4_VE11E_LATEST_20181129",
  "ConversionSoftware": "dcm2niix",
  "ConversionSoftwareVersion": "v1.0.20201102",
  "DerivedVendorReportedEchoSpacing": 0.00049,
  "DeviceSerialNumber": "66112",
  "DwellTime": 2e-06,
  "EchoTime": 0.0272,
  "EchoTrainLength": 82,
  "EffectiveEchoSpacing": 0.00049,
  "FlipAngle": 44,
  "ImageComments": "Unaliased MB8/PE3",
  "ImageOrientationPatientDICOM": [0.99849, -0.0217415, 0.0504503, 0.0155112, 0.992561, 0.120753],
  "ImageType": [
    "ORIGINAL",
    "PRIMARY",
    "M",
    "MB",
    "ND",
    "NORM",
    "MOSAIC"
],
  "ImagingFrequency": 123.252,
  "InPlanePhaseEncodingDirectionDICOM": "COL",
  "InstitutionAddress": "Maynard 3,Hanover,NH,US,03755",
  "InstitutionName": "Dartmouth College - PBS",
  "InstitutionalDepartmentName": "Department",
  "MRAcquisitionType": "2D",
  "MagneticFieldStrength": 3,
  "Manufacturer": "Siemens",
  "ManufacturersModelName": "Prisma",
  "Modality": "MR",
  "MultibandAccelerationFactor": 8,
  "PartialFourier": 1,
  "PatientPosition": "HFS",
  "PercentPhaseFOV": 100,
  "PercentSampling": 100,
  "PhaseEncodingDirection": "j-",
  "PhaseEncodingSteps": 82,
  "PhaseResolution": 1,
  "PixelBandwidth": 3050,
  "ProcedureStepDescription": "Wager_Wager^1076_spacetop",
  "ProtocolName": "func_run-04_task-social_acq-ap-mb8",
  "PulseSequenceDetails": "%CustomerSeq%\\cmrr_mbep2d_bold",
  "ReceiveCoilActiveElements": "HEA;HEP",
  "ReceiveCoilName": "Head_32",
  "ReconMatrixPE": 82,
  "RepetitionTime": 0.46,
  "SAR": 0.0963024,
  "ScanOptions": "FS",
  "ScanningSequence": "EP",
  "SequenceName": "epfid2d1_82",
  "SequenceVariant": "SK\\SS",
  "SeriesDescription": "func_run-04_task-social_acq-ap-mb8",
  "SeriesNumber": 14,
  "ShimSetting": [4153, -7890, -7276, 749, -83, -724, 253, 25],
  "SliceThickness": 2.7,
  "SliceTiming": [0, 0.2525, 0.0625, 0.315, 0.1275, 0.3775, 0.19, 0, 0.2525, 0.0625, 0.315, 0.1275, 0.3775, 0.19, 0, 0.2525, 0.0625, 0.315, 0.1275, 0.3775, 0.19, 0, 0.2525, 0.0625, 0.315, 0.1275, 0.3775, 0.19, 0, 0.2525, 0.0625, 0.315, 0.1275, 0.3775, 0.19, 0, 0.2525, 0.0625, 0.315, 0.1275, 0.3775, 0.19, 0, 0.2525, 0.0625, 0.315, 0.1275, 0.3775, 0.19, 0, 0.2525, 0.0625, 0.315, 0.1275, 0.3775, 0.19],
  "SoftwareVersions": "syngo MR E11",
  "SpacingBetweenSlices": 2.7,
  "StationName": "AWP66112",
  "TaskName": "social",
  "TotalReadoutTime": 0.03969,
  "TxRefAmp": 235.076,
  "WipMemBlock": "79124a57-b892-441b-aba1-ace7aa8a9dcc||Sequence: R016 ve11e/master r/434b28f1; Aug  7 2019 18:53:46 by eja",
  "dcmmeta_affine": [
    [-2.67887544631958, 0.04161541908979416, 0.1422908753156662, 106.50147247314453],
    [0.05833085998892784, 2.6629698276519775, 0.3234267234802246, -106.35067749023438],
    [0.13535435497760773, -0.32397031784057617, 2.6767795085906982, -57.5254020690918],
    [0.0, 0.0, 0.0, 1.0]
],
  "dcmmeta_reorient_transform": [
    [0.0, -1.0, 0.0, 81.0],
    [1.0, 0.0, 0.0, 0.0],
    [0.0, 0.0, 1.0, 0.0],
    [0.0, 0.0, 0.0, 1.0]
],
  "dcmmeta_shape": [82, 82, 56, 872],
  "dcmmeta_slice_dim": 2,
  "dcmmeta_version": 0.6,
  "global": {
    "const": {
      "AccessionNumber": "A004117",
      "AcquisitionMatrix": [82, 0, 0, 82],
      "AngioFlag": "N",
      "BitsAllocated": 16,
      "BitsStored": 16,
      "BodyPartExamined": "BRAIN",
      "Columns": 656,
      "EchoNumbers": 1,
      "EchoTime": 27.2,
      "EchoTrainLength": 82,
      "FlipAngle": 44.0,
      "HighBit": 15,
      "ImageOrientationPatient": [0.99848989902381, -0.0217415015971, 0.05045025922368, 0.01551120147442, 0.99256144422229, 0.12075256548906],
      "ImagePositionPatient": [-890.65318547185, -856.88124724122, -215.5931740926],
      "ImageType": [
        "ORIGINAL",
        "PRIMARY",
        "M",
        "MB",
        "ND",
        "NORM",
        "MOSAIC"
],
      "ImagedNucleus": "1H",
      "ImagingFrequency": 123.252225,
      "InPlanePhaseEncodingDirection": "COL",
      "MRAcquisitionType": "2D",
      "MagneticFieldStrength": 3.0,
      "Manufacturer": "SIEMENS",
      "ManufacturerModelName": "Prisma",
      "Modality": "MR",
      "NumberOfAverages": 1.0,
      "NumberOfPhaseEncodingSteps": 82,
      "PercentPhaseFieldOfView": 100.0,
      "PercentSampling": 100.0,
      "PerformedProcedureStepStartTime": "204932.339000",
      "PhotometricInterpretation": "MONOCHROME2",
      "PixelBandwidth": 3050.0,
      "PixelRepresentation": 0,
      "PixelSpacing": [2.6829268932343, 2.6829268932343],
      "ProtocolName": "func_run-04_task-social_acq-ap-mb8",
      "RepetitionTime": 460.0,
      "Rows": 656,
      "SAR": 0.09630236336474,
      "SamplesPerPixel": 1,
      "ScanOptions": "FS",
      "ScanningSequence": "EP",
      "SequenceName": "epfid2d1_82",
      "SequenceVariant": [
        "SK",
        "SS"
],
      "SeriesDescription": "func_run-04_task-social_acq-ap-mb8",
      "SeriesNumber": 14,
      "SeriesTime": "213107.461000",
      "SliceLocation": -64.157510353542,
      "SliceThickness": 2.7000000476837,
      "SmallestImagePixelValue": 0,
      "SoftwareVersions": "syngo MR E11",
      "SpacingBetweenSlices": 2.7000000943778,
      "SpecificCharacterSet": "ISO_IR 100",
      "StudyID": "1",
      "StudyTime": "204932.253000",
      "TransmitCoilName": "Body",
      "VariableFlipAngleFlag": "N",
      "WindowCenterWidthExplanation": "Algo1"
    },
    "slices": {}
  },
  "time": {
    "samples": {
      "AcquisitionNumber": [1, 2, 3, 4, 5, 6, 7, 8, 9, 10, 11, 12, 13, 14, 15, 16, 17, 18, 19, 20, 21, 22, 23, 24, 25, 26, 27, 28, 29, 30, 31, 32, 33, 34, 35, 36, 37, 38, 39, 40, 41, 42, 43, 44, 45, 46, 47, 48, 49, 50, 51, 52, 53, 54, 55, 56, 57, 58, 59, 60, 61, 62, 63, 64, 65, 66, 67, 68, 69, 70, 71, 72, 73, 74, 75, 76, 77, 78, 79, 80, 81, 82, 83, 84, 85, 86, 87, 88, 89, 90, 91, 92, 93, 94, 95, 96, 97, 98, 99, 100, 101, 102, 103, 104, 105, 106, 107, 108, 109, 110, 111, 112, 113, 114, 115, 116, 117, 118, 119, 120, 121, 122, 123, 124, 125, 126, 127, 128, 129, 130, 131, 132, 133, 134, 135, 136, 137, 138, 139, 140, 141, 142, 143, 144, 145, 146, 147, 148, 149, 150, 151, 152, 153, 154, 155, 156, 157, 158, 159, 160, 161, 162, 163, 164, 165, 166, 167, 168, 169, 170, 171, 172, 173, 174, 175, 176, 177, 178, 179, 180, 181, 182, 183, 184, 185, 186, 187, 188, 189, 190, 191, 192, 193, 194, 195, 196, 197, 198, 199, 200, 201, 202, 203, 204, 205, 206, 207, 208, 209, 210, 211, 212, 213, 214, 215, 216, 217, 218, 219, 220, 221, 222, 223, 224, 225, 226, 227, 228, 229, 230, 231, 232, 233, 234, 235, 236, 237, 238, 239, 240, 241, 242, 243, 244, 245, 246, 247, 248, 249, 250, 251, 252, 253, 254, 255, 256, 257, 258, 259, 260, 261, 262, 263, 264, 265, 266, 267, 268, 269, 270, 271, 272, 273, 274, 275, 276, 277, 278, 279, 280, 281, 282, 283, 284, 285, 286, 287, 288, 289, 290, 291, 292, 293, 294, 295, 296, 297, 298, 299, 300, 301, 302, 303, 304, 305, 306, 307, 308, 309, 310, 311, 312, 313, 314, 315, 316, 317, 318, 319, 320, 321, 322, 323, 324, 325, 326, 327, 328, 329, 330, 331, 332, 333, 334, 335, 336, 337, 338, 339, 340, 341, 342, 343, 344, 345, 346, 347, 348, 349, 350, 351, 352, 353, 354, 355, 356, 357, 358, 359, 360, 361, 362, 363, 364, 365, 366, 367, 368, 369, 370, 371, 372, 373, 374, 375, 376, 377, 378, 379, 380, 381, 382, 383, 384, 385, 386, 387, 388, 389, 390, 391, 392, 393, 394, 395, 396, 397, 398, 399, 400, 401, 402, 403, 404, 405, 406, 407, 408, 409, 410, 411, 412, 413, 414, 415, 416, 417, 418, 419, 420, 421, 422, 423, 424, 425, 426, 427, 428, 429, 430, 431, 432, 433, 434, 435, 436, 437, 438, 439, 440, 441, 442, 443, 444, 445, 446, 447, 448, 449, 450, 451, 452, 453, 454, 455, 456, 457, 458, 459, 460, 461, 462, 463, 464, 465, 466, 467, 468, 469, 470, 471, 472, 473, 474, 475, 476, 477, 478, 479, 480, 481, 482, 483, 484, 485, 486, 487, 488, 489, 490, 491, 492, 493, 494, 495, 496, 497, 498, 499, 500, 501, 502, 503, 504, 505, 506, 507, 508, 509, 510, 511, 512, 513, 514, 515, 516, 517, 518, 519, 520, 521, 522, 523, 524, 525, 526, 527, 528, 529, 530, 531, 532, 533, 534, 535, 536, 537, 538, 539, 540, 541, 542, 543, 544, 545, 546, 547, 548, 549, 550, 551, 552, 553, 554, 555, 556, 557, 558, 559, 560, 561, 562, 563, 564, 565, 566, 567, 568, 569, 570, 571, 572, 573, 574, 575, 576, 577, 578, 579, 580, 581, 582, 583, 584, 585, 586, 587, 588, 589, 590, 591, 592, 593, 594, 595, 596, 597, 598, 599, 600, 601, 602, 603, 604, 605, 606, 607, 608, 609, 610, 611, 612, 613, 614, 615, 616, 617, 618, 619, 620, 621, 622, 623, 624, 625, 626, 627, 628, 629, 630, 631, 632, 633, 634, 635, 636, 637, 638, 639, 640, 641, 642, 643, 644, 645, 646, 647, 648, 649, 650, 651, 652, 653, 654, 655, 656, 657, 658, 659, 660, 661, 662, 663, 664, 665, 666, 667, 668, 669, 670, 671, 672, 673, 674, 675, 676, 677, 678, 679, 680, 681, 682, 683, 684, 685, 686, 687, 688, 689, 690, 691, 692, 693, 694, 695, 696, 697, 698, 699, 700, 701, 702, 703, 704, 705, 706, 707, 708, 709, 710, 711, 712, 713, 714, 715, 716, 717, 718, 719, 720, 721, 722, 723, 724, 725, 726, 727, 728, 729, 730, 731, 732, 733, 734, 735, 736, 737, 738, 739, 740, 741, 742, 743, 744, 745, 746, 747, 748, 749, 750, 751, 752, 753, 754, 755, 756, 757, 758, 759, 760, 761, 762, 763, 764, 765, 766, 767, 768, 769, 770, 771, 772, 773, 774, 775, 776, 777, 778, 779, 780, 781, 782, 783, 784, 785, 786, 787, 788, 789, 790, 791, 792, 793, 794, 795, 796, 797, 798, 799, 800, 801, 802, 803, 804, 805, 806, 807, 808, 809, 810, 811, 812, 813, 814, 815, 816, 817, 818, 819, 820, 821, 822, 823, 824, 825, 826, 827, 828, 829, 830, 831, 832, 833, 834, 835, 836, 837, 838, 839, 840, 841, 842, 843, 844, 845, 846, 847, 848, 849, 850, 851, 852, 853, 854, 855, 856, 857, 858, 859, 860, 861, 862, 863, 864, 865, 866, 867, 868, 869, 870, 871, 872],
      "AcquisitionTime": ["213101.367500", "213101.827500", "213102.287500", "213102.747500", "213103.207500", "213103.667500", "213104.127500", "213104.587500", "213105.047500", "213105.507500", "213105.967500", "213106.427500", "213106.887500", "213107.347500", "213107.807500", "213108.267500", "213108.727500", "213109.187500", "213109.647500", "213110.107500", "213110.567500", "213111.027500", "213111.487500", "213111.947500", "213112.407500", "213112.867500", "213113.327500", "213113.787500", "213114.247500", "213114.707500", "213115.167500", "213115.627500", "213116.087500", "213116.547500", "213117.007500", "213117.467500", "213117.927500", "213118.387500", "213118.847500", "213119.307500", "213119.767500", "213120.227500", "213120.687500", "213121.147500", "213121.607500", "213122.067500", "213122.527500", "213122.987500", "213123.447500", "213123.907500", "213124.367500", "213124.827500", "213125.287500", "213125.747500", "213126.207500", "213126.667500", "213127.127500", "213127.587500", "213128.047500", "213128.507500", "213128.967500", "213129.427500", "213129.887500", "213130.347500", "213130.807500", "213131.267500", "213131.727500", "213132.187500", "213132.647500", "213133.107500", "213133.567500", "213134.027500", "213134.487500", "213134.947500", "213135.407500", "213135.867500", "213136.327500", "213136.787500", "213137.247500", "213137.707500", "213138.167500", "213138.627500", "213139.087500", "213139.547500", "213140.007500", "213140.467500", "213140.927500", "213141.387500", "213141.847500", "213142.307500", "213142.767500", "213143.227500", "213143.687500", "213144.147500", "213144.607500", "213145.067500", "213145.527500", "213145.987500", "213146.447500", "213146.907500", "213147.367500", "213147.827500", "213148.287500", "213148.747500", "213149.207500", "213149.667500", "213150.127500", "213150.587500", "213151.047500", "213151.507500", "213151.967500", "213152.427500", "213152.887500", "213153.347500", "213153.807500", "213154.267500", "213154.727500", "213155.187500", "213155.647500", "213156.107500", "213156.567500", "213157.027500", "213157.487500", "213157.947500", "213158.407500", "213158.867500", "213159.327500", "213159.787500", "213200.247500", "213200.707500", "213201.167500", "213201.627500", "213202.087500", "213202.547500", "213203.007500", "213203.467500", "213203.927500", "213204.387500", "213204.847500", "213205.307500", "213205.767500", "213206.227500", "213206.687500", "213207.147500", "213207.607500", "213208.067500", "213208.527500", "213208.987500", "213209.447500", "213209.907500", "213210.367500", "213210.827500", "213211.287500", "213211.747500", "213212.207500", "213212.667500", "213213.127500", "213213.587500", "213214.047500", "213214.507500", "213214.967500", "213215.427500", "213215.887500", "213216.347500", "213216.807500", "213217.267500", "213217.727500", "213218.187500", "213218.647500", "213219.107500", "213219.567500", "213220.027500", "213220.487500", "213220.947500", "213221.407500", "213221.867500", "213222.327500", "213222.787500", "213223.247500", "213223.707500", "213224.167500", "213224.627500", "213225.087500", "213225.547500", "213226.007500", "213226.467500", "213226.927500", "213227.387500", "213227.847500", "213228.307500", "213228.767500", "213229.227500", "213229.687500", "213230.147500", "213230.607500", "213231.067500", "213231.527500", "213231.987500", "213232.447500", "213232.907500", "213233.367500", "213233.827500", "213234.287500", "213234.747500", "213235.207500", "213235.667500", "213236.127500", "213236.587500", "213237.047500", "213237.507500", "213237.967500", "213238.427500", "213238.887500", "213239.347500", "213239.807500", "213240.267500", "213240.727500", "213241.187500", "213241.647500", "213242.107500", "213242.567500", "213243.027500", "213243.487500", "213243.947500", "213244.407500", "213244.867500", "213245.327500", "213245.787500", "213246.247500", "213246.707500", "213247.167500", "213247.627500", "213248.087500", "213248.547500", "213249.007500", "213249.467500", "213249.927500", "213250.387500", "213250.847500", "213251.307500", "213251.767500", "213252.227500", "213252.687500", "213253.147500", "213253.607500", "213254.067500", "213254.527500", "213254.987500", "213255.447500", "213255.907500", "213256.367500", "213256.827500", "213257.287500", "213257.747500", "213258.207500", "213258.667500", "213259.127500", "213259.587500", "213300.047500", "213300.507500", "213300.967500", "213301.427500", "213301.887500", "213302.347500", "213302.807500", "213303.267500", "213303.727500", "213304.187500", "213304.647500", "213305.107500", "213305.567500", "213306.027500", "213306.487500", "213306.947500", "213307.407500", "213307.867500", "213308.327500", "213308.787500", "213309.247500", "213309.707500", "213310.167500", "213310.627500", "213311.087500", "213311.547500", "213312.007500", "213312.467500", "213312.927500", "213313.387500", "213313.847500", "213314.307500", "213314.767500", "213315.227500", "213315.687500", "213316.147500", "213316.607500", "213317.067500", "213317.527500", "213317.987500", "213318.447500", "213318.907500", "213319.367500", "213319.827500", "213320.287500", "213320.747500", "213321.207500", "213321.667500", "213322.127500", "213322.587500", "213323.047500", "213323.507500", "213323.967500", "213324.427500", "213324.887500", "213325.347500", "213325.807500", "213326.267500", "213326.727500", "213327.187500", "213327.647500", "213328.107500", "213328.567500", "213329.027500", "213329.487500", "213329.947500", "213330.407500", "213330.867500", "213331.327500", "213331.787500", "213332.247500", "213332.707500", "213333.167500", "213333.627500", "213334.087500", "213334.547500", "213335.007500", "213335.467500", "213335.927500", "213336.387500", "213336.847500", "213337.307500", "213337.767500", "213338.227500", "213338.687500", "213339.147500", "213339.607500", "213340.067500", "213340.527500", "213340.987500", "213341.447500", "213341.907500", "213342.367500", "213342.827500", "213343.287500", "213343.747500", "213344.207500", "213344.667500", "213345.127500", "213345.587500", "213346.047500", "213346.507500", "213346.967500", "213347.427500", "213347.887500", "213348.347500", "213348.807500", "213349.267500", "213349.727500", "213350.187500", "213350.647500", "213351.107500", "213351.567500", "213352.027500", "213352.487500", "213352.947500", "213353.407500", "213353.867500", "213354.327500", "213354.787500", "213355.247500", "213355.707500", "213356.167500", "213356.627500", "213357.087500", "213357.547500", "213358.007500", "213358.467500", "213358.927500", "213359.387500", "213359.847500", "213400.307500", "213400.767500", "213401.227500", "213401.687500", "213402.147500", "213402.607500", "213403.067500", "213403.527500", "213403.987500", "213404.447500", "213404.907500", "213405.367500", "213405.827500", "213406.287500", "213406.747500", "213407.207500", "213407.667500", "213408.127500", "213408.587500", "213409.047500", "213409.507500", "213409.967500", "213410.427500", "213410.887500", "213411.347500", "213411.807500", "213412.267500", "213412.727500", "213413.187500", "213413.647500", "213414.107500", "213414.567500", "213415.027500", "213415.487500", "213415.947500", "213416.407500", "213416.867500", "213417.327500", "213417.787500", "213418.247500", "213418.707500", "213419.167500", "213419.627500", "213420.087500", "213420.547500", "213421.007500", "213421.467500", "213421.927500", "213422.387500", "213422.847500", "213423.307500", "213423.767500", "213424.227500", "213424.687500", "213425.147500", "213425.607500", "213426.067500", "213426.527500", "213426.987500", "213427.447500", "213427.907500", "213428.367500", "213428.827500", "213429.287500", "213429.747500", "213430.207500", "213430.667500", "213431.127500", "213431.587500", "213432.047500", "213432.507500", "213432.967500", "213433.427500", "213433.887500", "213434.347500", "213434.807500", "213435.267500", "213435.727500", "213436.187500", "213436.647500", "213437.107500", "213437.567500", "213438.027500", "213438.487500", "213438.947500", "213439.407500", "213439.867500", "213440.327500", "213440.787500", "213441.247500", "213441.707500", "213442.167500", "213442.627500", "213443.087500", "213443.547500", "213444.007500", "213444.467500", "213444.927500", "213445.387500", "213445.847500", "213446.307500", "213446.767500", "213447.227500", "213447.687500", "213448.147500", "213448.607500", "213449.067500", "213449.527500", "213449.987500", "213450.447500", "213450.907500", "213451.367500", "213451.827500", "213452.287500", "213452.747500", "213453.207500", "213453.667500", "213454.127500", "213454.587500", "213455.047500", "213455.507500", "213455.967500", "213456.427500", "213456.887500", "213457.347500", "213457.807500", "213458.267500", "213458.727500", "213459.187500", "213459.647500", "213500.107500", "213500.567500", "213501.027500", "213501.487500", "213501.947500", "213502.407500", "213502.867500", "213503.327500", "213503.787500", "213504.247500", "213504.707500", "213505.167500", "213505.627500", "213506.087500", "213506.547500", "213507.007500", "213507.467500", "213507.927500", "213508.387500", "213508.847500", "213509.307500", "213509.767500", "213510.227500", "213510.687500", "213511.147500", "213511.607500", "213512.067500", "213512.527500", "213512.987500", "213513.447500", "213513.907500", "213514.367500", "213514.827500", "213515.287500", "213515.747500", "213516.207500", "213516.667500", "213517.127500", "213517.587500", "213518.047500", "213518.507500", "213518.967500", "213519.427500", "213519.887500", "213520.347500", "213520.807500", "213521.267500", "213521.727500", "213522.187500", "213522.647500", "213523.107500", "213523.567500", "213524.027500", "213524.487500", "213524.947500", "213525.407500", "213525.867500", "213526.327500", "213526.787500", "213527.247500", "213527.707500", "213528.167500", "213528.627500", "213529.087500", "213529.547500", "213530.007500", "213530.467500", "213530.927500", "213531.387500", "213531.847500", "213532.307500", "213532.767500", "213533.227500", "213533.687500", "213534.147500", "213534.607500", "213535.067500", "213535.527500", "213535.987500", "213536.447500", "213536.907500", "213537.367500", "213537.827500", "213538.287500", "213538.747500", "213539.207500", "213539.667500", "213540.127500", "213540.587500", "213541.047500", "213541.507500", "213541.967500", "213542.427500", "213542.887500", "213543.347500", "213543.807500", "213544.267500", "213544.727500", "213545.187500", "213545.647500", "213546.107500", "213546.567500", "213547.027500", "213547.487500", "213547.947500", "213548.407500", "213548.867500", "213549.327500", "213549.787500", "213550.247500", "213550.707500", "213551.167500", "213551.627500", "213552.087500", "213552.547500", "213553.007500", "213553.467500", "213553.927500", "213554.387500", "213554.847500", "213555.307500", "213555.767500", "213556.227500", "213556.687500", "213557.147500", "213557.607500", "213558.067500", "213558.527500", "213558.987500", "213559.447500", "213559.907500", "213600.367500", "213600.827500", "213601.287500", "213601.747500", "213602.207500", "213602.667500", "213603.127500", "213603.587500", "213604.047500", "213604.507500", "213604.967500", "213605.427500", "213605.887500", "213606.347500", "213606.807500", "213607.267500", "213607.727500", "213608.187500", "213608.647500", "213609.107500", "213609.567500", "213610.027500", "213610.487500", "213610.947500", "213611.407500", "213611.867500", "213612.327500", "213612.787500", "213613.247500", "213613.707500", "213614.167500", "213614.627500", "213615.087500", "213615.547500", "213616.007500", "213616.467500", "213616.927500", "213617.387500", "213617.847500", "213618.307500", "213618.767500", "213619.227500", "213619.687500", "213620.147500", "213620.607500", "213621.067500", "213621.527500", "213621.987500", "213622.447500", "213622.907500", "213623.367500", "213623.827500", "213624.287500", "213624.747500", "213625.207500", "213625.667500", "213626.127500", "213626.587500", "213627.047500", "213627.507500", "213627.967500", "213628.427500", "213628.887500", "213629.347500", "213629.807500", "213630.267500", "213630.727500", "213631.187500", "213631.647500", "213632.107500", "213632.567500", "213633.027500", "213633.487500", "213633.947500", "213634.407500", "213634.867500", "213635.327500", "213635.787500", "213636.247500", "213636.707500", "213637.167500", "213637.627500", "213638.087500", "213638.547500", "213639.007500", "213639.467500", "213639.927500", "213640.387500", "213640.847500", "213641.307500", "213641.767500", "213642.227500", "213642.687500", "213643.147500", "213643.607500", "213644.067500", "213644.527500", "213644.987500", "213645.447500", "213645.907500", "213646.367500", "213646.827500", "213647.287500", "213647.747500", "213648.207500", "213648.667500", "213649.127500", "213649.587500", "213650.047500", "213650.507500", "213650.967500", "213651.427500", "213651.887500", "213652.347500", "213652.807500", "213653.267500", "213653.727500", "213654.187500", "213654.647500", "213655.107500", "213655.567500", "213656.027500", "213656.487500", "213656.947500", "213657.407500", "213657.867500", "213658.327500", "213658.787500", "213659.247500", "213659.707500", "213700.167500", "213700.627500", "213701.087500", "213701.547500", "213702.007500", "213702.467500", "213702.927500", "213703.387500", "213703.847500", "213704.307500", "213704.767500", "213705.227500", "213705.687500", "213706.147500", "213706.607500", "213707.067500", "213707.527500", "213707.987500", "213708.447500", "213708.907500", "213709.367500", "213709.827500", "213710.287500", "213710.747500", "213711.207500", "213711.667500", "213712.127500", "213712.587500", "213713.047500", "213713.507500", "213713.967500", "213714.427500", "213714.887500", "213715.347500", "213715.807500", "213716.267500", "213716.727500", "213717.187500", "213717.647500", "213718.107500", "213718.567500", "213719.027500", "213719.487500", "213719.947500", "213720.407500", "213720.867500", "213721.327500", "213721.787500", "213722.247500", "213722.707500", "213723.167500", "213723.627500", "213724.087500", "213724.547500", "213725.007500", "213725.467500", "213725.927500", "213726.387500", "213726.847500", "213727.307500", "213727.767500", "213728.227500", "213728.687500", "213729.147500", "213729.607500", "213730.067500", "213730.527500", "213730.987500", "213731.447500", "213731.907500", "213732.367500", "213732.827500", "213733.287500", "213733.747500", "213734.207500", "213734.667500", "213735.127500", "213735.587500", "213736.047500", "213736.507500", "213736.967500", "213737.427500", "213737.887500", "213738.347500", "213738.807500", "213739.267500", "213739.727500", "213740.187500", "213740.647500", "213741.107500", "213741.567500", "213742.027500"],
