{
  "AcquisitionMatrixPE": 82,
  "AcquisitionNumber": 1,
  "AcquisitionTime": "21:10:24.970000",
  "BandwidthPerPixelPhaseEncode": 24.888,
  "BaseResolution": 82,
  "BodyPartExamined": "BRAIN",
  "ConsistencyInfo": "N4_VE11E_LATEST_20181129",
  "ConversionSoftware": "dcm2niix",
  "ConversionSoftwareVersion": "v1.0.20201102",
  "DerivedVendorReportedEchoSpacing": 0.00049,
  "DeviceSerialNumber": "66112",
  "DwellTime": 2e-06,
  "EchoTime": 0.0272,
  "EchoTrainLength": 82,
  "EffectiveEchoSpacing": 0.00049,
  "FlipAngle": 44,
  "ImageComments": "Unaliased MB8/PE3",
  "ImageOrientationPatientDICOM": [0.99394, -0.0654526, 0.0883175, 0.06776, 0.997428, -0.0233834],
  "ImageType": [
    "ORIGINAL",
    "PRIMARY",
    "M",
    "MB",
    "ND",
    "NORM",
    "MOSAIC"
],
  "ImagingFrequency": 123.259,
  "InPlanePhaseEncodingDirectionDICOM": "COL",
  "InstitutionAddress": "Maynard 3,Hanover,NH,US,03755",
  "InstitutionName": "Dartmouth College - PBS",
  "InstitutionalDepartmentName": "Department",
  "MRAcquisitionType": "2D",
  "MagneticFieldStrength": 3,
  "Manufacturer": "Siemens",
  "ManufacturersModelName": "Prisma",
  "Modality": "MR",
  "MultibandAccelerationFactor": 8,
  "PartialFourier": 1,
  "PatientPosition": "HFS",
  "PercentPhaseFOV": 100,
  "PercentSampling": 100,
  "PhaseEncodingDirection": "j-",
  "PhaseEncodingSteps": 82,
  "PhaseResolution": 1,
  "PixelBandwidth": 3050,
  "ProcedureStepDescription": "Wager_Wager^1076_spacetop",
  "ProtocolName": "func_run-03_task-alignvideo_acq-ap-mb8",
  "PulseSequenceDetails": "%CustomerSeq%\\cmrr_mbep2d_bold",
  "ReceiveCoilActiveElements": "HEA;HEP",
  "ReceiveCoilName": "Head_32",
  "ReconMatrixPE": 82,
  "RepetitionTime": 0.46,
  "SAR": 0.105267,
  "ScanOptions": "FS",
  "ScanningSequence": "EP",
  "SequenceName": "epfid2d1_82",
  "SequenceVariant": "SK\\SS",
  "SeriesDescription": "func_run-03_task-alignvideo_acq-ap-mb8",
  "SeriesNumber": 36,
  "ShimSetting": [4255, -7757, -7259, 258, -90, 47, 24, 76],
  "SliceThickness": 2.7,
  "SliceTiming": [0, 0.25, 0.0625, 0.315, 0.125, 0.3775, 0.1875, 0, 0.25, 0.0625, 0.315, 0.125, 0.3775, 0.1875, 0, 0.25, 0.0625, 0.315, 0.125, 0.3775, 0.1875, 0, 0.25, 0.0625, 0.315, 0.125, 0.3775, 0.1875, 0, 0.25, 0.0625, 0.315, 0.125, 0.3775, 0.1875, 0, 0.25, 0.0625, 0.315, 0.125, 0.3775, 0.1875, 0, 0.25, 0.0625, 0.315, 0.125, 0.3775, 0.1875, 0, 0.25, 0.0625, 0.315, 0.125, 0.3775, 0.1875],
  "SoftwareVersions": "syngo MR E11",
  "SpacingBetweenSlices": 2.7,
  "StationName": "AWP66112",
  "TaskName": "alignvideo",
  "TotalReadoutTime": 0.03969,
  "TxRefAmp": 276.643,
  "WipMemBlock": "2e5f91c4-9a2b-4ace-8a06-ca2100ae15a5||Sequence: R016 ve11e/master r/434b28f1; Aug  7 2019 18:53:46 by eja",
  "dcmmeta_affine": [
    [-2.6666674613952637, 0.181795135140419, 0.233711376786232, 100.41171264648438],
    [0.1756044328212738, 2.676025390625, -0.07891050726175308, -100.02872467041016],
    [0.23694929480552673, 0.06273604184389114, 2.6887083053588867, -73.11033630371094],
    [0.0, 0.0, 0.0, 1.0]
],
  "dcmmeta_reorient_transform": [
    [0.0, -1.0, 0.0, 81.0],
    [1.0, 0.0, 0.0, 0.0],
    [0.0, 0.0, 1.0, 0.0],
    [0.0, 0.0, 0.0, 1.0]
],
  "dcmmeta_shape": [82, 82, 56, 1016],
  "dcmmeta_slice_dim": 2,
  "dcmmeta_version": 0.6,
  "global": {
    "const": {
      "AccessionNumber": "A004295",
      "AcquisitionMatrix": [82, 0, 0, 82],
      "AngioFlag": "N",
      "BitsAllocated": 16,
      "BitsStored": 16,
      "BodyPartExamined": "BRAIN",
      "Columns": 656,
      "EchoNumbers": 1,
      "EchoTime": 27.2,
      "EchoTrainLength": 82,
      "FlipAngle": 44.0,
      "HighBit": 15,
      "ImageOrientationPatient": [0.99393963038977, -0.0654525589334, 0.08831745959729, 0.06776000418668, 0.99742758979594, -0.0233834331631],
      "ImagePositionPatient": [-932.64585867877, -834.35011240939, -118.02791569383],
      "ImageType": [
        "ORIGINAL",
        "PRIMARY",
        "M",
        "MB",
        "ND",
        "NORM",
        "MOSAIC"
],
      "ImagedNucleus": "1H",
      "ImagingFrequency": 123.259175,
      "InPlanePhaseEncodingDirection": "COL",
      "MRAcquisitionType": "2D",
      "MagneticFieldStrength": 3.0,
      "Manufacturer": "SIEMENS",
      "ManufacturerModelName": "Prisma",
      "Modality": "MR",
      "NumberOfAverages": 1.0,
      "NumberOfPhaseEncodingSteps": 82,
      "PercentPhaseFieldOfView": 100.0,
      "PercentSampling": 100.0,
      "PerformedProcedureStepStartTime": "185219.575000",
      "PhotometricInterpretation": "MONOCHROME2",
      "PixelBandwidth": 3050.0,
      "PixelRepresentation": 0,
      "PixelSpacing": [2.6829268932343, 2.6829268932343],
      "ProtocolName": "func_run-03_task-alignvideo_acq-ap-mb8",
      "RepetitionTime": 460.0,
      "Rows": 656,
      "SAR": 0.10526656537478,
      "SamplesPerPixel": 1,
      "ScanOptions": "FS",
      "ScanningSequence": "EP",
      "SequenceName": "epfid2d1_82",
      "SequenceVariant": [
        "SK",
        "SS"
],
      "SeriesDescription": "func_run-03_task-alignvideo_acq-ap-mb8",
      "SeriesNumber": 36,
      "SeriesTime": "211054.859000",
      "SliceLocation": -61.189511731849,
      "SliceThickness": 2.7000000476837,
      "SmallestImagePixelValue": 0,
      "SoftwareVersions": "syngo MR E11",
      "SpacingBetweenSlices": 2.7000000936151,
      "SpecificCharacterSet": "ISO_IR 100",
      "StudyID": "1",
      "StudyTime": "185219.513000",
      "TransmitCoilName": "Body",
      "VariableFlipAngleFlag": "N",
      "WindowCenterWidthExplanation": "Algo1"
    },
    "slices": {}
  },
  "time": {
    "samples": {
      "AcquisitionNumber": [1, 2, 3, 4, 5, 6, 7, 8, 9, 10, 11, 12, 13, 14, 15, 16, 17, 18, 19, 20, 21, 22, 23, 24, 25, 26, 27, 28, 29, 30, 31, 32, 33, 34, 35, 36, 37, 38, 39, 40, 41, 42, 43, 44, 45, 46, 47, 48, 49, 50, 51, 52, 53, 54, 55, 56, 57, 58, 59, 60, 61, 62, 63, 64, 65, 66, 67, 68, 69, 70, 71, 72, 73, 74, 75, 76, 77, 78, 79, 80, 81, 82, 83, 84, 85, 86, 87, 88, 89, 90, 91, 92, 93, 94, 95, 96, 97, 98, 99, 100, 101, 102, 103, 104, 105, 106, 107, 108, 109, 110, 111, 112, 113, 114, 115, 116, 117, 118, 119, 120, 121, 122, 123, 124, 125, 126, 127, 128, 129, 130, 131, 132, 133, 134, 135, 136, 137, 138, 139, 140, 141, 142, 143, 144, 145, 146, 147, 148, 149, 150, 151, 152, 153, 154, 155, 156, 157, 158, 159, 160, 161, 162, 163, 164, 165, 166, 167, 168, 169, 170, 171, 172, 173, 174, 175, 176, 177, 178, 179, 180, 181, 182, 183, 184, 185, 186, 187, 188, 189, 190, 191, 192, 193, 194, 195, 196, 197, 198, 199, 200, 201, 202, 203, 204, 205, 206, 207, 208, 209, 210, 211, 212, 213, 214, 215, 216, 217, 218, 219, 220, 221, 222, 223, 224, 225, 226, 227, 228, 229, 230, 231, 232, 233, 234, 235, 236, 237, 238, 239, 240, 241, 242, 243, 244, 245, 246, 247, 248, 249, 250, 251, 252, 253, 254, 255, 256, 257, 258, 259, 260, 261, 262, 263, 264, 265, 266, 267, 268, 269, 270, 271, 272, 273, 274, 275, 276, 277, 278, 279, 280, 281, 282, 283, 284, 285, 286, 287, 288, 289, 290, 291, 292, 293, 294, 295, 296, 297, 298, 299, 300, 301, 302, 303, 304, 305, 306, 307, 308, 309, 310, 311, 312, 313, 314, 315, 316, 317, 318, 319, 320, 321, 322, 323, 324, 325, 326, 327, 328, 329, 330, 331, 332, 333, 334, 335, 336, 337, 338, 339, 340, 341, 342, 343, 344, 345, 346, 347, 348, 349, 350, 351, 352, 353, 354, 355, 356, 357, 358, 359, 360, 361, 362, 363, 364, 365, 366, 367, 368, 369, 370, 371, 372, 373, 374, 375, 376, 377, 378, 379, 380, 381, 382, 383, 384, 385, 386, 387, 388, 389, 390, 391, 392, 393, 394, 395, 396, 397, 398, 399, 400, 401, 402, 403, 404, 405, 406, 407, 408, 409, 410, 411, 412, 413, 414, 415, 416, 417, 418, 419, 420, 421, 422, 423, 424, 425, 426, 427, 428, 429, 430, 431, 432, 433, 434, 435, 436, 437, 438, 439, 440, 441, 442, 443, 444, 445, 446, 447, 448, 449, 450, 451, 452, 453, 454, 455, 456, 457, 458, 459, 460, 461, 462, 463, 464, 465, 466, 467, 468, 469, 470, 471, 472, 473, 474, 475, 476, 477, 478, 479, 480, 481, 482, 483, 484, 485, 486, 487, 488, 489, 490, 491, 492, 493, 494, 495, 496, 497, 498, 499, 500, 501, 502, 503, 504, 505, 506, 507, 508, 509, 510, 511, 512, 513, 514, 515, 516, 517, 518, 519, 520, 521, 522, 523, 524, 525, 526, 527, 528, 529, 530, 531, 532, 533, 534, 535, 536, 537, 538, 539, 540, 541, 542, 543, 544, 545, 546, 547, 548, 549, 550, 551, 552, 553, 554, 555, 556, 557, 558, 559, 560, 561, 562, 563, 564, 565, 566, 567, 568, 569, 570, 571, 572, 573, 574, 575, 576, 577, 578, 579, 580, 581, 582, 583, 584, 585, 586, 587, 588, 589, 590, 591, 592, 593, 594, 595, 596, 597, 598, 599, 600, 601, 602, 603, 604, 605, 606, 607, 608, 609, 610, 611, 612, 613, 614, 615, 616, 617, 618, 619, 620, 621, 622, 623, 624, 625, 626, 627, 628, 629, 630, 631, 632, 633, 634, 635, 636, 637, 638, 639, 640, 641, 642, 643, 644, 645, 646, 647, 648, 649, 650, 651, 652, 653, 654, 655, 656, 657, 658, 659, 660, 661, 662, 663, 664, 665, 666, 667, 668, 669, 670, 671, 672, 673, 674, 675, 676, 677, 678, 679, 680, 681, 682, 683, 684, 685, 686, 687, 688, 689, 690, 691, 692, 693, 694, 695, 696, 697, 698, 699, 700, 701, 702, 703, 704, 705, 706, 707, 708, 709, 710, 711, 712, 713, 714, 715, 716, 717, 718, 719, 720, 721, 722, 723, 724, 725, 726, 727, 728, 729, 730, 731, 732, 733, 734, 735, 736, 737, 738, 739, 740, 741, 742, 743, 744, 745, 746, 747, 748, 749, 750, 751, 752, 753, 754, 755, 756, 757, 758, 759, 760, 761, 762, 763, 764, 765, 766, 767, 768, 769, 770, 771, 772, 773, 774, 775, 776, 777, 778, 779, 780, 781, 782, 783, 784, 785, 786, 787, 788, 789, 790, 791, 792, 793, 794, 795, 796, 797, 798, 799, 800, 801, 802, 803, 804, 805, 806, 807, 808, 809, 810, 811, 812, 813, 814, 815, 816, 817, 818, 819, 820, 821, 822, 823, 824, 825, 826, 827, 828, 829, 830, 831, 832, 833, 834, 835, 836, 837, 838, 839, 840, 841, 842, 843, 844, 845, 846, 847, 848, 849, 850, 851, 852, 853, 854, 855, 856, 857, 858, 859, 860, 861, 862, 863, 864, 865, 866, 867, 868, 869, 870, 871, 872, 873, 874, 875, 876, 877, 878, 879, 880, 881, 882, 883, 884, 885, 886, 887, 888, 889, 890, 891, 892, 893, 894, 895, 896, 897, 898, 899, 900, 901, 902, 903, 904, 905, 906, 907, 908, 909, 910, 911, 912, 913, 914, 915, 916, 917, 918, 919, 920, 921, 922, 923, 924, 925, 926, 927, 928, 929, 930, 931, 932, 933, 934, 935, 936, 937, 938, 939, 940, 941, 942, 943, 944, 945, 946, 947, 948, 949, 950, 951, 952, 953, 954, 955, 956, 957, 958, 959, 960, 961, 962, 963, 964, 965, 966, 967, 968, 969, 970, 971, 972, 973, 974, 975, 976, 977, 978, 979, 980, 981, 982, 983, 984, 985, 986, 987, 988, 989, 990, 991, 992, 993, 994, 995, 996, 997, 998, 999, 1000, 1001, 1002, 1003, 1004, 1005, 1006, 1007, 1008, 1009, 1010, 1011, 1012, 1013, 1014, 1015, 1016],
      "AcquisitionTime": ["211024.970000", "211025.430000", "211025.890000", "211026.350000", "211026.810000", "211027.270000", "211027.730000", "211028.190000", "211028.650000", "211029.110000", "211029.570000", "211030.030000", "211030.490000", "211030.950000", "211031.410000", "211031.870000", "211032.330000", "211032.790000", "211033.250000", "211033.710000", "211034.170000", "211034.630000", "211035.090000", "211035.550000", "211036.010000", "211036.470000", "211036.930000", "211037.390000", "211037.850000", "211038.310000", "211038.770000", "211039.230000", "211039.690000", "211040.150000", "211040.610000", "211041.070000", "211041.530000", "211041.990000", "211042.450000", "211042.910000", "211043.370000", "211043.830000", "211044.290000", "211044.750000", "211045.210000", "211045.670000", "211046.130000", "211046.590000", "211047.050000", "211047.510000", "211047.970000", "211048.430000", "211048.890000", "211049.350000", "211049.810000", "211050.270000", "211050.730000", "211051.190000", "211051.650000", "211052.110000", "211052.570000", "211053.030000", "211053.490000", "211053.950000", "211054.410000", "211054.870000", "211055.330000", "211055.790000", "211056.250000", "211056.710000", "211057.170000", "211057.630000", "211058.090000", "211058.550000", "211059.010000", "211059.470000", "211059.930000", "211100.390000", "211100.850000", "211101.310000", "211101.770000", "211102.230000", "211102.690000", "211103.150000", "211103.610000", "211104.070000", "211104.530000", "211104.990000", "211105.450000", "211105.910000", "211106.370000", "211106.830000", "211107.290000", "211107.750000", "211108.210000", "211108.670000", "211109.130000", "211109.590000", "211110.050000", "211110.510000", "211110.970000", "211111.430000", "211111.890000", "211112.350000", "211112.810000", "211113.270000", "211113.730000", "211114.190000", "211114.650000", "211115.110000", "211115.570000", "211116.030000", "211116.490000", "211116.950000", "211117.410000", "211117.870000", "211118.330000", "211118.790000", "211119.250000", "211119.710000", "211120.170000", "211120.630000", "211121.090000", "211121.550000", "211122.010000", "211122.470000", "211122.930000", "211123.390000", "211123.850000", "211124.310000", "211124.770000", "211125.230000", "211125.690000", "211126.150000", "211126.610000", "211127.070000", "211127.530000", "211127.990000", "211128.450000", "211128.910000", "211129.370000", "211129.830000", "211130.290000", "211130.750000", "211131.210000", "211131.670000", "211132.130000", "211132.590000", "211133.050000", "211133.510000", "211133.970000", "211134.430000", "211134.890000", "211135.350000", "211135.810000", "211136.270000", "211136.730000", "211137.190000", "211137.650000", "211138.110000", "211138.570000", "211139.030000", "211139.490000", "211139.950000", "211140.410000", "211140.870000", "211141.330000", "211141.790000", "211142.250000", "211142.710000", "211143.170000", "211143.630000", "211144.090000", "211144.550000", "211145.010000", "211145.470000", "211145.930000", "211146.390000", "211146.850000", "211147.310000", "211147.770000", "211148.230000", "211148.690000", "211149.150000", "211149.610000", "211150.070000", "211150.530000", "211150.990000", "211151.450000", "211151.910000", "211152.370000", "211152.830000", "211153.290000", "211153.750000", "211154.210000", "211154.670000", "211155.130000", "211155.590000", "211156.050000", "211156.510000", "211156.970000", "211157.430000", "211157.890000", "211158.350000", "211158.810000", "211159.270000", "211159.730000", "211200.190000", "211200.650000", "211201.110000", "211201.570000", "211202.030000", "211202.490000", "211202.950000", "211203.410000", "211203.870000", "211204.330000", "211204.790000", "211205.250000", "211205.710000", "211206.170000", "211206.630000", "211207.090000", "211207.550000", "211208.010000", "211208.470000", "211208.930000", "211209.390000", "211209.850000", "211210.310000", "211210.770000", "211211.230000", "211211.690000", "211212.150000", "211212.610000", "211213.070000", "211213.530000", "211213.990000", "211214.450000", "211214.910000", "211215.370000", "211215.830000", "211216.290000", "211216.750000", "211217.210000", "211217.670000", "211218.130000", "211218.590000", "211219.050000", "211219.510000", "211219.970000", "211220.430000", "211220.890000", "211221.350000", "211221.810000", "211222.270000", "211222.730000", "211223.190000", "211223.650000", "211224.110000", "211224.570000", "211225.030000", "211225.490000", "211225.950000", "211226.410000", "211226.870000", "211227.330000", "211227.790000", "211228.250000", "211228.710000", "211229.170000", "211229.630000", "211230.090000", "211230.550000", "211231.010000", "211231.470000", "211231.930000", "211232.390000", "211232.850000", "211233.310000", "211233.770000", "211234.230000", "211234.690000", "211235.150000", "211235.610000", "211236.070000", "211236.530000", "211236.990000", "211237.450000", "211237.910000", "211238.370000", "211238.830000", "211239.290000", "211239.750000", "211240.210000", "211240.670000", "211241.130000", "211241.590000", "211242.050000", "211242.510000", "211242.970000", "211243.430000", "211243.890000", "211244.350000", "211244.810000", "211245.270000", "211245.730000", "211246.190000", "211246.650000", "211247.110000", "211247.570000", "211248.030000", "211248.490000", "211248.950000", "211249.410000", "211249.870000", "211250.330000", "211250.790000", "211251.250000", "211251.710000", "211252.170000", "211252.630000", "211253.090000", "211253.550000", "211254.010000", "211254.470000", "211254.930000", "211255.390000", "211255.850000", "211256.310000", "211256.770000", "211257.230000", "211257.690000", "211258.150000", "211258.610000", "211259.070000", "211259.530000", "211259.990000", "211300.450000", "211300.910000", "211301.370000", "211301.830000", "211302.290000", "211302.750000", "211303.210000", "211303.670000", "211304.130000", "211304.590000", "211305.050000", "211305.510000", "211305.970000", "211306.430000", "211306.890000", "211307.350000", "211307.810000", "211308.270000", "211308.730000", "211309.190000", "211309.650000", "211310.110000", "211310.570000", "211311.030000", "211311.490000", "211311.950000", "211312.410000", "211312.870000", "211313.330000", "211313.790000", "211314.250000", "211314.710000", "211315.170000", "211315.630000", "211316.090000", "211316.550000", "211317.010000", "211317.470000", "211317.930000", "211318.390000", "211318.850000", "211319.310000", "211319.770000", "211320.230000", "211320.690000", "211321.150000", "211321.610000", "211322.070000", "211322.530000", "211322.990000", "211323.450000", "211323.910000", "211324.370000", "211324.830000", "211325.290000", "211325.750000", "211326.210000", "211326.670000", "211327.130000", "211327.590000", "211328.050000", "211328.510000", "211328.970000", "211329.430000", "211329.890000", "211330.350000", "211330.810000", "211331.270000", "211331.730000", "211332.190000", "211332.650000", "211333.110000", "211333.570000", "211334.030000", "211334.490000", "211334.950000", "211335.410000", "211335.870000", "211336.330000", "211336.790000", "211337.250000", "211337.710000", "211338.170000", "211338.630000", "211339.090000", "211339.550000", "211340.010000", "211340.470000", "211340.930000", "211341.390000", "211341.850000", "211342.310000", "211342.770000", "211343.230000", "211343.690000", "211344.150000", "211344.610000", "211345.070000", "211345.530000", "211345.990000", "211346.450000", "211346.910000", "211347.370000", "211347.830000", "211348.290000", "211348.750000", "211349.210000", "211349.670000", "211350.130000", "211350.590000", "211351.050000", "211351.510000", "211351.970000", "211352.430000", "211352.890000", "211353.350000", "211353.810000", "211354.270000", "211354.730000", "211355.190000", "211355.650000", "211356.110000", "211356.570000", "211357.030000", "211357.490000", "211357.950000", "211358.410000", "211358.870000", "211359.330000", "211359.790000", "211400.250000", "211400.710000", "211401.170000", "211401.630000", "211402.090000", "211402.550000", "211403.010000", "211403.470000", "211403.930000", "211404.390000", "211404.850000", "211405.310000", "211405.770000", "211406.230000", "211406.690000", "211407.150000", "211407.610000", "211408.070000", "211408.530000", "211408.990000", "211409.450000", "211409.910000", "211410.370000", "211410.830000", "211411.290000", "211411.750000", "211412.210000", "211412.670000", "211413.130000", "211413.590000", "211414.050000", "211414.510000", "211414.970000", "211415.430000", "211415.890000", "211416.350000", "211416.810000", "211417.270000", "211417.730000", "211418.190000", "211418.650000", "211419.110000", "211419.570000", "211420.030000", "211420.490000", "211420.950000", "211421.410000", "211421.870000", "211422.330000", "211422.790000", "211423.250000", "211423.710000", "211424.170000", "211424.630000", "211425.090000", "211425.550000", "211426.010000", "211426.470000", "211426.930000", "211427.390000", "211427.850000", "211428.310000", "211428.770000", "211429.230000", "211429.690000", "211430.150000", "211430.610000", "211431.070000", "211431.530000", "211431.990000", "211432.450000", "211432.910000", "211433.370000", "211433.830000", "211434.290000", "211434.750000", "211435.210000", "211435.670000", "211436.130000", "211436.590000", "211437.050000", "211437.510000", "211437.970000", "211438.430000", "211438.890000", "211439.350000", "211439.810000", "211440.270000", "211440.730000", "211441.190000", "211441.650000", "211442.110000", "211442.570000", "211443.030000", "211443.490000", "211443.950000", "211444.410000", "211444.870000", "211445.330000", "211445.790000", "211446.250000", "211446.710000", "211447.170000", "211447.630000", "211448.090000", "211448.550000", "211449.010000", "211449.470000", "211449.930000", "211450.390000", "211450.850000", "211451.310000", "211451.770000", "211452.230000", "211452.690000", "211453.150000", "211453.610000", "211454.070000", "211454.530000", "211454.990000", "211455.450000", "211455.910000", "211456.370000", "211456.830000", "211457.290000", "211457.750000", "211458.210000", "211458.670000", "211459.130000", "211459.590000", "211500.050000", "211500.510000", "211500.970000", "211501.430000", "211501.890000", "211502.350000", "211502.810000", "211503.270000", "211503.730000", "211504.190000", "211504.650000", "211505.110000", "211505.570000", "211506.030000", "211506.490000", "211506.950000", "211507.410000", "211507.870000", "211508.330000", "211508.790000", "211509.250000", "211509.710000", "211510.170000", "211510.630000", "211511.090000", "211511.550000", "211512.010000", "211512.470000", "211512.930000", "211513.390000", "211513.850000", "211514.310000", "211514.770000", "211515.230000", "211515.690000", "211516.150000", "211516.610000", "211517.070000", "211517.530000", "211517.990000", "211518.450000", "211518.910000", "211519.370000", "211519.830000", "211520.290000", "211520.750000", "211521.210000", "211521.670000", "211522.130000", "211522.590000", "211523.050000", "211523.510000", "211523.970000", "211524.430000", "211524.890000", "211525.350000", "211525.810000", "211526.270000", "211526.730000", "211527.190000", "211527.650000", "211528.110000", "211528.570000", "211529.030000", "211529.490000", "211529.950000", "211530.410000", "211530.870000", "211531.330000", "211531.790000", "211532.250000", "211532.710000", "211533.170000", "211533.630000", "211534.090000", "211534.550000", "211535.010000", "211535.470000", "211535.930000", "211536.390000", "211536.850000", "211537.310000", "211537.770000", "211538.230000", "211538.690000", "211539.150000", "211539.610000", "211540.070000", "211540.530000", "211540.990000", "211541.450000", "211541.910000", "211542.370000", "211542.830000", "211543.290000", "211543.750000", "211544.210000", "211544.670000", "211545.130000", "211545.590000", "211546.050000", "211546.510000", "211546.970000", "211547.430000", "211547.890000", "211548.350000", "211548.810000", "211549.270000", "211549.730000", "211550.190000", "211550.650000", "211551.110000", "211551.570000", "211552.030000", "211552.490000", "211552.950000", "211553.410000", "211553.870000", "211554.330000", "211554.790000", "211555.250000", "211555.710000", "211556.170000", "211556.630000", "211557.090000", "211557.550000", "211558.010000", "211558.470000", "211558.930000", "211559.390000", "211559.850000", "211600.310000", "211600.770000", "211601.230000", "211601.690000", "211602.150000", "211602.610000", "211603.070000", "211603.530000", "211603.990000", "211604.450000", "211604.910000", "211605.370000", "211605.830000", "211606.290000", "211606.750000", "211607.210000", "211607.670000", "211608.130000", "211608.590000", "211609.050000", "211609.510000", "211609.970000", "211610.430000", "211610.890000", "211611.350000", "211611.810000", "211612.270000", "211612.730000", "211613.190000", "211613.650000", "211614.110000", "211614.570000", "211615.030000", "211615.490000", "211615.950000", "211616.410000", "211616.870000", "211617.330000", "211617.790000", "211618.250000", "211618.710000", "211619.170000", "211619.630000", "211620.090000", "211620.550000", "211621.010000", "211621.470000", "211621.930000", "211622.390000", "211622.850000", "211623.310000", "211623.770000", "211624.230000", "211624.690000", "211625.150000", "211625.610000", "211626.070000", "211626.530000", "211626.990000", "211627.450000", "211627.910000", "211628.370000", "211628.830000", "211629.290000", "211629.750000", "211630.210000", "211630.670000", "211631.130000", "211631.590000", "211632.050000", "211632.510000", "211632.970000", "211633.430000", "211633.890000", "211634.350000", "211634.810000", "211635.270000", "211635.730000", "211636.190000", "211636.650000", "211637.110000", "211637.570000", "211638.030000", "211638.490000", "211638.950000", "211639.410000", "211639.870000", "211640.330000", "211640.790000", "211641.250000", "211641.710000", "211642.170000", "211642.630000", "211643.090000", "211643.550000", "211644.010000", "211644.470000", "211644.930000", "211645.390000", "211645.850000", "211646.310000", "211646.770000", "211647.230000", "211647.690000", "211648.150000", "211648.610000", "211649.070000", "211649.530000", "211649.990000", "211650.450000", "211650.910000", "211651.370000", "211651.830000", "211652.290000", "211652.750000", "211653.210000", "211653.670000", "211654.130000", "211654.590000", "211655.050000", "211655.510000", "211655.970000", "211656.430000", "211656.890000", "211657.350000", "211657.810000", "211658.270000", "211658.730000", "211659.190000", "211659.650000", "211700.110000", "211700.570000", "211701.030000", "211701.490000", "211701.950000", "211702.410000", "211702.870000", "211703.330000", "211703.790000", "211704.250000", "211704.710000", "211705.170000", "211705.630000", "211706.090000", "211706.550000", "211707.010000", "211707.470000", "211707.930000", "211708.390000", "211708.850000", "211709.310000", "211709.770000", "211710.230000", "211710.690000", "211711.150000", "211711.610000", "211712.070000", "211712.530000", "211712.990000", "211713.450000", "211713.910000", "211714.370000", "211714.830000", "211715.290000", "211715.750000", "211716.210000", "211716.670000", "211717.130000", "211717.590000", "211718.050000", "211718.510000", "211718.970000", "211719.430000", "211719.890000", "211720.350000", "211720.810000", "211721.270000", "211721.730000", "211722.190000", "211722.650000", "211723.110000", "211723.570000", "211724.030000", "211724.490000", "211724.950000", "211725.410000", "211725.870000", "211726.330000", "211726.790000", "211727.250000", "211727.710000", "211728.170000", "211728.630000", "211729.090000", "211729.550000", "211730.010000", "211730.470000", "211730.930000", "211731.390000", "211731.850000", "211732.310000", "211732.770000", "211733.230000", "211733.690000", "211734.150000", "211734.610000", "211735.070000", "211735.530000", "211735.990000", "211736.450000", "211736.910000", "211737.370000", "211737.830000", "211738.290000", "211738.750000", "211739.210000", "211739.670000", "211740.130000", "211740.590000", "211741.050000", "211741.510000", "211741.970000", "211742.430000", "211742.890000", "211743.350000", "211743.810000", "211744.270000", "211744.730000", "211745.190000", "211745.650000", "211746.110000", "211746.570000", "211747.030000", "211747.490000", "211747.950000", "211748.410000", "211748.870000", "211749.330000", "211749.790000", "211750.250000", "211750.710000", "211751.170000", "211751.630000", "211752.090000", "211752.550000", "211753.010000", "211753.470000", "211753.930000", "211754.390000", "211754.850000", "211755.310000", "211755.770000", "211756.230000", "211756.690000", "211757.150000", "211757.610000", "211758.070000", "211758.530000", "211758.990000", "211759.450000", "211759.910000", "211800.370000", "211800.830000", "211801.290000", "211801.750000", "211802.210000", "211802.670000", "211803.130000", "211803.590000", "211804.050000", "211804.510000", "211804.970000", "211805.430000", "211805.890000", "211806.350000", "211806.810000", "211807.270000", "211807.730000", "211808.190000", "211808.650000", "211809.110000", "211809.570000", "211810.030000", "211810.490000", "211810.950000", "211811.410000", "211811.870000"],
