{
  "AcquisitionMatrixPE": 140,
  "AcquisitionNumber": 1,
  "AcquisitionTime": "12:54:44.725000",
  "BandwidthPerPixelPhaseEncode": 10.352,
  "BaseResolution": 140,
  "BodyPartExamined": "BRAIN",
  "ConsistencyInfo": "N4_VE11C_LATEST_20160120",
  "ConversionSoftware": "dcm2niix",
  "ConversionSoftwareVersion": "v1.0.20201102",
  "DerivedVendorReportedEchoSpacing": 0.000689998,
  "DeviceSerialNumber": "66112",
  "DiffusionScheme": "Monopolar",
  "DwellTime": 2.1e-06,
  "EchoTime": 0.088,
  "EchoTrainLength": 105,
  "EffectiveEchoSpacing": 0.000689998,
  "FlipAngle": 90,
  "ImageComments": "Unaliased MB3/PE3",
  "ImageOrientationPatientDICOM": [0.999714, -0.0225234, 0.00805324, 0.0218139, 0.996605, 0.079388],
  "ImageType": [
    "ORIGINAL",
    "PRIMARY",
    "DIFFUSION",
    "NONE",
    "MB",
    "ND"
],
  "ImagingFrequency": 123.252,
  "InPlanePhaseEncodingDirectionDICOM": "COL",
  "InstitutionAddress": "Maynard 3,Hanover,NH,US,03755",
  "InstitutionName": "Dartmouth College - PBS",
  "InstitutionalDepartmentName": "Department",
  "IntendedFor": [
    "ses-01/dwi/sub-0031_ses-01_acq-96dirX6b0Xmb_dwi.nii.gz"
],
  "MRAcquisitionType": "2D",
  "MagneticFieldStrength": 3,
  "Manufacturer": "Siemens",
  "ManufacturersModelName": "Prisma",
  "Modality": "MR",
  "MultibandAccelerationFactor": 3,
  "PartialFourier": 0.75,
  "PatientPosition": "HFS",
  "PercentPhaseFOV": 100,
  "PercentSampling": 100,
  "PhaseEncodingDirection": "j",
  "PhaseEncodingSteps": 105,
  "PhaseResolution": 1,
  "PixelBandwidth": 1700,
  "ProcedureStepDescription": "Wager_Wager^1076_spacetop",
  "ProtocolName": "dwi_acq-discorr-PA",
  "PulseSequenceDetails": "%CustomerSeq%\\cmrr_mbep2d_diff",
  "ReceiveCoilActiveElements": "HEA;HEP",
  "ReceiveCoilName": "Head_32",
  "ReconMatrixPE": 140,
  "RepetitionTime": 4.1,
  "SAR": 0.145698,
  "ScanOptions": "PFP\\FS",
  "ScanningSequence": "EP",
  "SequenceName": "ep_b0",
  "SequenceVariant": "SK\\SS",
  "SeriesDescription": "dwi_acq-discorr-PA",
  "SeriesNumber": 6,
  "ShimSetting": [4147, -7706, -7283, 549, -81, -147, 83, 78],
  "SliceThickness": 1.7,
  "SliceTiming": [0, 2.11719, 0.14844, 2.26562, 0.29688, 2.41406, 0.45312, 2.5625, 0.60156, 2.71875, 0.75, 2.86719, 0.90625, 3.01562, 1.05469, 3.17188, 1.20312, 3.32031, 1.35938, 3.47656, 1.50781, 3.625, 1.65625, 3.77344, 1.8125, 3.92969, 1.96094, 0, 2.11719, 0.14844, 2.26562, 0.29688, 2.41406, 0.45312, 2.5625, 0.60156, 2.71875, 0.75, 2.86719, 0.90625, 3.01562, 1.05469, 3.17188, 1.20312, 3.32031, 1.35938, 3.47656, 1.50781, 3.625, 1.65625, 3.77344, 1.8125, 3.92969, 1.96094, 0, 2.11719, 0.14844, 2.26562, 0.29688, 2.41406, 0.45312, 2.5625, 0.60156, 2.71875, 0.75, 2.86719, 0.90625, 3.01562, 1.05469, 3.17188, 1.20312, 3.32031, 1.35938, 3.47656, 1.50781, 3.625, 1.65625, 3.77344, 1.8125, 3.92969, 1.96094],
  "SoftwareVersions": "syngo MR E11",
  "SpacingBetweenSlices": 1.7,
  "StationName": "AWP66112",
  "TotalReadoutTime": 0.0959097,
  "TxRefAmp": 260.777,
  "WipMemBlock": "415a0696-d844-4f2b-b911-8ae008c6a5bb||Sequence: R016 ve11c/master r/e634e98; Dec 19 2017 11:11:25 by eja",
  "dcmmeta_affine": [
    [-1.7137951850891113, 0.03739519789814949, 0.01668405532836914, 120.59522247314453],
    [0.038611575961112976, 1.7084659337997437, 0.13462448120117188, -97.11953735351562],
    [0.013805554248392582, -0.13609372079372406, 1.694580078125, -71.75335693359375],
    [0.0, 0.0, 0.0, 1.0]
],
  "dcmmeta_reorient_transform": [
    [0.0, -1.0, 0.0, 139.0],
    [1.0, 0.0, 0.0, 0.0],
    [0.0, 0.0, -1.0, 80.0],
    [0.0, 0.0, 0.0, 1.0]
],
  "dcmmeta_shape": [140, 140, 81],
  "dcmmeta_slice_dim": 2,
  "dcmmeta_version": 0.6,
  "global": {
    "const": {
      "AccessionNumber": "A003792",
      "AcquisitionMatrix": [140, 0, 0, 140],
      "AcquisitionNumber": 1,
      "AngioFlag": "N",
      "BitsAllocated": 16,
      "BitsStored": 16,
      "BodyPartExamined": "BRAIN",
      "Columns": 140,
      "EchoNumbers": 1,
      "EchoTime": 88.0,
      "EchoTrainLength": 105,
      "FlipAngle": 90.0,
      "HighBit": 15,
      "ImageOrientationPatient": [0.99971387953669, -0.0225234186611, 0.00805323993906, 0.02181386438055, 0.99660508743372, 0.07938800301057],
      "ImageType": [
        "ORIGINAL",
        "PRIMARY",
        "DIFFUSION",
        "NONE",
        "MB",
        "ND"
],
      "ImagedNucleus": "1H",
      "ImagingFrequency": 123.252224,
      "InPlanePhaseEncodingDirection": "COL",
      "MRAcquisitionType": "2D",
      "MagneticFieldStrength": 3.0,
      "Manufacturer": "SIEMENS",
      "ManufacturerModelName": "Prisma",
      "Modality": "MR",
      "NumberOfAverages": 1.0,
      "NumberOfPhaseEncodingSteps": 105,
      "PercentPhaseFieldOfView": 100.0,
      "PercentSampling": 100.0,
      "PerformedProcedureStepStartTime": "124220.013000",
      "PhotometricInterpretation": "MONOCHROME2",
      "PixelBandwidth": 1700.0,
      "PixelRepresentation": 0,
      "PixelSpacing": [1.7142857313156, 1.7142857313156],
      "ProtocolName": "dwi_acq-discorr-PA",
      "RepetitionTime": 4100.0,
      "Rows": 140,
      "SAR": 0.14569792171713,
      "SamplesPerPixel": 1,
      "ScanOptions": [
        "PFP",
        "FS"
],
      "ScanningSequence": "EP",
      "SequenceName": "ep_b0",
      "SequenceVariant": [
        "SK",
        "SS"
],
      "SeriesDescription": "dwi_acq-discorr-PA",
      "SeriesNumber": 6,
      "SeriesTime": "125450.596000",
      "SliceThickness": 1.7000000476837,
      "SmallestImagePixelValue": 0,
      "SoftwareVersions": "syngo MR E11",
      "SpacingBetweenSlices": 1.7,
      "SpecificCharacterSet": "ISO_IR 100",
      "StudyID": "1",
      "StudyTime": "124219.874000",
      "TransmitCoilName": "Body",
      "VariableFlipAngleFlag": "N",
      "WindowCenterWidthExplanation": "Algo1",
      "dBdt": 0.0},
    "slices": {
      "AcquisitionTime": ["125444.725000", "125446.840000", "125444.875000", "125446.990000", "125445.025000", "125447.142500", "125445.177500", "125447.292500", "125445.327500", "125447.445000", "125445.480000", "125447.595000", "125445.630000", "125447.745000", "125445.782500", "125447.897500", "125445.932500", "125448.047500", "125446.085000", "125448.200000", "125446.235000", "125448.350000", "125446.385000", "125448.502500", "125446.537500", "125448.652500", "125446.687500", "125444.725000", "125446.840000", "125444.875000", "125446.990000", "125445.025000", "125447.142500", "125445.177500", "125447.292500", "125445.327500", "125447.445000", "125445.480000", "125447.595000", "125445.630000", "125447.745000", "125445.782500", "125447.897500", "125445.932500", "125448.047500", "125446.085000", "125448.200000", "125446.235000", "125448.350000", "125446.385000", "125448.502500", "125446.537500", "125448.652500", "125446.687500", "125444.725000", "125446.840000", "125444.875000", "125446.990000", "125445.025000", "125447.142500", "125445.177500", "125447.292500", "125445.327500", "125447.445000", "125445.480000", "125447.595000", "125445.630000", "125447.745000", "125445.782500", "125447.897500", "125445.932500", "125448.047500", "125446.085000", "125448.200000", "125446.235000", "125448.350000", "125446.385000", "125448.502500", "125446.537500", "125448.652500", "125446.687500"],
      "ContentTime": ["125450.601000", "125450.876000", "125450.610000", "125450.882000", "125450.699000", "125450.889000", "125450.765000", "125450.896000", "125450.779000", "125450.902000", "125450.787000", "125450.909000", "125450.794000", "125450.915000", "125450.801000", "125450.922000", "125450.808000", "125450.928000", "125450.824000", "125450.934000", "125450.831000", "125450.941000", "125450.837000", "125450.947000", "125450.851000", "125450.954000", "125450.864000", "125450.605000", "125450.878000", "125450.613000", "125450.884000", "125450.701000", "125450.891000", "125450.767000", "125450.898000", "125450.782000", "125450.904000", "125450.789000", "125450.911000", "125450.797000", "125450.917000", "125450.804000", "125450.924000", "125450.820000", "125450.930000", "125450.826000", "125450.937000", "125450.833000", "125450.943000", "125450.839000", "125450.950000", "125450.853000", "125450.956000", "125450.867000", "125450.607000", "125450.880000", "125450.697000", "125450.887000", "125450.756000", "125450.893000", "125450.776000", "125450.900000", "125450.784000", "125450.906000", "125450.792000", "125450.913000", "125450.799000", "125450.919000", "125450.806000", "125450.926000", "125450.822000", "125450.932000", "125450.828000", "125450.939000", "125450.835000", "125450.945000", "125450.842000", "125450.952000", "125450.862000", "125450.958000", "125450.874000"],
      "CsaImage.ICE_Dims": [
        "X_1_1_1_1_1_1_1_1_1_1_1_23",
        "X_1_1_1_1_1_1_42_1_1_2_1_23",
        "X_1_1_1_1_1_1_2_1_1_3_1_23",
        "X_1_1_1_1_1_1_43_1_1_4_1_23",
        "X_1_1_1_1_1_1_3_1_1_5_1_23",
        "X_1_1_1_1_1_1_44_1_1_6_1_23",
        "X_1_1_1_1_1_1_4_1_1_7_1_23",
        "X_1_1_1_1_1_1_45_1_1_8_1_23",
        "X_1_1_1_1_1_1_5_1_1_9_1_23",
        "X_1_1_1_1_1_1_46_1_1_10_1_23",
        "X_1_1_1_1_1_1_6_1_1_11_1_23",
        "X_1_1_1_1_1_1_47_1_1_12_1_23",
        "X_1_1_1_1_1_1_7_1_1_13_1_23",
        "X_1_1_1_1_1_1_48_1_1_14_1_23",
        "X_1_1_1_1_1_1_8_1_1_15_1_23",
        "X_1_1_1_1_1_1_49_1_1_16_1_23",
        "X_1_1_1_1_1_1_9_1_1_17_1_23",
        "X_1_1_1_1_1_1_50_1_1_18_1_23",
        "X_1_1_1_1_1_1_10_1_1_19_1_23",
        "X_1_1_1_1_1_1_51_1_1_20_1_23",
        "X_1_1_1_1_1_1_11_1_1_21_1_23",
        "X_1_1_1_1_1_1_52_1_1_22_1_23",
        "X_1_1_1_1_1_1_12_1_1_23_1_23",
        "X_1_1_1_1_1_1_53_1_1_24_1_23",
        "X_1_1_1_1_1_1_13_1_1_25_1_23",
        "X_1_1_1_1_1_1_54_1_1_26_1_23",
        "X_1_1_1_1_1_1_14_1_1_27_1_23",
        "X_1_1_1_1_1_1_55_1_1_28_1_23",
        "X_1_1_1_1_1_1_15_1_1_29_1_23",
        "X_1_1_1_1_1_1_56_1_1_30_1_23",
        "X_1_1_1_1_1_1_16_1_1_31_1_23",
        "X_1_1_1_1_1_1_57_1_1_32_1_23",
        "X_1_1_1_1_1_1_17_1_1_33_1_23",
        "X_1_1_1_1_1_1_58_1_1_34_1_23",
        "X_1_1_1_1_1_1_18_1_1_35_1_23",
        "X_1_1_1_1_1_1_59_1_1_36_1_23",
        "X_1_1_1_1_1_1_19_1_1_37_1_23",
        "X_1_1_1_1_1_1_60_1_1_38_1_23",
        "X_1_1_1_1_1_1_20_1_1_39_1_23",
        "X_1_1_1_1_1_1_61_1_1_40_1_23",
        "X_1_1_1_1_1_1_21_1_1_41_1_23",
        "X_1_1_1_1_1_1_62_1_1_42_1_23",
        "X_1_1_1_1_1_1_22_1_1_43_1_23",
        "X_1_1_1_1_1_1_63_1_1_44_1_23",
        "X_1_1_1_1_1_1_23_1_1_45_1_23",
        "X_1_1_1_1_1_1_64_1_1_46_1_23",
        "X_1_1_1_1_1_1_24_1_1_47_1_23",
        "X_1_1_1_1_1_1_65_1_1_48_1_23",
        "X_1_1_1_1_1_1_25_1_1_49_1_23",
        "X_1_1_1_1_1_1_66_1_1_50_1_23",
        "X_1_1_1_1_1_1_26_1_1_51_1_23",
        "X_1_1_1_1_1_1_67_1_1_52_1_23",
        "X_1_1_1_1_1_1_27_1_1_53_1_23",
        "X_1_1_1_1_1_1_68_1_1_54_1_23",
        "X_1_1_1_1_1_1_28_1_1_55_1_23",
        "X_1_1_1_1_1_1_69_1_1_56_1_23",
        "X_1_1_1_1_1_1_29_1_1_57_1_23",
        "X_1_1_1_1_1_1_70_1_1_58_1_23",
        "X_1_1_1_1_1_1_30_1_1_59_1_23",
        "X_1_1_1_1_1_1_71_1_1_60_1_23",
        "X_1_1_1_1_1_1_31_1_1_61_1_23",
        "X_1_1_1_1_1_1_72_1_1_62_1_23",
        "X_1_1_1_1_1_1_32_1_1_63_1_23",
        "X_1_1_1_1_1_1_73_1_1_64_1_23",
        "X_1_1_1_1_1_1_33_1_1_65_1_23",
        "X_1_1_1_1_1_1_74_1_1_66_1_23",
        "X_1_1_1_1_1_1_34_1_1_67_1_23",
        "X_1_1_1_1_1_1_75_1_1_68_1_23",
        "X_1_1_1_1_1_1_35_1_1_69_1_23",
        "X_1_1_1_1_1_1_76_1_1_70_1_23",
        "X_1_1_1_1_1_1_36_1_1_71_1_23",
        "X_1_1_1_1_1_1_77_1_1_72_1_23",
        "X_1_1_1_1_1_1_37_1_1_73_1_23",
        "X_1_1_1_1_1_1_78_1_1_74_1_23",
        "X_1_1_1_1_1_1_38_1_1_75_1_23",
        "X_1_1_1_1_1_1_79_1_1_76_1_23",
        "X_1_1_1_1_1_1_39_1_1_77_1_23",
        "X_1_1_1_1_1_1_80_1_1_78_1_23",
        "X_1_1_1_1_1_1_40_1_1_79_1_23",
        "X_1_1_1_1_1_1_81_1_1_80_1_23",
        "X_1_1_1_1_1_1_41_1_1_81_1_23"
],
      "CsaImage.ProtocolSliceNumber": [0, 1, 2, 3, 4, 5, 6, 7, 8, 9, 10, 11, 12, 13, 14, 15, 16, 17, 18, 19, 20, 21, 22, 23, 24, 25, 26, 27, 28, 29, 30, 31, 32, 33, 34, 35, 36, 37, 38, 39, 40, 41, 42, 43, 44, 45, 46, 47, 48, 49, 50, 51, 52, 53, 54, 55, 56, 57, 58, 59, 60, 61, 62, 63, 64, 65, 66, 67, 68, 69, 70, 71, 72, 73, 74, 75, 76, 77, 78, 79, 80],
      "CsaImage.SlicePosition_PCS": [
        [-125.79317603, -140.35739365, -90.67030979],
        [-125.80985985, -140.49201623, -88.97572971],
        [-125.82654366, -140.6266388, -87.28114964],
        [-125.84322748, -140.76126137, -85.58656956],
        [-125.8599113, -140.89588395, -83.89198948],
        [-125.87659512, -141.03050652, -82.1974094],
        [-125.89327869, -141.1651291, -80.50282932],
        [-125.90996251, -141.29974976, -78.80825688],
        [-125.92664633, -141.43437234, -77.1136768],
        [-125.94333014, -141.56899491, -75.41909672],
        [-125.96001396, -141.70361748, -73.72451664],
        [-125.97669778, -141.83824006, -72.02993656],
        [-125.99338136, -141.97286263, -70.33535648],
        [-126.01006517, -142.10748521, -68.64078022],
        [-126.02674899, -142.24210778, -66.94620014],
        [-126.04343281, -142.37673035, -65.25162007],
        [-126.06011662, -142.51135102, -63.55703999],
        [-126.07680044, -142.64597359, -61.86246372],
        [-126.09348402, -142.78059617, -60.16788365],
        [-126.11016784, -142.91521874, -58.47330357],
        [-126.12685165, -143.04984132, -56.77872349],
        [-126.14353547, -143.18446389, -55.08414723],
        [-126.16021929, -143.31908646, -53.38956715],
        [-126.1769031, -143.45370904, -51.69498707],
        [-126.19358668, -143.5883297, -50.00040699],
        [-126.2102705, -143.72295228, -48.30583073],
        [-126.22695432, -143.85757485, -46.61125065],
        [-126.24363813, -143.99219743, -44.91667057],
        [-126.26032195, -144.12682, -43.22209049],
        [-126.27700577, -144.26144257, -41.52751232],
        [-126.29368958, -144.39606515, -39.83293415],
        [-126.31037316, -144.53068772, -38.13835407],
        [-126.32705698, -144.66531029, -36.4437759],
        [-126.3437408, -144.79993096, -34.74919582],
        [-126.36042461, -144.93455353, -33.05461575],
        [-126.37710843, -145.06917611, -31.36003758],
        [-126.39379225, -145.20379868, -29.6654575],
        [-126.41047583, -145.33842126, -27.97087933],
        [-126.42715964, -145.47304383, -26.2763002],
        [-126.44384346, -145.6076664, -24.58172108],
        [-126.46052728, -145.74228898, -22.88714195],
        [-126.47721109, -145.87690964, -21.19256283],
        [-126.49389491, -146.01153222, -19.4979837],
        [-126.51057849, -146.14615479, -17.80340458],
        [-126.52726231, -146.28077737, -16.10882546],
        [-126.54394612, -146.41539994, -14.41424609],
        [-126.56062994, -146.55002251, -12.71966697],
        [-126.57731376, -146.68464509, -11.02508778],
        [-126.59399734, -146.81926766, -9.33050872],
        [-126.61068139, -146.95389024, -7.6359296],
        [-126.62736497, -147.0885109, -5.94135023],
        [-126.64404902, -147.22313348, -4.24677111],
        [-126.6607326, -147.35775605, -2.55219198],
        [-126.67741618, -147.49237862, -0.85761334],
        [-126.69410024, -147.6270012, 0.83696579],
        [-126.71078382, -147.76162377, 2.53154491],
        [-126.72746787, -147.89624634, 4.22612404],
        [-126.74415145, -148.03086892, 5.92070316],
        [-126.76083503, -148.16548959, 7.61528324],
        [-126.77751908, -148.30011216, 9.30986141],
        [-126.79420266, -148.43473473, 11.00444149],
        [-126.81088672, -148.56935731, 12.69901966],
        [-126.82757029, -148.70397988, 14.39359974],
        [-126.84425435, -148.83860245, 16.08817791],
        [-126.86093793, -148.97322503, 17.78275799],
        [-126.87762151, -149.10784569, 19.47733616],
        [-126.89430556, -149.24247018, 21.17191624],
        [-126.91098914, -149.37709084, 22.86649441],
        [-126.9276732, -149.51171532, 24.56107448],
        [-126.94435677, -149.64633599, 26.25565456],
        [-126.96104035, -149.78096047, 27.95023083],
        [-126.97772441, -149.91558114, 29.6448109],
        [-126.99440799, -150.0502018, 31.33939098],
        [-127.01109204, -150.18482629, 33.03397106],
        [-127.02777562, -150.31944695, 34.72854732],
        [-127.04445968, -150.45407143, 36.4231274],
        [-127.06114325, -150.5886921, 38.11770748],
        [-127.07782683, -150.72331658, 39.81228756],
        [-127.09451089, -150.85793725, 41.50686382],
        [-127.11119447, -150.99255791, 43.2014439],
        [-127.12787852, -151.1271824, 44.89602398]
],
      "CsaImage.TimeAfterStart": [16.4, 18.5175, 16.5525, 18.6675, 16.7025, 18.8175, 16.855, 18.97, 17.005, 19.12, 17.1575, 19.2725, 17.3075, 19.4225, 17.4575, 19.575, 17.61, 19.725, 17.76, 19.8775, 17.9125, 20.0275, 18.0625, 20.1775, 18.215, 20.33, 18.365, 16.4, 18.5175, 16.5525, 18.6675, 16.7025, 18.8175, 16.855, 18.97, 17.005, 19.12, 17.1575, 19.2725, 17.3075, 19.4225, 17.4575, 19.575, 17.61, 19.725, 17.76, 19.8775, 17.9125, 20.0275, 18.0625, 20.1775, 18.215, 20.33, 18.365, 16.4, 18.5175, 16.5525, 18.6675, 16.7025, 18.8175, 16.855, 18.97, 17.005, 19.12, 17.1575, 19.2725, 17.3075, 19.4225, 17.4575, 19.575, 17.61, 19.725, 17.76, 19.8775, 17.9125, 20.0275, 18.0625, 20.1775, 18.215, 20.33, 18.365],
      "ImagePositionPatient": [
        [-125.79317603073, -140.35739365329, -90.670309792862],
        [-125.80985984764, -140.49201622714, -88.975729714737],
        [-125.82654366455, -140.62663880099, -87.281149636612],
        [-125.84322748146, -140.76126137484, -85.586569558487],
        [-125.85991129837, -140.8958839487, -83.891989480362],
        [-125.87659511528, -141.03050652255, -82.197409402237],
        [-125.89327869377, -141.1651290964, -80.502829324112],
        [-125.90996251068, -141.2997497629, -78.808256875381],
        [-125.92664632759, -141.43437233676, -77.113676797256],
        [-125.9433301445, -141.56899491061, -75.419096719131],
        [-125.96001396141, -141.70361748446, -73.724516641006],
        [-125.97669777832, -141.83824005831, -72.029936562881],
        [-125.99338135681, -141.97286263217, -70.335356484756],
        [-126.01006517372, -142.10748520602, -68.640780221328],
        [-126.02674899063, -142.24210777987, -66.946200143203],
        [-126.04343280754, -142.37673035373, -65.251620065078],
        [-126.06011662445, -142.51135102023, -63.557039986953],
        [-126.07680044136, -142.64597359408, -61.862463723526],
        [-126.09348401985, -142.78059616793, -60.167883645401],
        [-126.11016783676, -142.91521874179, -58.473303567276],
        [-126.12685165367, -143.04984131564, -56.778723489151],
        [-126.14353547058, -143.18446388949, -55.084147225723],
        [-126.16021928749, -143.31908646334, -53.389567147598],
        [-126.1769031044, -143.4537090372, -51.694987069473],
        [-126.19358668289, -143.5883297037, -50.000406991348],
        [-126.2102704998, -143.72295227755, -48.30583072792],
        [-126.22695431671, -143.85757485141, -46.611250649795],
        [-126.24363813362, -143.99219742526, -44.91667057167],
        [-126.26032195053, -144.12681999911, -43.222090493545],
        [-126.27700576744, -144.26144257296, -41.527512322769],
        [-126.29368958435, -144.39606514682, -39.832934151993],
        [-126.31037316284, -144.53068772067, -38.138354073868],
        [-126.32705697975, -144.66531029452, -36.443775903091],
        [-126.34374079666, -144.79993096102, -34.749195824966],
        [-126.36042461357, -144.93455353488, -33.054615746841],
        [-126.37710843048, -145.06917610873, -31.360037576065],
        [-126.39379224739, -145.20379868258, -29.66545749794],
        [-126.41047582588, -145.33842125644, -27.970879327163],
        [-126.42715964279, -145.47304383029, -26.276300202713],
        [-126.4438434597, -145.60766640414, -24.581721078262],
        [-126.46052727661, -145.74228897799, -22.887141953811],
        [-126.47721109352, -145.8769096445, -21.192562829361],
        [-126.49389491043, -146.01153221835, -19.49798370491],
        [-126.51057848892, -146.1461547922, -17.803404580459],
        [-126.52726230583, -146.28077736605, -16.108825456009],
        [-126.54394612274, -146.41539993991, -14.414246093139],
        [-126.56062993965, -146.55002251376, -12.719666968689],
        [-126.57731375656, -146.68464508761, -11.025087784633],
        [-126.59399733505, -146.81926766146, -9.3305087197873],
        [-126.61068139038, -146.95389023532, -7.6359295953366],
        [-126.62736496887, -147.08851090182, -5.9413502324674],
        [-126.6440490242, -147.22313347567, -4.2467711080167],
        [-126.66073260269, -147.35775604953, -2.552191983566],
        [-126.67741618118, -147.49237862338, -0.8576133359525],
        [-126.69410023651, -147.62700119723, 0.83696578849821],
        [-126.710783815, -147.76162377108, 2.5315449129489],
        [-126.72746787033, -147.89624634494, 4.2261240373996],
        [-126.74415144882, -148.03086891879, 5.9207031618503],
        [-126.76083502731, -148.16548958529, 7.6152832399753],
        [-126.77751908264, -148.30011215915, 9.3098614107516],
        [-126.79420266113, -148.434734733, 11.004441488877],
        [-126.81088671646, -148.56935730685, 12.699019659653],
        [-126.82757029495, -148.7039798807, 14.393599737778],
        [-126.84425435028, -148.83860245456, 16.088177908554],
        [-126.86093792877, -148.97322502841, 17.782757986679],
        [-126.87762150726, -149.10784569491, 19.477336157456],
        [-126.89430556259, -149.24247017611, 21.171916235581],
        [-126.91098914108, -149.37709084262, 22.866494406357],
        [-126.92767319641, -149.51171532382, 24.561074484482],
        [-126.9443567749, -149.64633599032, 26.255654562607],
        [-126.96104035339, -149.78096047152, 27.950230826035],
        [-126.97772440872, -149.91558113803, 29.64481090416],
        [-126.99440798721, -150.05020180453, 31.339390982285],
        [-127.01109204254, -150.18482628573, 33.03397106041],
        [-127.02777562103, -150.31944695224, 34.728547323838],
        [-127.04445967636, -150.45407143344, 36.423127401963],
        [-127.06114325485, -150.58869209994, 38.117707480088],
        [-127.07782683334, -150.72331658114, 39.812287558213],
        [-127.09451088867, -150.85793724765, 41.50686382164],
        [-127.11119446716, -150.99255791415, 43.201443899765],
        [-127.12787852249, -151.12718239535, 44.89602397789]
],
      "InstanceCreationTime": ["125450.601000", "125450.876000", "125450.610000", "125450.882000", "125450.699000", "125450.889000", "125450.765000", "125450.896000", "125450.779000", "125450.902000", "125450.787000", "125450.909000", "125450.794000", "125450.915000", "125450.801000", "125450.922000", "125450.808000", "125450.928000", "125450.824000", "125450.934000", "125450.831000", "125450.941000", "125450.837000", "125450.947000", "125450.851000", "125450.954000", "125450.864000", "125450.605000", "125450.878000", "125450.613000", "125450.884000", "125450.701000", "125450.891000", "125450.767000", "125450.898000", "125450.782000", "125450.904000", "125450.789000", "125450.911000", "125450.797000", "125450.917000", "125450.804000", "125450.924000", "125450.820000", "125450.930000", "125450.826000", "125450.937000", "125450.833000", "125450.943000", "125450.839000", "125450.950000", "125450.853000", "125450.956000", "125450.867000", "125450.607000", "125450.880000", "125450.697000", "125450.887000", "125450.756000", "125450.893000", "125450.776000", "125450.900000", "125450.784000", "125450.906000", "125450.792000", "125450.913000", "125450.799000", "125450.919000", "125450.806000", "125450.926000", "125450.822000", "125450.932000", "125450.828000", "125450.939000", "125450.835000", "125450.945000", "125450.842000", "125450.952000", "125450.862000", "125450.958000", "125450.874000"],
      "InstanceNumber": [1, 2, 3, 4, 5, 6, 7, 8, 9, 10, 11, 12, 13, 14, 15, 16, 17, 18, 19, 20, 21, 22, 23, 24, 25, 26, 27, 28, 29, 30, 31, 32, 33, 34, 35, 36, 37, 38, 39, 40, 41, 42, 43, 44, 45, 46, 47, 48, 49, 50, 51, 52, 53, 54, 55, 56, 57, 58, 59, 60, 61, 62, 63, 64, 65, 66, 67, 68, 69, 70, 71, 72, 73, 74, 75, 76, 77, 78, 79, 80, 81],
      "LargestImagePixelValue": [28504, 25688, 25728, 18293, 17628, 24911, 26404, 26835, 28957, 34321, 27533, 26799, 25873, 32056, 36966, 52990, 51584, 65535, 65535, 65535, 65535, 65535, 65535, 65535, 65535, 65535, 65535, 60428, 53028, 53658, 41768, 33993, 45472, 46381, 47082, 57073, 45881, 49780, 47067, 39605, 56663, 58024, 60946, 57989, 59327, 41814, 38350, 65535, 46797, 49040, 65344, 65535, 56961, 60911, 65535, 65535, 61520, 59362, 64384, 64097, 54821, 65535, 60782, 56388, 54131, 51494, 45594, 65535, 56029, 50031, 47175, 48002, 46860, 43306, 65535, 64441, 45932, 38916, 41022, 29254, 25158],
      "SliceLocation": [-78.031804856503, -76.331803906999, -74.631802957494, -72.93180200799, -71.231801058486, -69.531800108982, -67.831799161817, -66.131805968421, -64.431805018917, -62.731804069413, -61.031803119909, -59.331802170404, -57.63180122324, -55.931804076269, -54.231803126765, -52.53180217726, -50.831801378798, -49.131804231827, -47.431803284663, -45.731802335158, -44.031801385654, -42.331804238683, -40.631803289179, -38.931802339674, -37.231801543552, -35.531804396581, -33.831803447077, -32.131802497572, -30.431801548068, -28.731802499831, -27.031803451593, -25.331802504428, -23.631803456191, -21.931802657729, -20.231801708224, -18.531802659987, -16.831801710482, -15.131802664585, -13.431802665714, -11.731802666843, -10.031802667972, -8.3318028201428, -6.6318028212718, -4.9318028247406, -3.2318028258696, -1.5318025893403, 0.16819740953066, 1.8681974678162, 3.5681974049328, 5.2681974061436, 6.9681974892909, 8.6681974905017, 10.368197487033, 12.068197008247, 13.768197009458, 15.468197005989, 17.1681970072, 18.868197003731, 20.568197799854, 22.268196850431, 23.968197797596, 25.668196848173, 27.368197795337, 29.068196845915, 30.768197793079, 32.468196687935, 34.168197790821, 35.868196685677, 37.568197788563, 39.268198584686, 40.968195880359, 42.668196681161, 44.368197477283, 46.06819858017, 47.768195573759, 49.468196676645, 51.168197472767, 52.868198570974, 54.568195569243, 56.268196365365, 57.968197468251],
      "WindowCenter": [5740.0, 5519.0, 5600.0, 5192.0, 5150.0, 5980.0, 6111.0, 6431.0, 6551.0, 6888.0, 6611.0, 6796.0, 7017.0, 7265.0, 7541.0, 7973.0, 8472.0, 9075.0, 9185.0, 9327.0, 9390.0, 9480.0, 9524.0, 9582.0, 9788.0, 9976.0, 10023.0, 9749.0, 9452.0, 9400.0, 9126.0, 9074.0, 9389.0, 9452.0, 9478.0, 9694.0, 9631.0, 9825.0, 9751.0, 9905.0, 10271.0, 10386.0, 10403.0, 10505.0, 10533.0, 10434.0, 10473.0, 10730.0, 10795.0, 11011.0, 11233.0, 11408.0, 11405.0, 11599.0, 11363.0, 11237.0, 11089.0, 11148.0, 11238.0, 11213.0, 11092.0, 11015.0, 11078.0, 10989.0, 10891.0, 10770.0, 11047.0, 10919.0, 10706.0, 10482.0, 10403.0, 10145.0, 10118.0, 10032.0, 10495.0, 10416.0, 10247.0, 9019.0, 7512.0, 5597.0, 5222.0],
      "WindowWidth": [12694.0, 12222.0, 12317.0, 11703.0, 11744.0, 13053.0, 13480.0, 13942.0, 14305.0, 15104.0, 14324.0, 14701.0, 15288.0, 15694.0, 16332.0, 17377.0, 19000.0, 21109.0, 22081.0, 22560.0, 22621.0, 22781.0, 22929.0, 23010.0, 23466.0, 23597.0, 23230.0, 21911.0, 20728.0, 20201.0, 19632.0, 19613.0, 20590.0, 20898.0, 20792.0, 21167.0, 21144.0, 21429.0, 21252.0, 21584.0, 22273.0, 22551.0, 22589.0, 22828.0, 22931.0, 22576.0, 22665.0, 23402.0, 23565.0, 24230.0, 24967.0, 25499.0, 25495.0, 26028.0, 25627.0, 25366.0, 24909.0, 24908.0, 25177.0, 25192.0, 24885.0, 24769.0, 24907.0, 24663.0, 24259.0, 23791.0, 24782.0, 24649.0, 24013.0, 23412.0, 23211.0, 22597.0, 22551.0, 22297.0, 23962.0, 23979.0, 23392.0, 19473.0, 16346.0, 12133.0, 11274.0]
    }
  }
}