{
  "AcquisitionMatrixPE": 140,
  "AcquisitionNumber": 1,
  "AcquisitionTime": "12:55:8.052500",
  "BandwidthPerPixelPhaseEncode": 10.352,
  "BaseResolution": 140,
  "BodyPartExamined": "BRAIN",
  "ConsistencyInfo": "N4_VE11C_LATEST_20160120",
  "ConversionSoftware": "dcm2niix",
  "ConversionSoftwareVersion": "v1.0.20201102",
  "DerivedVendorReportedEchoSpacing": 0.000689998,
  "DeviceSerialNumber": "66112",
  "DiffusionScheme": "Monopolar",
  "DwellTime": 2.1e-06,
  "EchoTime": 0.088,
  "EchoTrainLength": 105,
  "EffectiveEchoSpacing": 0.000689998,
  "FlipAngle": 90,
  "ImageComments": "Unaliased MB3/PE3",
  "ImageOrientationPatientDICOM": [0.999714, -0.0225234, 0.00805324, 0.0218139, 0.996605, 0.079388],
  "ImageType": [
    "ORIGINAL",
    "PRIMARY",
    "DIFFUSION",
    "NONE",
    "MB",
    "ND"
],
  "ImagingFrequency": 123.252,
  "InPlanePhaseEncodingDirectionDICOM": "COL",
  "InstitutionAddress": "Maynard 3,Hanover,NH,US,03755",
  "InstitutionName": "Dartmouth College - PBS",
  "InstitutionalDepartmentName": "Department",
  "IntendedFor": [
    "ses-01/dwi/sub-0031_ses-01_acq-96dirX6b0Xmb_dwi.nii.gz"
],
  "MRAcquisitionType": "2D",
  "MagneticFieldStrength": 3,
  "Manufacturer": "Siemens",
  "ManufacturersModelName": "Prisma",
  "Modality": "MR",
  "MultibandAccelerationFactor": 3,
  "PartialFourier": 0.75,
  "PatientPosition": "HFS",
  "PercentPhaseFOV": 100,
  "PercentSampling": 100,
  "PhaseEncodingDirection": "j-",
  "PhaseEncodingSteps": 105,
  "PhaseResolution": 1,
  "PixelBandwidth": 1700,
  "ProcedureStepDescription": "Wager_Wager^1076_spacetop",
  "ProtocolName": "dwi_acq-discorr-AP",
  "PulseSequenceDetails": "%CustomerSeq%\\cmrr_mbep2d_diff",
  "ReceiveCoilActiveElements": "HEA;HEP",
  "ReceiveCoilName": "Head_32",
  "ReconMatrixPE": 140,
  "RepetitionTime": 4.1,
  "SAR": 0.145698,
  "ScanOptions": "PFP\\FS",
  "ScanningSequence": "EP",
  "SequenceName": "ep_b0",
  "SequenceVariant": "SK\\SS",
  "SeriesDescription": "dwi_acq-discorr-AP",
  "SeriesNumber": 7,
  "ShimSetting": [4147, -7706, -7283, 549, -81, -147, 83, 78],
  "SliceThickness": 1.7,
  "SliceTiming": [0, 2.10938, 0.14844, 2.26562, 0.29688, 2.41406, 0.45312, 2.5625, 0.60156, 2.71875, 0.75, 2.86719, 0.90625, 3.02344, 1.05469, 3.17188, 1.20312, 3.32031, 1.35938, 3.47656, 1.50781, 3.625, 1.66406, 3.77344, 1.8125, 3.92188, 1.96094, 0, 2.10938, 0.14844, 2.26562, 0.29688, 2.41406, 0.45312, 2.5625, 0.60156, 2.71875, 0.75, 2.86719, 0.90625, 3.02344, 1.05469, 3.17188, 1.20312, 3.32031, 1.35938, 3.47656, 1.50781, 3.625, 1.66406, 3.77344, 1.8125, 3.92188, 1.96094, 0, 2.10938, 0.14844, 2.26562, 0.29688, 2.41406, 0.45312, 2.5625, 0.60156, 2.71875, 0.75, 2.86719, 0.90625, 3.02344, 1.05469, 3.17188, 1.20312, 3.32031, 1.35938, 3.47656, 1.50781, 3.625, 1.66406, 3.77344, 1.8125, 3.92188, 1.96094],
  "SoftwareVersions": "syngo MR E11",
  "SpacingBetweenSlices": 1.7,
  "StationName": "AWP66112",
  "TotalReadoutTime": 0.0959097,
  "TxRefAmp": 260.777,
  "WipMemBlock": "b012d951-c410-4817-84ef-0afaad5c73a4||Sequence: R016 ve11c/master r/e634e98; Dec 19 2017 11:11:25 by eja",
  "dcmmeta_affine": [
    [-1.7137951850891113, 0.03739519789814949, 0.01668405532836914, 120.59522247314453],
    [0.038611575961112976, 1.7084659337997437, 0.13462448120117188, -97.11953735351562],
    [0.013805554248392582, -0.13609372079372406, 1.694580078125, -71.75335693359375],
    [0.0, 0.0, 0.0, 1.0]
],
  "dcmmeta_reorient_transform": [
    [0.0, -1.0, 0.0, 139.0],
    [1.0, 0.0, 0.0, 0.0],
    [0.0, 0.0, -1.0, 80.0],
    [0.0, 0.0, 0.0, 1.0]
],
  "dcmmeta_shape": [140, 140, 81],
  "dcmmeta_slice_dim": 2,
  "dcmmeta_version": 0.6,
  "global": {
    "const": {
      "AccessionNumber": "A003792",
      "AcquisitionMatrix": [140, 0, 0, 140],
      "AcquisitionNumber": 1,
      "AngioFlag": "N",
      "BitsAllocated": 16,
      "BitsStored": 16,
      "BodyPartExamined": "BRAIN",
      "Columns": 140,
      "EchoNumbers": 1,
      "EchoTime": 88.0,
      "EchoTrainLength": 105,
      "FlipAngle": 90.0,
      "HighBit": 15,
      "ImageOrientationPatient": [0.99971387953669, -0.0225234186611, 0.00805323993906, 0.02181386438055, 0.99660508743372, 0.07938800301057],
      "ImageType": [
        "ORIGINAL",
        "PRIMARY",
        "DIFFUSION",
        "NONE",
        "MB",
        "ND"
],
      "ImagedNucleus": "1H",
      "ImagingFrequency": 123.252221,
      "InPlanePhaseEncodingDirection": "COL",
      "MRAcquisitionType": "2D",
      "MagneticFieldStrength": 3.0,
      "Manufacturer": "SIEMENS",
      "ManufacturerModelName": "Prisma",
      "Modality": "MR",
      "NumberOfAverages": 1.0,
      "NumberOfPhaseEncodingSteps": 105,
      "PercentPhaseFieldOfView": 100.0,
      "PercentSampling": 100.0,
      "PerformedProcedureStepStartTime": "124220.013000",
      "PhotometricInterpretation": "MONOCHROME2",
      "PixelBandwidth": 1700.0,
      "PixelRepresentation": 0,
      "PixelSpacing": [1.7142857313156, 1.7142857313156],
      "ProtocolName": "dwi_acq-discorr-AP",
      "RepetitionTime": 4100.0,
      "Rows": 140,
      "SAR": 0.14569792171713,
      "SamplesPerPixel": 1,
      "ScanOptions": [
        "PFP",
        "FS"
],
      "ScanningSequence": "EP",
      "SequenceName": "ep_b0",
      "SequenceVariant": [
        "SK",
        "SS"
],
      "SeriesDescription": "dwi_acq-discorr-AP",
      "SeriesNumber": 7,
      "SeriesTime": "125512.548000",
      "SliceThickness": 1.7000000476837,
      "SmallestImagePixelValue": 0,
      "SoftwareVersions": "syngo MR E11",
      "SpacingBetweenSlices": 1.7,
      "SpecificCharacterSet": "ISO_IR 100",
      "StudyID": "1",
      "StudyTime": "124219.874000",
      "TransmitCoilName": "Body",
      "VariableFlipAngleFlag": "N",
      "WindowCenterWidthExplanation": "Algo1",
      "dBdt": 0.0},
    "slices": {
      "AcquisitionTime": ["125508.052500", "125510.167500", "125508.202500", "125510.317500", "125508.355000", "125510.470000", "125508.505000", "125510.620000", "125508.657500", "125510.772500", "125508.807500", "125510.922500", "125508.957500", "125511.075000", "125509.110000", "125511.225000", "125509.260000", "125511.375000", "125509.412500", "125511.527500", "125509.562500", "125511.677500", "125509.715000", "125511.830000", "125509.865000", "125511.980000", "125510.015000", "125508.052500", "125510.167500", "125508.202500", "125510.317500", "125508.355000", "125510.470000", "125508.505000", "125510.620000", "125508.657500", "125510.772500", "125508.807500", "125510.922500", "125508.957500", "125511.075000", "125509.110000", "125511.225000", "125509.260000", "125511.375000", "125509.412500", "125511.527500", "125509.562500", "125511.677500", "125509.715000", "125511.830000", "125509.865000", "125511.980000", "125510.015000", "125508.052500", "125510.167500", "125508.202500", "125510.317500", "125508.355000", "125510.470000", "125508.505000", "125510.620000", "125508.657500", "125510.772500", "125508.807500", "125510.922500", "125508.957500", "125511.075000", "125509.110000", "125511.225000", "125509.260000", "125511.375000", "125509.412500", "125511.527500", "125509.562500", "125511.677500", "125509.715000", "125511.830000", "125509.865000", "125511.980000", "125510.015000"],
      "ContentTime": ["125512.552000", "125512.655000", "125512.561000", "125512.663000", "125512.568000", "125512.671000", "125512.575000", "125512.678000", "125512.583000", "125512.684000", "125512.591000", "125512.691000", "125512.597000", "125512.697000", "125512.604000", "125512.704000", "125512.611000", "125512.710000", "125512.618000", "125512.717000", "125512.625000", "125512.728000", "125512.631000", "125512.735000", "125512.641000", "125512.742000", "125512.648000", "125512.556000", "125512.657000", "125512.563000", "125512.666000", "125512.570000", "125512.673000", "125512.578000", "125512.680000", "125512.586000", "125512.686000", "125512.593000", "125512.693000", "125512.599000", "125512.699000", "125512.606000", "125512.706000", "125512.614000", "125512.712000", "125512.620000", "125512.724000", "125512.627000", "125512.731000", "125512.633000", "125512.737000", "125512.643000", "125512.745000", "125512.651000", "125512.558000", "125512.659000", "125512.566000", "125512.668000", "125512.573000", "125512.675000", "125512.580000", "125512.682000", "125512.588000", "125512.689000", "125512.595000", "125512.695000", "125512.602000", "125512.702000", "125512.608000", "125512.708000", "125512.616000", "125512.715000", "125512.622000", "125512.726000", "125512.629000", "125512.733000", "125512.638000", "125512.740000", "125512.646000", "125512.747000", "125512.653000"],
      "CsaImage.ICE_Dims": [
        "X_1_1_1_1_1_1_1_1_1_1_1_25",
        "X_1_1_1_1_1_1_42_1_1_2_1_25",
        "X_1_1_1_1_1_1_2_1_1_3_1_25",
        "X_1_1_1_1_1_1_43_1_1_4_1_25",
        "X_1_1_1_1_1_1_3_1_1_5_1_25",
        "X_1_1_1_1_1_1_44_1_1_6_1_25",
        "X_1_1_1_1_1_1_4_1_1_7_1_25",
        "X_1_1_1_1_1_1_45_1_1_8_1_25",
        "X_1_1_1_1_1_1_5_1_1_9_1_25",
        "X_1_1_1_1_1_1_46_1_1_10_1_25",
        "X_1_1_1_1_1_1_6_1_1_11_1_25",
        "X_1_1_1_1_1_1_47_1_1_12_1_25",
        "X_1_1_1_1_1_1_7_1_1_13_1_25",
        "X_1_1_1_1_1_1_48_1_1_14_1_25",
        "X_1_1_1_1_1_1_8_1_1_15_1_25",
        "X_1_1_1_1_1_1_49_1_1_16_1_25",
        "X_1_1_1_1_1_1_9_1_1_17_1_25",
        "X_1_1_1_1_1_1_50_1_1_18_1_25",
        "X_1_1_1_1_1_1_10_1_1_19_1_25",
        "X_1_1_1_1_1_1_51_1_1_20_1_25",
        "X_1_1_1_1_1_1_11_1_1_21_1_25",
        "X_1_1_1_1_1_1_52_1_1_22_1_25",
        "X_1_1_1_1_1_1_12_1_1_23_1_25",
        "X_1_1_1_1_1_1_53_1_1_24_1_25",
        "X_1_1_1_1_1_1_13_1_1_25_1_25",
        "X_1_1_1_1_1_1_54_1_1_26_1_25",
        "X_1_1_1_1_1_1_14_1_1_27_1_25",
        "X_1_1_1_1_1_1_55_1_1_28_1_25",
        "X_1_1_1_1_1_1_15_1_1_29_1_25",
        "X_1_1_1_1_1_1_56_1_1_30_1_25",
        "X_1_1_1_1_1_1_16_1_1_31_1_25",
        "X_1_1_1_1_1_1_57_1_1_32_1_25",
        "X_1_1_1_1_1_1_17_1_1_33_1_25",
        "X_1_1_1_1_1_1_58_1_1_34_1_25",
        "X_1_1_1_1_1_1_18_1_1_35_1_25",
        "X_1_1_1_1_1_1_59_1_1_36_1_25",
        "X_1_1_1_1_1_1_19_1_1_37_1_25",
        "X_1_1_1_1_1_1_60_1_1_38_1_25",
        "X_1_1_1_1_1_1_20_1_1_39_1_25",
        "X_1_1_1_1_1_1_61_1_1_40_1_25",
        "X_1_1_1_1_1_1_21_1_1_41_1_25",
        "X_1_1_1_1_1_1_62_1_1_42_1_25",
        "X_1_1_1_1_1_1_22_1_1_43_1_25",
        "X_1_1_1_1_1_1_63_1_1_44_1_25",
        "X_1_1_1_1_1_1_23_1_1_45_1_25",
        "X_1_1_1_1_1_1_64_1_1_46_1_25",
        "X_1_1_1_1_1_1_24_1_1_47_1_25",
        "X_1_1_1_1_1_1_65_1_1_48_1_25",
        "X_1_1_1_1_1_1_25_1_1_49_1_25",
        "X_1_1_1_1_1_1_66_1_1_50_1_25",
        "X_1_1_1_1_1_1_26_1_1_51_1_25",
        "X_1_1_1_1_1_1_67_1_1_52_1_25",
        "X_1_1_1_1_1_1_27_1_1_53_1_25",
        "X_1_1_1_1_1_1_68_1_1_54_1_25",
        "X_1_1_1_1_1_1_28_1_1_55_1_25",
        "X_1_1_1_1_1_1_69_1_1_56_1_25",
        "X_1_1_1_1_1_1_29_1_1_57_1_25",
        "X_1_1_1_1_1_1_70_1_1_58_1_25",
        "X_1_1_1_1_1_1_30_1_1_59_1_25",
        "X_1_1_1_1_1_1_71_1_1_60_1_25",
        "X_1_1_1_1_1_1_31_1_1_61_1_25",
        "X_1_1_1_1_1_1_72_1_1_62_1_25",
        "X_1_1_1_1_1_1_32_1_1_63_1_25",
        "X_1_1_1_1_1_1_73_1_1_64_1_25",
        "X_1_1_1_1_1_1_33_1_1_65_1_25",
        "X_1_1_1_1_1_1_74_1_1_66_1_25",
        "X_1_1_1_1_1_1_34_1_1_67_1_25",
        "X_1_1_1_1_1_1_75_1_1_68_1_25",
        "X_1_1_1_1_1_1_35_1_1_69_1_25",
        "X_1_1_1_1_1_1_76_1_1_70_1_25",
        "X_1_1_1_1_1_1_36_1_1_71_1_25",
        "X_1_1_1_1_1_1_77_1_1_72_1_25",
        "X_1_1_1_1_1_1_37_1_1_73_1_25",
        "X_1_1_1_1_1_1_78_1_1_74_1_25",
        "X_1_1_1_1_1_1_38_1_1_75_1_25",
        "X_1_1_1_1_1_1_79_1_1_76_1_25",
        "X_1_1_1_1_1_1_39_1_1_77_1_25",
        "X_1_1_1_1_1_1_80_1_1_78_1_25",
        "X_1_1_1_1_1_1_40_1_1_79_1_25",
        "X_1_1_1_1_1_1_81_1_1_80_1_25",
        "X_1_1_1_1_1_1_41_1_1_81_1_25"
],
      "CsaImage.ProtocolSliceNumber": [0, 1, 2, 3, 4, 5, 6, 7, 8, 9, 10, 11, 12, 13, 14, 15, 16, 17, 18, 19, 20, 21, 22, 23, 24, 25, 26, 27, 28, 29, 30, 31, 32, 33, 34, 35, 36, 37, 38, 39, 40, 41, 42, 43, 44, 45, 46, 47, 48, 49, 50, 51, 52, 53, 54, 55, 56, 57, 58, 59, 60, 61, 62, 63, 64, 65, 66, 67, 68, 69, 70, 71, 72, 73, 74, 75, 76, 77, 78, 79, 80],
      "CsaImage.RFSWDDataType": [
        "predicted",
        "predicted",
        "predicted",
        "predicted",
        "predicted",
        "predicted",
        "predicted",
        "predicted",
        "predicted",
        "predicted",
        "predicted",
        "predicted",
        "predicted",
        "predicted",
        "predicted",
        "predicted",
        "predicted",
        "predicted",
        "predicted",
        "predicted",
        "predicted",
        "predicted",
        "predicted",
        "predicted",
        "predicted",
        "measured",
        "predicted",
        "predicted",
        "predicted",
        "predicted",
        "predicted",
        "predicted",
        "predicted",
        "predicted",
        "predicted",
        "predicted",
        "predicted",
        "predicted",
        "predicted",
        "predicted",
        "predicted",
        "predicted",
        "predicted",
        "predicted",
        "predicted",
        "predicted",
        "predicted",
        "predicted",
        "predicted",
        "predicted",
        "predicted",
        "predicted",
        "measured",
        "predicted",
        "predicted",
        "predicted",
        "predicted",
        "predicted",
        "predicted",
        "predicted",
        "predicted",
        "predicted",
        "predicted",
        "predicted",
        "predicted",
        "predicted",
        "predicted",
        "predicted",
        "predicted",
        "predicted",
        "predicted",
        "predicted",
        "predicted",
        "predicted",
        "predicted",
        "predicted",
        "predicted",
        "predicted",
        "predicted",
        "measured",
        "predicted"
],
      "CsaImage.SlicePosition_PCS": [
        [-125.79317603, -140.35739365, -90.67030979],
        [-125.80985985, -140.49201623, -88.97572971],
        [-125.82654366, -140.6266388, -87.28114964],
        [-125.84322748, -140.76126137, -85.58656956],
        [-125.8599113, -140.89588395, -83.89198948],
        [-125.87659512, -141.03050652, -82.1974094],
        [-125.89327869, -141.1651291, -80.50282932],
        [-125.90996251, -141.29974976, -78.80825688],
        [-125.92664633, -141.43437234, -77.1136768],
        [-125.94333014, -141.56899491, -75.41909672],
        [-125.96001396, -141.70361748, -73.72451664],
        [-125.97669778, -141.83824006, -72.02993656],
        [-125.99338136, -141.97286263, -70.33535648],
        [-126.01006517, -142.10748521, -68.64078022],
        [-126.02674899, -142.24210778, -66.94620014],
        [-126.04343281, -142.37673035, -65.25162007],
        [-126.06011662, -142.51135102, -63.55703999],
        [-126.07680044, -142.64597359, -61.86246372],
        [-126.09348402, -142.78059617, -60.16788365],
        [-126.11016784, -142.91521874, -58.47330357],
        [-126.12685165, -143.04984132, -56.77872349],
        [-126.14353547, -143.18446389, -55.08414723],
        [-126.16021929, -143.31908646, -53.38956715],
        [-126.1769031, -143.45370904, -51.69498707],
        [-126.19358668, -143.5883297, -50.00040699],
        [-126.2102705, -143.72295228, -48.30583073],
        [-126.22695432, -143.85757485, -46.61125065],
        [-126.24363813, -143.99219743, -44.91667057],
        [-126.26032195, -144.12682, -43.22209049],
        [-126.27700577, -144.26144257, -41.52751232],
        [-126.29368958, -144.39606515, -39.83293415],
        [-126.31037316, -144.53068772, -38.13835407],
        [-126.32705698, -144.66531029, -36.4437759],
        [-126.3437408, -144.79993096, -34.74919582],
        [-126.36042461, -144.93455353, -33.05461575],
        [-126.37710843, -145.06917611, -31.36003758],
        [-126.39379225, -145.20379868, -29.6654575],
        [-126.41047583, -145.33842126, -27.97087933],
        [-126.42715964, -145.47304383, -26.2763002],
        [-126.44384346, -145.6076664, -24.58172108],
        [-126.46052728, -145.74228898, -22.88714195],
        [-126.47721109, -145.87690964, -21.19256283],
        [-126.49389491, -146.01153222, -19.4979837],
        [-126.51057849, -146.14615479, -17.80340458],
        [-126.52726231, -146.28077737, -16.10882546],
        [-126.54394612, -146.41539994, -14.41424609],
        [-126.56062994, -146.55002251, -12.71966697],
        [-126.57731376, -146.68464509, -11.02508778],
        [-126.59399734, -146.81926766, -9.33050872],
        [-126.61068139, -146.95389024, -7.6359296],
        [-126.62736497, -147.0885109, -5.94135023],
        [-126.64404902, -147.22313348, -4.24677111],
        [-126.6607326, -147.35775605, -2.55219198],
        [-126.67741618, -147.49237862, -0.85761334],
        [-126.69410024, -147.6270012, 0.83696579],
        [-126.71078382, -147.76162377, 2.53154491],
        [-126.72746787, -147.89624634, 4.22612404],
        [-126.74415145, -148.03086892, 5.92070316],
        [-126.76083503, -148.16548959, 7.61528324],
        [-126.77751908, -148.30011216, 9.30986141],
        [-126.79420266, -148.43473473, 11.00444149],
        [-126.81088672, -148.56935731, 12.69901966],
        [-126.82757029, -148.70397988, 14.39359974],
        [-126.84425435, -148.83860245, 16.08817791],
        [-126.86093793, -148.97322503, 17.78275799],
        [-126.87762151, -149.10784569, 19.47733616],
        [-126.89430556, -149.24247018, 21.17191624],
        [-126.91098914, -149.37709084, 22.86649441],
        [-126.9276732, -149.51171532, 24.56107448],
        [-126.94435677, -149.64633599, 26.25565456],
        [-126.96104035, -149.78096047, 27.95023083],
        [-126.97772441, -149.91558114, 29.6448109],
        [-126.99440799, -150.0502018, 31.33939098],
        [-127.01109204, -150.18482629, 33.03397106],
        [-127.02777562, -150.31944695, 34.72854732],
        [-127.04445968, -150.45407143, 36.4231274],
        [-127.06114325, -150.5886921, 38.11770748],
        [-127.07782683, -150.72331658, 39.81228756],
        [-127.09451089, -150.85793725, 41.50686382],
        [-127.11119447, -150.99255791, 43.2014439],
        [-127.12787852, -151.1271824, 44.89602398]
],
      "CsaImage.TimeAfterStart": [16.4, 18.515, 16.55, 18.665, 16.7, 18.8175, 16.8525, 18.9675, 17.0025, 19.12, 17.155, 19.27, 17.305, 19.42, 17.4575, 19.5725, 17.6075, 19.7225, 17.76, 19.875, 17.91, 20.025, 18.06, 20.1775, 18.2125, 20.3275, 18.3625, 16.4, 18.515, 16.55, 18.665, 16.7, 18.8175, 16.8525, 18.9675, 17.0025, 19.12, 17.155, 19.27, 17.305, 19.42, 17.4575, 19.5725, 17.6075, 19.7225, 17.76, 19.875, 17.91, 20.025, 18.06, 20.1775, 18.2125, 20.3275, 18.3625, 16.4, 18.515, 16.55, 18.665, 16.7, 18.8175, 16.8525, 18.9675, 17.0025, 19.12, 17.155, 19.27, 17.305, 19.42, 17.4575, 19.5725, 17.6075, 19.7225, 17.76, 19.875, 17.91, 20.025, 18.06, 20.1775, 18.2125, 20.3275, 18.3625],
      "ImagePositionPatient": [
        [-125.79317603073, -140.35739365329, -90.670309792862],
        [-125.80985984764, -140.49201622714, -88.975729714737],
        [-125.82654366455, -140.62663880099, -87.281149636612],
        [-125.84322748146, -140.76126137484, -85.586569558487],
        [-125.85991129837, -140.8958839487, -83.891989480362],
        [-125.87659511528, -141.03050652255, -82.197409402237],
        [-125.89327869377, -141.1651290964, -80.502829324112],
        [-125.90996251068, -141.2997497629, -78.808256875381],
        [-125.92664632759, -141.43437233676, -77.113676797256],
        [-125.9433301445, -141.56899491061, -75.419096719131],
        [-125.96001396141, -141.70361748446, -73.724516641006],
        [-125.97669777832, -141.83824005831, -72.029936562881],
        [-125.99338135681, -141.97286263217, -70.335356484756],
        [-126.01006517372, -142.10748520602, -68.640780221328],
        [-126.02674899063, -142.24210777987, -66.946200143203],
        [-126.04343280754, -142.37673035373, -65.251620065078],
        [-126.06011662445, -142.51135102023, -63.557039986953],
        [-126.07680044136, -142.64597359408, -61.862463723526],
        [-126.09348401985, -142.78059616793, -60.167883645401],
        [-126.11016783676, -142.91521874179, -58.473303567276],
        [-126.12685165367, -143.04984131564, -56.778723489151],
        [-126.14353547058, -143.18446388949, -55.084147225723],
        [-126.16021928749, -143.31908646334, -53.389567147598],
        [-126.1769031044, -143.4537090372, -51.694987069473],
        [-126.19358668289, -143.5883297037, -50.000406991348],
        [-126.2102704998, -143.72295227755, -48.30583072792],
        [-126.22695431671, -143.85757485141, -46.611250649795],
        [-126.24363813362, -143.99219742526, -44.91667057167],
        [-126.26032195053, -144.12681999911, -43.222090493545],
        [-126.27700576744, -144.26144257296, -41.527512322769],
        [-126.29368958435, -144.39606514682, -39.832934151993],
        [-126.31037316284, -144.53068772067, -38.138354073868],
        [-126.32705697975, -144.66531029452, -36.443775903091],
        [-126.34374079666, -144.79993096102, -34.749195824966],
        [-126.36042461357, -144.93455353488, -33.054615746841],
        [-126.37710843048, -145.06917610873, -31.360037576065],
        [-126.39379224739, -145.20379868258, -29.66545749794],
        [-126.41047582588, -145.33842125644, -27.970879327163],
        [-126.42715964279, -145.47304383029, -26.276300202713],
        [-126.4438434597, -145.60766640414, -24.581721078262],
        [-126.46052727661, -145.74228897799, -22.887141953811],
        [-126.47721109352, -145.8769096445, -21.192562829361],
        [-126.49389491043, -146.01153221835, -19.49798370491],
        [-126.51057848892, -146.1461547922, -17.803404580459],
        [-126.52726230583, -146.28077736605, -16.108825456009],
        [-126.54394612274, -146.41539993991, -14.414246093139],
        [-126.56062993965, -146.55002251376, -12.719666968689],
        [-126.57731375656, -146.68464508761, -11.025087784633],
        [-126.59399733505, -146.81926766146, -9.3305087197873],
        [-126.61068139038, -146.95389023532, -7.6359295953366],
        [-126.62736496887, -147.08851090182, -5.9413502324674],
        [-126.6440490242, -147.22313347567, -4.2467711080167],
        [-126.66073260269, -147.35775604953, -2.552191983566],
        [-126.67741618118, -147.49237862338, -0.8576133359525],
        [-126.69410023651, -147.62700119723, 0.83696578849821],
        [-126.710783815, -147.76162377108, 2.5315449129489],
        [-126.72746787033, -147.89624634494, 4.2261240373996],
        [-126.74415144882, -148.03086891879, 5.9207031618503],
        [-126.76083502731, -148.16548958529, 7.6152832399753],
        [-126.77751908264, -148.30011215915, 9.3098614107516],
        [-126.79420266113, -148.434734733, 11.004441488877],
        [-126.81088671646, -148.56935730685, 12.699019659653],
        [-126.82757029495, -148.7039798807, 14.393599737778],
        [-126.84425435028, -148.83860245456, 16.088177908554],
        [-126.86093792877, -148.97322502841, 17.782757986679],
        [-126.87762150726, -149.10784569491, 19.477336157456],
        [-126.89430556259, -149.24247017611, 21.171916235581],
        [-126.91098914108, -149.37709084262, 22.866494406357],
        [-126.92767319641, -149.51171532382, 24.561074484482],
        [-126.9443567749, -149.64633599032, 26.255654562607],
        [-126.96104035339, -149.78096047152, 27.950230826035],
        [-126.97772440872, -149.91558113803, 29.64481090416],
        [-126.99440798721, -150.05020180453, 31.339390982285],
        [-127.01109204254, -150.18482628573, 33.03397106041],
        [-127.02777562103, -150.31944695224, 34.728547323838],
        [-127.04445967636, -150.45407143344, 36.423127401963],
        [-127.06114325485, -150.58869209994, 38.117707480088],
        [-127.07782683334, -150.72331658114, 39.812287558213],
        [-127.09451088867, -150.85793724765, 41.50686382164],
        [-127.11119446716, -150.99255791415, 43.201443899765],
        [-127.12787852249, -151.12718239535, 44.89602397789]
],
      "InstanceCreationTime": ["125512.552000", "125512.655000", "125512.561000", "125512.663000", "125512.568000", "125512.671000", "125512.575000", "125512.678000", "125512.583000", "125512.684000", "125512.591000", "125512.691000", "125512.597000", "125512.697000", "125512.604000", "125512.704000", "125512.611000", "125512.710000", "125512.618000", "125512.717000", "125512.625000", "125512.728000", "125512.631000", "125512.735000", "125512.641000", "125512.742000", "125512.648000", "125512.556000", "125512.657000", "125512.563000", "125512.666000", "125512.570000", "125512.673000", "125512.578000", "125512.680000", "125512.586000", "125512.686000", "125512.593000", "125512.693000", "125512.599000", "125512.699000", "125512.606000", "125512.706000", "125512.614000", "125512.712000", "125512.620000", "125512.724000", "125512.627000", "125512.731000", "125512.633000", "125512.737000", "125512.643000", "125512.745000", "125512.651000", "125512.558000", "125512.659000", "125512.566000", "125512.668000", "125512.573000", "125512.675000", "125512.580000", "125512.682000", "125512.588000", "125512.689000", "125512.595000", "125512.695000", "125512.602000", "125512.702000", "125512.608000", "125512.708000", "125512.616000", "125512.715000", "125512.622000", "125512.726000", "125512.629000", "125512.733000", "125512.638000", "125512.740000", "125512.646000", "125512.747000", "125512.653000"],
      "InstanceNumber": [1, 2, 3, 4, 5, 6, 7, 8, 9, 10, 11, 12, 13, 14, 15, 16, 17, 18, 19, 20, 21, 22, 23, 24, 25, 26, 27, 28, 29, 30, 31, 32, 33, 34, 35, 36, 37, 38, 39, 40, 41, 42, 43, 44, 45, 46, 47, 48, 49, 50, 51, 52, 53, 54, 55, 56, 57, 58, 59, 60, 61, 62, 63, 64, 65, 66, 67, 68, 69, 70, 71, 72, 73, 74, 75, 76, 77, 78, 79, 80, 81],
      "LargestImagePixelValue": [23524, 24333, 19754, 20475, 15541, 14011, 20732, 18391, 17132, 16195, 18834, 17583, 26460, 22974, 30027, 31553, 47117, 53526, 53675, 50561, 51846, 58200, 46492, 40275, 34637, 44407, 51694, 55211, 47637, 48877, 50202, 32298, 45931, 57096, 65535, 65535, 61884, 45870, 37773, 42717, 56015, 53537, 55066, 49556, 54629, 64717, 61699, 52750, 59008, 59229, 59941, 53843, 47337, 53267, 56842, 52505, 47139, 49604, 47889, 46365, 43509, 42174, 51450, 65535, 65535, 65535, 65535, 63257, 44637, 53175, 51802, 61583, 57555, 44774, 55366, 58107, 54340, 55230, 57363, 30587, 18904],
      "SliceLocation": [-78.031804856503, -76.331803906999, -74.631802957494, -72.93180200799, -71.231801058486, -69.531800108982, -67.831799161817, -66.131805968421, -64.431805018917, -62.731804069413, -61.031803119909, -59.331802170404, -57.63180122324, -55.931804076269, -54.231803126765, -52.53180217726, -50.831801378798, -49.131804231827, -47.431803284663, -45.731802335158, -44.031801385654, -42.331804238683, -40.631803289179, -38.931802339674, -37.231801543552, -35.531804396581, -33.831803447077, -32.131802497572, -30.431801548068, -28.731802499831, -27.031803451593, -25.331802504428, -23.631803456191, -21.931802657729, -20.231801708224, -18.531802659987, -16.831801710482, -15.131802664585, -13.431802665714, -11.731802666843, -10.031802667972, -8.3318028201428, -6.6318028212718, -4.9318028247406, -3.2318028258696, -1.5318025893403, 0.16819740953066, 1.8681974678162, 3.5681974049328, 5.2681974061436, 6.9681974892909, 8.6681974905017, 10.368197487033, 12.068197008247, 13.768197009458, 15.468197005989, 17.1681970072, 18.868197003731, 20.568197799854, 22.268196850431, 23.968197797596, 25.668196848173, 27.368197795337, 29.068196845915, 30.768197793079, 32.468196687935, 34.168197790821, 35.868196685677, 37.568197788563, 39.268198584686, 40.968195880359, 42.668196681161, 44.368197477283, 46.06819858017, 47.768195573759, 49.468196676645, 51.168197472767, 52.868198570974, 54.568195569243, 56.268196365365, 57.968197468251],
      "WindowCenter": [5629.0, 5462.0, 5273.0, 5380.0, 4976.0, 4703.0, 5548.0, 5383.0, 5398.0, 5282.0, 5694.0, 5557.0, 6416.0, 6284.0, 6759.0, 6882.0, 7693.0, 8255.0, 8439.0, 8521.0, 8531.0, 8790.0, 8919.0, 8870.0, 8913.0, 9297.0, 9461.0, 9429.0, 9189.0, 9075.0, 9036.0, 8921.0, 9295.0, 9481.0, 9616.0, 9641.0, 9607.0, 9412.0, 9383.0, 9648.0, 10005.0, 10172.0, 10328.0, 10409.0, 10770.0, 10900.0, 10931.0, 10894.0, 11009.0, 11243.0, 11230.0, 11173.0, 11239.0, 11568.0, 11330.0, 11117.0, 11085.0, 11183.0, 11320.0, 11215.0, 11101.0, 10951.0, 11107.0, 11148.0, 11173.0, 11190.0, 11198.0, 11060.0, 10818.0, 10683.0, 10691.0, 10770.0, 10625.0, 10526.0, 10583.0, 10607.0, 10457.0, 9795.0, 8347.0, 5883.0, 5319.0],
      "WindowWidth": [12469.0, 11993.0, 11610.0, 11781.0, 11201.0, 10845.0, 12230.0, 11946.0, 11981.0, 11966.0, 12660.0, 12515.0, 13913.0, 13827.0, 14737.0, 15290.0, 17164.0, 18503.0, 18786.0, 18783.0, 18657.0, 19023.0, 19220.0, 19073.0, 19200.0, 20267.0, 20557.0, 20732.0, 20192.0, 19800.0, 19493.0, 19075.0, 19954.0, 20581.0, 21038.0, 21134.0, 20968.0, 20317.0, 20167.0, 20822.0, 21668.0, 22079.0, 22274.0, 22501.0, 23462.0, 23853.0, 24019.0, 23897.0, 24170.0, 24724.0, 24772.0, 24642.0, 24802.0, 25670.0, 25087.0, 24487.0, 24361.0, 24605.0, 25006.0, 24730.0, 24477.0, 24184.0, 24694.0, 24965.0, 25329.0, 25552.0, 25641.0, 25045.0, 24265.0, 23981.0, 24163.0, 24534.0, 24104.0, 23947.0, 24502.0, 25538.0, 25772.0, 21736.0, 18070.0, 12556.0, 11404.0]
    }
  }
}