{
  "AcquisitionMatrixPE": 82,
  "AcquisitionNumber": 1,
  "AcquisitionTime": "12:59:48.237500",
  "BandwidthPerPixelPhaseEncode": 24.888,
  "BaseResolution": 82,
  "BodyPartExamined": "BRAIN",
  "ConsistencyInfo": "N4_VE11C_LATEST_20160120",
  "ConversionSoftware": "dcm2niix",
  "ConversionSoftwareVersion": "v1.0.20201102",
  "DerivedVendorReportedEchoSpacing": 0.00049,
  "DeviceSerialNumber": "66112",
  "DwellTime": 2e-06,
  "EchoTime": 0.0272,
  "EchoTrainLength": 82,
  "EffectiveEchoSpacing": 0.00049,
  "FlipAngle": 44,
  "ImageComments": "Unaliased MB8/PE3",
  "ImageOrientationPatientDICOM": [0.996333, -0.0805395, 0.0288849, 0.0773634, 0.992178, 0.0979684],
  "ImageType": [
    "ORIGINAL",
    "PRIMARY",
    "M",
    "MB",
    "ND",
    "NORM",
    "MOSAIC"
],
  "ImagingFrequency": 123.252,
  "InPlanePhaseEncodingDirectionDICOM": "COL",
  "InstitutionAddress": "Maynard 3,Hanover,NH,US,03755",
  "InstitutionName": "Dartmouth College - PBS",
  "InstitutionalDepartmentName": "Department",
  "MRAcquisitionType": "2D",
  "MagneticFieldStrength": 3,
  "Manufacturer": "Siemens",
  "ManufacturersModelName": "Prisma",
  "Modality": "MR",
  "MultibandAccelerationFactor": 8,
  "PartialFourier": 1,
  "PatientPosition": "HFS",
  "PercentPhaseFOV": 100,
  "PercentSampling": 100,
  "PhaseEncodingDirection": "j-",
  "PhaseEncodingSteps": 82,
  "PhaseResolution": 1,
  "PixelBandwidth": 3050,
  "ProcedureStepDescription": "Wager_Wager^1076_spacetop",
  "ProtocolName": "func_run-05_task-social_acq-ap-mb8",
  "PulseSequenceDetails": "%CustomerSeq%\\cmrr_mbep2d_bold",
  "ReceiveCoilActiveElements": "HEA;HEP",
  "ReceiveCoilName": "Head_32",
  "ReconMatrixPE": 82,
  "RepetitionTime": 0.46,
  "SAR": 0.10437,
  "ScanOptions": "FS",
  "ScanningSequence": "EP",
  "SequenceName": "epfid2d1_82",
  "SequenceVariant": "SK\\SS",
  "SeriesDescription": "func_run-05_task-social_acq-ap-mb8",
  "SeriesNumber": 18,
  "ShimSetting": [4178, -7769, -7191, 618, -4, -156, 58, 69],
  "SliceThickness": 2.7,
  "SliceTiming": [0, 0.2525, 0.065, 0.315, 0.1275, 0.3775, 0.19, 0, 0.2525, 0.065, 0.315, 0.1275, 0.3775, 0.19, 0, 0.2525, 0.065, 0.315, 0.1275, 0.3775, 0.19, 0, 0.2525, 0.065, 0.315, 0.1275, 0.3775, 0.19, 0, 0.2525, 0.065, 0.315, 0.1275, 0.3775, 0.19, 0, 0.2525, 0.065, 0.315, 0.1275, 0.3775, 0.19, 0, 0.2525, 0.065, 0.315, 0.1275, 0.3775, 0.19, 0, 0.2525, 0.065, 0.315, 0.1275, 0.3775, 0.19],
  "SoftwareVersions": "syngo MR E11",
  "SpacingBetweenSlices": 2.7,
  "StationName": "AWP66112",
  "TaskName": "social",
  "TotalReadoutTime": 0.03969,
  "TxRefAmp": 268.287,
  "WipMemBlock": "67fe2a1a-5419-4fab-9cbb-3f06dcb06648||Sequence: R016 ve11c/master r/e634e98; Dec 19 2017 11:00:25 by eja",
  "dcmmeta_affine": [
    [-2.6730880737304688, 0.20756037533283234, 0.09868305176496506, 98.06231689453125],
    [0.21608157455921173, 2.661940813064575, 0.2575111389160156, -110.35053253173828],
    [0.07749605178833008, -0.2628420293331146, 2.685879707336426, -32.51108169555664],
    [0.0, 0.0, 0.0, 1.0]
],
  "dcmmeta_reorient_transform": [
    [0.0, -1.0, 0.0, 81.0],
    [1.0, 0.0, 0.0, 0.0],
    [0.0, 0.0, 1.0, 0.0],
    [0.0, 0.0, 0.0, 1.0]
],
  "dcmmeta_shape": [82, 82, 56, 872],
  "dcmmeta_slice_dim": 2,
  "dcmmeta_version": 0.6,
  "global": {
    "const": {
      "AccessionNumber": "A003534",
      "AcquisitionMatrix": [82, 0, 0, 82],
      "AngioFlag": "N",
      "BitsAllocated": 16,
      "BitsStored": 16,
      "BodyPartExamined": "BRAIN",
      "Columns": 656,
      "EchoNumbers": 1,
      "EchoTime": 27.2,
      "EchoTrainLength": 82,
      "FlipAngle": 44.0,
      "HighBit": 15,
      "ImageOrientationPatient": [0.99633280243366, -0.0805394920262, 0.0288848925711, 0.07736340893566, 0.99217795611887, 0.09796839464657],
      "ImagePositionPatient": [-941.62081120508, -807.22831247858, -151.4783189665],
      "ImageType": [
        "ORIGINAL",
        "PRIMARY",
        "M",
        "MB",
        "ND",
        "NORM",
        "MOSAIC"
],
      "ImagedNucleus": "1H",
      "ImagingFrequency": 123.252125,
      "InPlanePhaseEncodingDirection": "COL",
      "MRAcquisitionType": "2D",
      "MagneticFieldStrength": 3.0,
      "Manufacturer": "SIEMENS",
      "ManufacturerModelName": "Prisma",
      "Modality": "MR",
      "NumberOfAverages": 1.0,
      "NumberOfPhaseEncodingSteps": 82,
      "PercentPhaseFieldOfView": 100.0,
      "PercentSampling": 100.0,
      "PerformedProcedureStepStartTime": "120504.653000",
      "PhotometricInterpretation": "MONOCHROME2",
      "PixelBandwidth": 3050.0,
      "PixelRepresentation": 0,
      "PixelSpacing": [2.6829268932343, 2.6829268932343],
      "ProtocolName": "func_run-05_task-social_acq-ap-mb8",
      "RepetitionTime": 460.0,
      "Rows": 656,
      "SAR": 0.10437048043219,
      "SamplesPerPixel": 1,
      "ScanOptions": "FS",
      "ScanningSequence": "EP",
      "SequenceName": "epfid2d1_82",
      "SequenceVariant": [
        "SK",
        "SS"
],
      "SeriesDescription": "func_run-05_task-social_acq-ap-mb8",
      "SeriesNumber": 18,
      "SeriesTime": "130003.357000",
      "SliceLocation": -39.281574750299,
      "SliceThickness": 2.7000000476837,
      "SmallestImagePixelValue": 0,
      "SoftwareVersions": "syngo MR E11",
      "SpacingBetweenSlices": 2.7000000409299,
      "SpecificCharacterSet": "ISO_IR 100",
      "StudyID": "1",
      "StudyTime": "120504.463000",
      "TransmitCoilName": "Body",
      "VariableFlipAngleFlag": "N",
      "WindowCenterWidthExplanation": "Algo1",
      "dBdt": 0.0},
    "slices": {}
  },
  "time": {
    "samples": {
      "AcquisitionNumber": [1, 2, 3, 4, 5, 6, 7, 8, 9, 10, 11, 12, 13, 14, 15, 16, 17, 18, 19, 20, 21, 22, 23, 24, 25, 26, 27, 28, 29, 30, 31, 32, 33, 34, 35, 36, 37, 38, 39, 40, 41, 42, 43, 44, 45, 46, 47, 48, 49, 50, 51, 52, 53, 54, 55, 56, 57, 58, 59, 60, 61, 62, 63, 64, 65, 66, 67, 68, 69, 70, 71, 72, 73, 74, 75, 76, 77, 78, 79, 80, 81, 82, 83, 84, 85, 86, 87, 88, 89, 90, 91, 92, 93, 94, 95, 96, 97, 98, 99, 100, 101, 102, 103, 104, 105, 106, 107, 108, 109, 110, 111, 112, 113, 114, 115, 116, 117, 118, 119, 120, 121, 122, 123, 124, 125, 126, 127, 128, 129, 130, 131, 132, 133, 134, 135, 136, 137, 138, 139, 140, 141, 142, 143, 144, 145, 146, 147, 148, 149, 150, 151, 152, 153, 154, 155, 156, 157, 158, 159, 160, 161, 162, 163, 164, 165, 166, 167, 168, 169, 170, 171, 172, 173, 174, 175, 176, 177, 178, 179, 180, 181, 182, 183, 184, 185, 186, 187, 188, 189, 190, 191, 192, 193, 194, 195, 196, 197, 198, 199, 200, 201, 202, 203, 204, 205, 206, 207, 208, 209, 210, 211, 212, 213, 214, 215, 216, 217, 218, 219, 220, 221, 222, 223, 224, 225, 226, 227, 228, 229, 230, 231, 232, 233, 234, 235, 236, 237, 238, 239, 240, 241, 242, 243, 244, 245, 246, 247, 248, 249, 250, 251, 252, 253, 254, 255, 256, 257, 258, 259, 260, 261, 262, 263, 264, 265, 266, 267, 268, 269, 270, 271, 272, 273, 274, 275, 276, 277, 278, 279, 280, 281, 282, 283, 284, 285, 286, 287, 288, 289, 290, 291, 292, 293, 294, 295, 296, 297, 298, 299, 300, 301, 302, 303, 304, 305, 306, 307, 308, 309, 310, 311, 312, 313, 314, 315, 316, 317, 318, 319, 320, 321, 322, 323, 324, 325, 326, 327, 328, 329, 330, 331, 332, 333, 334, 335, 336, 337, 338, 339, 340, 341, 342, 343, 344, 345, 346, 347, 348, 349, 350, 351, 352, 353, 354, 355, 356, 357, 358, 359, 360, 361, 362, 363, 364, 365, 366, 367, 368, 369, 370, 371, 372, 373, 374, 375, 376, 377, 378, 379, 380, 381, 382, 383, 384, 385, 386, 387, 388, 389, 390, 391, 392, 393, 394, 395, 396, 397, 398, 399, 400, 401, 402, 403, 404, 405, 406, 407, 408, 409, 410, 411, 412, 413, 414, 415, 416, 417, 418, 419, 420, 421, 422, 423, 424, 425, 426, 427, 428, 429, 430, 431, 432, 433, 434, 435, 436, 437, 438, 439, 440, 441, 442, 443, 444, 445, 446, 447, 448, 449, 450, 451, 452, 453, 454, 455, 456, 457, 458, 459, 460, 461, 462, 463, 464, 465, 466, 467, 468, 469, 470, 471, 472, 473, 474, 475, 476, 477, 478, 479, 480, 481, 482, 483, 484, 485, 486, 487, 488, 489, 490, 491, 492, 493, 494, 495, 496, 497, 498, 499, 500, 501, 502, 503, 504, 505, 506, 507, 508, 509, 510, 511, 512, 513, 514, 515, 516, 517, 518, 519, 520, 521, 522, 523, 524, 525, 526, 527, 528, 529, 530, 531, 532, 533, 534, 535, 536, 537, 538, 539, 540, 541, 542, 543, 544, 545, 546, 547, 548, 549, 550, 551, 552, 553, 554, 555, 556, 557, 558, 559, 560, 561, 562, 563, 564, 565, 566, 567, 568, 569, 570, 571, 572, 573, 574, 575, 576, 577, 578, 579, 580, 581, 582, 583, 584, 585, 586, 587, 588, 589, 590, 591, 592, 593, 594, 595, 596, 597, 598, 599, 600, 601, 602, 603, 604, 605, 606, 607, 608, 609, 610, 611, 612, 613, 614, 615, 616, 617, 618, 619, 620, 621, 622, 623, 624, 625, 626, 627, 628, 629, 630, 631, 632, 633, 634, 635, 636, 637, 638, 639, 640, 641, 642, 643, 644, 645, 646, 647, 648, 649, 650, 651, 652, 653, 654, 655, 656, 657, 658, 659, 660, 661, 662, 663, 664, 665, 666, 667, 668, 669, 670, 671, 672, 673, 674, 675, 676, 677, 678, 679, 680, 681, 682, 683, 684, 685, 686, 687, 688, 689, 690, 691, 692, 693, 694, 695, 696, 697, 698, 699, 700, 701, 702, 703, 704, 705, 706, 707, 708, 709, 710, 711, 712, 713, 714, 715, 716, 717, 718, 719, 720, 721, 722, 723, 724, 725, 726, 727, 728, 729, 730, 731, 732, 733, 734, 735, 736, 737, 738, 739, 740, 741, 742, 743, 744, 745, 746, 747, 748, 749, 750, 751, 752, 753, 754, 755, 756, 757, 758, 759, 760, 761, 762, 763, 764, 765, 766, 767, 768, 769, 770, 771, 772, 773, 774, 775, 776, 777, 778, 779, 780, 781, 782, 783, 784, 785, 786, 787, 788, 789, 790, 791, 792, 793, 794, 795, 796, 797, 798, 799, 800, 801, 802, 803, 804, 805, 806, 807, 808, 809, 810, 811, 812, 813, 814, 815, 816, 817, 818, 819, 820, 821, 822, 823, 824, 825, 826, 827, 828, 829, 830, 831, 832, 833, 834, 835, 836, 837, 838, 839, 840, 841, 842, 843, 844, 845, 846, 847, 848, 849, 850, 851, 852, 853, 854, 855, 856, 857, 858, 859, 860, 861, 862, 863, 864, 865, 866, 867, 868, 869, 870, 871, 872],
      "AcquisitionTime": ["125948.237500", "125948.697500", "125949.157500", "125949.617500", "125950.077500", "125950.537500", "125950.997500", "125951.457500", "125951.917500", "125952.377500", "125952.837500", "125953.297500", "125953.757500", "125954.217500", "125954.677500", "125955.137500", "125955.597500", "125956.057500", "125956.517500", "125956.977500", "125957.437500", "125957.897500", "125958.357500", "125958.817500", "125959.277500", "125959.737500", "130000.197500", "130000.657500", "130001.117500", "130001.577500", "130002.037500", "130002.497500", "130002.957500", "130003.417500", "130003.877500", "130004.337500", "130004.797500", "130005.257500", "130005.717500", "130006.177500", "130006.637500", "130007.097500", "130007.557500", "130008.017500", "130008.477500", "130008.937500", "130009.397500", "130009.857500", "130010.317500", "130010.777500", "130011.237500", "130011.697500", "130012.157500", "130012.617500", "130013.077500", "130013.537500", "130013.997500", "130014.457500", "130014.917500", "130015.377500", "130015.837500", "130016.297500", "130016.757500", "130017.217500", "130017.677500", "130018.137500", "130018.597500", "130019.057500", "130019.517500", "130019.977500", "130020.437500", "130020.897500", "130021.357500", "130021.817500", "130022.277500", "130022.737500", "130023.197500", "130023.657500", "130024.117500", "130024.577500", "130025.037500", "130025.497500", "130025.957500", "130026.417500", "130026.877500", "130027.337500", "130027.797500", "130028.257500", "130028.717500", "130029.177500", "130029.637500", "130030.097500", "130030.557500", "130031.017500", "130031.477500", "130031.937500", "130032.397500", "130032.857500", "130033.317500", "130033.777500", "130034.237500", "130034.697500", "130035.157500", "130035.617500", "130036.077500", "130036.537500", "130036.997500", "130037.457500", "130037.917500", "130038.377500", "130038.837500", "130039.297500", "130039.757500", "130040.217500", "130040.677500", "130041.137500", "130041.597500", "130042.057500", "130042.517500", "130042.977500", "130043.437500", "130043.897500", "130044.357500", "130044.817500", "130045.277500", "130045.737500", "130046.197500", "130046.657500", "130047.117500", "130047.577500", "130048.037500", "130048.497500", "130048.957500", "130049.417500", "130049.877500", "130050.337500", "130050.797500", "130051.257500", "130051.717500", "130052.177500", "130052.637500", "130053.097500", "130053.557500", "130054.017500", "130054.477500", "130054.937500", "130055.397500", "130055.857500", "130056.317500", "130056.777500", "130057.237500", "130057.697500", "130058.157500", "130058.617500", "130059.077500", "130059.537500", "130059.997500", "130100.457500", "130100.917500", "130101.377500", "130101.837500", "130102.297500", "130102.757500", "130103.217500", "130103.677500", "130104.137500", "130104.597500", "130105.057500", "130105.517500", "130105.977500", "130106.437500", "130106.897500", "130107.357500", "130107.817500", "130108.277500", "130108.737500", "130109.197500", "130109.657500", "130110.117500", "130110.577500", "130111.037500", "130111.497500", "130111.957500", "130112.417500", "130112.877500", "130113.337500", "130113.797500", "130114.257500", "130114.717500", "130115.177500", "130115.637500", "130116.097500", "130116.557500", "130117.017500", "130117.477500", "130117.937500", "130118.397500", "130118.857500", "130119.317500", "130119.777500", "130120.237500", "130120.697500", "130121.157500", "130121.617500", "130122.077500", "130122.537500", "130122.997500", "130123.457500", "130123.917500", "130124.377500", "130124.837500", "130125.297500", "130125.757500", "130126.217500", "130126.677500", "130127.137500", "130127.597500", "130128.057500", "130128.517500", "130128.977500", "130129.437500", "130129.897500", "130130.357500", "130130.817500", "130131.277500", "130131.737500", "130132.197500", "130132.657500", "130133.117500", "130133.577500", "130134.037500", "130134.497500", "130134.957500", "130135.417500", "130135.877500", "130136.337500", "130136.797500", "130137.257500", "130137.717500", "130138.177500", "130138.637500", "130139.097500", "130139.557500", "130140.017500", "130140.477500", "130140.937500", "130141.397500", "130141.857500", "130142.317500", "130142.777500", "130143.237500", "130143.697500", "130144.157500", "130144.617500", "130145.077500", "130145.537500", "130145.997500", "130146.457500", "130146.917500", "130147.377500", "130147.837500", "130148.297500", "130148.757500", "130149.217500", "130149.677500", "130150.137500", "130150.597500", "130151.057500", "130151.517500", "130151.977500", "130152.437500", "130152.897500", "130153.357500", "130153.817500", "130154.277500", "130154.737500", "130155.197500", "130155.657500", "130156.117500", "130156.577500", "130157.037500", "130157.497500", "130157.957500", "130158.417500", "130158.877500", "130159.337500", "130159.797500", "130200.257500", "130200.717500", "130201.177500", "130201.637500", "130202.097500", "130202.557500", "130203.017500", "130203.477500", "130203.937500", "130204.397500", "130204.857500", "130205.317500", "130205.777500", "130206.237500", "130206.697500", "130207.157500", "130207.617500", "130208.077500", "130208.537500", "130208.997500", "130209.457500", "130209.917500", "130210.377500", "130210.837500", "130211.297500", "130211.757500", "130212.217500", "130212.677500", "130213.137500", "130213.597500", "130214.057500", "130214.517500", "130214.977500", "130215.437500", "130215.897500", "130216.357500", "130216.817500", "130217.277500", "130217.737500", "130218.197500", "130218.657500", "130219.117500", "130219.577500", "130220.037500", "130220.497500", "130220.957500", "130221.417500", "130221.877500", "130222.337500", "130222.797500", "130223.257500", "130223.717500", "130224.177500", "130224.637500", "130225.097500", "130225.557500", "130226.017500", "130226.477500", "130226.937500", "130227.397500", "130227.857500", "130228.317500", "130228.777500", "130229.237500", "130229.697500", "130230.157500", "130230.617500", "130231.077500", "130231.537500", "130231.997500", "130232.457500", "130232.917500", "130233.377500", "130233.837500", "130234.297500", "130234.757500", "130235.217500", "130235.677500", "130236.137500", "130236.597500", "130237.057500", "130237.517500", "130237.977500", "130238.437500", "130238.897500", "130239.357500", "130239.817500", "130240.277500", "130240.737500", "130241.197500", "130241.657500", "130242.117500", "130242.577500", "130243.037500", "130243.497500", "130243.957500", "130244.417500", "130244.877500", "130245.337500", "130245.797500", "130246.257500", "130246.717500", "130247.177500", "130247.637500", "130248.097500", "130248.557500", "130249.017500", "130249.477500", "130249.937500", "130250.397500", "130250.857500", "130251.317500", "130251.777500", "130252.237500", "130252.697500", "130253.157500", "130253.617500", "130254.077500", "130254.537500", "130254.997500", "130255.457500", "130255.917500", "130256.377500", "130256.837500", "130257.297500", "130257.757500", "130258.217500", "130258.677500", "130259.137500", "130259.597500", "130300.057500", "130300.517500", "130300.977500", "130301.437500", "130301.897500", "130302.357500", "130302.817500", "130303.277500", "130303.737500", "130304.197500", "130304.657500", "130305.117500", "130305.577500", "130306.037500", "130306.497500", "130306.957500", "130307.417500", "130307.877500", "130308.337500", "130308.797500", "130309.257500", "130309.717500", "130310.177500", "130310.637500", "130311.097500", "130311.557500", "130312.017500", "130312.477500", "130312.937500", "130313.397500", "130313.857500", "130314.317500", "130314.777500", "130315.237500", "130315.697500", "130316.157500", "130316.617500", "130317.077500", "130317.537500", "130317.997500", "130318.457500", "130318.917500", "130319.377500", "130319.837500", "130320.297500", "130320.757500", "130321.217500", "130321.677500", "130322.137500", "130322.597500", "130323.057500", "130323.517500", "130323.977500", "130324.437500", "130324.897500", "130325.357500", "130325.817500", "130326.277500", "130326.737500", "130327.197500", "130327.657500", "130328.117500", "130328.577500", "130329.037500", "130329.497500", "130329.957500", "130330.417500", "130330.877500", "130331.337500", "130331.797500", "130332.257500", "130332.717500", "130333.177500", "130333.637500", "130334.097500", "130334.557500", "130335.017500", "130335.477500", "130335.937500", "130336.397500", "130336.857500", "130337.317500", "130337.777500", "130338.237500", "130338.697500", "130339.157500", "130339.617500", "130340.077500", "130340.537500", "130340.997500", "130341.457500", "130341.917500", "130342.377500", "130342.837500", "130343.297500", "130343.757500", "130344.217500", "130344.677500", "130345.137500", "130345.597500", "130346.057500", "130346.517500", "130346.977500", "130347.437500", "130347.897500", "130348.357500", "130348.817500", "130349.277500", "130349.737500", "130350.197500", "130350.657500", "130351.117500", "130351.577500", "130352.037500", "130352.497500", "130352.957500", "130353.417500", "130353.877500", "130354.337500", "130354.797500", "130355.257500", "130355.717500", "130356.177500", "130356.637500", "130357.097500", "130357.557500", "130358.017500", "130358.477500", "130358.937500", "130359.397500", "130359.857500", "130400.317500", "130400.777500", "130401.237500", "130401.697500", "130402.157500", "130402.617500", "130403.077500", "130403.537500", "130403.997500", "130404.457500", "130404.917500", "130405.377500", "130405.837500", "130406.297500", "130406.757500", "130407.217500", "130407.677500", "130408.137500", "130408.597500", "130409.057500", "130409.517500", "130409.977500", "130410.437500", "130410.897500", "130411.357500", "130411.817500", "130412.277500", "130412.737500", "130413.197500", "130413.657500", "130414.117500", "130414.577500", "130415.037500", "130415.497500", "130415.957500", "130416.417500", "130416.877500", "130417.337500", "130417.797500", "130418.257500", "130418.717500", "130419.177500", "130419.637500", "130420.097500", "130420.557500", "130421.017500", "130421.477500", "130421.937500", "130422.397500", "130422.857500", "130423.317500", "130423.777500", "130424.237500", "130424.697500", "130425.157500", "130425.617500", "130426.077500", "130426.537500", "130426.997500", "130427.457500", "130427.917500", "130428.377500", "130428.837500", "130429.297500", "130429.757500", "130430.217500", "130430.677500", "130431.137500", "130431.597500", "130432.057500", "130432.517500", "130432.977500", "130433.437500", "130433.897500", "130434.357500", "130434.817500", "130435.277500", "130435.737500", "130436.197500", "130436.657500", "130437.117500", "130437.577500", "130438.037500", "130438.497500", "130438.957500", "130439.417500", "130439.877500", "130440.337500", "130440.797500", "130441.257500", "130441.717500", "130442.177500", "130442.637500", "130443.097500", "130443.557500", "130444.017500", "130444.477500", "130444.937500", "130445.397500", "130445.857500", "130446.317500", "130446.777500", "130447.237500", "130447.697500", "130448.157500", "130448.617500", "130449.077500", "130449.537500", "130449.997500", "130450.457500", "130450.917500", "130451.377500", "130451.837500", "130452.297500", "130452.757500", "130453.217500", "130453.677500", "130454.137500", "130454.597500", "130455.057500", "130455.517500", "130455.977500", "130456.437500", "130456.897500", "130457.357500", "130457.817500", "130458.277500", "130458.737500", "130459.197500", "130459.657500", "130500.117500", "130500.577500", "130501.037500", "130501.497500", "130501.957500", "130502.417500", "130502.877500", "130503.337500", "130503.797500", "130504.257500", "130504.717500", "130505.177500", "130505.637500", "130506.097500", "130506.557500", "130507.017500", "130507.477500", "130507.937500", "130508.397500", "130508.857500", "130509.317500", "130509.777500", "130510.237500", "130510.697500", "130511.157500", "130511.617500", "130512.077500", "130512.537500", "130512.997500", "130513.457500", "130513.917500", "130514.377500", "130514.837500", "130515.297500", "130515.757500", "130516.217500", "130516.677500", "130517.137500", "130517.597500", "130518.057500", "130518.517500", "130518.977500", "130519.437500", "130519.897500", "130520.357500", "130520.817500", "130521.277500", "130521.737500", "130522.197500", "130522.657500", "130523.117500", "130523.577500", "130524.037500", "130524.497500", "130524.957500", "130525.417500", "130525.877500", "130526.337500", "130526.797500", "130527.257500", "130527.717500", "130528.177500", "130528.637500", "130529.097500", "130529.557500", "130530.017500", "130530.477500", "130530.937500", "130531.397500", "130531.857500", "130532.317500", "130532.777500", "130533.237500", "130533.697500", "130534.157500", "130534.617500", "130535.077500", "130535.537500", "130535.997500", "130536.457500", "130536.917500", "130537.377500", "130537.837500", "130538.297500", "130538.757500", "130539.217500", "130539.677500", "130540.137500", "130540.597500", "130541.057500", "130541.517500", "130541.977500", "130542.437500", "130542.897500", "130543.357500", "130543.817500", "130544.277500", "130544.737500", "130545.197500", "130545.657500", "130546.117500", "130546.577500", "130547.037500", "130547.497500", "130547.957500", "130548.417500", "130548.877500", "130549.337500", "130549.797500", "130550.257500", "130550.717500", "130551.177500", "130551.637500", "130552.097500", "130552.557500", "130553.017500", "130553.477500", "130553.937500", "130554.397500", "130554.857500", "130555.317500", "130555.777500", "130556.237500", "130556.697500", "130557.157500", "130557.617500", "130558.077500", "130558.537500", "130558.997500", "130559.457500", "130559.917500", "130600.377500", "130600.837500", "130601.297500", "130601.757500", "130602.217500", "130602.677500", "130603.137500", "130603.597500", "130604.057500", "130604.517500", "130604.977500", "130605.437500", "130605.897500", "130606.357500", "130606.817500", "130607.277500", "130607.737500", "130608.197500", "130608.657500", "130609.117500", "130609.577500", "130610.037500", "130610.497500", "130610.957500", "130611.417500", "130611.877500", "130612.337500", "130612.797500", "130613.257500", "130613.717500", "130614.177500", "130614.637500", "130615.097500", "130615.557500", "130616.017500", "130616.477500", "130616.937500", "130617.397500", "130617.857500", "130618.317500", "130618.777500", "130619.237500", "130619.697500", "130620.157500", "130620.617500", "130621.077500", "130621.537500", "130621.997500", "130622.457500", "130622.917500", "130623.377500", "130623.837500", "130624.297500", "130624.757500", "130625.217500", "130625.677500", "130626.137500", "130626.597500", "130627.057500", "130627.517500", "130627.977500", "130628.437500", "130628.897500"],
