{
  "AcquisitionMatrixPE": 82,
  "AcquisitionNumber": 1,
  "AcquisitionTime": "12:24:47.215000",
  "BandwidthPerPixelPhaseEncode": 24.888,
  "BaseResolution": 82,
  "BodyPartExamined": "BRAIN",
  "ConsistencyInfo": "N4_VE11C_LATEST_20160120",
  "ConversionSoftware": "dcm2niix",
  "ConversionSoftwareVersion": "v1.0.20201102",
  "DerivedVendorReportedEchoSpacing": 0.00049,
  "DeviceSerialNumber": "66112",
  "DwellTime": 2e-06,
  "EchoTime": 0.0272,
  "EchoTrainLength": 82,
  "EffectiveEchoSpacing": 0.00049,
  "FlipAngle": 44,
  "ImageComments": "Unaliased MB8/PE3",
  "ImageOrientationPatientDICOM": [0.996333, -0.0805395, 0.0288849, 0.0773634, 0.992178, 0.0979684],
  "ImageType": [
    "ORIGINAL",
    "PRIMARY",
    "M",
    "MB",
    "ND",
    "NORM",
    "MOSAIC"
],
  "ImagingFrequency": 123.252,
  "InPlanePhaseEncodingDirectionDICOM": "COL",
  "InstitutionAddress": "Maynard 3,Hanover,NH,US,03755",
  "InstitutionName": "Dartmouth College - PBS",
  "InstitutionalDepartmentName": "Department",
  "MRAcquisitionType": "2D",
  "MagneticFieldStrength": 3,
  "Manufacturer": "Siemens",
  "ManufacturersModelName": "Prisma",
  "Modality": "MR",
  "MultibandAccelerationFactor": 8,
  "PartialFourier": 1,
  "PatientPosition": "HFS",
  "PercentPhaseFOV": 100,
  "PercentSampling": 100,
  "PhaseEncodingDirection": "j-",
  "PhaseEncodingSteps": 82,
  "PhaseResolution": 1,
  "PixelBandwidth": 3050,
  "ProcedureStepDescription": "Wager_Wager^1076_spacetop",
  "ProtocolName": "func_run-01_task-social_acq-ap-mb8",
  "PulseSequenceDetails": "%CustomerSeq%\\cmrr_mbep2d_bold",
  "ReceiveCoilActiveElements": "HEA;HEP",
  "ReceiveCoilName": "Head_32",
  "ReconMatrixPE": 82,
  "RepetitionTime": 0.46,
  "SAR": 0.10437,
  "ScanOptions": "FS",
  "ScanningSequence": "EP",
  "SequenceName": "epfid2d1_82",
  "SequenceVariant": "SK\\SS",
  "SeriesDescription": "func_run-01_task-social_acq-ap-mb8",
  "SeriesNumber": 8,
  "ShimSetting": [4178, -7769, -7191, 618, -4, -156, 58, 69],
  "SliceThickness": 2.7,
  "SliceTiming": [0, 0.2525, 0.065, 0.315, 0.1275, 0.3775, 0.19, 0, 0.2525, 0.065, 0.315, 0.1275, 0.3775, 0.19, 0, 0.2525, 0.065, 0.315, 0.1275, 0.3775, 0.19, 0, 0.2525, 0.065, 0.315, 0.1275, 0.3775, 0.19, 0, 0.2525, 0.065, 0.315, 0.1275, 0.3775, 0.19, 0, 0.2525, 0.065, 0.315, 0.1275, 0.3775, 0.19, 0, 0.2525, 0.065, 0.315, 0.1275, 0.3775, 0.19, 0, 0.2525, 0.065, 0.315, 0.1275, 0.3775, 0.19],
  "SoftwareVersions": "syngo MR E11",
  "SpacingBetweenSlices": 2.7,
  "StationName": "AWP66112",
  "TaskName": "social",
  "TotalReadoutTime": 0.03969,
  "TxRefAmp": 268.287,
  "WipMemBlock": "dd685397-07b7-4490-ba16-4fee09be494b||Sequence: R016 ve11c/master r/e634e98; Dec 19 2017 11:00:25 by eja",
  "dcmmeta_affine": [
    [-2.6730880737304688, 0.20756037533283234, 0.09868305176496506, 98.06231689453125],
    [0.21608157455921173, 2.661940813064575, 0.2575111389160156, -110.35053253173828],
    [0.07749605178833008, -0.2628420293331146, 2.685879707336426, -32.51108169555664],
    [0.0, 0.0, 0.0, 1.0]
],
  "dcmmeta_reorient_transform": [
    [0.0, -1.0, 0.0, 81.0],
    [1.0, 0.0, 0.0, 0.0],
    [0.0, 0.0, 1.0, 0.0],
    [0.0, 0.0, 0.0, 1.0]
],
  "dcmmeta_shape": [82, 82, 56, 872],
  "dcmmeta_slice_dim": 2,
  "dcmmeta_version": 0.6,
  "global": {
    "const": {
      "AccessionNumber": "A003534",
      "AcquisitionMatrix": [82, 0, 0, 82],
      "AngioFlag": "N",
      "BitsAllocated": 16,
      "BitsStored": 16,
      "BodyPartExamined": "BRAIN",
      "Columns": 656,
      "EchoNumbers": 1,
      "EchoTime": 27.2,
      "EchoTrainLength": 82,
      "FlipAngle": 44.0,
      "HighBit": 15,
      "ImageOrientationPatient": [0.99633280243366, -0.0805394920262, 0.0288848925711, 0.07736340893566, 0.99217795611887, 0.09796839464657],
      "ImagePositionPatient": [-941.62081120508, -807.22831247858, -151.4783189665],
      "ImageType": [
        "ORIGINAL",
        "PRIMARY",
        "M",
        "MB",
        "ND",
        "NORM",
        "MOSAIC"
],
      "ImagedNucleus": "1H",
      "ImagingFrequency": 123.252105,
      "InPlanePhaseEncodingDirection": "COL",
      "MRAcquisitionType": "2D",
      "MagneticFieldStrength": 3.0,
      "Manufacturer": "SIEMENS",
      "ManufacturerModelName": "Prisma",
      "Modality": "MR",
      "NumberOfAverages": 1.0,
      "NumberOfPhaseEncodingSteps": 82,
      "PercentPhaseFieldOfView": 100.0,
      "PercentSampling": 100.0,
      "PerformedProcedureStepStartTime": "120504.653000",
      "PhotometricInterpretation": "MONOCHROME2",
      "PixelBandwidth": 3050.0,
      "PixelRepresentation": 0,
      "PixelSpacing": [2.6829268932343, 2.6829268932343],
      "ProtocolName": "func_run-01_task-social_acq-ap-mb8",
      "RepetitionTime": 460.0,
      "Rows": 656,
      "SAR": 0.10437048043219,
      "SamplesPerPixel": 1,
      "ScanOptions": "FS",
      "ScanningSequence": "EP",
      "SequenceName": "epfid2d1_82",
      "SequenceVariant": [
        "SK",
        "SS"
],
      "SeriesDescription": "func_run-01_task-social_acq-ap-mb8",
      "SeriesNumber": 8,
      "SeriesTime": "122503.435000",
      "SliceLocation": -39.281574750299,
      "SliceThickness": 2.7000000476837,
      "SmallestImagePixelValue": 0,
      "SoftwareVersions": "syngo MR E11",
      "SpacingBetweenSlices": 2.7000000409299,
      "SpecificCharacterSet": "ISO_IR 100",
      "StudyID": "1",
      "StudyTime": "120504.463000",
      "TransmitCoilName": "Body",
      "VariableFlipAngleFlag": "N",
      "WindowCenterWidthExplanation": "Algo1",
      "dBdt": 0.0},
    "slices": {}
  },
  "time": {
    "samples": {
      "AcquisitionNumber": [1, 2, 3, 4, 5, 6, 7, 8, 9, 10, 11, 12, 13, 14, 15, 16, 17, 18, 19, 20, 21, 22, 23, 24, 25, 26, 27, 28, 29, 30, 31, 32, 33, 34, 35, 36, 37, 38, 39, 40, 41, 42, 43, 44, 45, 46, 47, 48, 49, 50, 51, 52, 53, 54, 55, 56, 57, 58, 59, 60, 61, 62, 63, 64, 65, 66, 67, 68, 69, 70, 71, 72, 73, 74, 75, 76, 77, 78, 79, 80, 81, 82, 83, 84, 85, 86, 87, 88, 89, 90, 91, 92, 93, 94, 95, 96, 97, 98, 99, 100, 101, 102, 103, 104, 105, 106, 107, 108, 109, 110, 111, 112, 113, 114, 115, 116, 117, 118, 119, 120, 121, 122, 123, 124, 125, 126, 127, 128, 129, 130, 131, 132, 133, 134, 135, 136, 137, 138, 139, 140, 141, 142, 143, 144, 145, 146, 147, 148, 149, 150, 151, 152, 153, 154, 155, 156, 157, 158, 159, 160, 161, 162, 163, 164, 165, 166, 167, 168, 169, 170, 171, 172, 173, 174, 175, 176, 177, 178, 179, 180, 181, 182, 183, 184, 185, 186, 187, 188, 189, 190, 191, 192, 193, 194, 195, 196, 197, 198, 199, 200, 201, 202, 203, 204, 205, 206, 207, 208, 209, 210, 211, 212, 213, 214, 215, 216, 217, 218, 219, 220, 221, 222, 223, 224, 225, 226, 227, 228, 229, 230, 231, 232, 233, 234, 235, 236, 237, 238, 239, 240, 241, 242, 243, 244, 245, 246, 247, 248, 249, 250, 251, 252, 253, 254, 255, 256, 257, 258, 259, 260, 261, 262, 263, 264, 265, 266, 267, 268, 269, 270, 271, 272, 273, 274, 275, 276, 277, 278, 279, 280, 281, 282, 283, 284, 285, 286, 287, 288, 289, 290, 291, 292, 293, 294, 295, 296, 297, 298, 299, 300, 301, 302, 303, 304, 305, 306, 307, 308, 309, 310, 311, 312, 313, 314, 315, 316, 317, 318, 319, 320, 321, 322, 323, 324, 325, 326, 327, 328, 329, 330, 331, 332, 333, 334, 335, 336, 337, 338, 339, 340, 341, 342, 343, 344, 345, 346, 347, 348, 349, 350, 351, 352, 353, 354, 355, 356, 357, 358, 359, 360, 361, 362, 363, 364, 365, 366, 367, 368, 369, 370, 371, 372, 373, 374, 375, 376, 377, 378, 379, 380, 381, 382, 383, 384, 385, 386, 387, 388, 389, 390, 391, 392, 393, 394, 395, 396, 397, 398, 399, 400, 401, 402, 403, 404, 405, 406, 407, 408, 409, 410, 411, 412, 413, 414, 415, 416, 417, 418, 419, 420, 421, 422, 423, 424, 425, 426, 427, 428, 429, 430, 431, 432, 433, 434, 435, 436, 437, 438, 439, 440, 441, 442, 443, 444, 445, 446, 447, 448, 449, 450, 451, 452, 453, 454, 455, 456, 457, 458, 459, 460, 461, 462, 463, 464, 465, 466, 467, 468, 469, 470, 471, 472, 473, 474, 475, 476, 477, 478, 479, 480, 481, 482, 483, 484, 485, 486, 487, 488, 489, 490, 491, 492, 493, 494, 495, 496, 497, 498, 499, 500, 501, 502, 503, 504, 505, 506, 507, 508, 509, 510, 511, 512, 513, 514, 515, 516, 517, 518, 519, 520, 521, 522, 523, 524, 525, 526, 527, 528, 529, 530, 531, 532, 533, 534, 535, 536, 537, 538, 539, 540, 541, 542, 543, 544, 545, 546, 547, 548, 549, 550, 551, 552, 553, 554, 555, 556, 557, 558, 559, 560, 561, 562, 563, 564, 565, 566, 567, 568, 569, 570, 571, 572, 573, 574, 575, 576, 577, 578, 579, 580, 581, 582, 583, 584, 585, 586, 587, 588, 589, 590, 591, 592, 593, 594, 595, 596, 597, 598, 599, 600, 601, 602, 603, 604, 605, 606, 607, 608, 609, 610, 611, 612, 613, 614, 615, 616, 617, 618, 619, 620, 621, 622, 623, 624, 625, 626, 627, 628, 629, 630, 631, 632, 633, 634, 635, 636, 637, 638, 639, 640, 641, 642, 643, 644, 645, 646, 647, 648, 649, 650, 651, 652, 653, 654, 655, 656, 657, 658, 659, 660, 661, 662, 663, 664, 665, 666, 667, 668, 669, 670, 671, 672, 673, 674, 675, 676, 677, 678, 679, 680, 681, 682, 683, 684, 685, 686, 687, 688, 689, 690, 691, 692, 693, 694, 695, 696, 697, 698, 699, 700, 701, 702, 703, 704, 705, 706, 707, 708, 709, 710, 711, 712, 713, 714, 715, 716, 717, 718, 719, 720, 721, 722, 723, 724, 725, 726, 727, 728, 729, 730, 731, 732, 733, 734, 735, 736, 737, 738, 739, 740, 741, 742, 743, 744, 745, 746, 747, 748, 749, 750, 751, 752, 753, 754, 755, 756, 757, 758, 759, 760, 761, 762, 763, 764, 765, 766, 767, 768, 769, 770, 771, 772, 773, 774, 775, 776, 777, 778, 779, 780, 781, 782, 783, 784, 785, 786, 787, 788, 789, 790, 791, 792, 793, 794, 795, 796, 797, 798, 799, 800, 801, 802, 803, 804, 805, 806, 807, 808, 809, 810, 811, 812, 813, 814, 815, 816, 817, 818, 819, 820, 821, 822, 823, 824, 825, 826, 827, 828, 829, 830, 831, 832, 833, 834, 835, 836, 837, 838, 839, 840, 841, 842, 843, 844, 845, 846, 847, 848, 849, 850, 851, 852, 853, 854, 855, 856, 857, 858, 859, 860, 861, 862, 863, 864, 865, 866, 867, 868, 869, 870, 871, 872],
      "AcquisitionTime": ["122447.215000", "122447.675000", "122448.135000", "122448.595000", "122449.055000", "122449.515000", "122449.975000", "122450.435000", "122450.895000", "122451.355000", "122451.815000", "122452.275000", "122452.735000", "122453.195000", "122453.655000", "122454.115000", "122454.575000", "122455.035000", "122455.495000", "122455.955000", "122456.415000", "122456.875000", "122457.335000", "122457.795000", "122458.255000", "122458.715000", "122459.175000", "122459.635000", "122500.095000", "122500.555000", "122501.015000", "122501.475000", "122501.935000", "122502.395000", "122502.855000", "122503.315000", "122503.775000", "122504.235000", "122504.695000", "122505.155000", "122505.615000", "122506.075000", "122506.535000", "122506.995000", "122507.455000", "122507.915000", "122508.375000", "122508.835000", "122509.295000", "122509.755000", "122510.215000", "122510.675000", "122511.135000", "122511.595000", "122512.055000", "122512.515000", "122512.975000", "122513.435000", "122513.895000", "122514.355000", "122514.815000", "122515.275000", "122515.735000", "122516.195000", "122516.655000", "122517.115000", "122517.575000", "122518.035000", "122518.495000", "122518.955000", "122519.415000", "122519.875000", "122520.335000", "122520.795000", "122521.255000", "122521.715000", "122522.175000", "122522.635000", "122523.095000", "122523.555000", "122524.015000", "122524.475000", "122524.935000", "122525.395000", "122525.855000", "122526.315000", "122526.775000", "122527.235000", "122527.695000", "122528.155000", "122528.615000", "122529.075000", "122529.535000", "122529.995000", "122530.455000", "122530.915000", "122531.375000", "122531.835000", "122532.295000", "122532.755000", "122533.215000", "122533.675000", "122534.135000", "122534.595000", "122535.055000", "122535.515000", "122535.975000", "122536.435000", "122536.895000", "122537.355000", "122537.815000", "122538.275000", "122538.735000", "122539.195000", "122539.655000", "122540.115000", "122540.575000", "122541.035000", "122541.495000", "122541.955000", "122542.415000", "122542.875000", "122543.335000", "122543.795000", "122544.255000", "122544.715000", "122545.175000", "122545.635000", "122546.095000", "122546.555000", "122547.015000", "122547.475000", "122547.935000", "122548.395000", "122548.855000", "122549.315000", "122549.775000", "122550.235000", "122550.695000", "122551.155000", "122551.615000", "122552.075000", "122552.535000", "122552.995000", "122553.455000", "122553.915000", "122554.375000", "122554.835000", "122555.295000", "122555.755000", "122556.215000", "122556.675000", "122557.135000", "122557.595000", "122558.055000", "122558.515000", "122558.975000", "122559.435000", "122559.895000", "122600.355000", "122600.815000", "122601.275000", "122601.735000", "122602.195000", "122602.655000", "122603.115000", "122603.575000", "122604.035000", "122604.495000", "122604.955000", "122605.415000", "122605.875000", "122606.335000", "122606.795000", "122607.255000", "122607.715000", "122608.175000", "122608.635000", "122609.095000", "122609.555000", "122610.015000", "122610.475000", "122610.935000", "122611.395000", "122611.855000", "122612.315000", "122612.775000", "122613.235000", "122613.695000", "122614.155000", "122614.615000", "122615.075000", "122615.535000", "122615.995000", "122616.455000", "122616.915000", "122617.375000", "122617.835000", "122618.295000", "122618.755000", "122619.215000", "122619.675000", "122620.135000", "122620.595000", "122621.055000", "122621.515000", "122621.975000", "122622.435000", "122622.895000", "122623.355000", "122623.815000", "122624.275000", "122624.735000", "122625.195000", "122625.655000", "122626.115000", "122626.575000", "122627.035000", "122627.495000", "122627.955000", "122628.415000", "122628.875000", "122629.335000", "122629.795000", "122630.255000", "122630.715000", "122631.175000", "122631.635000", "122632.095000", "122632.555000", "122633.015000", "122633.475000", "122633.935000", "122634.395000", "122634.855000", "122635.315000", "122635.775000", "122636.235000", "122636.695000", "122637.155000", "122637.615000", "122638.075000", "122638.535000", "122638.995000", "122639.455000", "122639.915000", "122640.375000", "122640.835000", "122641.295000", "122641.755000", "122642.215000", "122642.675000", "122643.135000", "122643.595000", "122644.055000", "122644.515000", "122644.975000", "122645.435000", "122645.895000", "122646.355000", "122646.815000", "122647.275000", "122647.735000", "122648.195000", "122648.655000", "122649.115000", "122649.575000", "122650.035000", "122650.495000", "122650.955000", "122651.415000", "122651.875000", "122652.335000", "122652.795000", "122653.255000", "122653.715000", "122654.175000", "122654.635000", "122655.095000", "122655.555000", "122656.015000", "122656.475000", "122656.935000", "122657.395000", "122657.855000", "122658.315000", "122658.775000", "122659.235000", "122659.695000", "122700.155000", "122700.615000", "122701.075000", "122701.535000", "122701.995000", "122702.455000", "122702.915000", "122703.375000", "122703.835000", "122704.295000", "122704.755000", "122705.215000", "122705.675000", "122706.135000", "122706.595000", "122707.055000", "122707.515000", "122707.975000", "122708.435000", "122708.895000", "122709.355000", "122709.815000", "122710.275000", "122710.735000", "122711.195000", "122711.655000", "122712.115000", "122712.575000", "122713.035000", "122713.495000", "122713.955000", "122714.415000", "122714.875000", "122715.335000", "122715.795000", "122716.255000", "122716.715000", "122717.175000", "122717.635000", "122718.095000", "122718.555000", "122719.015000", "122719.475000", "122719.935000", "122720.395000", "122720.855000", "122721.315000", "122721.775000", "122722.235000", "122722.695000", "122723.155000", "122723.615000", "122724.075000", "122724.535000", "122724.995000", "122725.455000", "122725.915000", "122726.375000", "122726.835000", "122727.295000", "122727.755000", "122728.215000", "122728.675000", "122729.135000", "122729.595000", "122730.055000", "122730.515000", "122730.975000", "122731.435000", "122731.895000", "122732.355000", "122732.815000", "122733.275000", "122733.735000", "122734.195000", "122734.655000", "122735.115000", "122735.575000", "122736.035000", "122736.495000", "122736.955000", "122737.415000", "122737.875000", "122738.335000", "122738.795000", "122739.255000", "122739.715000", "122740.175000", "122740.635000", "122741.095000", "122741.555000", "122742.015000", "122742.475000", "122742.935000", "122743.395000", "122743.855000", "122744.315000", "122744.775000", "122745.235000", "122745.695000", "122746.155000", "122746.615000", "122747.075000", "122747.535000", "122747.995000", "122748.455000", "122748.915000", "122749.375000", "122749.835000", "122750.295000", "122750.755000", "122751.215000", "122751.675000", "122752.135000", "122752.595000", "122753.055000", "122753.515000", "122753.975000", "122754.435000", "122754.895000", "122755.355000", "122755.815000", "122756.275000", "122756.735000", "122757.195000", "122757.655000", "122758.115000", "122758.575000", "122759.035000", "122759.495000", "122759.955000", "122800.415000", "122800.875000", "122801.335000", "122801.795000", "122802.255000", "122802.715000", "122803.175000", "122803.635000", "122804.095000", "122804.555000", "122805.015000", "122805.475000", "122805.935000", "122806.395000", "122806.855000", "122807.315000", "122807.775000", "122808.235000", "122808.695000", "122809.155000", "122809.615000", "122810.075000", "122810.535000", "122810.995000", "122811.455000", "122811.915000", "122812.375000", "122812.835000", "122813.295000", "122813.755000", "122814.215000", "122814.675000", "122815.135000", "122815.595000", "122816.055000", "122816.515000", "122816.975000", "122817.435000", "122817.895000", "122818.355000", "122818.815000", "122819.275000", "122819.735000", "122820.195000", "122820.655000", "122821.115000", "122821.575000", "122822.035000", "122822.495000", "122822.955000", "122823.415000", "122823.875000", "122824.335000", "122824.795000", "122825.255000", "122825.715000", "122826.175000", "122826.635000", "122827.095000", "122827.555000", "122828.015000", "122828.475000", "122828.935000", "122829.395000", "122829.855000", "122830.315000", "122830.775000", "122831.235000", "122831.695000", "122832.155000", "122832.615000", "122833.075000", "122833.535000", "122833.995000", "122834.455000", "122834.915000", "122835.375000", "122835.835000", "122836.295000", "122836.755000", "122837.215000", "122837.675000", "122838.135000", "122838.595000", "122839.055000", "122839.515000", "122839.975000", "122840.435000", "122840.895000", "122841.355000", "122841.815000", "122842.275000", "122842.735000", "122843.195000", "122843.655000", "122844.115000", "122844.575000", "122845.035000", "122845.495000", "122845.955000", "122846.415000", "122846.875000", "122847.335000", "122847.795000", "122848.255000", "122848.715000", "122849.175000", "122849.635000", "122850.095000", "122850.555000", "122851.015000", "122851.475000", "122851.935000", "122852.395000", "122852.855000", "122853.315000", "122853.775000", "122854.235000", "122854.695000", "122855.155000", "122855.615000", "122856.075000", "122856.535000", "122856.995000", "122857.455000", "122857.915000", "122858.375000", "122858.835000", "122859.295000", "122859.755000", "122900.215000", "122900.675000", "122901.135000", "122901.595000", "122902.055000", "122902.515000", "122902.975000", "122903.435000", "122903.895000", "122904.355000", "122904.815000", "122905.275000", "122905.735000", "122906.195000", "122906.655000", "122907.115000", "122907.575000", "122908.035000", "122908.495000", "122908.955000", "122909.415000", "122909.875000", "122910.335000", "122910.795000", "122911.255000", "122911.715000", "122912.175000", "122912.635000", "122913.095000", "122913.555000", "122914.015000", "122914.475000", "122914.935000", "122915.395000", "122915.855000", "122916.315000", "122916.775000", "122917.235000", "122917.695000", "122918.155000", "122918.615000", "122919.075000", "122919.535000", "122919.995000", "122920.455000", "122920.915000", "122921.375000", "122921.835000", "122922.295000", "122922.755000", "122923.215000", "122923.675000", "122924.135000", "122924.595000", "122925.055000", "122925.515000", "122925.975000", "122926.435000", "122926.895000", "122927.355000", "122927.815000", "122928.275000", "122928.735000", "122929.195000", "122929.655000", "122930.115000", "122930.575000", "122931.035000", "122931.495000", "122931.955000", "122932.415000", "122932.875000", "122933.335000", "122933.795000", "122934.255000", "122934.715000", "122935.175000", "122935.635000", "122936.095000", "122936.555000", "122937.015000", "122937.475000", "122937.935000", "122938.395000", "122938.855000", "122939.315000", "122939.775000", "122940.235000", "122940.695000", "122941.155000", "122941.615000", "122942.075000", "122942.535000", "122942.995000", "122943.455000", "122943.915000", "122944.375000", "122944.835000", "122945.295000", "122945.755000", "122946.215000", "122946.675000", "122947.135000", "122947.595000", "122948.055000", "122948.515000", "122948.975000", "122949.435000", "122949.895000", "122950.355000", "122950.815000", "122951.275000", "122951.735000", "122952.195000", "122952.655000", "122953.115000", "122953.575000", "122954.035000", "122954.495000", "122954.955000", "122955.415000", "122955.875000", "122956.335000", "122956.795000", "122957.255000", "122957.715000", "122958.175000", "122958.635000", "122959.095000", "122959.555000", "123000.015000", "123000.475000", "123000.935000", "123001.395000", "123001.855000", "123002.315000", "123002.775000", "123003.235000", "123003.695000", "123004.155000", "123004.615000", "123005.075000", "123005.535000", "123005.995000", "123006.455000", "123006.915000", "123007.375000", "123007.835000", "123008.295000", "123008.755000", "123009.215000", "123009.675000", "123010.135000", "123010.595000", "123011.055000", "123011.515000", "123011.975000", "123012.435000", "123012.895000", "123013.355000", "123013.815000", "123014.275000", "123014.735000", "123015.195000", "123015.655000", "123016.115000", "123016.575000", "123017.035000", "123017.495000", "123017.955000", "123018.415000", "123018.875000", "123019.335000", "123019.795000", "123020.255000", "123020.715000", "123021.175000", "123021.635000", "123022.095000", "123022.555000", "123023.015000", "123023.475000", "123023.935000", "123024.395000", "123024.855000", "123025.315000", "123025.775000", "123026.235000", "123026.695000", "123027.155000", "123027.615000", "123028.075000", "123028.535000", "123028.995000", "123029.455000", "123029.915000", "123030.375000", "123030.835000", "123031.295000", "123031.755000", "123032.215000", "123032.675000", "123033.135000", "123033.595000", "123034.055000", "123034.515000", "123034.975000", "123035.435000", "123035.895000", "123036.355000", "123036.815000", "123037.275000", "123037.735000", "123038.195000", "123038.655000", "123039.115000", "123039.575000", "123040.035000", "123040.495000", "123040.955000", "123041.415000", "123041.875000", "123042.335000", "123042.795000", "123043.255000", "123043.715000", "123044.175000", "123044.635000", "123045.095000", "123045.555000", "123046.015000", "123046.475000", "123046.935000", "123047.395000", "123047.855000", "123048.315000", "123048.775000", "123049.235000", "123049.695000", "123050.155000", "123050.615000", "123051.075000", "123051.535000", "123051.995000", "123052.455000", "123052.915000", "123053.375000", "123053.835000", "123054.295000", "123054.755000", "123055.215000", "123055.675000", "123056.135000", "123056.595000", "123057.055000", "123057.515000", "123057.975000", "123058.435000", "123058.895000", "123059.355000", "123059.815000", "123100.275000", "123100.735000", "123101.195000", "123101.655000", "123102.115000", "123102.575000", "123103.035000", "123103.495000", "123103.955000", "123104.415000", "123104.875000", "123105.335000", "123105.795000", "123106.255000", "123106.715000", "123107.175000", "123107.635000", "123108.095000", "123108.555000", "123109.015000", "123109.475000", "123109.935000", "123110.395000", "123110.855000", "123111.315000", "123111.775000", "123112.235000", "123112.695000", "123113.155000", "123113.615000", "123114.075000", "123114.535000", "123114.995000", "123115.455000", "123115.915000", "123116.375000", "123116.835000", "123117.295000", "123117.755000", "123118.215000", "123118.675000", "123119.135000", "123119.595000", "123120.055000", "123120.515000", "123120.975000", "123121.435000", "123121.895000", "123122.355000", "123122.815000", "123123.275000", "123123.735000", "123124.195000", "123124.655000", "123125.115000", "123125.575000", "123126.035000", "123126.495000", "123126.955000", "123127.415000", "123127.875000"],
