{
  "AcquisitionMatrixPE": 82,
  "AcquisitionNumber": 1,
  "AcquisitionTime": "13:54:48.240000",
  "BandwidthPerPixelPhaseEncode": 24.888,
  "BaseResolution": 82,
  "BodyPartExamined": "BRAIN",
  "ConsistencyInfo": "N4_VE11C_LATEST_20160120",
  "ConversionSoftware": "dcm2niix",
  "ConversionSoftwareVersion": "v1.0.20201102",
  "DerivedVendorReportedEchoSpacing": 0.00049,
  "DeviceSerialNumber": "66112",
  "DwellTime": 2e-06,
  "EchoTime": 0.0272,
  "EchoTrainLength": 82,
  "EffectiveEchoSpacing": 0.00049,
  "FlipAngle": 44,
  "ImageComments": "Unaliased MB8/PE3",
  "ImageOrientationPatientDICOM": [0.994231, -0.077922, 0.0737103, 0.0761528, 0.996743, 0.0265203],
  "ImageType": [
    "ORIGINAL",
    "PRIMARY",
    "M",
    "MB",
    "ND",
    "NORM",
    "MOSAIC"
],
  "ImagingFrequency": 123.252,
  "InPlanePhaseEncodingDirectionDICOM": "COL",
  "InstitutionAddress": "Maynard 3,Hanover,NH,US,03755",
  "InstitutionName": "Dartmouth College - PBS",
  "InstitutionalDepartmentName": "Department",
  "MRAcquisitionType": "2D",
  "MagneticFieldStrength": 3,
  "Manufacturer": "Siemens",
  "ManufacturersModelName": "Prisma",
  "Modality": "MR",
  "MultibandAccelerationFactor": 8,
  "PartialFourier": 1,
  "PatientPosition": "HFS",
  "PercentPhaseFOV": 100,
  "PercentSampling": 100,
  "PhaseEncodingDirection": "j-",
  "PhaseEncodingSteps": 82,
  "PhaseResolution": 1,
  "PixelBandwidth": 3050,
  "ProcedureStepDescription": "Wager_Wager^1076_spacetop",
  "ProtocolName": "func_run-03_task-alignvideo_acq-ap-mb8",
  "PulseSequenceDetails": "%CustomerSeq%\\cmrr_mbep2d_bold",
  "ReceiveCoilActiveElements": "HEA;HEP",
  "ReceiveCoilName": "Head_32",
  "ReconMatrixPE": 82,
  "RepetitionTime": 0.46,
  "SAR": 0.104488,
  "ScanOptions": "FS",
  "ScanningSequence": "EP",
  "SequenceName": "epfid2d1_82",
  "SequenceVariant": "SK\\SS",
  "SeriesDescription": "func_run-03_task-alignvideo_acq-ap-mb8",
  "SeriesNumber": 34,
  "ShimSetting": [4181, -7766, -7181, 641, 2, -144, 55, 72],
  "SliceThickness": 2.7,
  "SliceTiming": [0, 0.2525, 0.0625, 0.315, 0.125, 0.3775, 0.1875, 0, 0.2525, 0.0625, 0.315, 0.125, 0.3775, 0.1875, 0, 0.2525, 0.0625, 0.315, 0.125, 0.3775, 0.1875, 0, 0.2525, 0.0625, 0.315, 0.125, 0.3775, 0.1875, 0, 0.2525, 0.0625, 0.315, 0.125, 0.3775, 0.1875, 0, 0.2525, 0.0625, 0.315, 0.125, 0.3775, 0.1875, 0, 0.2525, 0.0625, 0.315, 0.125, 0.3775, 0.1875, 0, 0.2525, 0.0625, 0.315, 0.125, 0.3775, 0.1875],
  "SoftwareVersions": "syngo MR E11",
  "SpacingBetweenSlices": 2.7,
  "StationName": "AWP66112",
  "TaskName": "alignvideo",
  "TotalReadoutTime": 0.03969,
  "TxRefAmp": 268.287,
  "WipMemBlock": "59e4eabb-ba8b-42ba-8c9d-bf643786b52d||Sequence: R016 ve11c/master r/e634e98; Dec 19 2017 11:00:25 by eja",
  "dcmmeta_affine": [
    [-2.6674487590789795, 0.20431239902973175, 0.2039492279291153, 95.8608169555664],
    [0.20905913412570953, 2.674189805984497, 0.0560358501970768, -105.59943389892578],
    [0.19775928556919098, -0.07115192711353302, 2.6917030811309814, -42.43903350830078],
    [0.0, 0.0, 0.0, 1.0]
],
  "dcmmeta_reorient_transform": [
    [0.0, -1.0, 0.0, 81.0],
    [1.0, 0.0, 0.0, 0.0],
    [0.0, 0.0, 1.0, 0.0],
    [0.0, 0.0, 0.0, 1.0]
],
  "dcmmeta_shape": [82, 82, 56, 1065],
  "dcmmeta_slice_dim": 2,
  "dcmmeta_version": 0.6,
  "global": {
    "const": {
      "AccessionNumber": "A003534",
      "AcquisitionMatrix": [82, 0, 0, 82],
      "AngioFlag": "N",
      "BitsAllocated": 16,
      "BitsStored": 16,
      "BodyPartExamined": "BRAIN",
      "Columns": 656,
      "EchoNumbers": 1,
      "EchoTime": 27.2,
      "EchoTrainLength": 82,
      "FlipAngle": 44.0,
      "HighBit": 15,
      "ImageOrientationPatient": [0.99423083369436, -0.0779220381628, 0.07371027947298, 0.07615280033892, 0.99674341066794, 0.02652026188745],
      "ImagePositionPatient": [-936.60553575107, -818.50240227751, -125.37985756504],
      "ImageType": [
        "ORIGINAL",
        "PRIMARY",
        "M",
        "MB",
        "ND",
        "NORM",
        "MOSAIC"
],
      "ImagedNucleus": "1H",
      "ImagingFrequency": 123.252129,
      "InPlanePhaseEncodingDirection": "COL",
      "MRAcquisitionType": "2D",
      "MagneticFieldStrength": 3.0,
      "Manufacturer": "SIEMENS",
      "ManufacturerModelName": "Prisma",
      "Modality": "MR",
      "NumberOfAverages": 1.0,
      "NumberOfPhaseEncodingSteps": 82,
      "PercentPhaseFieldOfView": 100.0,
      "PercentSampling": 100.0,
      "PerformedProcedureStepStartTime": "120504.653000",
      "PhotometricInterpretation": "MONOCHROME2",
      "PixelBandwidth": 3050.0,
      "PixelRepresentation": 0,
      "PixelSpacing": [2.6829268932343, 2.6829268932343],
      "ProtocolName": "func_run-03_task-alignvideo_acq-ap-mb8",
      "RepetitionTime": 460.0,
      "Rows": 656,
      "SAR": 0.1044882113771,
      "SamplesPerPixel": 1,
      "ScanOptions": "FS",
      "ScanningSequence": "EP",
      "SequenceName": "epfid2d1_82",
      "SequenceVariant": [
        "SK",
        "SS"
],
      "SeriesDescription": "func_run-03_task-alignvideo_acq-ap-mb8",
      "SeriesNumber": 34,
      "SeriesTime": "135503.510000",
      "SliceLocation": -37.259216927924,
      "SliceThickness": 2.7000000476837,
      "SmallestImagePixelValue": 0,
      "SoftwareVersions": "syngo MR E11",
      "SpacingBetweenSlices": 2.7000000262802,
      "SpecificCharacterSet": "ISO_IR 100",
      "StudyID": "1",
      "StudyTime": "120504.463000",
      "TransmitCoilName": "Body",
      "VariableFlipAngleFlag": "N",
      "WindowCenterWidthExplanation": "Algo1",
      "dBdt": 0.0},
    "slices": {}
  },
  "time": {
    "samples": {
      "AcquisitionNumber": [1, 2, 3, 4, 5, 6, 7, 8, 9, 10, 11, 12, 13, 14, 15, 16, 17, 18, 19, 20, 21, 22, 23, 24, 25, 26, 27, 28, 29, 30, 31, 32, 33, 34, 35, 36, 37, 38, 39, 40, 41, 42, 43, 44, 45, 46, 47, 48, 49, 50, 51, 52, 53, 54, 55, 56, 57, 58, 59, 60, 61, 62, 63, 64, 65, 66, 67, 68, 69, 70, 71, 72, 73, 74, 75, 76, 77, 78, 79, 80, 81, 82, 83, 84, 85, 86, 87, 88, 89, 90, 91, 92, 93, 94, 95, 96, 97, 98, 99, 100, 101, 102, 103, 104, 105, 106, 107, 108, 109, 110, 111, 112, 113, 114, 115, 116, 117, 118, 119, 120, 121, 122, 123, 124, 125, 126, 127, 128, 129, 130, 131, 132, 133, 134, 135, 136, 137, 138, 139, 140, 141, 142, 143, 144, 145, 146, 147, 148, 149, 150, 151, 152, 153, 154, 155, 156, 157, 158, 159, 160, 161, 162, 163, 164, 165, 166, 167, 168, 169, 170, 171, 172, 173, 174, 175, 176, 177, 178, 179, 180, 181, 182, 183, 184, 185, 186, 187, 188, 189, 190, 191, 192, 193, 194, 195, 196, 197, 198, 199, 200, 201, 202, 203, 204, 205, 206, 207, 208, 209, 210, 211, 212, 213, 214, 215, 216, 217, 218, 219, 220, 221, 222, 223, 224, 225, 226, 227, 228, 229, 230, 231, 232, 233, 234, 235, 236, 237, 238, 239, 240, 241, 242, 243, 244, 245, 246, 247, 248, 249, 250, 251, 252, 253, 254, 255, 256, 257, 258, 259, 260, 261, 262, 263, 264, 265, 266, 267, 268, 269, 270, 271, 272, 273, 274, 275, 276, 277, 278, 279, 280, 281, 282, 283, 284, 285, 286, 287, 288, 289, 290, 291, 292, 293, 294, 295, 296, 297, 298, 299, 300, 301, 302, 303, 304, 305, 306, 307, 308, 309, 310, 311, 312, 313, 314, 315, 316, 317, 318, 319, 320, 321, 322, 323, 324, 325, 326, 327, 328, 329, 330, 331, 332, 333, 334, 335, 336, 337, 338, 339, 340, 341, 342, 343, 344, 345, 346, 347, 348, 349, 350, 351, 352, 353, 354, 355, 356, 357, 358, 359, 360, 361, 362, 363, 364, 365, 366, 367, 368, 369, 370, 371, 372, 373, 374, 375, 376, 377, 378, 379, 380, 381, 382, 383, 384, 385, 386, 387, 388, 389, 390, 391, 392, 393, 394, 395, 396, 397, 398, 399, 400, 401, 402, 403, 404, 405, 406, 407, 408, 409, 410, 411, 412, 413, 414, 415, 416, 417, 418, 419, 420, 421, 422, 423, 424, 425, 426, 427, 428, 429, 430, 431, 432, 433, 434, 435, 436, 437, 438, 439, 440, 441, 442, 443, 444, 445, 446, 447, 448, 449, 450, 451, 452, 453, 454, 455, 456, 457, 458, 459, 460, 461, 462, 463, 464, 465, 466, 467, 468, 469, 470, 471, 472, 473, 474, 475, 476, 477, 478, 479, 480, 481, 482, 483, 484, 485, 486, 487, 488, 489, 490, 491, 492, 493, 494, 495, 496, 497, 498, 499, 500, 501, 502, 503, 504, 505, 506, 507, 508, 509, 510, 511, 512, 513, 514, 515, 516, 517, 518, 519, 520, 521, 522, 523, 524, 525, 526, 527, 528, 529, 530, 531, 532, 533, 534, 535, 536, 537, 538, 539, 540, 541, 542, 543, 544, 545, 546, 547, 548, 549, 550, 551, 552, 553, 554, 555, 556, 557, 558, 559, 560, 561, 562, 563, 564, 565, 566, 567, 568, 569, 570, 571, 572, 573, 574, 575, 576, 577, 578, 579, 580, 581, 582, 583, 584, 585, 586, 587, 588, 589, 590, 591, 592, 593, 594, 595, 596, 597, 598, 599, 600, 601, 602, 603, 604, 605, 606, 607, 608, 609, 610, 611, 612, 613, 614, 615, 616, 617, 618, 619, 620, 621, 622, 623, 624, 625, 626, 627, 628, 629, 630, 631, 632, 633, 634, 635, 636, 637, 638, 639, 640, 641, 642, 643, 644, 645, 646, 647, 648, 649, 650, 651, 652, 653, 654, 655, 656, 657, 658, 659, 660, 661, 662, 663, 664, 665, 666, 667, 668, 669, 670, 671, 672, 673, 674, 675, 676, 677, 678, 679, 680, 681, 682, 683, 684, 685, 686, 687, 688, 689, 690, 691, 692, 693, 694, 695, 696, 697, 698, 699, 700, 701, 702, 703, 704, 705, 706, 707, 708, 709, 710, 711, 712, 713, 714, 715, 716, 717, 718, 719, 720, 721, 722, 723, 724, 725, 726, 727, 728, 729, 730, 731, 732, 733, 734, 735, 736, 737, 738, 739, 740, 741, 742, 743, 744, 745, 746, 747, 748, 749, 750, 751, 752, 753, 754, 755, 756, 757, 758, 759, 760, 761, 762, 763, 764, 765, 766, 767, 768, 769, 770, 771, 772, 773, 774, 775, 776, 777, 778, 779, 780, 781, 782, 783, 784, 785, 786, 787, 788, 789, 790, 791, 792, 793, 794, 795, 796, 797, 798, 799, 800, 801, 802, 803, 804, 805, 806, 807, 808, 809, 810, 811, 812, 813, 814, 815, 816, 817, 818, 819, 820, 821, 822, 823, 824, 825, 826, 827, 828, 829, 830, 831, 832, 833, 834, 835, 836, 837, 838, 839, 840, 841, 842, 843, 844, 845, 846, 847, 848, 849, 850, 851, 852, 853, 854, 855, 856, 857, 858, 859, 860, 861, 862, 863, 864, 865, 866, 867, 868, 869, 870, 871, 872, 873, 874, 875, 876, 877, 878, 879, 880, 881, 882, 883, 884, 885, 886, 887, 888, 889, 890, 891, 892, 893, 894, 895, 896, 897, 898, 899, 900, 901, 902, 903, 904, 905, 906, 907, 908, 909, 910, 911, 912, 913, 914, 915, 916, 917, 918, 919, 920, 921, 922, 923, 924, 925, 926, 927, 928, 929, 930, 931, 932, 933, 934, 935, 936, 937, 938, 939, 940, 941, 942, 943, 944, 945, 946, 947, 948, 949, 950, 951, 952, 953, 954, 955, 956, 957, 958, 959, 960, 961, 962, 963, 964, 965, 966, 967, 968, 969, 970, 971, 972, 973, 974, 975, 976, 977, 978, 979, 980, 981, 982, 983, 984, 985, 986, 987, 988, 989, 990, 991, 992, 993, 994, 995, 996, 997, 998, 999, 1000, 1001, 1002, 1003, 1004, 1005, 1006, 1007, 1008, 1009, 1010, 1011, 1012, 1013, 1014, 1015, 1016, 1017, 1018, 1019, 1020, 1021, 1022, 1023, 1024, 1025, 1026, 1027, 1028, 1029, 1030, 1031, 1032, 1033, 1034, 1035, 1036, 1037, 1038, 1039, 1040, 1041, 1042, 1043, 1044, 1045, 1046, 1047, 1048, 1049, 1050, 1051, 1052, 1053, 1054, 1055, 1056, 1057, 1058, 1059, 1060, 1061, 1062, 1063, 1064, 1065],
      "AcquisitionTime": ["135448.240000", "135448.700000", "135449.160000", "135449.620000", "135450.080000", "135450.540000", "135451.000000", "135451.460000", "135451.920000", "135452.380000", "135452.840000", "135453.300000", "135453.760000", "135454.220000", "135454.680000", "135455.140000", "135455.600000", "135456.060000", "135456.520000", "135456.980000", "135457.440000", "135457.900000", "135458.360000", "135458.820000", "135459.280000", "135459.740000", "135500.200000", "135500.660000", "135501.120000", "135501.580000", "135502.040000", "135502.500000", "135502.960000", "135503.420000", "135503.880000", "135504.340000", "135504.800000", "135505.260000", "135505.720000", "135506.180000", "135506.640000", "135507.100000", "135507.560000", "135508.020000", "135508.480000", "135508.940000", "135509.400000", "135509.860000", "135510.320000", "135510.780000", "135511.240000", "135511.700000", "135512.160000", "135512.620000", "135513.080000", "135513.540000", "135514.000000", "135514.460000", "135514.920000", "135515.380000", "135515.840000", "135516.300000", "135516.760000", "135517.220000", "135517.680000", "135518.140000", "135518.600000", "135519.060000", "135519.520000", "135519.980000", "135520.440000", "135520.900000", "135521.360000", "135521.820000", "135522.280000", "135522.740000", "135523.200000", "135523.660000", "135524.120000", "135524.580000", "135525.040000", "135525.500000", "135525.960000", "135526.420000", "135526.880000", "135527.340000", "135527.800000", "135528.260000", "135528.720000", "135529.180000", "135529.640000", "135530.100000", "135530.560000", "135531.020000", "135531.480000", "135531.940000", "135532.400000", "135532.860000", "135533.320000", "135533.780000", "135534.240000", "135534.700000", "135535.160000", "135535.620000", "135536.080000", "135536.540000", "135537.000000", "135537.460000", "135537.920000", "135538.380000", "135538.840000", "135539.300000", "135539.760000", "135540.220000", "135540.680000", "135541.140000", "135541.600000", "135542.060000", "135542.520000", "135542.980000", "135543.440000", "135543.900000", "135544.360000", "135544.820000", "135545.280000", "135545.740000", "135546.200000", "135546.660000", "135547.120000", "135547.580000", "135548.040000", "135548.500000", "135548.960000", "135549.420000", "135549.880000", "135550.340000", "135550.800000", "135551.260000", "135551.720000", "135552.180000", "135552.640000", "135553.100000", "135553.560000", "135554.020000", "135554.480000", "135554.940000", "135555.400000", "135555.860000", "135556.320000", "135556.780000", "135557.240000", "135557.700000", "135558.160000", "135558.620000", "135559.080000", "135559.540000", "135600.000000", "135600.460000", "135600.920000", "135601.380000", "135601.840000", "135602.300000", "135602.760000", "135603.220000", "135603.680000", "135604.140000", "135604.600000", "135605.060000", "135605.520000", "135605.980000", "135606.440000", "135606.900000", "135607.360000", "135607.820000", "135608.280000", "135608.740000", "135609.200000", "135609.660000", "135610.120000", "135610.580000", "135611.040000", "135611.500000", "135611.960000", "135612.420000", "135612.880000", "135613.340000", "135613.800000", "135614.260000", "135614.720000", "135615.180000", "135615.640000", "135616.100000", "135616.560000", "135617.020000", "135617.480000", "135617.940000", "135618.400000", "135618.860000", "135619.320000", "135619.780000", "135620.240000", "135620.700000", "135621.160000", "135621.620000", "135622.080000", "135622.540000", "135623.000000", "135623.460000", "135623.920000", "135624.380000", "135624.840000", "135625.300000", "135625.760000", "135626.220000", "135626.680000", "135627.140000", "135627.600000", "135628.060000", "135628.520000", "135628.980000", "135629.440000", "135629.900000", "135630.360000", "135630.820000", "135631.280000", "135631.740000", "135632.200000", "135632.660000", "135633.120000", "135633.580000", "135634.040000", "135634.500000", "135634.960000", "135635.420000", "135635.880000", "135636.340000", "135636.800000", "135637.260000", "135637.720000", "135638.180000", "135638.640000", "135639.100000", "135639.560000", "135640.020000", "135640.480000", "135640.940000", "135641.400000", "135641.860000", "135642.320000", "135642.780000", "135643.240000", "135643.700000", "135644.160000", "135644.620000", "135645.080000", "135645.540000", "135646.000000", "135646.460000", "135646.920000", "135647.380000", "135647.840000", "135648.300000", "135648.760000", "135649.220000", "135649.680000", "135650.140000", "135650.600000", "135651.060000", "135651.520000", "135651.980000", "135652.440000", "135652.900000", "135653.360000", "135653.820000", "135654.280000", "135654.740000", "135655.200000", "135655.660000", "135656.120000", "135656.580000", "135657.040000", "135657.500000", "135657.960000", "135658.420000", "135658.880000", "135659.340000", "135659.800000", "135700.260000", "135700.720000", "135701.180000", "135701.640000", "135702.100000", "135702.560000", "135703.020000", "135703.480000", "135703.940000", "135704.400000", "135704.860000", "135705.320000", "135705.780000", "135706.240000", "135706.700000", "135707.160000", "135707.620000", "135708.080000", "135708.540000", "135709.000000", "135709.460000", "135709.920000", "135710.380000", "135710.840000", "135711.300000", "135711.760000", "135712.220000", "135712.680000", "135713.140000", "135713.600000", "135714.060000", "135714.520000", "135714.980000", "135715.440000", "135715.900000", "135716.360000", "135716.820000", "135717.280000", "135717.740000", "135718.200000", "135718.660000", "135719.120000", "135719.580000", "135720.040000", "135720.500000", "135720.960000", "135721.420000", "135721.880000", "135722.340000", "135722.800000", "135723.260000", "135723.720000", "135724.180000", "135724.640000", "135725.100000", "135725.560000", "135726.020000", "135726.480000", "135726.940000", "135727.400000", "135727.860000", "135728.320000", "135728.780000", "135729.240000", "135729.700000", "135730.160000", "135730.620000", "135731.080000", "135731.540000", "135732.000000", "135732.460000", "135732.920000", "135733.380000", "135733.840000", "135734.300000", "135734.760000", "135735.220000", "135735.680000", "135736.140000", "135736.600000", "135737.060000", "135737.520000", "135737.980000", "135738.440000", "135738.900000", "135739.360000", "135739.820000", "135740.280000", "135740.740000", "135741.200000", "135741.660000", "135742.120000", "135742.580000", "135743.040000", "135743.500000", "135743.960000", "135744.420000", "135744.880000", "135745.340000", "135745.800000", "135746.260000", "135746.720000", "135747.180000", "135747.640000", "135748.100000", "135748.560000", "135749.020000", "135749.480000", "135749.940000", "135750.400000", "135750.860000", "135751.320000", "135751.780000", "135752.240000", "135752.700000", "135753.160000", "135753.620000", "135754.080000", "135754.540000", "135755.000000", "135755.460000", "135755.920000", "135756.380000", "135756.840000", "135757.300000", "135757.760000", "135758.220000", "135758.680000", "135759.140000", "135759.600000", "135800.060000", "135800.520000", "135800.980000", "135801.440000", "135801.900000", "135802.360000", "135802.820000", "135803.280000", "135803.740000", "135804.200000", "135804.660000", "135805.120000", "135805.580000", "135806.040000", "135806.500000", "135806.960000", "135807.420000", "135807.880000", "135808.340000", "135808.800000", "135809.260000", "135809.720000", "135810.180000", "135810.640000", "135811.100000", "135811.560000", "135812.020000", "135812.480000", "135812.940000", "135813.400000", "135813.860000", "135814.320000", "135814.780000", "135815.240000", "135815.700000", "135816.160000", "135816.620000", "135817.080000", "135817.540000", "135818.000000", "135818.460000", "135818.920000", "135819.380000", "135819.840000", "135820.300000", "135820.760000", "135821.220000", "135821.680000", "135822.140000", "135822.600000", "135823.060000", "135823.520000", "135823.980000", "135824.440000", "135824.900000", "135825.360000", "135825.820000", "135826.280000", "135826.740000", "135827.200000", "135827.660000", "135828.120000", "135828.580000", "135829.040000", "135829.500000", "135829.960000", "135830.420000", "135830.880000", "135831.340000", "135831.800000", "135832.260000", "135832.720000", "135833.180000", "135833.640000", "135834.100000", "135834.560000", "135835.020000", "135835.480000", "135835.940000", "135836.400000", "135836.860000", "135837.320000", "135837.780000", "135838.240000", "135838.700000", "135839.160000", "135839.620000", "135840.080000", "135840.540000", "135841.000000", "135841.460000", "135841.920000", "135842.380000", "135842.840000", "135843.300000", "135843.760000", "135844.220000", "135844.680000", "135845.140000", "135845.600000", "135846.060000", "135846.520000", "135846.980000", "135847.440000", "135847.900000", "135848.360000", "135848.820000", "135849.280000", "135849.740000", "135850.200000", "135850.660000", "135851.120000", "135851.580000", "135852.040000", "135852.500000", "135852.960000", "135853.420000", "135853.880000", "135854.340000", "135854.800000", "135855.260000", "135855.720000", "135856.180000", "135856.640000", "135857.100000", "135857.560000", "135858.020000", "135858.480000", "135858.940000", "135859.400000", "135859.860000", "135900.320000", "135900.780000", "135901.240000", "135901.700000", "135902.160000", "135902.620000", "135903.080000", "135903.540000", "135904.000000", "135904.460000", "135904.920000", "135905.380000", "135905.840000", "135906.300000", "135906.760000", "135907.220000", "135907.680000", "135908.140000", "135908.600000", "135909.060000", "135909.520000", "135909.980000", "135910.440000", "135910.900000", "135911.360000", "135911.820000", "135912.280000", "135912.740000", "135913.200000", "135913.660000", "135914.120000", "135914.580000", "135915.040000", "135915.500000", "135915.960000", "135916.420000", "135916.880000", "135917.340000", "135917.800000", "135918.260000", "135918.720000", "135919.180000", "135919.640000", "135920.100000", "135920.560000", "135921.020000", "135921.480000", "135921.940000", "135922.400000", "135922.860000", "135923.320000", "135923.780000", "135924.240000", "135924.700000", "135925.160000", "135925.620000", "135926.080000", "135926.540000", "135927.000000", "135927.460000", "135927.920000", "135928.380000", "135928.840000", "135929.300000", "135929.760000", "135930.220000", "135930.680000", "135931.140000", "135931.600000", "135932.060000", "135932.520000", "135932.980000", "135933.440000", "135933.900000", "135934.360000", "135934.820000", "135935.280000", "135935.740000", "135936.200000", "135936.660000", "135937.120000", "135937.580000", "135938.040000", "135938.500000", "135938.960000", "135939.420000", "135939.880000", "135940.340000", "135940.800000", "135941.260000", "135941.720000", "135942.180000", "135942.640000", "135943.100000", "135943.560000", "135944.020000", "135944.480000", "135944.940000", "135945.400000", "135945.860000", "135946.320000", "135946.780000", "135947.240000", "135947.700000", "135948.160000", "135948.620000", "135949.080000", "135949.540000", "135950.000000", "135950.460000", "135950.920000", "135951.380000", "135951.840000", "135952.300000", "135952.760000", "135953.220000", "135953.680000", "135954.140000", "135954.600000", "135955.060000", "135955.520000", "135955.980000", "135956.440000", "135956.900000", "135957.360000", "135957.820000", "135958.280000", "135958.740000", "135959.200000", "135959.660000", "140000.120000", "140000.580000", "140001.040000", "140001.500000", "140001.960000", "140002.420000", "140002.880000", "140003.340000", "140003.800000", "140004.260000", "140004.720000", "140005.180000", "140005.640000", "140006.100000", "140006.560000", "140007.020000", "140007.480000", "140007.940000", "140008.400000", "140008.860000", "140009.320000", "140009.780000", "140010.240000", "140010.700000", "140011.160000", "140011.620000", "140012.080000", "140012.540000", "140013.000000", "140013.460000", "140013.920000", "140014.380000", "140014.840000", "140015.300000", "140015.760000", "140016.220000", "140016.680000", "140017.140000", "140017.600000", "140018.060000", "140018.520000", "140018.980000", "140019.440000", "140019.900000", "140020.360000", "140020.820000", "140021.280000", "140021.740000", "140022.200000", "140022.660000", "140023.120000", "140023.580000", "140024.040000", "140024.500000", "140024.960000", "140025.420000", "140025.880000", "140026.340000", "140026.800000", "140027.260000", "140027.720000", "140028.180000", "140028.640000", "140029.100000", "140029.560000", "140030.020000", "140030.480000", "140030.940000", "140031.400000", "140031.860000", "140032.320000", "140032.780000", "140033.240000", "140033.700000", "140034.160000", "140034.620000", "140035.080000", "140035.540000", "140036.000000", "140036.460000", "140036.920000", "140037.380000", "140037.840000", "140038.300000", "140038.760000", "140039.220000", "140039.680000", "140040.140000", "140040.600000", "140041.060000", "140041.520000", "140041.980000", "140042.440000", "140042.900000", "140043.360000", "140043.820000", "140044.280000", "140044.740000", "140045.200000", "140045.660000", "140046.120000", "140046.580000", "140047.040000", "140047.500000", "140047.960000", "140048.420000", "140048.880000", "140049.340000", "140049.800000", "140050.260000", "140050.720000", "140051.180000", "140051.640000", "140052.100000", "140052.560000", "140053.020000", "140053.480000", "140053.940000", "140054.400000", "140054.860000", "140055.320000", "140055.780000", "140056.240000", "140056.700000", "140057.160000", "140057.620000", "140058.080000", "140058.540000", "140059.000000", "140059.460000", "140059.920000", "140100.380000", "140100.840000", "140101.300000", "140101.760000", "140102.220000", "140102.680000", "140103.140000", "140103.600000", "140104.060000", "140104.520000", "140104.980000", "140105.440000", "140105.900000", "140106.360000", "140106.820000", "140107.280000", "140107.740000", "140108.200000", "140108.660000", "140109.120000", "140109.580000", "140110.040000", "140110.500000", "140110.960000", "140111.420000", "140111.880000", "140112.340000", "140112.800000", "140113.260000", "140113.720000", "140114.180000", "140114.640000", "140115.100000", "140115.560000", "140116.020000", "140116.480000", "140116.940000", "140117.400000", "140117.860000", "140118.320000", "140118.780000", "140119.240000", "140119.700000", "140120.160000", "140120.620000", "140121.080000", "140121.540000", "140122.000000", "140122.460000", "140122.920000", "140123.380000", "140123.840000", "140124.300000", "140124.760000", "140125.220000", "140125.680000", "140126.140000", "140126.600000", "140127.060000", "140127.520000", "140127.980000", "140128.440000", "140128.900000", "140129.360000", "140129.820000", "140130.280000", "140130.740000", "140131.200000", "140131.660000", "140132.120000", "140132.580000", "140133.040000", "140133.500000", "140133.960000", "140134.420000", "140134.880000", "140135.340000", "140135.800000", "140136.260000", "140136.720000", "140137.180000", "140137.640000", "140138.100000", "140138.560000", "140139.020000", "140139.480000", "140139.940000", "140140.400000", "140140.860000", "140141.320000", "140141.780000", "140142.240000", "140142.700000", "140143.160000", "140143.620000", "140144.080000", "140144.540000", "140145.000000", "140145.460000", "140145.920000", "140146.380000", "140146.840000", "140147.300000", "140147.760000", "140148.220000", "140148.680000", "140149.140000", "140149.600000", "140150.060000", "140150.520000", "140150.980000", "140151.440000", "140151.900000", "140152.360000", "140152.820000", "140153.280000", "140153.740000", "140154.200000", "140154.660000", "140155.120000", "140155.580000", "140156.040000", "140156.500000", "140156.960000", "140157.420000", "140157.880000", "140158.340000", "140158.800000", "140159.260000", "140159.720000", "140200.180000", "140200.640000", "140201.100000", "140201.560000", "140202.020000", "140202.480000", "140202.940000", "140203.400000", "140203.860000", "140204.320000", "140204.780000", "140205.240000", "140205.700000", "140206.160000", "140206.620000", "140207.080000", "140207.540000", "140208.000000", "140208.460000", "140208.920000", "140209.380000", "140209.840000", "140210.300000", "140210.760000", "140211.220000", "140211.680000", "140212.140000", "140212.600000", "140213.060000", "140213.520000", "140213.980000", "140214.440000", "140214.900000", "140215.360000", "140215.820000", "140216.280000", "140216.740000", "140217.200000", "140217.660000", "140218.120000", "140218.580000", "140219.040000", "140219.500000", "140219.960000", "140220.420000", "140220.880000", "140221.340000", "140221.800000", "140222.260000", "140222.720000", "140223.180000", "140223.640000", "140224.100000", "140224.560000", "140225.020000", "140225.480000", "140225.940000", "140226.400000", "140226.860000", "140227.320000", "140227.780000", "140228.240000", "140228.700000", "140229.160000", "140229.620000", "140230.080000", "140230.540000", "140231.000000", "140231.460000", "140231.920000", "140232.380000", "140232.840000", "140233.300000", "140233.760000", "140234.220000", "140234.680000", "140235.140000", "140235.600000", "140236.060000", "140236.520000", "140236.980000", "140237.440000", "140237.900000", "140238.360000", "140238.820000", "140239.280000", "140239.740000", "140240.200000", "140240.660000", "140241.120000", "140241.580000", "140242.040000", "140242.500000", "140242.960000", "140243.420000", "140243.880000", "140244.340000", "140244.800000", "140245.260000", "140245.720000", "140246.180000", "140246.640000", "140247.100000", "140247.560000", "140248.020000", "140248.480000", "140248.940000", "140249.400000", "140249.860000", "140250.320000", "140250.780000", "140251.240000", "140251.700000", "140252.160000", "140252.620000", "140253.080000", "140253.540000", "140254.000000", "140254.460000", "140254.920000", "140255.380000", "140255.840000", "140256.300000", "140256.760000", "140257.220000", "140257.680000"],
