{
  "AcquisitionMatrixPE": 82,
  "AcquisitionNumber": 1,
  "AcquisitionTime": "12:51:19.445000",
  "BandwidthPerPixelPhaseEncode": 24.888,
  "BaseResolution": 82,
  "BodyPartExamined": "BRAIN",
  "ConsistencyInfo": "N4_VE11C_LATEST_20160120",
  "ConversionSoftware": "dcm2niix",
  "ConversionSoftwareVersion": "v1.0.20201102",
  "DerivedVendorReportedEchoSpacing": 0.00049,
  "DeviceSerialNumber": "66112",
  "DwellTime": 2e-06,
  "EchoTime": 0.0272,
  "EchoTrainLength": 82,
  "EffectiveEchoSpacing": 0.00049,
  "FlipAngle": 44,
  "ImageComments": "Unaliased MB8/PE3",
  "ImageOrientationPatientDICOM": [0.996333, -0.0805395, 0.0288849, 0.0773634, 0.992178, 0.0979684],
  "ImageType": [
    "ORIGINAL",
    "PRIMARY",
    "M",
    "MB",
    "ND",
    "NORM",
    "MOSAIC"
],
  "ImagingFrequency": 123.252,
  "InPlanePhaseEncodingDirectionDICOM": "COL",
  "InstitutionAddress": "Maynard 3,Hanover,NH,US,03755",
  "InstitutionName": "Dartmouth College - PBS",
  "InstitutionalDepartmentName": "Department",
  "MRAcquisitionType": "2D",
  "MagneticFieldStrength": 3,
  "Manufacturer": "Siemens",
  "ManufacturersModelName": "Prisma",
  "Modality": "MR",
  "MultibandAccelerationFactor": 8,
  "PartialFourier": 1,
  "PatientPosition": "HFS",
  "PercentPhaseFOV": 100,
  "PercentSampling": 100,
  "PhaseEncodingDirection": "j-",
  "PhaseEncodingSteps": 82,
  "PhaseResolution": 1,
  "PixelBandwidth": 3050,
  "ProcedureStepDescription": "Wager_Wager^1076_spacetop",
  "ProtocolName": "func_run-04_task-social_acq-ap-mb8",
  "PulseSequenceDetails": "%CustomerSeq%\\cmrr_mbep2d_bold",
  "ReceiveCoilActiveElements": "HEA;HEP",
  "ReceiveCoilName": "Head_32",
  "ReconMatrixPE": 82,
  "RepetitionTime": 0.46,
  "SAR": 0.10437,
  "ScanOptions": "FS",
  "ScanningSequence": "EP",
  "SequenceName": "epfid2d1_82",
  "SequenceVariant": "SK\\SS",
  "SeriesDescription": "func_run-04_task-social_acq-ap-mb8",
  "SeriesNumber": 16,
  "ShimSetting": [4178, -7769, -7191, 618, -4, -156, 58, 69],
  "SliceThickness": 2.7,
  "SliceTiming": [0, 0.2525, 0.0625, 0.315, 0.1275, 0.3775, 0.19, 0, 0.2525, 0.0625, 0.315, 0.1275, 0.3775, 0.19, 0, 0.2525, 0.0625, 0.315, 0.1275, 0.3775, 0.19, 0, 0.2525, 0.0625, 0.315, 0.1275, 0.3775, 0.19, 0, 0.2525, 0.0625, 0.315, 0.1275, 0.3775, 0.19, 0, 0.2525, 0.0625, 0.315, 0.1275, 0.3775, 0.19, 0, 0.2525, 0.0625, 0.315, 0.1275, 0.3775, 0.19, 0, 0.2525, 0.0625, 0.315, 0.1275, 0.3775, 0.19],
  "SoftwareVersions": "syngo MR E11",
  "SpacingBetweenSlices": 2.7,
  "StationName": "AWP66112",
  "TaskName": "social",
  "TotalReadoutTime": 0.03969,
  "TxRefAmp": 268.287,
  "WipMemBlock": "303d42b0-75bf-4f67-811e-61333f511147||Sequence: R016 ve11c/master r/e634e98; Dec 19 2017 11:00:25 by eja",
  "dcmmeta_affine": [
    [-2.6730880737304688, 0.20756037533283234, 0.09868305176496506, 98.06231689453125],
    [0.21608157455921173, 2.661940813064575, 0.2575111389160156, -110.35053253173828],
    [0.07749605178833008, -0.2628420293331146, 2.685879707336426, -32.51108169555664],
    [0.0, 0.0, 0.0, 1.0]
],
  "dcmmeta_reorient_transform": [
    [0.0, -1.0, 0.0, 81.0],
    [1.0, 0.0, 0.0, 0.0],
    [0.0, 0.0, 1.0, 0.0],
    [0.0, 0.0, 0.0, 1.0]
],
  "dcmmeta_shape": [82, 82, 56, 872],
  "dcmmeta_slice_dim": 2,
  "dcmmeta_version": 0.6,
  "global": {
    "const": {
      "AccessionNumber": "A003534",
      "AcquisitionMatrix": [82, 0, 0, 82],
      "AngioFlag": "N",
      "BitsAllocated": 16,
      "BitsStored": 16,
      "BodyPartExamined": "BRAIN",
      "Columns": 656,
      "EchoNumbers": 1,
      "EchoTime": 27.2,
      "EchoTrainLength": 82,
      "FlipAngle": 44.0,
      "HighBit": 15,
      "ImageOrientationPatient": [0.99633280243366, -0.0805394920262, 0.0288848925711, 0.07736340893566, 0.99217795611887, 0.09796839464657],
      "ImagePositionPatient": [-941.62081120508, -807.22831247858, -151.4783189665],
      "ImageType": [
        "ORIGINAL",
        "PRIMARY",
        "M",
        "MB",
        "ND",
        "NORM",
        "MOSAIC"
],
      "ImagedNucleus": "1H",
      "ImagingFrequency": 123.252122,
      "InPlanePhaseEncodingDirection": "COL",
      "MRAcquisitionType": "2D",
      "MagneticFieldStrength": 3.0,
      "Manufacturer": "SIEMENS",
      "ManufacturerModelName": "Prisma",
      "Modality": "MR",
      "NumberOfAverages": 1.0,
      "NumberOfPhaseEncodingSteps": 82,
      "PercentPhaseFieldOfView": 100.0,
      "PercentSampling": 100.0,
      "PerformedProcedureStepStartTime": "120504.653000",
      "PhotometricInterpretation": "MONOCHROME2",
      "PixelBandwidth": 3050.0,
      "PixelRepresentation": 0,
      "PixelSpacing": [2.6829268932343, 2.6829268932343],
      "ProtocolName": "func_run-04_task-social_acq-ap-mb8",
      "RepetitionTime": 460.0,
      "Rows": 656,
      "SAR": 0.10437048043219,
      "SamplesPerPixel": 1,
      "ScanOptions": "FS",
      "ScanningSequence": "EP",
      "SequenceName": "epfid2d1_82",
      "SequenceVariant": [
        "SK",
        "SS"
],
      "SeriesDescription": "func_run-04_task-social_acq-ap-mb8",
      "SeriesNumber": 16,
      "SeriesTime": "125123.502000",
      "SliceLocation": -39.281574750299,
      "SliceThickness": 2.7000000476837,
      "SmallestImagePixelValue": 0,
      "SoftwareVersions": "syngo MR E11",
      "SpacingBetweenSlices": 2.7000000409299,
      "SpecificCharacterSet": "ISO_IR 100",
      "StudyID": "1",
      "StudyTime": "120504.463000",
      "TransmitCoilName": "Body",
      "VariableFlipAngleFlag": "N",
      "WindowCenterWidthExplanation": "Algo1",
      "dBdt": 0.0},
    "slices": {}
  },
  "time": {
    "samples": {
      "AcquisitionNumber": [1, 2, 3, 4, 5, 6, 7, 8, 9, 10, 11, 12, 13, 14, 15, 16, 17, 18, 19, 20, 21, 22, 23, 24, 25, 26, 27, 28, 29, 30, 31, 32, 33, 34, 35, 36, 37, 38, 39, 40, 41, 42, 43, 44, 45, 46, 47, 48, 49, 50, 51, 52, 53, 54, 55, 56, 57, 58, 59, 60, 61, 62, 63, 64, 65, 66, 67, 68, 69, 70, 71, 72, 73, 74, 75, 76, 77, 78, 79, 80, 81, 82, 83, 84, 85, 86, 87, 88, 89, 90, 91, 92, 93, 94, 95, 96, 97, 98, 99, 100, 101, 102, 103, 104, 105, 106, 107, 108, 109, 110, 111, 112, 113, 114, 115, 116, 117, 118, 119, 120, 121, 122, 123, 124, 125, 126, 127, 128, 129, 130, 131, 132, 133, 134, 135, 136, 137, 138, 139, 140, 141, 142, 143, 144, 145, 146, 147, 148, 149, 150, 151, 152, 153, 154, 155, 156, 157, 158, 159, 160, 161, 162, 163, 164, 165, 166, 167, 168, 169, 170, 171, 172, 173, 174, 175, 176, 177, 178, 179, 180, 181, 182, 183, 184, 185, 186, 187, 188, 189, 190, 191, 192, 193, 194, 195, 196, 197, 198, 199, 200, 201, 202, 203, 204, 205, 206, 207, 208, 209, 210, 211, 212, 213, 214, 215, 216, 217, 218, 219, 220, 221, 222, 223, 224, 225, 226, 227, 228, 229, 230, 231, 232, 233, 234, 235, 236, 237, 238, 239, 240, 241, 242, 243, 244, 245, 246, 247, 248, 249, 250, 251, 252, 253, 254, 255, 256, 257, 258, 259, 260, 261, 262, 263, 264, 265, 266, 267, 268, 269, 270, 271, 272, 273, 274, 275, 276, 277, 278, 279, 280, 281, 282, 283, 284, 285, 286, 287, 288, 289, 290, 291, 292, 293, 294, 295, 296, 297, 298, 299, 300, 301, 302, 303, 304, 305, 306, 307, 308, 309, 310, 311, 312, 313, 314, 315, 316, 317, 318, 319, 320, 321, 322, 323, 324, 325, 326, 327, 328, 329, 330, 331, 332, 333, 334, 335, 336, 337, 338, 339, 340, 341, 342, 343, 344, 345, 346, 347, 348, 349, 350, 351, 352, 353, 354, 355, 356, 357, 358, 359, 360, 361, 362, 363, 364, 365, 366, 367, 368, 369, 370, 371, 372, 373, 374, 375, 376, 377, 378, 379, 380, 381, 382, 383, 384, 385, 386, 387, 388, 389, 390, 391, 392, 393, 394, 395, 396, 397, 398, 399, 400, 401, 402, 403, 404, 405, 406, 407, 408, 409, 410, 411, 412, 413, 414, 415, 416, 417, 418, 419, 420, 421, 422, 423, 424, 425, 426, 427, 428, 429, 430, 431, 432, 433, 434, 435, 436, 437, 438, 439, 440, 441, 442, 443, 444, 445, 446, 447, 448, 449, 450, 451, 452, 453, 454, 455, 456, 457, 458, 459, 460, 461, 462, 463, 464, 465, 466, 467, 468, 469, 470, 471, 472, 473, 474, 475, 476, 477, 478, 479, 480, 481, 482, 483, 484, 485, 486, 487, 488, 489, 490, 491, 492, 493, 494, 495, 496, 497, 498, 499, 500, 501, 502, 503, 504, 505, 506, 507, 508, 509, 510, 511, 512, 513, 514, 515, 516, 517, 518, 519, 520, 521, 522, 523, 524, 525, 526, 527, 528, 529, 530, 531, 532, 533, 534, 535, 536, 537, 538, 539, 540, 541, 542, 543, 544, 545, 546, 547, 548, 549, 550, 551, 552, 553, 554, 555, 556, 557, 558, 559, 560, 561, 562, 563, 564, 565, 566, 567, 568, 569, 570, 571, 572, 573, 574, 575, 576, 577, 578, 579, 580, 581, 582, 583, 584, 585, 586, 587, 588, 589, 590, 591, 592, 593, 594, 595, 596, 597, 598, 599, 600, 601, 602, 603, 604, 605, 606, 607, 608, 609, 610, 611, 612, 613, 614, 615, 616, 617, 618, 619, 620, 621, 622, 623, 624, 625, 626, 627, 628, 629, 630, 631, 632, 633, 634, 635, 636, 637, 638, 639, 640, 641, 642, 643, 644, 645, 646, 647, 648, 649, 650, 651, 652, 653, 654, 655, 656, 657, 658, 659, 660, 661, 662, 663, 664, 665, 666, 667, 668, 669, 670, 671, 672, 673, 674, 675, 676, 677, 678, 679, 680, 681, 682, 683, 684, 685, 686, 687, 688, 689, 690, 691, 692, 693, 694, 695, 696, 697, 698, 699, 700, 701, 702, 703, 704, 705, 706, 707, 708, 709, 710, 711, 712, 713, 714, 715, 716, 717, 718, 719, 720, 721, 722, 723, 724, 725, 726, 727, 728, 729, 730, 731, 732, 733, 734, 735, 736, 737, 738, 739, 740, 741, 742, 743, 744, 745, 746, 747, 748, 749, 750, 751, 752, 753, 754, 755, 756, 757, 758, 759, 760, 761, 762, 763, 764, 765, 766, 767, 768, 769, 770, 771, 772, 773, 774, 775, 776, 777, 778, 779, 780, 781, 782, 783, 784, 785, 786, 787, 788, 789, 790, 791, 792, 793, 794, 795, 796, 797, 798, 799, 800, 801, 802, 803, 804, 805, 806, 807, 808, 809, 810, 811, 812, 813, 814, 815, 816, 817, 818, 819, 820, 821, 822, 823, 824, 825, 826, 827, 828, 829, 830, 831, 832, 833, 834, 835, 836, 837, 838, 839, 840, 841, 842, 843, 844, 845, 846, 847, 848, 849, 850, 851, 852, 853, 854, 855, 856, 857, 858, 859, 860, 861, 862, 863, 864, 865, 866, 867, 868, 869, 870, 871, 872],
      "AcquisitionTime": ["125119.445000", "125119.905000", "125120.365000", "125120.825000", "125121.285000", "125121.745000", "125122.205000", "125122.665000", "125123.125000", "125123.585000", "125124.045000", "125124.505000", "125124.965000", "125125.425000", "125125.885000", "125126.345000", "125126.805000", "125127.265000", "125127.725000", "125128.185000", "125128.645000", "125129.105000", "125129.565000", "125130.025000", "125130.485000", "125130.945000", "125131.405000", "125131.865000", "125132.325000", "125132.785000", "125133.245000", "125133.705000", "125134.165000", "125134.625000", "125135.085000", "125135.545000", "125136.005000", "125136.465000", "125136.925000", "125137.385000", "125137.845000", "125138.305000", "125138.765000", "125139.225000", "125139.685000", "125140.145000", "125140.605000", "125141.065000", "125141.525000", "125141.985000", "125142.445000", "125142.905000", "125143.365000", "125143.825000", "125144.285000", "125144.745000", "125145.205000", "125145.665000", "125146.125000", "125146.585000", "125147.045000", "125147.505000", "125147.965000", "125148.425000", "125148.885000", "125149.345000", "125149.805000", "125150.265000", "125150.725000", "125151.185000", "125151.645000", "125152.105000", "125152.565000", "125153.025000", "125153.485000", "125153.945000", "125154.405000", "125154.865000", "125155.325000", "125155.785000", "125156.245000", "125156.705000", "125157.165000", "125157.625000", "125158.085000", "125158.545000", "125159.005000", "125159.465000", "125159.925000", "125200.385000", "125200.845000", "125201.305000", "125201.765000", "125202.225000", "125202.685000", "125203.145000", "125203.605000", "125204.065000", "125204.525000", "125204.985000", "125205.445000", "125205.905000", "125206.365000", "125206.825000", "125207.285000", "125207.745000", "125208.205000", "125208.665000", "125209.125000", "125209.585000", "125210.045000", "125210.505000", "125210.965000", "125211.425000", "125211.885000", "125212.345000", "125212.805000", "125213.265000", "125213.725000", "125214.185000", "125214.645000", "125215.105000", "125215.565000", "125216.025000", "125216.485000", "125216.945000", "125217.405000", "125217.865000", "125218.325000", "125218.785000", "125219.245000", "125219.705000", "125220.165000", "125220.625000", "125221.085000", "125221.545000", "125222.005000", "125222.465000", "125222.925000", "125223.385000", "125223.845000", "125224.305000", "125224.765000", "125225.225000", "125225.685000", "125226.145000", "125226.605000", "125227.065000", "125227.525000", "125227.985000", "125228.445000", "125228.905000", "125229.365000", "125229.825000", "125230.285000", "125230.745000", "125231.205000", "125231.665000", "125232.125000", "125232.585000", "125233.045000", "125233.505000", "125233.965000", "125234.425000", "125234.885000", "125235.345000", "125235.805000", "125236.265000", "125236.725000", "125237.185000", "125237.645000", "125238.105000", "125238.565000", "125239.025000", "125239.485000", "125239.945000", "125240.405000", "125240.865000", "125241.325000", "125241.785000", "125242.245000", "125242.705000", "125243.165000", "125243.625000", "125244.085000", "125244.545000", "125245.005000", "125245.465000", "125245.925000", "125246.385000", "125246.845000", "125247.305000", "125247.765000", "125248.225000", "125248.685000", "125249.145000", "125249.605000", "125250.065000", "125250.525000", "125250.985000", "125251.445000", "125251.905000", "125252.365000", "125252.825000", "125253.285000", "125253.745000", "125254.205000", "125254.665000", "125255.125000", "125255.585000", "125256.045000", "125256.505000", "125256.965000", "125257.425000", "125257.885000", "125258.345000", "125258.805000", "125259.265000", "125259.725000", "125300.185000", "125300.645000", "125301.105000", "125301.565000", "125302.025000", "125302.485000", "125302.945000", "125303.405000", "125303.865000", "125304.325000", "125304.785000", "125305.245000", "125305.705000", "125306.165000", "125306.625000", "125307.085000", "125307.545000", "125308.005000", "125308.465000", "125308.925000", "125309.385000", "125309.845000", "125310.305000", "125310.765000", "125311.225000", "125311.685000", "125312.145000", "125312.605000", "125313.065000", "125313.525000", "125313.985000", "125314.445000", "125314.905000", "125315.365000", "125315.825000", "125316.285000", "125316.745000", "125317.205000", "125317.665000", "125318.125000", "125318.585000", "125319.045000", "125319.505000", "125319.965000", "125320.425000", "125320.885000", "125321.345000", "125321.805000", "125322.265000", "125322.725000", "125323.185000", "125323.645000", "125324.105000", "125324.565000", "125325.025000", "125325.485000", "125325.945000", "125326.405000", "125326.865000", "125327.325000", "125327.785000", "125328.245000", "125328.705000", "125329.165000", "125329.625000", "125330.085000", "125330.545000", "125331.005000", "125331.465000", "125331.925000", "125332.385000", "125332.845000", "125333.305000", "125333.765000", "125334.225000", "125334.685000", "125335.145000", "125335.605000", "125336.065000", "125336.525000", "125336.985000", "125337.445000", "125337.905000", "125338.365000", "125338.825000", "125339.285000", "125339.745000", "125340.205000", "125340.665000", "125341.125000", "125341.585000", "125342.045000", "125342.505000", "125342.965000", "125343.425000", "125343.885000", "125344.345000", "125344.805000", "125345.265000", "125345.725000", "125346.185000", "125346.645000", "125347.105000", "125347.565000", "125348.025000", "125348.485000", "125348.945000", "125349.405000", "125349.865000", "125350.325000", "125350.785000", "125351.245000", "125351.705000", "125352.165000", "125352.625000", "125353.085000", "125353.545000", "125354.005000", "125354.465000", "125354.925000", "125355.385000", "125355.845000", "125356.305000", "125356.765000", "125357.225000", "125357.685000", "125358.145000", "125358.605000", "125359.065000", "125359.525000", "125359.985000", "125400.445000", "125400.905000", "125401.365000", "125401.825000", "125402.285000", "125402.745000", "125403.205000", "125403.665000", "125404.125000", "125404.585000", "125405.045000", "125405.505000", "125405.965000", "125406.425000", "125406.885000", "125407.345000", "125407.805000", "125408.265000", "125408.725000", "125409.185000", "125409.645000", "125410.105000", "125410.565000", "125411.025000", "125411.485000", "125411.945000", "125412.405000", "125412.865000", "125413.325000", "125413.785000", "125414.245000", "125414.705000", "125415.165000", "125415.625000", "125416.085000", "125416.545000", "125417.005000", "125417.465000", "125417.925000", "125418.385000", "125418.845000", "125419.305000", "125419.765000", "125420.225000", "125420.685000", "125421.145000", "125421.605000", "125422.065000", "125422.525000", "125422.985000", "125423.445000", "125423.905000", "125424.365000", "125424.825000", "125425.285000", "125425.745000", "125426.205000", "125426.665000", "125427.125000", "125427.585000", "125428.045000", "125428.505000", "125428.965000", "125429.425000", "125429.885000", "125430.345000", "125430.805000", "125431.265000", "125431.725000", "125432.185000", "125432.645000", "125433.105000", "125433.565000", "125434.025000", "125434.485000", "125434.945000", "125435.405000", "125435.865000", "125436.325000", "125436.785000", "125437.245000", "125437.705000", "125438.165000", "125438.625000", "125439.085000", "125439.545000", "125440.005000", "125440.465000", "125440.925000", "125441.385000", "125441.845000", "125442.305000", "125442.765000", "125443.225000", "125443.685000", "125444.145000", "125444.605000", "125445.065000", "125445.525000", "125445.985000", "125446.445000", "125446.905000", "125447.365000", "125447.825000", "125448.285000", "125448.745000", "125449.205000", "125449.665000", "125450.125000", "125450.585000", "125451.045000", "125451.505000", "125451.965000", "125452.425000", "125452.885000", "125453.345000", "125453.805000", "125454.265000", "125454.725000", "125455.185000", "125455.645000", "125456.105000", "125456.565000", "125457.025000", "125457.485000", "125457.945000", "125458.405000", "125458.865000", "125459.325000", "125459.785000", "125500.245000", "125500.705000", "125501.165000", "125501.625000", "125502.085000", "125502.545000", "125503.005000", "125503.465000", "125503.925000", "125504.385000", "125504.845000", "125505.305000", "125505.765000", "125506.225000", "125506.685000", "125507.145000", "125507.605000", "125508.065000", "125508.525000", "125508.985000", "125509.445000", "125509.905000", "125510.365000", "125510.825000", "125511.285000", "125511.745000", "125512.205000", "125512.665000", "125513.125000", "125513.585000", "125514.045000", "125514.505000", "125514.965000", "125515.425000", "125515.885000", "125516.345000", "125516.805000", "125517.265000", "125517.725000", "125518.185000", "125518.645000", "125519.105000", "125519.565000", "125520.025000", "125520.485000", "125520.945000", "125521.405000", "125521.865000", "125522.325000", "125522.785000", "125523.245000", "125523.705000", "125524.165000", "125524.625000", "125525.085000", "125525.545000", "125526.005000", "125526.465000", "125526.925000", "125527.385000", "125527.845000", "125528.305000", "125528.765000", "125529.225000", "125529.685000", "125530.145000", "125530.605000", "125531.065000", "125531.525000", "125531.985000", "125532.445000", "125532.905000", "125533.365000", "125533.825000", "125534.285000", "125534.745000", "125535.205000", "125535.665000", "125536.125000", "125536.585000", "125537.045000", "125537.505000", "125537.965000", "125538.425000", "125538.885000", "125539.345000", "125539.805000", "125540.265000", "125540.725000", "125541.185000", "125541.645000", "125542.105000", "125542.565000", "125543.025000", "125543.485000", "125543.945000", "125544.405000", "125544.865000", "125545.325000", "125545.785000", "125546.245000", "125546.705000", "125547.165000", "125547.625000", "125548.085000", "125548.545000", "125549.005000", "125549.465000", "125549.925000", "125550.385000", "125550.845000", "125551.305000", "125551.765000", "125552.225000", "125552.685000", "125553.145000", "125553.605000", "125554.065000", "125554.525000", "125554.985000", "125555.445000", "125555.905000", "125556.365000", "125556.825000", "125557.285000", "125557.745000", "125558.205000", "125558.665000", "125559.125000", "125559.585000", "125600.045000", "125600.505000", "125600.965000", "125601.425000", "125601.885000", "125602.345000", "125602.805000", "125603.265000", "125603.725000", "125604.185000", "125604.645000", "125605.105000", "125605.565000", "125606.025000", "125606.485000", "125606.945000", "125607.405000", "125607.865000", "125608.325000", "125608.785000", "125609.245000", "125609.705000", "125610.165000", "125610.625000", "125611.085000", "125611.545000", "125612.005000", "125612.465000", "125612.925000", "125613.385000", "125613.845000", "125614.305000", "125614.765000", "125615.225000", "125615.685000", "125616.145000", "125616.605000", "125617.065000", "125617.525000", "125617.985000", "125618.445000", "125618.905000", "125619.365000", "125619.825000", "125620.285000", "125620.745000", "125621.205000", "125621.665000", "125622.125000", "125622.585000", "125623.045000", "125623.505000", "125623.965000", "125624.425000", "125624.885000", "125625.345000", "125625.805000", "125626.265000", "125626.725000", "125627.185000", "125627.645000", "125628.105000", "125628.565000", "125629.025000", "125629.485000", "125629.945000", "125630.405000", "125630.865000", "125631.325000", "125631.785000", "125632.245000", "125632.705000", "125633.165000", "125633.625000", "125634.085000", "125634.545000", "125635.005000", "125635.465000", "125635.925000", "125636.385000", "125636.845000", "125637.305000", "125637.765000", "125638.225000", "125638.685000", "125639.145000", "125639.605000", "125640.065000", "125640.525000", "125640.985000", "125641.445000", "125641.905000", "125642.365000", "125642.825000", "125643.285000", "125643.745000", "125644.205000", "125644.665000", "125645.125000", "125645.585000", "125646.045000", "125646.505000", "125646.965000", "125647.425000", "125647.885000", "125648.345000", "125648.805000", "125649.265000", "125649.725000", "125650.185000", "125650.645000", "125651.105000", "125651.565000", "125652.025000", "125652.485000", "125652.945000", "125653.405000", "125653.865000", "125654.325000", "125654.785000", "125655.245000", "125655.705000", "125656.165000", "125656.625000", "125657.085000", "125657.545000", "125658.005000", "125658.465000", "125658.925000", "125659.385000", "125659.845000", "125700.305000", "125700.765000", "125701.225000", "125701.685000", "125702.145000", "125702.605000", "125703.065000", "125703.525000", "125703.985000", "125704.445000", "125704.905000", "125705.365000", "125705.825000", "125706.285000", "125706.745000", "125707.205000", "125707.665000", "125708.125000", "125708.585000", "125709.045000", "125709.505000", "125709.965000", "125710.425000", "125710.885000", "125711.345000", "125711.805000", "125712.265000", "125712.725000", "125713.185000", "125713.645000", "125714.105000", "125714.565000", "125715.025000", "125715.485000", "125715.945000", "125716.405000", "125716.865000", "125717.325000", "125717.785000", "125718.245000", "125718.705000", "125719.165000", "125719.625000", "125720.085000", "125720.545000", "125721.005000", "125721.465000", "125721.925000", "125722.385000", "125722.845000", "125723.305000", "125723.765000", "125724.225000", "125724.685000", "125725.145000", "125725.605000", "125726.065000", "125726.525000", "125726.985000", "125727.445000", "125727.905000", "125728.365000", "125728.825000", "125729.285000", "125729.745000", "125730.205000", "125730.665000", "125731.125000", "125731.585000", "125732.045000", "125732.505000", "125732.965000", "125733.425000", "125733.885000", "125734.345000", "125734.805000", "125735.265000", "125735.725000", "125736.185000", "125736.645000", "125737.105000", "125737.565000", "125738.025000", "125738.485000", "125738.945000", "125739.405000", "125739.865000", "125740.325000", "125740.785000", "125741.245000", "125741.705000", "125742.165000", "125742.625000", "125743.085000", "125743.545000", "125744.005000", "125744.465000", "125744.925000", "125745.385000", "125745.845000", "125746.305000", "125746.765000", "125747.225000", "125747.685000", "125748.145000", "125748.605000", "125749.065000", "125749.525000", "125749.985000", "125750.445000", "125750.905000", "125751.365000", "125751.825000", "125752.285000", "125752.745000", "125753.205000", "125753.665000", "125754.125000", "125754.585000", "125755.045000", "125755.505000", "125755.965000", "125756.425000", "125756.885000", "125757.345000", "125757.805000", "125758.265000", "125758.725000", "125759.185000", "125759.645000", "125800.105000"],
