{
  "AcquisitionMatrixPE": 82,
  "AcquisitionNumber": 1,
  "AcquisitionTime": "12:43:54.500000",
  "BandwidthPerPixelPhaseEncode": 24.888,
  "BaseResolution": 82,
  "BodyPartExamined": "BRAIN",
  "ConsistencyInfo": "N4_VE11C_LATEST_20160120",
  "ConversionSoftware": "dcm2niix",
  "ConversionSoftwareVersion": "v1.0.20201102",
  "DerivedVendorReportedEchoSpacing": 0.00049,
  "DeviceSerialNumber": "66112",
  "DwellTime": 2e-06,
  "EchoTime": 0.0272,
  "EchoTrainLength": 82,
  "EffectiveEchoSpacing": 0.00049,
  "FlipAngle": 44,
  "ImageComments": "Unaliased MB8/PE3",
  "ImageOrientationPatientDICOM": [0.996333, -0.0805395, 0.0288849, 0.0773634, 0.992178, 0.0979684],
  "ImageType": [
    "ORIGINAL",
    "PRIMARY",
    "M",
    "MB",
    "ND",
    "NORM",
    "MOSAIC"
],
  "ImagingFrequency": 123.252,
  "InPlanePhaseEncodingDirectionDICOM": "COL",
  "InstitutionAddress": "Maynard 3,Hanover,NH,US,03755",
  "InstitutionName": "Dartmouth College - PBS",
  "InstitutionalDepartmentName": "Department",
  "MRAcquisitionType": "2D",
  "MagneticFieldStrength": 3,
  "Manufacturer": "Siemens",
  "ManufacturersModelName": "Prisma",
  "Modality": "MR",
  "MultibandAccelerationFactor": 8,
  "PartialFourier": 1,
  "PatientPosition": "HFS",
  "PercentPhaseFOV": 100,
  "PercentSampling": 100,
  "PhaseEncodingDirection": "j-",
  "PhaseEncodingSteps": 82,
  "PhaseResolution": 1,
  "PixelBandwidth": 3050,
  "ProcedureStepDescription": "Wager_Wager^1076_spacetop",
  "ProtocolName": "func_run-03_task-social_acq-ap-mb8",
  "PulseSequenceDetails": "%CustomerSeq%\\cmrr_mbep2d_bold",
  "ReceiveCoilActiveElements": "HEA;HEP",
  "ReceiveCoilName": "Head_32",
  "ReconMatrixPE": 82,
  "RepetitionTime": 0.46,
  "SAR": 0.10437,
  "ScanOptions": "FS",
  "ScanningSequence": "EP",
  "SequenceName": "epfid2d1_82",
  "SequenceVariant": "SK\\SS",
  "SeriesDescription": "func_run-03_task-social_acq-ap-mb8",
  "SeriesNumber": 14,
  "ShimSetting": [4178, -7769, -7191, 618, -4, -156, 58, 69],
  "SliceThickness": 2.7,
  "SliceTiming": [0, 0.2525, 0.0625, 0.315, 0.1275, 0.3775, 0.19, 0, 0.2525, 0.0625, 0.315, 0.1275, 0.3775, 0.19, 0, 0.2525, 0.0625, 0.315, 0.1275, 0.3775, 0.19, 0, 0.2525, 0.0625, 0.315, 0.1275, 0.3775, 0.19, 0, 0.2525, 0.0625, 0.315, 0.1275, 0.3775, 0.19, 0, 0.2525, 0.0625, 0.315, 0.1275, 0.3775, 0.19, 0, 0.2525, 0.0625, 0.315, 0.1275, 0.3775, 0.19, 0, 0.2525, 0.0625, 0.315, 0.1275, 0.3775, 0.19],
  "SoftwareVersions": "syngo MR E11",
  "SpacingBetweenSlices": 2.7,
  "StationName": "AWP66112",
  "TaskName": "social",
  "TotalReadoutTime": 0.03969,
  "TxRefAmp": 268.287,
  "WipMemBlock": "fc4c7026-4e86-4bdd-995b-31bc263d8086||Sequence: R016 ve11c/master r/e634e98; Dec 19 2017 11:00:25 by eja",
  "dcmmeta_affine": [
    [-2.6730880737304688, 0.20756037533283234, 0.09868305176496506, 98.06231689453125],
    [0.21608157455921173, 2.661940813064575, 0.2575111389160156, -110.35053253173828],
    [0.07749605178833008, -0.2628420293331146, 2.685879707336426, -32.51108169555664],
    [0.0, 0.0, 0.0, 1.0]
],
  "dcmmeta_reorient_transform": [
    [0.0, -1.0, 0.0, 81.0],
    [1.0, 0.0, 0.0, 0.0],
    [0.0, 0.0, 1.0, 0.0],
    [0.0, 0.0, 0.0, 1.0]
],
  "dcmmeta_shape": [82, 82, 56, 872],
  "dcmmeta_slice_dim": 2,
  "dcmmeta_version": 0.6,
  "global": {
    "const": {
      "AccessionNumber": "A003534",
      "AcquisitionMatrix": [82, 0, 0, 82],
      "AngioFlag": "N",
      "BitsAllocated": 16,
      "BitsStored": 16,
      "BodyPartExamined": "BRAIN",
      "Columns": 656,
      "EchoNumbers": 1,
      "EchoTime": 27.2,
      "EchoTrainLength": 82,
      "FlipAngle": 44.0,
      "HighBit": 15,
      "ImageOrientationPatient": [0.99633280243366, -0.0805394920262, 0.0288848925711, 0.07736340893566, 0.99217795611887, 0.09796839464657],
      "ImagePositionPatient": [-941.62081120508, -807.22831247858, -151.4783189665],
      "ImageType": [
        "ORIGINAL",
        "PRIMARY",
        "M",
        "MB",
        "ND",
        "NORM",
        "MOSAIC"
],
      "ImagedNucleus": "1H",
      "ImagingFrequency": 123.252118,
      "InPlanePhaseEncodingDirection": "COL",
      "MRAcquisitionType": "2D",
      "MagneticFieldStrength": 3.0,
      "Manufacturer": "SIEMENS",
      "ManufacturerModelName": "Prisma",
      "Modality": "MR",
      "NumberOfAverages": 1.0,
      "NumberOfPhaseEncodingSteps": 82,
      "PercentPhaseFieldOfView": 100.0,
      "PercentSampling": 100.0,
      "PerformedProcedureStepStartTime": "120504.653000",
      "PhotometricInterpretation": "MONOCHROME2",
      "PixelBandwidth": 3050.0,
      "PixelRepresentation": 0,
      "PixelSpacing": [2.6829268932343, 2.6829268932343],
      "ProtocolName": "func_run-03_task-social_acq-ap-mb8",
      "RepetitionTime": 460.0,
      "Rows": 656,
      "SAR": 0.10437048043219,
      "SamplesPerPixel": 1,
      "ScanOptions": "FS",
      "ScanningSequence": "EP",
      "SequenceName": "epfid2d1_82",
      "SequenceVariant": [
        "SK",
        "SS"
],
      "SeriesDescription": "func_run-03_task-social_acq-ap-mb8",
      "SeriesNumber": 14,
      "SeriesTime": "124423.428000",
      "SliceLocation": -39.281574750299,
      "SliceThickness": 2.7000000476837,
      "SmallestImagePixelValue": 0,
      "SoftwareVersions": "syngo MR E11",
      "SpacingBetweenSlices": 2.7000000409299,
      "SpecificCharacterSet": "ISO_IR 100",
      "StudyID": "1",
      "StudyTime": "120504.463000",
      "TransmitCoilName": "Body",
      "VariableFlipAngleFlag": "N",
      "WindowCenterWidthExplanation": "Algo1",
      "dBdt": 0.0},
    "slices": {}
  },
  "time": {
    "samples": {
      "AcquisitionNumber": [1, 2, 3, 4, 5, 6, 7, 8, 9, 10, 11, 12, 13, 14, 15, 16, 17, 18, 19, 20, 21, 22, 23, 24, 25, 26, 27, 28, 29, 30, 31, 32, 33, 34, 35, 36, 37, 38, 39, 40, 41, 42, 43, 44, 45, 46, 47, 48, 49, 50, 51, 52, 53, 54, 55, 56, 57, 58, 59, 60, 61, 62, 63, 64, 65, 66, 67, 68, 69, 70, 71, 72, 73, 74, 75, 76, 77, 78, 79, 80, 81, 82, 83, 84, 85, 86, 87, 88, 89, 90, 91, 92, 93, 94, 95, 96, 97, 98, 99, 100, 101, 102, 103, 104, 105, 106, 107, 108, 109, 110, 111, 112, 113, 114, 115, 116, 117, 118, 119, 120, 121, 122, 123, 124, 125, 126, 127, 128, 129, 130, 131, 132, 133, 134, 135, 136, 137, 138, 139, 140, 141, 142, 143, 144, 145, 146, 147, 148, 149, 150, 151, 152, 153, 154, 155, 156, 157, 158, 159, 160, 161, 162, 163, 164, 165, 166, 167, 168, 169, 170, 171, 172, 173, 174, 175, 176, 177, 178, 179, 180, 181, 182, 183, 184, 185, 186, 187, 188, 189, 190, 191, 192, 193, 194, 195, 196, 197, 198, 199, 200, 201, 202, 203, 204, 205, 206, 207, 208, 209, 210, 211, 212, 213, 214, 215, 216, 217, 218, 219, 220, 221, 222, 223, 224, 225, 226, 227, 228, 229, 230, 231, 232, 233, 234, 235, 236, 237, 238, 239, 240, 241, 242, 243, 244, 245, 246, 247, 248, 249, 250, 251, 252, 253, 254, 255, 256, 257, 258, 259, 260, 261, 262, 263, 264, 265, 266, 267, 268, 269, 270, 271, 272, 273, 274, 275, 276, 277, 278, 279, 280, 281, 282, 283, 284, 285, 286, 287, 288, 289, 290, 291, 292, 293, 294, 295, 296, 297, 298, 299, 300, 301, 302, 303, 304, 305, 306, 307, 308, 309, 310, 311, 312, 313, 314, 315, 316, 317, 318, 319, 320, 321, 322, 323, 324, 325, 326, 327, 328, 329, 330, 331, 332, 333, 334, 335, 336, 337, 338, 339, 340, 341, 342, 343, 344, 345, 346, 347, 348, 349, 350, 351, 352, 353, 354, 355, 356, 357, 358, 359, 360, 361, 362, 363, 364, 365, 366, 367, 368, 369, 370, 371, 372, 373, 374, 375, 376, 377, 378, 379, 380, 381, 382, 383, 384, 385, 386, 387, 388, 389, 390, 391, 392, 393, 394, 395, 396, 397, 398, 399, 400, 401, 402, 403, 404, 405, 406, 407, 408, 409, 410, 411, 412, 413, 414, 415, 416, 417, 418, 419, 420, 421, 422, 423, 424, 425, 426, 427, 428, 429, 430, 431, 432, 433, 434, 435, 436, 437, 438, 439, 440, 441, 442, 443, 444, 445, 446, 447, 448, 449, 450, 451, 452, 453, 454, 455, 456, 457, 458, 459, 460, 461, 462, 463, 464, 465, 466, 467, 468, 469, 470, 471, 472, 473, 474, 475, 476, 477, 478, 479, 480, 481, 482, 483, 484, 485, 486, 487, 488, 489, 490, 491, 492, 493, 494, 495, 496, 497, 498, 499, 500, 501, 502, 503, 504, 505, 506, 507, 508, 509, 510, 511, 512, 513, 514, 515, 516, 517, 518, 519, 520, 521, 522, 523, 524, 525, 526, 527, 528, 529, 530, 531, 532, 533, 534, 535, 536, 537, 538, 539, 540, 541, 542, 543, 544, 545, 546, 547, 548, 549, 550, 551, 552, 553, 554, 555, 556, 557, 558, 559, 560, 561, 562, 563, 564, 565, 566, 567, 568, 569, 570, 571, 572, 573, 574, 575, 576, 577, 578, 579, 580, 581, 582, 583, 584, 585, 586, 587, 588, 589, 590, 591, 592, 593, 594, 595, 596, 597, 598, 599, 600, 601, 602, 603, 604, 605, 606, 607, 608, 609, 610, 611, 612, 613, 614, 615, 616, 617, 618, 619, 620, 621, 622, 623, 624, 625, 626, 627, 628, 629, 630, 631, 632, 633, 634, 635, 636, 637, 638, 639, 640, 641, 642, 643, 644, 645, 646, 647, 648, 649, 650, 651, 652, 653, 654, 655, 656, 657, 658, 659, 660, 661, 662, 663, 664, 665, 666, 667, 668, 669, 670, 671, 672, 673, 674, 675, 676, 677, 678, 679, 680, 681, 682, 683, 684, 685, 686, 687, 688, 689, 690, 691, 692, 693, 694, 695, 696, 697, 698, 699, 700, 701, 702, 703, 704, 705, 706, 707, 708, 709, 710, 711, 712, 713, 714, 715, 716, 717, 718, 719, 720, 721, 722, 723, 724, 725, 726, 727, 728, 729, 730, 731, 732, 733, 734, 735, 736, 737, 738, 739, 740, 741, 742, 743, 744, 745, 746, 747, 748, 749, 750, 751, 752, 753, 754, 755, 756, 757, 758, 759, 760, 761, 762, 763, 764, 765, 766, 767, 768, 769, 770, 771, 772, 773, 774, 775, 776, 777, 778, 779, 780, 781, 782, 783, 784, 785, 786, 787, 788, 789, 790, 791, 792, 793, 794, 795, 796, 797, 798, 799, 800, 801, 802, 803, 804, 805, 806, 807, 808, 809, 810, 811, 812, 813, 814, 815, 816, 817, 818, 819, 820, 821, 822, 823, 824, 825, 826, 827, 828, 829, 830, 831, 832, 833, 834, 835, 836, 837, 838, 839, 840, 841, 842, 843, 844, 845, 846, 847, 848, 849, 850, 851, 852, 853, 854, 855, 856, 857, 858, 859, 860, 861, 862, 863, 864, 865, 866, 867, 868, 869, 870, 871, 872],
      "AcquisitionTime": ["124354.500000", "124354.960000", "124355.420000", "124355.880000", "124356.340000", "124356.800000", "124357.260000", "124357.720000", "124358.180000", "124358.640000", "124359.100000", "124359.560000", "124400.020000", "124400.480000", "124400.940000", "124401.400000", "124401.860000", "124402.320000", "124402.780000", "124403.240000", "124403.700000", "124404.160000", "124404.620000", "124405.080000", "124405.540000", "124406.000000", "124406.460000", "124406.920000", "124407.380000", "124407.840000", "124408.300000", "124408.760000", "124409.220000", "124409.680000", "124410.140000", "124410.600000", "124411.060000", "124411.520000", "124411.980000", "124412.440000", "124412.900000", "124413.360000", "124413.820000", "124414.280000", "124414.740000", "124415.200000", "124415.660000", "124416.120000", "124416.580000", "124417.040000", "124417.500000", "124417.960000", "124418.420000", "124418.880000", "124419.340000", "124419.800000", "124420.260000", "124420.720000", "124421.180000", "124421.640000", "124422.100000", "124422.560000", "124423.020000", "124423.480000", "124423.940000", "124424.400000", "124424.860000", "124425.320000", "124425.780000", "124426.240000", "124426.700000", "124427.160000", "124427.620000", "124428.080000", "124428.540000", "124429.000000", "124429.460000", "124429.920000", "124430.380000", "124430.840000", "124431.300000", "124431.760000", "124432.220000", "124432.680000", "124433.140000", "124433.600000", "124434.060000", "124434.520000", "124434.980000", "124435.440000", "124435.900000", "124436.360000", "124436.820000", "124437.280000", "124437.740000", "124438.200000", "124438.660000", "124439.120000", "124439.580000", "124440.040000", "124440.500000", "124440.960000", "124441.420000", "124441.880000", "124442.340000", "124442.800000", "124443.260000", "124443.720000", "124444.180000", "124444.640000", "124445.100000", "124445.560000", "124446.020000", "124446.480000", "124446.940000", "124447.400000", "124447.860000", "124448.320000", "124448.780000", "124449.240000", "124449.700000", "124450.160000", "124450.620000", "124451.080000", "124451.540000", "124452.000000", "124452.460000", "124452.920000", "124453.380000", "124453.840000", "124454.300000", "124454.760000", "124455.220000", "124455.680000", "124456.140000", "124456.600000", "124457.060000", "124457.520000", "124457.980000", "124458.440000", "124458.900000", "124459.360000", "124459.820000", "124500.280000", "124500.740000", "124501.200000", "124501.660000", "124502.120000", "124502.580000", "124503.040000", "124503.500000", "124503.960000", "124504.420000", "124504.880000", "124505.340000", "124505.800000", "124506.260000", "124506.720000", "124507.180000", "124507.640000", "124508.100000", "124508.560000", "124509.020000", "124509.480000", "124509.940000", "124510.400000", "124510.860000", "124511.320000", "124511.780000", "124512.240000", "124512.700000", "124513.160000", "124513.620000", "124514.080000", "124514.540000", "124515.000000", "124515.460000", "124515.920000", "124516.380000", "124516.840000", "124517.300000", "124517.760000", "124518.220000", "124518.680000", "124519.140000", "124519.600000", "124520.060000", "124520.520000", "124520.980000", "124521.440000", "124521.900000", "124522.360000", "124522.820000", "124523.280000", "124523.740000", "124524.200000", "124524.660000", "124525.120000", "124525.580000", "124526.040000", "124526.500000", "124526.960000", "124527.420000", "124527.880000", "124528.340000", "124528.800000", "124529.260000", "124529.720000", "124530.180000", "124530.640000", "124531.100000", "124531.560000", "124532.020000", "124532.480000", "124532.940000", "124533.400000", "124533.860000", "124534.320000", "124534.780000", "124535.240000", "124535.700000", "124536.160000", "124536.620000", "124537.080000", "124537.540000", "124538.000000", "124538.460000", "124538.920000", "124539.380000", "124539.840000", "124540.300000", "124540.760000", "124541.220000", "124541.680000", "124542.140000", "124542.600000", "124543.060000", "124543.520000", "124543.980000", "124544.440000", "124544.900000", "124545.360000", "124545.820000", "124546.280000", "124546.740000", "124547.200000", "124547.660000", "124548.120000", "124548.580000", "124549.040000", "124549.500000", "124549.960000", "124550.420000", "124550.880000", "124551.340000", "124551.800000", "124552.260000", "124552.720000", "124553.180000", "124553.640000", "124554.100000", "124554.560000", "124555.020000", "124555.480000", "124555.940000", "124556.400000", "124556.860000", "124557.320000", "124557.780000", "124558.240000", "124558.700000", "124559.160000", "124559.620000", "124600.080000", "124600.540000", "124601.000000", "124601.460000", "124601.920000", "124602.380000", "124602.840000", "124603.300000", "124603.760000", "124604.220000", "124604.680000", "124605.140000", "124605.600000", "124606.060000", "124606.520000", "124606.980000", "124607.440000", "124607.900000", "124608.360000", "124608.820000", "124609.280000", "124609.740000", "124610.200000", "124610.660000", "124611.120000", "124611.580000", "124612.040000", "124612.500000", "124612.960000", "124613.420000", "124613.880000", "124614.340000", "124614.800000", "124615.260000", "124615.720000", "124616.180000", "124616.640000", "124617.100000", "124617.560000", "124618.020000", "124618.480000", "124618.940000", "124619.400000", "124619.860000", "124620.320000", "124620.780000", "124621.240000", "124621.700000", "124622.160000", "124622.620000", "124623.080000", "124623.540000", "124624.000000", "124624.460000", "124624.920000", "124625.380000", "124625.840000", "124626.300000", "124626.760000", "124627.220000", "124627.680000", "124628.140000", "124628.600000", "124629.060000", "124629.520000", "124629.980000", "124630.440000", "124630.900000", "124631.360000", "124631.820000", "124632.280000", "124632.740000", "124633.200000", "124633.660000", "124634.120000", "124634.580000", "124635.040000", "124635.500000", "124635.960000", "124636.420000", "124636.880000", "124637.340000", "124637.800000", "124638.260000", "124638.720000", "124639.180000", "124639.640000", "124640.100000", "124640.560000", "124641.020000", "124641.480000", "124641.940000", "124642.400000", "124642.860000", "124643.320000", "124643.780000", "124644.240000", "124644.700000", "124645.160000", "124645.620000", "124646.080000", "124646.540000", "124647.000000", "124647.460000", "124647.920000", "124648.380000", "124648.840000", "124649.300000", "124649.760000", "124650.220000", "124650.680000", "124651.140000", "124651.600000", "124652.060000", "124652.520000", "124652.980000", "124653.440000", "124653.900000", "124654.360000", "124654.820000", "124655.280000", "124655.740000", "124656.200000", "124656.660000", "124657.120000", "124657.580000", "124658.040000", "124658.500000", "124658.960000", "124659.420000", "124659.880000", "124700.340000", "124700.800000", "124701.260000", "124701.720000", "124702.180000", "124702.640000", "124703.100000", "124703.560000", "124704.020000", "124704.480000", "124704.940000", "124705.400000", "124705.860000", "124706.320000", "124706.780000", "124707.240000", "124707.700000", "124708.160000", "124708.620000", "124709.080000", "124709.540000", "124710.000000", "124710.460000", "124710.920000", "124711.380000", "124711.840000", "124712.300000", "124712.760000", "124713.220000", "124713.680000", "124714.140000", "124714.600000", "124715.060000", "124715.520000", "124715.980000", "124716.440000", "124716.900000", "124717.360000", "124717.820000", "124718.280000", "124718.740000", "124719.200000", "124719.660000", "124720.120000", "124720.580000", "124721.040000", "124721.500000", "124721.960000", "124722.420000", "124722.880000", "124723.340000", "124723.800000", "124724.260000", "124724.720000", "124725.180000", "124725.640000", "124726.100000", "124726.560000", "124727.020000", "124727.480000", "124727.940000", "124728.400000", "124728.860000", "124729.320000", "124729.780000", "124730.240000", "124730.700000", "124731.160000", "124731.620000", "124732.080000", "124732.540000", "124733.000000", "124733.460000", "124733.920000", "124734.380000", "124734.840000", "124735.300000", "124735.760000", "124736.220000", "124736.680000", "124737.140000", "124737.600000", "124738.060000", "124738.520000", "124738.980000", "124739.440000", "124739.900000", "124740.360000", "124740.820000", "124741.280000", "124741.740000", "124742.200000", "124742.660000", "124743.120000", "124743.580000", "124744.040000", "124744.500000", "124744.960000", "124745.420000", "124745.880000", "124746.340000", "124746.800000", "124747.260000", "124747.720000", "124748.180000", "124748.640000", "124749.100000", "124749.560000", "124750.020000", "124750.480000", "124750.940000", "124751.400000", "124751.860000", "124752.320000", "124752.780000", "124753.240000", "124753.700000", "124754.160000", "124754.620000", "124755.080000", "124755.540000", "124756.000000", "124756.460000", "124756.920000", "124757.380000", "124757.840000", "124758.300000", "124758.760000", "124759.220000", "124759.680000", "124800.140000", "124800.600000", "124801.060000", "124801.520000", "124801.980000", "124802.440000", "124802.900000", "124803.360000", "124803.820000", "124804.280000", "124804.740000", "124805.200000", "124805.660000", "124806.120000", "124806.580000", "124807.040000", "124807.500000", "124807.960000", "124808.420000", "124808.880000", "124809.340000", "124809.800000", "124810.260000", "124810.720000", "124811.180000", "124811.640000", "124812.100000", "124812.560000", "124813.020000", "124813.480000", "124813.940000", "124814.400000", "124814.860000", "124815.320000", "124815.780000", "124816.240000", "124816.700000", "124817.160000", "124817.620000", "124818.080000", "124818.540000", "124819.000000", "124819.460000", "124819.920000", "124820.380000", "124820.840000", "124821.300000", "124821.760000", "124822.220000", "124822.680000", "124823.140000", "124823.600000", "124824.060000", "124824.520000", "124824.980000", "124825.440000", "124825.900000", "124826.360000", "124826.820000", "124827.280000", "124827.740000", "124828.200000", "124828.660000", "124829.120000", "124829.580000", "124830.040000", "124830.500000", "124830.960000", "124831.420000", "124831.880000", "124832.340000", "124832.800000", "124833.260000", "124833.720000", "124834.180000", "124834.640000", "124835.100000", "124835.560000", "124836.020000", "124836.480000", "124836.940000", "124837.400000", "124837.860000", "124838.320000", "124838.780000", "124839.240000", "124839.700000", "124840.160000", "124840.620000", "124841.080000", "124841.540000", "124842.000000", "124842.460000", "124842.920000", "124843.380000", "124843.840000", "124844.300000", "124844.760000", "124845.220000", "124845.680000", "124846.140000", "124846.600000", "124847.060000", "124847.520000", "124847.980000", "124848.440000", "124848.900000", "124849.360000", "124849.820000", "124850.280000", "124850.740000", "124851.200000", "124851.660000", "124852.120000", "124852.580000", "124853.040000", "124853.500000", "124853.960000", "124854.420000", "124854.880000", "124855.340000", "124855.800000", "124856.260000", "124856.720000", "124857.180000", "124857.640000", "124858.100000", "124858.560000", "124859.020000", "124859.480000", "124859.940000", "124900.400000", "124900.860000", "124901.320000", "124901.780000", "124902.240000", "124902.700000", "124903.160000", "124903.620000", "124904.080000", "124904.540000", "124905.000000", "124905.460000", "124905.920000", "124906.380000", "124906.840000", "124907.300000", "124907.760000", "124908.220000", "124908.680000", "124909.140000", "124909.600000", "124910.060000", "124910.520000", "124910.980000", "124911.440000", "124911.900000", "124912.360000", "124912.820000", "124913.280000", "124913.740000", "124914.200000", "124914.660000", "124915.120000", "124915.580000", "124916.040000", "124916.500000", "124916.960000", "124917.420000", "124917.880000", "124918.340000", "124918.800000", "124919.260000", "124919.720000", "124920.180000", "124920.640000", "124921.100000", "124921.560000", "124922.020000", "124922.480000", "124922.940000", "124923.400000", "124923.860000", "124924.320000", "124924.780000", "124925.240000", "124925.700000", "124926.160000", "124926.620000", "124927.080000", "124927.540000", "124928.000000", "124928.460000", "124928.920000", "124929.380000", "124929.840000", "124930.300000", "124930.760000", "124931.220000", "124931.680000", "124932.140000", "124932.600000", "124933.060000", "124933.520000", "124933.980000", "124934.440000", "124934.900000", "124935.360000", "124935.820000", "124936.280000", "124936.740000", "124937.200000", "124937.660000", "124938.120000", "124938.580000", "124939.040000", "124939.500000", "124939.960000", "124940.420000", "124940.880000", "124941.340000", "124941.800000", "124942.260000", "124942.720000", "124943.180000", "124943.640000", "124944.100000", "124944.560000", "124945.020000", "124945.480000", "124945.940000", "124946.400000", "124946.860000", "124947.320000", "124947.780000", "124948.240000", "124948.700000", "124949.160000", "124949.620000", "124950.080000", "124950.540000", "124951.000000", "124951.460000", "124951.920000", "124952.380000", "124952.840000", "124953.300000", "124953.760000", "124954.220000", "124954.680000", "124955.140000", "124955.600000", "124956.060000", "124956.520000", "124956.980000", "124957.440000", "124957.900000", "124958.360000", "124958.820000", "124959.280000", "124959.740000", "125000.200000", "125000.660000", "125001.120000", "125001.580000", "125002.040000", "125002.500000", "125002.960000", "125003.420000", "125003.880000", "125004.340000", "125004.800000", "125005.260000", "125005.720000", "125006.180000", "125006.640000", "125007.100000", "125007.560000", "125008.020000", "125008.480000", "125008.940000", "125009.400000", "125009.860000", "125010.320000", "125010.780000", "125011.240000", "125011.700000", "125012.160000", "125012.620000", "125013.080000", "125013.540000", "125014.000000", "125014.460000", "125014.920000", "125015.380000", "125015.840000", "125016.300000", "125016.760000", "125017.220000", "125017.680000", "125018.140000", "125018.600000", "125019.060000", "125019.520000", "125019.980000", "125020.440000", "125020.900000", "125021.360000", "125021.820000", "125022.280000", "125022.740000", "125023.200000", "125023.660000", "125024.120000", "125024.580000", "125025.040000", "125025.500000", "125025.960000", "125026.420000", "125026.880000", "125027.340000", "125027.800000", "125028.260000", "125028.720000", "125029.180000", "125029.640000", "125030.100000", "125030.560000", "125031.020000", "125031.480000", "125031.940000", "125032.400000", "125032.860000", "125033.320000", "125033.780000", "125034.240000", "125034.700000", "125035.160000"],
