{
  "AcquisitionMatrixPE": 82,
  "AcquisitionNumber": 1,
  "AcquisitionTime": "13:40:24.982500",
  "BandwidthPerPixelPhaseEncode": 24.888,
  "BaseResolution": 82,
  "BodyPartExamined": "BRAIN",
  "ConsistencyInfo": "N4_VE11E_LATEST_20181129",
  "ConversionSoftware": "dcm2niix",
  "ConversionSoftwareVersion": "v1.0.20201102",
  "DerivedVendorReportedEchoSpacing": 0.00049,
  "DeviceSerialNumber": "66112",
  "DwellTime": 2e-06,
  "EchoTime": 0.0272,
  "EchoTrainLength": 82,
  "EffectiveEchoSpacing": 0.00049,
  "FlipAngle": 44,
  "ImageComments": "Unaliased MB8/PE3",
  "ImageOrientationPatientDICOM": [0.999102, 0.0354912, 0.023129, -0.0362862, 0.998731, 0.0349125],
  "ImageType": [
    "ORIGINAL",
    "PRIMARY",
    "M",
    "MB",
    "ND",
    "NORM",
    "MOSAIC"
],
  "ImagingFrequency": 123.252,
  "InPlanePhaseEncodingDirectionDICOM": "COL",
  "InstitutionAddress": "Maynard 3,Hanover,NH,US,03755",
  "InstitutionName": "Dartmouth College - PBS",
  "InstitutionalDepartmentName": "Department",
  "MRAcquisitionType": "2D",
  "MagneticFieldStrength": 3,
  "Manufacturer": "Siemens",
  "ManufacturersModelName": "Prisma",
  "Modality": "MR",
  "MultibandAccelerationFactor": 8,
  "PartialFourier": 1,
  "PatientPosition": "HFS",
  "PercentPhaseFOV": 100,
  "PercentSampling": 100,
  "PhaseEncodingDirection": "j-",
  "PhaseEncodingSteps": 82,
  "PhaseResolution": 1,
  "PixelBandwidth": 3050,
  "ProcedureStepDescription": "Wager_Wager^1076_spacetop",
  "ProtocolName": "func_run-03_task-social_acq-ap-mb8",
  "PulseSequenceDetails": "%CustomerSeq%\\cmrr_mbep2d_bold",
  "ReceiveCoilActiveElements": "HEA;HEP",
  "ReceiveCoilName": "Head_32",
  "ReconMatrixPE": 82,
  "RepetitionTime": 0.46,
  "SAR": 0.096556,
  "ScanOptions": "FS",
  "ScanningSequence": "EP",
  "SequenceName": "epfid2d1_82",
  "SequenceVariant": "SK\\SS",
  "SeriesDescription": "func_run-03_task-social_acq-ap-mb8",
  "SeriesNumber": 18,
  "ShimSetting": [4154, -7780, -7215, 585, -66, -183, 44, 6],
  "SliceThickness": 2.7,
  "SliceTiming": [0, 0.2525, 0.0625, 0.315, 0.125, 0.3775, 0.19, 0, 0.2525, 0.0625, 0.315, 0.125, 0.3775, 0.19, 0, 0.2525, 0.0625, 0.315, 0.125, 0.3775, 0.19, 0, 0.2525, 0.0625, 0.315, 0.125, 0.3775, 0.19, 0, 0.2525, 0.0625, 0.315, 0.125, 0.3775, 0.19, 0, 0.2525, 0.0625, 0.315, 0.125, 0.3775, 0.19, 0, 0.2525, 0.0625, 0.315, 0.125, 0.3775, 0.19, 0, 0.2525, 0.0625, 0.315, 0.125, 0.3775, 0.19],
  "SoftwareVersions": "syngo MR E11",
  "SpacingBetweenSlices": 2.7,
  "StationName": "AWP66112",
  "TaskName": "social",
  "TotalReadoutTime": 0.03969,
  "TxRefAmp": 246.123,
  "WipMemBlock": "57b7ea2c-9ae1-46cd-b3d5-61c5c3dd3bd0||Sequence: R016 ve11e/master r/434b28f1; Aug  7 2019 18:53:46 by eja",
  "dcmmeta_affine": [
    [-2.680518388748169, -0.09735330194234848, 0.059023596346378326, 114.29046630859375],
    [-0.09522026777267456, 2.679523468017578, 0.09644520282745361, -79.2394790649414],
    [0.06205346807837486, -0.09366773813962936, 2.697631359100342, -37.79746627807617],
    [0.0, 0.0, 0.0, 1.0]
],
  "dcmmeta_reorient_transform": [
    [0.0, -1.0, 0.0, 81.0],
    [1.0, 0.0, 0.0, 0.0],
    [0.0, 0.0, 1.0, 0.0],
    [0.0, 0.0, 0.0, 1.0]
],
  "dcmmeta_shape": [82, 82, 56, 872],
  "dcmmeta_slice_dim": 2,
  "dcmmeta_version": 0.6,
  "global": {
    "const": {
      "AccessionNumber": "A003942",
      "AcquisitionMatrix": [82, 0, 0, 82],
      "AngioFlag": "N",
      "BitsAllocated": 16,
      "BitsStored": 16,
      "BodyPartExamined": "BRAIN",
      "Columns": 656,
      "EchoNumbers": 1,
      "EchoTime": 27.2,
      "EchoTrainLength": 82,
      "FlipAngle": 44.0,
      "HighBit": 15,
      "ImageOrientationPatient": [0.9991023090791, 0.03549118861549, 0.02312901907718, -0.0362862309484, 0.99873140801896, 0.03491252039054],
      "ImagePositionPatient": [-847.7732441815, -934.15333273205, -90.076540690567],
      "ImageType": [
        "ORIGINAL",
        "PRIMARY",
        "M",
        "MB",
        "ND",
        "NORM",
        "MOSAIC"
],
      "ImagedNucleus": "1H",
      "ImagingFrequency": 123.252142,
      "InPlanePhaseEncodingDirection": "COL",
      "MRAcquisitionType": "2D",
      "MagneticFieldStrength": 3.0,
      "Manufacturer": "SIEMENS",
      "ManufacturerModelName": "Prisma",
      "Modality": "MR",
      "NumberOfAverages": 1.0,
      "NumberOfPhaseEncodingSteps": 82,
      "PercentPhaseFieldOfView": 100.0,
      "PercentSampling": 100.0,
      "PerformedProcedureStepStartTime": "124130.256000",
      "PhotometricInterpretation": "MONOCHROME2",
      "PixelBandwidth": 3050.0,
      "PixelRepresentation": 0,
      "PixelSpacing": [2.6829268932343, 2.6829268932343],
      "ProtocolName": "func_run-03_task-social_acq-ap-mb8",
      "RepetitionTime": 460.0,
      "Rows": 656,
      "SAR": 0.09655601939,
      "SamplesPerPixel": 1,
      "ScanOptions": "FS",
      "ScanningSequence": "EP",
      "SequenceName": "epfid2d1_82",
      "SequenceVariant": [
        "SK",
        "SS"
],
      "SeriesDescription": "func_run-03_task-social_acq-ap-mb8",
      "SeriesNumber": 18,
      "SeriesTime": "134043.859000",
      "SliceLocation": -38.096319769805,
      "SliceThickness": 2.7000000476837,
      "SmallestImagePixelValue": 0,
      "SoftwareVersions": "syngo MR E11",
      "SpacingBetweenSlices": 2.6999999989884,
      "SpecificCharacterSet": "ISO_IR 100",
      "StudyID": "2",
      "StudyTime": "124130.188000",
      "TransmitCoilName": "Body",
      "VariableFlipAngleFlag": "N",
      "WindowCenterWidthExplanation": "Algo1"
    },
    "slices": {}
  },
  "time": {
    "samples": {
      "AcquisitionNumber": [1, 2, 3, 4, 5, 6, 7, 8, 9, 10, 11, 12, 13, 14, 15, 16, 17, 18, 19, 20, 21, 22, 23, 24, 25, 26, 27, 28, 29, 30, 31, 32, 33, 34, 35, 36, 37, 38, 39, 40, 41, 42, 43, 44, 45, 46, 47, 48, 49, 50, 51, 52, 53, 54, 55, 56, 57, 58, 59, 60, 61, 62, 63, 64, 65, 66, 67, 68, 69, 70, 71, 72, 73, 74, 75, 76, 77, 78, 79, 80, 81, 82, 83, 84, 85, 86, 87, 88, 89, 90, 91, 92, 93, 94, 95, 96, 97, 98, 99, 100, 101, 102, 103, 104, 105, 106, 107, 108, 109, 110, 111, 112, 113, 114, 115, 116, 117, 118, 119, 120, 121, 122, 123, 124, 125, 126, 127, 128, 129, 130, 131, 132, 133, 134, 135, 136, 137, 138, 139, 140, 141, 142, 143, 144, 145, 146, 147, 148, 149, 150, 151, 152, 153, 154, 155, 156, 157, 158, 159, 160, 161, 162, 163, 164, 165, 166, 167, 168, 169, 170, 171, 172, 173, 174, 175, 176, 177, 178, 179, 180, 181, 182, 183, 184, 185, 186, 187, 188, 189, 190, 191, 192, 193, 194, 195, 196, 197, 198, 199, 200, 201, 202, 203, 204, 205, 206, 207, 208, 209, 210, 211, 212, 213, 214, 215, 216, 217, 218, 219, 220, 221, 222, 223, 224, 225, 226, 227, 228, 229, 230, 231, 232, 233, 234, 235, 236, 237, 238, 239, 240, 241, 242, 243, 244, 245, 246, 247, 248, 249, 250, 251, 252, 253, 254, 255, 256, 257, 258, 259, 260, 261, 262, 263, 264, 265, 266, 267, 268, 269, 270, 271, 272, 273, 274, 275, 276, 277, 278, 279, 280, 281, 282, 283, 284, 285, 286, 287, 288, 289, 290, 291, 292, 293, 294, 295, 296, 297, 298, 299, 300, 301, 302, 303, 304, 305, 306, 307, 308, 309, 310, 311, 312, 313, 314, 315, 316, 317, 318, 319, 320, 321, 322, 323, 324, 325, 326, 327, 328, 329, 330, 331, 332, 333, 334, 335, 336, 337, 338, 339, 340, 341, 342, 343, 344, 345, 346, 347, 348, 349, 350, 351, 352, 353, 354, 355, 356, 357, 358, 359, 360, 361, 362, 363, 364, 365, 366, 367, 368, 369, 370, 371, 372, 373, 374, 375, 376, 377, 378, 379, 380, 381, 382, 383, 384, 385, 386, 387, 388, 389, 390, 391, 392, 393, 394, 395, 396, 397, 398, 399, 400, 401, 402, 403, 404, 405, 406, 407, 408, 409, 410, 411, 412, 413, 414, 415, 416, 417, 418, 419, 420, 421, 422, 423, 424, 425, 426, 427, 428, 429, 430, 431, 432, 433, 434, 435, 436, 437, 438, 439, 440, 441, 442, 443, 444, 445, 446, 447, 448, 449, 450, 451, 452, 453, 454, 455, 456, 457, 458, 459, 460, 461, 462, 463, 464, 465, 466, 467, 468, 469, 470, 471, 472, 473, 474, 475, 476, 477, 478, 479, 480, 481, 482, 483, 484, 485, 486, 487, 488, 489, 490, 491, 492, 493, 494, 495, 496, 497, 498, 499, 500, 501, 502, 503, 504, 505, 506, 507, 508, 509, 510, 511, 512, 513, 514, 515, 516, 517, 518, 519, 520, 521, 522, 523, 524, 525, 526, 527, 528, 529, 530, 531, 532, 533, 534, 535, 536, 537, 538, 539, 540, 541, 542, 543, 544, 545, 546, 547, 548, 549, 550, 551, 552, 553, 554, 555, 556, 557, 558, 559, 560, 561, 562, 563, 564, 565, 566, 567, 568, 569, 570, 571, 572, 573, 574, 575, 576, 577, 578, 579, 580, 581, 582, 583, 584, 585, 586, 587, 588, 589, 590, 591, 592, 593, 594, 595, 596, 597, 598, 599, 600, 601, 602, 603, 604, 605, 606, 607, 608, 609, 610, 611, 612, 613, 614, 615, 616, 617, 618, 619, 620, 621, 622, 623, 624, 625, 626, 627, 628, 629, 630, 631, 632, 633, 634, 635, 636, 637, 638, 639, 640, 641, 642, 643, 644, 645, 646, 647, 648, 649, 650, 651, 652, 653, 654, 655, 656, 657, 658, 659, 660, 661, 662, 663, 664, 665, 666, 667, 668, 669, 670, 671, 672, 673, 674, 675, 676, 677, 678, 679, 680, 681, 682, 683, 684, 685, 686, 687, 688, 689, 690, 691, 692, 693, 694, 695, 696, 697, 698, 699, 700, 701, 702, 703, 704, 705, 706, 707, 708, 709, 710, 711, 712, 713, 714, 715, 716, 717, 718, 719, 720, 721, 722, 723, 724, 725, 726, 727, 728, 729, 730, 731, 732, 733, 734, 735, 736, 737, 738, 739, 740, 741, 742, 743, 744, 745, 746, 747, 748, 749, 750, 751, 752, 753, 754, 755, 756, 757, 758, 759, 760, 761, 762, 763, 764, 765, 766, 767, 768, 769, 770, 771, 772, 773, 774, 775, 776, 777, 778, 779, 780, 781, 782, 783, 784, 785, 786, 787, 788, 789, 790, 791, 792, 793, 794, 795, 796, 797, 798, 799, 800, 801, 802, 803, 804, 805, 806, 807, 808, 809, 810, 811, 812, 813, 814, 815, 816, 817, 818, 819, 820, 821, 822, 823, 824, 825, 826, 827, 828, 829, 830, 831, 832, 833, 834, 835, 836, 837, 838, 839, 840, 841, 842, 843, 844, 845, 846, 847, 848, 849, 850, 851, 852, 853, 854, 855, 856, 857, 858, 859, 860, 861, 862, 863, 864, 865, 866, 867, 868, 869, 870, 871, 872],
      "AcquisitionTime": ["134024.982500", "134025.442500", "134025.902500", "134026.362500", "134026.822500", "134027.282500", "134027.742500", "134028.202500", "134028.662500", "134029.122500", "134029.582500", "134030.042500", "134030.502500", "134030.962500", "134031.422500", "134031.882500", "134032.342500", "134032.802500", "134033.262500", "134033.722500", "134034.182500", "134034.642500", "134035.102500", "134035.562500", "134036.022500", "134036.482500", "134036.942500", "134037.402500", "134037.862500", "134038.322500", "134038.782500", "134039.242500", "134039.702500", "134040.162500", "134040.622500", "134041.082500", "134041.542500", "134042.002500", "134042.462500", "134042.922500", "134043.382500", "134043.842500", "134044.302500", "134044.762500", "134045.222500", "134045.682500", "134046.142500", "134046.602500", "134047.062500", "134047.522500", "134047.982500", "134048.442500", "134048.902500", "134049.362500", "134049.822500", "134050.282500", "134050.742500", "134051.202500", "134051.662500", "134052.122500", "134052.582500", "134053.042500", "134053.502500", "134053.962500", "134054.422500", "134054.882500", "134055.342500", "134055.802500", "134056.262500", "134056.722500", "134057.182500", "134057.642500", "134058.102500", "134058.562500", "134059.022500", "134059.482500", "134059.942500", "134100.402500", "134100.862500", "134101.322500", "134101.782500", "134102.242500", "134102.702500", "134103.162500", "134103.622500", "134104.082500", "134104.542500", "134105.002500", "134105.462500", "134105.922500", "134106.382500", "134106.842500", "134107.302500", "134107.762500", "134108.222500", "134108.682500", "134109.142500", "134109.602500", "134110.062500", "134110.522500", "134110.982500", "134111.442500", "134111.902500", "134112.362500", "134112.822500", "134113.282500", "134113.742500", "134114.202500", "134114.662500", "134115.122500", "134115.582500", "134116.042500", "134116.502500", "134116.962500", "134117.422500", "134117.882500", "134118.342500", "134118.802500", "134119.262500", "134119.722500", "134120.182500", "134120.642500", "134121.102500", "134121.562500", "134122.022500", "134122.482500", "134122.942500", "134123.402500", "134123.862500", "134124.322500", "134124.782500", "134125.242500", "134125.702500", "134126.162500", "134126.622500", "134127.082500", "134127.542500", "134128.002500", "134128.462500", "134128.922500", "134129.382500", "134129.842500", "134130.302500", "134130.762500", "134131.222500", "134131.682500", "134132.142500", "134132.602500", "134133.062500", "134133.522500", "134133.982500", "134134.442500", "134134.902500", "134135.362500", "134135.822500", "134136.282500", "134136.742500", "134137.202500", "134137.662500", "134138.122500", "134138.582500", "134139.042500", "134139.502500", "134139.962500", "134140.422500", "134140.882500", "134141.342500", "134141.802500", "134142.262500", "134142.722500", "134143.182500", "134143.642500", "134144.102500", "134144.562500", "134145.022500", "134145.482500", "134145.942500", "134146.402500", "134146.862500", "134147.322500", "134147.782500", "134148.242500", "134148.702500", "134149.162500", "134149.622500", "134150.082500", "134150.542500", "134151.002500", "134151.462500", "134151.922500", "134152.382500", "134152.842500", "134153.302500", "134153.762500", "134154.222500", "134154.682500", "134155.142500", "134155.602500", "134156.062500", "134156.522500", "134156.982500", "134157.442500", "134157.902500", "134158.362500", "134158.822500", "134159.282500", "134159.742500", "134200.202500", "134200.662500", "134201.122500", "134201.582500", "134202.042500", "134202.502500", "134202.962500", "134203.422500", "134203.882500", "134204.342500", "134204.802500", "134205.262500", "134205.722500", "134206.182500", "134206.642500", "134207.102500", "134207.562500", "134208.022500", "134208.482500", "134208.942500", "134209.402500", "134209.862500", "134210.322500", "134210.782500", "134211.242500", "134211.702500", "134212.162500", "134212.622500", "134213.082500", "134213.542500", "134214.002500", "134214.462500", "134214.922500", "134215.382500", "134215.842500", "134216.302500", "134216.762500", "134217.222500", "134217.682500", "134218.142500", "134218.602500", "134219.062500", "134219.522500", "134219.982500", "134220.442500", "134220.902500", "134221.362500", "134221.822500", "134222.282500", "134222.742500", "134223.202500", "134223.662500", "134224.122500", "134224.582500", "134225.042500", "134225.502500", "134225.962500", "134226.422500", "134226.882500", "134227.342500", "134227.802500", "134228.262500", "134228.722500", "134229.182500", "134229.642500", "134230.102500", "134230.562500", "134231.022500", "134231.482500", "134231.942500", "134232.402500", "134232.862500", "134233.322500", "134233.782500", "134234.242500", "134234.702500", "134235.162500", "134235.622500", "134236.082500", "134236.542500", "134237.002500", "134237.462500", "134237.922500", "134238.382500", "134238.842500", "134239.302500", "134239.762500", "134240.222500", "134240.682500", "134241.142500", "134241.602500", "134242.062500", "134242.522500", "134242.982500", "134243.442500", "134243.902500", "134244.362500", "134244.822500", "134245.282500", "134245.742500", "134246.202500", "134246.662500", "134247.122500", "134247.582500", "134248.042500", "134248.502500", "134248.962500", "134249.422500", "134249.882500", "134250.342500", "134250.802500", "134251.262500", "134251.722500", "134252.182500", "134252.642500", "134253.102500", "134253.562500", "134254.022500", "134254.482500", "134254.942500", "134255.402500", "134255.862500", "134256.322500", "134256.782500", "134257.242500", "134257.702500", "134258.162500", "134258.622500", "134259.082500", "134259.542500", "134300.002500", "134300.462500", "134300.922500", "134301.382500", "134301.842500", "134302.302500", "134302.762500", "134303.222500", "134303.682500", "134304.142500", "134304.602500", "134305.062500", "134305.522500", "134305.982500", "134306.442500", "134306.902500", "134307.362500", "134307.822500", "134308.282500", "134308.742500", "134309.202500", "134309.662500", "134310.122500", "134310.582500", "134311.042500", "134311.502500", "134311.962500", "134312.422500", "134312.882500", "134313.342500", "134313.802500", "134314.262500", "134314.722500", "134315.182500", "134315.642500", "134316.102500", "134316.562500", "134317.022500", "134317.482500", "134317.942500", "134318.402500", "134318.862500", "134319.322500", "134319.782500", "134320.242500", "134320.702500", "134321.162500", "134321.622500", "134322.082500", "134322.542500", "134323.002500", "134323.462500", "134323.922500", "134324.382500", "134324.842500", "134325.302500", "134325.762500", "134326.222500", "134326.682500", "134327.142500", "134327.602500", "134328.062500", "134328.522500", "134328.982500", "134329.442500", "134329.902500", "134330.362500", "134330.822500", "134331.282500", "134331.742500", "134332.202500", "134332.662500", "134333.122500", "134333.582500", "134334.042500", "134334.502500", "134334.962500", "134335.422500", "134335.882500", "134336.342500", "134336.802500", "134337.262500", "134337.722500", "134338.182500", "134338.642500", "134339.102500", "134339.562500", "134340.022500", "134340.482500", "134340.942500", "134341.402500", "134341.862500", "134342.322500", "134342.782500", "134343.242500", "134343.702500", "134344.162500", "134344.622500", "134345.082500", "134345.542500", "134346.002500", "134346.462500", "134346.922500", "134347.382500", "134347.842500", "134348.302500", "134348.762500", "134349.222500", "134349.682500", "134350.142500", "134350.602500", "134351.062500", "134351.522500", "134351.982500", "134352.442500", "134352.902500", "134353.362500", "134353.822500", "134354.282500", "134354.742500", "134355.202500", "134355.662500", "134356.122500", "134356.582500", "134357.042500", "134357.502500", "134357.962500", "134358.422500", "134358.882500", "134359.342500", "134359.802500", "134400.262500", "134400.722500", "134401.182500", "134401.642500", "134402.102500", "134402.562500", "134403.022500", "134403.482500", "134403.942500", "134404.402500", "134404.862500", "134405.322500", "134405.782500", "134406.242500", "134406.702500", "134407.162500", "134407.622500", "134408.082500", "134408.542500", "134409.002500", "134409.462500", "134409.922500", "134410.382500", "134410.842500", "134411.302500", "134411.762500", "134412.222500", "134412.682500", "134413.142500", "134413.602500", "134414.062500", "134414.522500", "134414.982500", "134415.442500", "134415.902500", "134416.362500", "134416.822500", "134417.282500", "134417.742500", "134418.202500", "134418.662500", "134419.122500", "134419.582500", "134420.042500", "134420.502500", "134420.962500", "134421.422500", "134421.882500", "134422.342500", "134422.802500", "134423.262500", "134423.722500", "134424.182500", "134424.642500", "134425.102500", "134425.562500", "134426.022500", "134426.482500", "134426.942500", "134427.402500", "134427.862500", "134428.322500", "134428.782500", "134429.242500", "134429.702500", "134430.162500", "134430.622500", "134431.082500", "134431.542500", "134432.002500", "134432.462500", "134432.922500", "134433.382500", "134433.842500", "134434.302500", "134434.762500", "134435.222500", "134435.682500", "134436.142500", "134436.602500", "134437.062500", "134437.522500", "134437.982500", "134438.442500", "134438.902500", "134439.362500", "134439.822500", "134440.282500", "134440.742500", "134441.202500", "134441.662500", "134442.122500", "134442.582500", "134443.042500", "134443.502500", "134443.962500", "134444.422500", "134444.882500", "134445.342500", "134445.802500", "134446.262500", "134446.722500", "134447.182500", "134447.642500", "134448.102500", "134448.562500", "134449.022500", "134449.482500", "134449.942500", "134450.402500", "134450.862500", "134451.322500", "134451.782500", "134452.242500", "134452.702500", "134453.162500", "134453.622500", "134454.082500", "134454.542500", "134455.002500", "134455.462500", "134455.922500", "134456.382500", "134456.842500", "134457.302500", "134457.762500", "134458.222500", "134458.682500", "134459.142500", "134459.602500", "134500.062500", "134500.522500", "134500.982500", "134501.442500", "134501.902500", "134502.362500", "134502.822500", "134503.282500", "134503.742500", "134504.202500", "134504.662500", "134505.122500", "134505.582500", "134506.042500", "134506.502500", "134506.962500", "134507.422500", "134507.882500", "134508.342500", "134508.802500", "134509.262500", "134509.722500", "134510.182500", "134510.642500", "134511.102500", "134511.562500", "134512.022500", "134512.482500", "134512.942500", "134513.402500", "134513.862500", "134514.322500", "134514.782500", "134515.242500", "134515.702500", "134516.162500", "134516.622500", "134517.082500", "134517.542500", "134518.002500", "134518.462500", "134518.922500", "134519.382500", "134519.842500", "134520.302500", "134520.762500", "134521.222500", "134521.682500", "134522.142500", "134522.602500", "134523.062500", "134523.522500", "134523.982500", "134524.442500", "134524.902500", "134525.362500", "134525.822500", "134526.282500", "134526.742500", "134527.202500", "134527.662500", "134528.122500", "134528.582500", "134529.042500", "134529.502500", "134529.962500", "134530.422500", "134530.882500", "134531.342500", "134531.802500", "134532.262500", "134532.722500", "134533.182500", "134533.642500", "134534.102500", "134534.562500", "134535.022500", "134535.482500", "134535.942500", "134536.402500", "134536.862500", "134537.322500", "134537.782500", "134538.242500", "134538.702500", "134539.162500", "134539.622500", "134540.082500", "134540.542500", "134541.002500", "134541.462500", "134541.922500", "134542.382500", "134542.842500", "134543.302500", "134543.762500", "134544.222500", "134544.682500", "134545.142500", "134545.602500", "134546.062500", "134546.522500", "134546.982500", "134547.442500", "134547.902500", "134548.362500", "134548.822500", "134549.282500", "134549.742500", "134550.202500", "134550.662500", "134551.122500", "134551.582500", "134552.042500", "134552.502500", "134552.962500", "134553.422500", "134553.882500", "134554.342500", "134554.802500", "134555.262500", "134555.722500", "134556.182500", "134556.642500", "134557.102500", "134557.562500", "134558.022500", "134558.482500", "134558.942500", "134559.402500", "134559.862500", "134600.322500", "134600.782500", "134601.242500", "134601.702500", "134602.162500", "134602.622500", "134603.082500", "134603.542500", "134604.002500", "134604.462500", "134604.922500", "134605.382500", "134605.842500", "134606.302500", "134606.762500", "134607.222500", "134607.682500", "134608.142500", "134608.602500", "134609.062500", "134609.522500", "134609.982500", "134610.442500", "134610.902500", "134611.362500", "134611.822500", "134612.282500", "134612.742500", "134613.202500", "134613.662500", "134614.122500", "134614.582500", "134615.042500", "134615.502500", "134615.962500", "134616.422500", "134616.882500", "134617.342500", "134617.802500", "134618.262500", "134618.722500", "134619.182500", "134619.642500", "134620.102500", "134620.562500", "134621.022500", "134621.482500", "134621.942500", "134622.402500", "134622.862500", "134623.322500", "134623.782500", "134624.242500", "134624.702500", "134625.162500", "134625.622500", "134626.082500", "134626.542500", "134627.002500", "134627.462500", "134627.922500", "134628.382500", "134628.842500", "134629.302500", "134629.762500", "134630.222500", "134630.682500", "134631.142500", "134631.602500", "134632.062500", "134632.522500", "134632.982500", "134633.442500", "134633.902500", "134634.362500", "134634.822500", "134635.282500", "134635.742500", "134636.202500", "134636.662500", "134637.122500", "134637.582500", "134638.042500", "134638.502500", "134638.962500", "134639.422500", "134639.882500", "134640.342500", "134640.802500", "134641.262500", "134641.722500", "134642.182500", "134642.642500", "134643.102500", "134643.562500", "134644.022500", "134644.482500", "134644.942500", "134645.402500", "134645.862500", "134646.322500", "134646.782500", "134647.242500", "134647.702500", "134648.162500", "134648.622500", "134649.082500", "134649.542500", "134650.002500", "134650.462500", "134650.922500", "134651.382500", "134651.842500", "134652.302500", "134652.762500", "134653.222500", "134653.682500", "134654.142500", "134654.602500", "134655.062500", "134655.522500", "134655.982500", "134656.442500", "134656.902500", "134657.362500", "134657.822500", "134658.282500", "134658.742500", "134659.202500", "134659.662500", "134700.122500", "134700.582500", "134701.042500", "134701.502500", "134701.962500", "134702.422500", "134702.882500", "134703.342500", "134703.802500", "134704.262500", "134704.722500", "134705.182500", "134705.642500"],
