{
  "AcquisitionMatrixPE": 82,
  "AcquisitionNumber": 1,
  "AcquisitionTime": "14:22:18.162500",
  "BandwidthPerPixelPhaseEncode": 24.888,
  "BaseResolution": 82,
  "BodyPartExamined": "BRAIN",
  "ConsistencyInfo": "N4_VE11E_LATEST_20181129",
  "ConversionSoftware": "dcm2niix",
  "ConversionSoftwareVersion": "v1.0.20201102",
  "DerivedVendorReportedEchoSpacing": 0.00049,
  "DeviceSerialNumber": "66112",
  "DwellTime": 2e-06,
  "EchoTime": 0.0272,
  "EchoTrainLength": 82,
  "EffectiveEchoSpacing": 0.00049,
  "FlipAngle": 44,
  "ImageComments": "Unaliased MB8/PE3",
  "ImageOrientationPatientDICOM": [0.999057, 0.0406688, 0.0152266, -0.0408249, 0.999115, 0.010082],
  "ImageType": [
    "ORIGINAL",
    "PRIMARY",
    "M",
    "MB",
    "ND",
    "NORM",
    "MOSAIC"
],
  "ImagingFrequency": 123.252,
  "InPlanePhaseEncodingDirectionDICOM": "COL",
  "InstitutionAddress": "Maynard 3,Hanover,NH,US,03755",
  "InstitutionName": "Dartmouth College - PBS",
  "InstitutionalDepartmentName": "Department",
  "MRAcquisitionType": "2D",
  "MagneticFieldStrength": 3,
  "Manufacturer": "Siemens",
  "ManufacturersModelName": "Prisma",
  "Modality": "MR",
  "MultibandAccelerationFactor": 8,
  "PartialFourier": 1,
  "PatientPosition": "HFS",
  "PercentPhaseFOV": 100,
  "PercentSampling": 100,
  "PhaseEncodingDirection": "j-",
  "PhaseEncodingSteps": 82,
  "PhaseResolution": 1,
  "PixelBandwidth": 3050,
  "ProcedureStepDescription": "Wager_Wager^1076_spacetop",
  "ProtocolName": "func_run-02_task-alignvideo_acq-ap-mb8",
  "PulseSequenceDetails": "%CustomerSeq%\\cmrr_mbep2d_bold",
  "ReceiveCoilActiveElements": "HEA;HEP",
  "ReceiveCoilName": "Head_32",
  "ReconMatrixPE": 82,
  "RepetitionTime": 0.46,
  "SAR": 0.096591,
  "ScanOptions": "FS",
  "ScanningSequence": "EP",
  "SequenceName": "epfid2d1_82",
  "SequenceVariant": "SK\\SS",
  "SeriesDescription": "func_run-02_task-alignvideo_acq-ap-mb8",
  "SeriesNumber": 34,
  "ShimSetting": [4154, -7778, -7205, 611, -67, -173, 38, 8],
  "SliceThickness": 2.7,
  "SliceTiming": [0, 0.2525, 0.0625, 0.315, 0.125, 0.3775, 0.19, 0, 0.2525, 0.0625, 0.315, 0.125, 0.3775, 0.19, 0, 0.2525, 0.0625, 0.315, 0.125, 0.3775, 0.19, 0, 0.2525, 0.0625, 0.315, 0.125, 0.3775, 0.19, 0, 0.2525, 0.0625, 0.315, 0.125, 0.3775, 0.19, 0, 0.2525, 0.0625, 0.315, 0.125, 0.3775, 0.19, 0, 0.2525, 0.0625, 0.315, 0.125, 0.3775, 0.19, 0, 0.2525, 0.0625, 0.315, 0.125, 0.3775, 0.19],
  "SoftwareVersions": "syngo MR E11",
  "SpacingBetweenSlices": 2.7,
  "StationName": "AWP66112",
  "TaskName": "alignvideo",
  "TotalReadoutTime": 0.03969,
  "TxRefAmp": 246.123,
  "WipMemBlock": "b4f5072e-7d2b-4745-a3ec-331d4c04b0da||Sequence: R016 ve11e/master r/434b28f1; Aug  7 2019 18:53:46 by eja",
  "dcmmeta_affine": [
    [-2.68039608001709, -0.10953015834093094, 0.03996836021542549, 115.83123016357422],
    [-0.1091114804148674, 2.680553674697876, 0.028873981907963753, -82.14269256591797],
    [0.04085182026028633, -0.027049148455262184, 2.699549674987793, -37.81654739379883],
    [0.0, 0.0, 0.0, 1.0]
],
  "dcmmeta_reorient_transform": [
    [0.0, -1.0, 0.0, 81.0],
    [1.0, 0.0, 0.0, 0.0],
    [0.0, 0.0, 1.0, 0.0],
    [0.0, 0.0, 0.0, 1.0]
],
  "dcmmeta_shape": [82, 82, 56, 926],
  "dcmmeta_slice_dim": 2,
  "dcmmeta_version": 0.6,
  "global": {
    "const": {
      "AccessionNumber": "A003942",
      "AcquisitionMatrix": [82, 0, 0, 82],
      "AngioFlag": "N",
      "BitsAllocated": 16,
      "BitsStored": 16,
      "BodyPartExamined": "BRAIN",
      "Columns": 656,
      "EchoNumbers": 1,
      "EchoTime": 27.2,
      "EchoTrainLength": 82,
      "FlipAngle": 44.0,
      "HighBit": 15,
      "ImageOrientationPatient": [0.99905665393939, 0.04066882443857, 0.01522658655835, -0.0408248765996, 0.99911545060441, 0.01008195487815],
      "ImagePositionPatient": [-844.79776996442, -935.61607222006, -59.495104031252],
      "ImageType": [
        "ORIGINAL",
        "PRIMARY",
        "M",
        "MB",
        "ND",
        "NORM",
        "MOSAIC"
],
      "ImagedNucleus": "1H",
      "ImagingFrequency": 123.252145,
      "InPlanePhaseEncodingDirection": "COL",
      "MRAcquisitionType": "2D",
      "MagneticFieldStrength": 3.0,
      "Manufacturer": "SIEMENS",
      "ManufacturerModelName": "Prisma",
      "Modality": "MR",
      "NumberOfAverages": 1.0,
      "NumberOfPhaseEncodingSteps": 82,
      "PercentPhaseFieldOfView": 100.0,
      "PercentSampling": 100.0,
      "PerformedProcedureStepStartTime": "124130.256000",
      "PhotometricInterpretation": "MONOCHROME2",
      "PixelBandwidth": 3050.0,
      "PixelRepresentation": 0,
      "PixelSpacing": [2.6829268932343, 2.6829268932343],
      "ProtocolName": "func_run-02_task-alignvideo_acq-ap-mb8",
      "RepetitionTime": 460.0,
      "Rows": 656,
      "SAR": 0.09659099922057,
      "SamplesPerPixel": 1,
      "ScanOptions": "FS",
      "ScanningSequence": "EP",
      "SequenceName": "epfid2d1_82",
      "SequenceVariant": [
        "SK",
        "SS"
],
      "SeriesDescription": "func_run-02_task-alignvideo_acq-ap-mb8",
      "SeriesNumber": 34,
      "SeriesTime": "142243.744000",
      "SliceLocation": -36.97401797809,
      "SliceThickness": 2.7000000476837,
      "SmallestImagePixelValue": 0,
      "SoftwareVersions": "syngo MR E11",
      "SpacingBetweenSlices": 2.6999999822612,
      "SpecificCharacterSet": "ISO_IR 100",
      "StudyID": "2",
      "StudyTime": "124130.188000",
      "TransmitCoilName": "Body",
      "VariableFlipAngleFlag": "N",
      "WindowCenterWidthExplanation": "Algo1"
    },
    "slices": {}
  },
  "time": {
    "samples": {
      "AcquisitionNumber": [1, 2, 3, 4, 5, 6, 7, 8, 9, 10, 11, 12, 13, 14, 15, 16, 17, 18, 19, 20, 21, 22, 23, 24, 25, 26, 27, 28, 29, 30, 31, 32, 33, 34, 35, 36, 37, 38, 39, 40, 41, 42, 43, 44, 45, 46, 47, 48, 49, 50, 51, 52, 53, 54, 55, 56, 57, 58, 59, 60, 61, 62, 63, 64, 65, 66, 67, 68, 69, 70, 71, 72, 73, 74, 75, 76, 77, 78, 79, 80, 81, 82, 83, 84, 85, 86, 87, 88, 89, 90, 91, 92, 93, 94, 95, 96, 97, 98, 99, 100, 101, 102, 103, 104, 105, 106, 107, 108, 109, 110, 111, 112, 113, 114, 115, 116, 117, 118, 119, 120, 121, 122, 123, 124, 125, 126, 127, 128, 129, 130, 131, 132, 133, 134, 135, 136, 137, 138, 139, 140, 141, 142, 143, 144, 145, 146, 147, 148, 149, 150, 151, 152, 153, 154, 155, 156, 157, 158, 159, 160, 161, 162, 163, 164, 165, 166, 167, 168, 169, 170, 171, 172, 173, 174, 175, 176, 177, 178, 179, 180, 181, 182, 183, 184, 185, 186, 187, 188, 189, 190, 191, 192, 193, 194, 195, 196, 197, 198, 199, 200, 201, 202, 203, 204, 205, 206, 207, 208, 209, 210, 211, 212, 213, 214, 215, 216, 217, 218, 219, 220, 221, 222, 223, 224, 225, 226, 227, 228, 229, 230, 231, 232, 233, 234, 235, 236, 237, 238, 239, 240, 241, 242, 243, 244, 245, 246, 247, 248, 249, 250, 251, 252, 253, 254, 255, 256, 257, 258, 259, 260, 261, 262, 263, 264, 265, 266, 267, 268, 269, 270, 271, 272, 273, 274, 275, 276, 277, 278, 279, 280, 281, 282, 283, 284, 285, 286, 287, 288, 289, 290, 291, 292, 293, 294, 295, 296, 297, 298, 299, 300, 301, 302, 303, 304, 305, 306, 307, 308, 309, 310, 311, 312, 313, 314, 315, 316, 317, 318, 319, 320, 321, 322, 323, 324, 325, 326, 327, 328, 329, 330, 331, 332, 333, 334, 335, 336, 337, 338, 339, 340, 341, 342, 343, 344, 345, 346, 347, 348, 349, 350, 351, 352, 353, 354, 355, 356, 357, 358, 359, 360, 361, 362, 363, 364, 365, 366, 367, 368, 369, 370, 371, 372, 373, 374, 375, 376, 377, 378, 379, 380, 381, 382, 383, 384, 385, 386, 387, 388, 389, 390, 391, 392, 393, 394, 395, 396, 397, 398, 399, 400, 401, 402, 403, 404, 405, 406, 407, 408, 409, 410, 411, 412, 413, 414, 415, 416, 417, 418, 419, 420, 421, 422, 423, 424, 425, 426, 427, 428, 429, 430, 431, 432, 433, 434, 435, 436, 437, 438, 439, 440, 441, 442, 443, 444, 445, 446, 447, 448, 449, 450, 451, 452, 453, 454, 455, 456, 457, 458, 459, 460, 461, 462, 463, 464, 465, 466, 467, 468, 469, 470, 471, 472, 473, 474, 475, 476, 477, 478, 479, 480, 481, 482, 483, 484, 485, 486, 487, 488, 489, 490, 491, 492, 493, 494, 495, 496, 497, 498, 499, 500, 501, 502, 503, 504, 505, 506, 507, 508, 509, 510, 511, 512, 513, 514, 515, 516, 517, 518, 519, 520, 521, 522, 523, 524, 525, 526, 527, 528, 529, 530, 531, 532, 533, 534, 535, 536, 537, 538, 539, 540, 541, 542, 543, 544, 545, 546, 547, 548, 549, 550, 551, 552, 553, 554, 555, 556, 557, 558, 559, 560, 561, 562, 563, 564, 565, 566, 567, 568, 569, 570, 571, 572, 573, 574, 575, 576, 577, 578, 579, 580, 581, 582, 583, 584, 585, 586, 587, 588, 589, 590, 591, 592, 593, 594, 595, 596, 597, 598, 599, 600, 601, 602, 603, 604, 605, 606, 607, 608, 609, 610, 611, 612, 613, 614, 615, 616, 617, 618, 619, 620, 621, 622, 623, 624, 625, 626, 627, 628, 629, 630, 631, 632, 633, 634, 635, 636, 637, 638, 639, 640, 641, 642, 643, 644, 645, 646, 647, 648, 649, 650, 651, 652, 653, 654, 655, 656, 657, 658, 659, 660, 661, 662, 663, 664, 665, 666, 667, 668, 669, 670, 671, 672, 673, 674, 675, 676, 677, 678, 679, 680, 681, 682, 683, 684, 685, 686, 687, 688, 689, 690, 691, 692, 693, 694, 695, 696, 697, 698, 699, 700, 701, 702, 703, 704, 705, 706, 707, 708, 709, 710, 711, 712, 713, 714, 715, 716, 717, 718, 719, 720, 721, 722, 723, 724, 725, 726, 727, 728, 729, 730, 731, 732, 733, 734, 735, 736, 737, 738, 739, 740, 741, 742, 743, 744, 745, 746, 747, 748, 749, 750, 751, 752, 753, 754, 755, 756, 757, 758, 759, 760, 761, 762, 763, 764, 765, 766, 767, 768, 769, 770, 771, 772, 773, 774, 775, 776, 777, 778, 779, 780, 781, 782, 783, 784, 785, 786, 787, 788, 789, 790, 791, 792, 793, 794, 795, 796, 797, 798, 799, 800, 801, 802, 803, 804, 805, 806, 807, 808, 809, 810, 811, 812, 813, 814, 815, 816, 817, 818, 819, 820, 821, 822, 823, 824, 825, 826, 827, 828, 829, 830, 831, 832, 833, 834, 835, 836, 837, 838, 839, 840, 841, 842, 843, 844, 845, 846, 847, 848, 849, 850, 851, 852, 853, 854, 855, 856, 857, 858, 859, 860, 861, 862, 863, 864, 865, 866, 867, 868, 869, 870, 871, 872, 873, 874, 875, 876, 877, 878, 879, 880, 881, 882, 883, 884, 885, 886, 887, 888, 889, 890, 891, 892, 893, 894, 895, 896, 897, 898, 899, 900, 901, 902, 903, 904, 905, 906, 907, 908, 909, 910, 911, 912, 913, 914, 915, 916, 917, 918, 919, 920, 921, 922, 923, 924, 925, 926],
      "AcquisitionTime": ["142218.162500", "142218.622500", "142219.082500", "142219.542500", "142220.002500", "142220.462500", "142220.922500", "142221.382500", "142221.842500", "142222.302500", "142222.762500", "142223.222500", "142223.682500", "142224.142500", "142224.602500", "142225.062500", "142225.522500", "142225.982500", "142226.442500", "142226.902500", "142227.362500", "142227.822500", "142228.282500", "142228.742500", "142229.202500", "142229.662500", "142230.122500", "142230.582500", "142231.042500", "142231.502500", "142231.962500", "142232.422500", "142232.882500", "142233.342500", "142233.802500", "142234.262500", "142234.722500", "142235.182500", "142235.642500", "142236.102500", "142236.562500", "142237.022500", "142237.482500", "142237.942500", "142238.402500", "142238.862500", "142239.322500", "142239.782500", "142240.242500", "142240.702500", "142241.162500", "142241.622500", "142242.082500", "142242.542500", "142243.002500", "142243.462500", "142243.922500", "142244.382500", "142244.842500", "142245.302500", "142245.762500", "142246.222500", "142246.682500", "142247.142500", "142247.602500", "142248.062500", "142248.522500", "142248.982500", "142249.442500", "142249.902500", "142250.362500", "142250.822500", "142251.282500", "142251.742500", "142252.202500", "142252.662500", "142253.122500", "142253.582500", "142254.042500", "142254.502500", "142254.962500", "142255.422500", "142255.882500", "142256.342500", "142256.802500", "142257.262500", "142257.722500", "142258.182500", "142258.642500", "142259.102500", "142259.562500", "142300.022500", "142300.482500", "142300.942500", "142301.402500", "142301.862500", "142302.322500", "142302.782500", "142303.242500", "142303.702500", "142304.162500", "142304.622500", "142305.082500", "142305.542500", "142306.002500", "142306.462500", "142306.922500", "142307.382500", "142307.842500", "142308.302500", "142308.762500", "142309.222500", "142309.682500", "142310.142500", "142310.602500", "142311.062500", "142311.522500", "142311.982500", "142312.442500", "142312.902500", "142313.362500", "142313.822500", "142314.282500", "142314.742500", "142315.202500", "142315.662500", "142316.122500", "142316.582500", "142317.042500", "142317.502500", "142317.962500", "142318.422500", "142318.882500", "142319.342500", "142319.802500", "142320.262500", "142320.722500", "142321.182500", "142321.642500", "142322.102500", "142322.562500", "142323.022500", "142323.482500", "142323.942500", "142324.402500", "142324.862500", "142325.322500", "142325.782500", "142326.242500", "142326.702500", "142327.162500", "142327.622500", "142328.082500", "142328.542500", "142329.002500", "142329.462500", "142329.922500", "142330.382500", "142330.842500", "142331.302500", "142331.762500", "142332.222500", "142332.682500", "142333.142500", "142333.602500", "142334.062500", "142334.522500", "142334.982500", "142335.442500", "142335.902500", "142336.362500", "142336.822500", "142337.282500", "142337.742500", "142338.202500", "142338.662500", "142339.122500", "142339.582500", "142340.042500", "142340.502500", "142340.962500", "142341.422500", "142341.882500", "142342.342500", "142342.802500", "142343.262500", "142343.722500", "142344.182500", "142344.642500", "142345.102500", "142345.562500", "142346.022500", "142346.482500", "142346.942500", "142347.402500", "142347.862500", "142348.322500", "142348.782500", "142349.242500", "142349.702500", "142350.162500", "142350.622500", "142351.082500", "142351.542500", "142352.002500", "142352.462500", "142352.922500", "142353.382500", "142353.842500", "142354.302500", "142354.762500", "142355.222500", "142355.682500", "142356.142500", "142356.602500", "142357.062500", "142357.522500", "142357.982500", "142358.442500", "142358.902500", "142359.362500", "142359.822500", "142400.282500", "142400.742500", "142401.202500", "142401.662500", "142402.122500", "142402.582500", "142403.042500", "142403.502500", "142403.962500", "142404.422500", "142404.882500", "142405.342500", "142405.802500", "142406.262500", "142406.722500", "142407.182500", "142407.642500", "142408.102500", "142408.562500", "142409.022500", "142409.482500", "142409.942500", "142410.402500", "142410.862500", "142411.322500", "142411.782500", "142412.242500", "142412.702500", "142413.162500", "142413.622500", "142414.082500", "142414.542500", "142415.002500", "142415.462500", "142415.922500", "142416.382500", "142416.842500", "142417.302500", "142417.762500", "142418.222500", "142418.682500", "142419.142500", "142419.602500", "142420.062500", "142420.522500", "142420.982500", "142421.442500", "142421.902500", "142422.362500", "142422.822500", "142423.282500", "142423.742500", "142424.202500", "142424.662500", "142425.122500", "142425.582500", "142426.042500", "142426.502500", "142426.962500", "142427.422500", "142427.882500", "142428.342500", "142428.802500", "142429.262500", "142429.722500", "142430.182500", "142430.642500", "142431.102500", "142431.562500", "142432.022500", "142432.482500", "142432.942500", "142433.402500", "142433.862500", "142434.322500", "142434.782500", "142435.242500", "142435.702500", "142436.162500", "142436.622500", "142437.082500", "142437.542500", "142438.002500", "142438.462500", "142438.922500", "142439.382500", "142439.842500", "142440.302500", "142440.762500", "142441.222500", "142441.682500", "142442.142500", "142442.602500", "142443.062500", "142443.522500", "142443.982500", "142444.442500", "142444.902500", "142445.362500", "142445.822500", "142446.282500", "142446.742500", "142447.202500", "142447.662500", "142448.122500", "142448.582500", "142449.042500", "142449.502500", "142449.962500", "142450.422500", "142450.882500", "142451.342500", "142451.802500", "142452.262500", "142452.722500", "142453.182500", "142453.642500", "142454.102500", "142454.562500", "142455.022500", "142455.482500", "142455.942500", "142456.402500", "142456.862500", "142457.322500", "142457.782500", "142458.242500", "142458.702500", "142459.162500", "142459.622500", "142500.082500", "142500.542500", "142501.002500", "142501.462500", "142501.922500", "142502.382500", "142502.842500", "142503.302500", "142503.762500", "142504.222500", "142504.682500", "142505.142500", "142505.602500", "142506.062500", "142506.522500", "142506.982500", "142507.442500", "142507.902500", "142508.362500", "142508.822500", "142509.282500", "142509.742500", "142510.202500", "142510.662500", "142511.122500", "142511.582500", "142512.042500", "142512.502500", "142512.962500", "142513.422500", "142513.882500", "142514.342500", "142514.802500", "142515.262500", "142515.722500", "142516.182500", "142516.642500", "142517.102500", "142517.562500", "142518.022500", "142518.482500", "142518.942500", "142519.402500", "142519.862500", "142520.322500", "142520.782500", "142521.242500", "142521.702500", "142522.162500", "142522.622500", "142523.082500", "142523.542500", "142524.002500", "142524.462500", "142524.922500", "142525.382500", "142525.842500", "142526.302500", "142526.762500", "142527.222500", "142527.682500", "142528.142500", "142528.602500", "142529.062500", "142529.522500", "142529.982500", "142530.442500", "142530.902500", "142531.362500", "142531.822500", "142532.282500", "142532.742500", "142533.202500", "142533.662500", "142534.122500", "142534.582500", "142535.042500", "142535.502500", "142535.962500", "142536.422500", "142536.882500", "142537.342500", "142537.802500", "142538.262500", "142538.722500", "142539.182500", "142539.642500", "142540.102500", "142540.562500", "142541.022500", "142541.482500", "142541.942500", "142542.402500", "142542.862500", "142543.322500", "142543.782500", "142544.242500", "142544.702500", "142545.162500", "142545.622500", "142546.082500", "142546.542500", "142547.002500", "142547.462500", "142547.922500", "142548.382500", "142548.842500", "142549.302500", "142549.762500", "142550.222500", "142550.682500", "142551.142500", "142551.602500", "142552.062500", "142552.522500", "142552.982500", "142553.442500", "142553.902500", "142554.362500", "142554.822500", "142555.282500", "142555.742500", "142556.202500", "142556.662500", "142557.122500", "142557.582500", "142558.042500", "142558.502500", "142558.962500", "142559.422500", "142559.882500", "142600.342500", "142600.802500", "142601.262500", "142601.722500", "142602.182500", "142602.642500", "142603.102500", "142603.562500", "142604.022500", "142604.482500", "142604.942500", "142605.402500", "142605.862500", "142606.322500", "142606.782500", "142607.242500", "142607.702500", "142608.162500", "142608.622500", "142609.082500", "142609.542500", "142610.002500", "142610.462500", "142610.922500", "142611.382500", "142611.842500", "142612.302500", "142612.762500", "142613.222500", "142613.682500", "142614.142500", "142614.602500", "142615.062500", "142615.522500", "142615.982500", "142616.442500", "142616.902500", "142617.362500", "142617.822500", "142618.282500", "142618.742500", "142619.202500", "142619.662500", "142620.122500", "142620.582500", "142621.042500", "142621.502500", "142621.962500", "142622.422500", "142622.882500", "142623.342500", "142623.802500", "142624.262500", "142624.722500", "142625.182500", "142625.642500", "142626.102500", "142626.562500", "142627.022500", "142627.482500", "142627.942500", "142628.402500", "142628.862500", "142629.322500", "142629.782500", "142630.242500", "142630.702500", "142631.162500", "142631.622500", "142632.082500", "142632.542500", "142633.002500", "142633.462500", "142633.922500", "142634.382500", "142634.842500", "142635.302500", "142635.762500", "142636.222500", "142636.682500", "142637.142500", "142637.602500", "142638.062500", "142638.522500", "142638.982500", "142639.442500", "142639.902500", "142640.362500", "142640.822500", "142641.282500", "142641.742500", "142642.202500", "142642.662500", "142643.122500", "142643.582500", "142644.042500", "142644.502500", "142644.962500", "142645.422500", "142645.882500", "142646.342500", "142646.802500", "142647.262500", "142647.722500", "142648.182500", "142648.642500", "142649.102500", "142649.562500", "142650.022500", "142650.482500", "142650.942500", "142651.402500", "142651.862500", "142652.322500", "142652.782500", "142653.242500", "142653.702500", "142654.162500", "142654.622500", "142655.082500", "142655.542500", "142656.002500", "142656.462500", "142656.922500", "142657.382500", "142657.842500", "142658.302500", "142658.762500", "142659.222500", "142659.682500", "142700.142500", "142700.602500", "142701.062500", "142701.522500", "142701.982500", "142702.442500", "142702.902500", "142703.362500", "142703.822500", "142704.282500", "142704.742500", "142705.202500", "142705.662500", "142706.122500", "142706.582500", "142707.042500", "142707.502500", "142707.962500", "142708.422500", "142708.882500", "142709.342500", "142709.802500", "142710.262500", "142710.722500", "142711.182500", "142711.642500", "142712.102500", "142712.562500", "142713.022500", "142713.482500", "142713.942500", "142714.402500", "142714.862500", "142715.322500", "142715.782500", "142716.242500", "142716.702500", "142717.162500", "142717.622500", "142718.082500", "142718.542500", "142719.002500", "142719.462500", "142719.922500", "142720.382500", "142720.842500", "142721.302500", "142721.762500", "142722.222500", "142722.682500", "142723.142500", "142723.602500", "142724.062500", "142724.522500", "142724.982500", "142725.442500", "142725.902500", "142726.362500", "142726.822500", "142727.282500", "142727.742500", "142728.202500", "142728.662500", "142729.122500", "142729.582500", "142730.042500", "142730.502500", "142730.962500", "142731.422500", "142731.882500", "142732.342500", "142732.802500", "142733.262500", "142733.722500", "142734.182500", "142734.642500", "142735.102500", "142735.562500", "142736.022500", "142736.482500", "142736.942500", "142737.402500", "142737.862500", "142738.322500", "142738.782500", "142739.242500", "142739.702500", "142740.162500", "142740.622500", "142741.082500", "142741.542500", "142742.002500", "142742.462500", "142742.922500", "142743.382500", "142743.842500", "142744.302500", "142744.762500", "142745.222500", "142745.682500", "142746.142500", "142746.602500", "142747.062500", "142747.522500", "142747.982500", "142748.442500", "142748.902500", "142749.362500", "142749.822500", "142750.282500", "142750.742500", "142751.202500", "142751.662500", "142752.122500", "142752.582500", "142753.042500", "142753.502500", "142753.962500", "142754.422500", "142754.882500", "142755.342500", "142755.802500", "142756.262500", "142756.722500", "142757.182500", "142757.642500", "142758.102500", "142758.562500", "142759.022500", "142759.482500", "142759.942500", "142800.402500", "142800.862500", "142801.322500", "142801.782500", "142802.242500", "142802.702500", "142803.162500", "142803.622500", "142804.082500", "142804.542500", "142805.002500", "142805.462500", "142805.922500", "142806.382500", "142806.842500", "142807.302500", "142807.762500", "142808.222500", "142808.682500", "142809.142500", "142809.602500", "142810.062500", "142810.522500", "142810.982500", "142811.442500", "142811.902500", "142812.362500", "142812.822500", "142813.282500", "142813.742500", "142814.202500", "142814.662500", "142815.122500", "142815.582500", "142816.042500", "142816.502500", "142816.962500", "142817.422500", "142817.882500", "142818.342500", "142818.802500", "142819.262500", "142819.722500", "142820.182500", "142820.642500", "142821.102500", "142821.562500", "142822.022500", "142822.482500", "142822.942500", "142823.402500", "142823.862500", "142824.322500", "142824.782500", "142825.242500", "142825.702500", "142826.162500", "142826.622500", "142827.082500", "142827.542500", "142828.002500", "142828.462500", "142828.922500", "142829.382500", "142829.842500", "142830.302500", "142830.762500", "142831.222500", "142831.682500", "142832.142500", "142832.602500", "142833.062500", "142833.522500", "142833.982500", "142834.442500", "142834.902500", "142835.362500", "142835.822500", "142836.282500", "142836.742500", "142837.202500", "142837.662500", "142838.122500", "142838.582500", "142839.042500", "142839.502500", "142839.962500", "142840.422500", "142840.882500", "142841.342500", "142841.802500", "142842.262500", "142842.722500", "142843.182500", "142843.642500", "142844.102500", "142844.562500", "142845.022500", "142845.482500", "142845.942500", "142846.402500", "142846.862500", "142847.322500", "142847.782500", "142848.242500", "142848.702500", "142849.162500", "142849.622500", "142850.082500", "142850.542500", "142851.002500", "142851.462500", "142851.922500", "142852.382500", "142852.842500", "142853.302500", "142853.762500", "142854.222500", "142854.682500", "142855.142500", "142855.602500", "142856.062500", "142856.522500", "142856.982500", "142857.442500", "142857.902500", "142858.362500", "142858.822500", "142859.282500", "142859.742500", "142900.202500", "142900.662500", "142901.122500", "142901.582500", "142902.042500", "142902.502500", "142902.962500", "142903.422500", "142903.882500", "142904.342500", "142904.802500", "142905.262500", "142905.722500", "142906.182500", "142906.642500", "142907.102500", "142907.562500", "142908.022500", "142908.482500", "142908.942500", "142909.402500", "142909.862500", "142910.322500", "142910.782500", "142911.242500", "142911.702500", "142912.162500", "142912.622500", "142913.082500", "142913.542500", "142914.002500", "142914.462500", "142914.922500", "142915.382500", "142915.842500", "142916.302500", "142916.762500", "142917.222500", "142917.682500", "142918.142500", "142918.602500", "142919.062500", "142919.522500", "142919.982500", "142920.442500", "142920.902500", "142921.362500", "142921.822500", "142922.282500", "142922.742500", "142923.202500", "142923.662500"],
