{
  "AcquisitionMatrixPE": 82,
  "AcquisitionNumber": 1,
  "AcquisitionTime": "13:55:43.230000",
  "BandwidthPerPixelPhaseEncode": 24.888,
  "BaseResolution": 82,
  "BodyPartExamined": "BRAIN",
  "ConsistencyInfo": "N4_VE11E_LATEST_20181129",
  "ConversionSoftware": "dcm2niix",
  "ConversionSoftwareVersion": "v1.0.20201102",
  "DerivedVendorReportedEchoSpacing": 0.00049,
  "DeviceSerialNumber": "66112",
  "DwellTime": 2e-06,
  "EchoTime": 0.0272,
  "EchoTrainLength": 82,
  "EffectiveEchoSpacing": 0.00049,
  "FlipAngle": 44,
  "ImageComments": "Unaliased MB8/PE3",
  "ImageOrientationPatientDICOM": [0.999102, 0.0354912, 0.023129, -0.0362862, 0.998731, 0.0349125],
  "ImageType": [
    "ORIGINAL",
    "PRIMARY",
    "M",
    "MB",
    "ND",
    "NORM",
    "MOSAIC"
],
  "ImagingFrequency": 123.252,
  "InPlanePhaseEncodingDirectionDICOM": "COL",
  "InstitutionAddress": "Maynard 3,Hanover,NH,US,03755",
  "InstitutionName": "Dartmouth College - PBS",
  "InstitutionalDepartmentName": "Department",
  "MRAcquisitionType": "2D",
  "MagneticFieldStrength": 3,
  "Manufacturer": "Siemens",
  "ManufacturersModelName": "Prisma",
  "Modality": "MR",
  "MultibandAccelerationFactor": 8,
  "PartialFourier": 1,
  "PatientPosition": "HFS",
  "PercentPhaseFOV": 100,
  "PercentSampling": 100,
  "PhaseEncodingDirection": "j-",
  "PhaseEncodingSteps": 82,
  "PhaseResolution": 1,
  "PixelBandwidth": 3050,
  "ProcedureStepDescription": "Wager_Wager^1076_spacetop",
  "ProtocolName": "func_run-05_task-social_acq-ap-mb8",
  "PulseSequenceDetails": "%CustomerSeq%\\cmrr_mbep2d_bold",
  "ReceiveCoilActiveElements": "HEA;HEP",
  "ReceiveCoilName": "Head_32",
  "ReconMatrixPE": 82,
  "RepetitionTime": 0.46,
  "SAR": 0.096556,
  "ScanOptions": "FS",
  "ScanningSequence": "EP",
  "SequenceName": "epfid2d1_82",
  "SequenceVariant": "SK\\SS",
  "SeriesDescription": "func_run-05_task-social_acq-ap-mb8",
  "SeriesNumber": 22,
  "ShimSetting": [4154, -7780, -7215, 585, -66, -183, 44, 6],
  "SliceThickness": 2.7,
  "SliceTiming": [0, 0.2525, 0.0625, 0.315, 0.1275, 0.3775, 0.19, 0, 0.2525, 0.0625, 0.315, 0.1275, 0.3775, 0.19, 0, 0.2525, 0.0625, 0.315, 0.1275, 0.3775, 0.19, 0, 0.2525, 0.0625, 0.315, 0.1275, 0.3775, 0.19, 0, 0.2525, 0.0625, 0.315, 0.1275, 0.3775, 0.19, 0, 0.2525, 0.0625, 0.315, 0.1275, 0.3775, 0.19, 0, 0.2525, 0.0625, 0.315, 0.1275, 0.3775, 0.19, 0, 0.2525, 0.0625, 0.315, 0.1275, 0.3775, 0.19],
  "SoftwareVersions": "syngo MR E11",
  "SpacingBetweenSlices": 2.7,
  "StationName": "AWP66112",
  "TaskName": "social",
  "TotalReadoutTime": 0.03969,
  "TxRefAmp": 246.123,
  "WipMemBlock": "6ef465fb-806b-4699-b598-885c6c9c3e84||Sequence: R016 ve11e/master r/434b28f1; Aug  7 2019 18:53:46 by eja",
  "dcmmeta_affine": [
    [-2.680518388748169, -0.09735330194234848, 0.059023596346378326, 114.29046630859375],
    [-0.09522026777267456, 2.679523468017578, 0.09644520282745361, -79.2394790649414],
    [0.06205346807837486, -0.09366773813962936, 2.697631359100342, -37.79746627807617],
    [0.0, 0.0, 0.0, 1.0]
],
  "dcmmeta_reorient_transform": [
    [0.0, -1.0, 0.0, 81.0],
    [1.0, 0.0, 0.0, 0.0],
    [0.0, 0.0, 1.0, 0.0],
    [0.0, 0.0, 0.0, 1.0]
],
  "dcmmeta_shape": [82, 82, 56, 872],
  "dcmmeta_slice_dim": 2,
  "dcmmeta_version": 0.6,
  "global": {
    "const": {
      "AccessionNumber": "A003942",
      "AcquisitionMatrix": [82, 0, 0, 82],
      "AngioFlag": "N",
      "BitsAllocated": 16,
      "BitsStored": 16,
      "BodyPartExamined": "BRAIN",
      "Columns": 656,
      "EchoNumbers": 1,
      "EchoTime": 27.2,
      "EchoTrainLength": 82,
      "FlipAngle": 44.0,
      "HighBit": 15,
      "ImageOrientationPatient": [0.9991023090791, 0.03549118861549, 0.02312901907718, -0.0362862309484, 0.99873140801896, 0.03491252039054],
      "ImagePositionPatient": [-847.7732441815, -934.15333273205, -90.076540690567],
      "ImageType": [
        "ORIGINAL",
        "PRIMARY",
        "M",
        "MB",
        "ND",
        "NORM",
        "MOSAIC"
],
      "ImagedNucleus": "1H",
      "ImagingFrequency": 123.252146,
      "InPlanePhaseEncodingDirection": "COL",
      "MRAcquisitionType": "2D",
      "MagneticFieldStrength": 3.0,
      "Manufacturer": "SIEMENS",
      "ManufacturerModelName": "Prisma",
      "Modality": "MR",
      "NumberOfAverages": 1.0,
      "NumberOfPhaseEncodingSteps": 82,
      "PercentPhaseFieldOfView": 100.0,
      "PercentSampling": 100.0,
      "PerformedProcedureStepStartTime": "124130.256000",
      "PhotometricInterpretation": "MONOCHROME2",
      "PixelBandwidth": 3050.0,
      "PixelRepresentation": 0,
      "PixelSpacing": [2.6829268932343, 2.6829268932343],
      "ProtocolName": "func_run-05_task-social_acq-ap-mb8",
      "RepetitionTime": 460.0,
      "Rows": 656,
      "SAR": 0.09655601939,
      "SamplesPerPixel": 1,
      "ScanOptions": "FS",
      "ScanningSequence": "EP",
      "SequenceName": "epfid2d1_82",
      "SequenceVariant": [
        "SK",
        "SS"
],
      "SeriesDescription": "func_run-05_task-social_acq-ap-mb8",
      "SeriesNumber": 22,
      "SeriesTime": "135603.758000",
      "SliceLocation": -38.096319769805,
      "SliceThickness": 2.7000000476837,
      "SmallestImagePixelValue": 0,
      "SoftwareVersions": "syngo MR E11",
      "SpacingBetweenSlices": 2.6999999989884,
      "SpecificCharacterSet": "ISO_IR 100",
      "StudyID": "2",
      "StudyTime": "124130.188000",
      "TransmitCoilName": "Body",
      "VariableFlipAngleFlag": "N",
      "WindowCenterWidthExplanation": "Algo1"
    },
    "slices": {}
  },
  "time": {
    "samples": {
      "AcquisitionNumber": [1, 2, 3, 4, 5, 6, 7, 8, 9, 10, 11, 12, 13, 14, 15, 16, 17, 18, 19, 20, 21, 22, 23, 24, 25, 26, 27, 28, 29, 30, 31, 32, 33, 34, 35, 36, 37, 38, 39, 40, 41, 42, 43, 44, 45, 46, 47, 48, 49, 50, 51, 52, 53, 54, 55, 56, 57, 58, 59, 60, 61, 62, 63, 64, 65, 66, 67, 68, 69, 70, 71, 72, 73, 74, 75, 76, 77, 78, 79, 80, 81, 82, 83, 84, 85, 86, 87, 88, 89, 90, 91, 92, 93, 94, 95, 96, 97, 98, 99, 100, 101, 102, 103, 104, 105, 106, 107, 108, 109, 110, 111, 112, 113, 114, 115, 116, 117, 118, 119, 120, 121, 122, 123, 124, 125, 126, 127, 128, 129, 130, 131, 132, 133, 134, 135, 136, 137, 138, 139, 140, 141, 142, 143, 144, 145, 146, 147, 148, 149, 150, 151, 152, 153, 154, 155, 156, 157, 158, 159, 160, 161, 162, 163, 164, 165, 166, 167, 168, 169, 170, 171, 172, 173, 174, 175, 176, 177, 178, 179, 180, 181, 182, 183, 184, 185, 186, 187, 188, 189, 190, 191, 192, 193, 194, 195, 196, 197, 198, 199, 200, 201, 202, 203, 204, 205, 206, 207, 208, 209, 210, 211, 212, 213, 214, 215, 216, 217, 218, 219, 220, 221, 222, 223, 224, 225, 226, 227, 228, 229, 230, 231, 232, 233, 234, 235, 236, 237, 238, 239, 240, 241, 242, 243, 244, 245, 246, 247, 248, 249, 250, 251, 252, 253, 254, 255, 256, 257, 258, 259, 260, 261, 262, 263, 264, 265, 266, 267, 268, 269, 270, 271, 272, 273, 274, 275, 276, 277, 278, 279, 280, 281, 282, 283, 284, 285, 286, 287, 288, 289, 290, 291, 292, 293, 294, 295, 296, 297, 298, 299, 300, 301, 302, 303, 304, 305, 306, 307, 308, 309, 310, 311, 312, 313, 314, 315, 316, 317, 318, 319, 320, 321, 322, 323, 324, 325, 326, 327, 328, 329, 330, 331, 332, 333, 334, 335, 336, 337, 338, 339, 340, 341, 342, 343, 344, 345, 346, 347, 348, 349, 350, 351, 352, 353, 354, 355, 356, 357, 358, 359, 360, 361, 362, 363, 364, 365, 366, 367, 368, 369, 370, 371, 372, 373, 374, 375, 376, 377, 378, 379, 380, 381, 382, 383, 384, 385, 386, 387, 388, 389, 390, 391, 392, 393, 394, 395, 396, 397, 398, 399, 400, 401, 402, 403, 404, 405, 406, 407, 408, 409, 410, 411, 412, 413, 414, 415, 416, 417, 418, 419, 420, 421, 422, 423, 424, 425, 426, 427, 428, 429, 430, 431, 432, 433, 434, 435, 436, 437, 438, 439, 440, 441, 442, 443, 444, 445, 446, 447, 448, 449, 450, 451, 452, 453, 454, 455, 456, 457, 458, 459, 460, 461, 462, 463, 464, 465, 466, 467, 468, 469, 470, 471, 472, 473, 474, 475, 476, 477, 478, 479, 480, 481, 482, 483, 484, 485, 486, 487, 488, 489, 490, 491, 492, 493, 494, 495, 496, 497, 498, 499, 500, 501, 502, 503, 504, 505, 506, 507, 508, 509, 510, 511, 512, 513, 514, 515, 516, 517, 518, 519, 520, 521, 522, 523, 524, 525, 526, 527, 528, 529, 530, 531, 532, 533, 534, 535, 536, 537, 538, 539, 540, 541, 542, 543, 544, 545, 546, 547, 548, 549, 550, 551, 552, 553, 554, 555, 556, 557, 558, 559, 560, 561, 562, 563, 564, 565, 566, 567, 568, 569, 570, 571, 572, 573, 574, 575, 576, 577, 578, 579, 580, 581, 582, 583, 584, 585, 586, 587, 588, 589, 590, 591, 592, 593, 594, 595, 596, 597, 598, 599, 600, 601, 602, 603, 604, 605, 606, 607, 608, 609, 610, 611, 612, 613, 614, 615, 616, 617, 618, 619, 620, 621, 622, 623, 624, 625, 626, 627, 628, 629, 630, 631, 632, 633, 634, 635, 636, 637, 638, 639, 640, 641, 642, 643, 644, 645, 646, 647, 648, 649, 650, 651, 652, 653, 654, 655, 656, 657, 658, 659, 660, 661, 662, 663, 664, 665, 666, 667, 668, 669, 670, 671, 672, 673, 674, 675, 676, 677, 678, 679, 680, 681, 682, 683, 684, 685, 686, 687, 688, 689, 690, 691, 692, 693, 694, 695, 696, 697, 698, 699, 700, 701, 702, 703, 704, 705, 706, 707, 708, 709, 710, 711, 712, 713, 714, 715, 716, 717, 718, 719, 720, 721, 722, 723, 724, 725, 726, 727, 728, 729, 730, 731, 732, 733, 734, 735, 736, 737, 738, 739, 740, 741, 742, 743, 744, 745, 746, 747, 748, 749, 750, 751, 752, 753, 754, 755, 756, 757, 758, 759, 760, 761, 762, 763, 764, 765, 766, 767, 768, 769, 770, 771, 772, 773, 774, 775, 776, 777, 778, 779, 780, 781, 782, 783, 784, 785, 786, 787, 788, 789, 790, 791, 792, 793, 794, 795, 796, 797, 798, 799, 800, 801, 802, 803, 804, 805, 806, 807, 808, 809, 810, 811, 812, 813, 814, 815, 816, 817, 818, 819, 820, 821, 822, 823, 824, 825, 826, 827, 828, 829, 830, 831, 832, 833, 834, 835, 836, 837, 838, 839, 840, 841, 842, 843, 844, 845, 846, 847, 848, 849, 850, 851, 852, 853, 854, 855, 856, 857, 858, 859, 860, 861, 862, 863, 864, 865, 866, 867, 868, 869, 870, 871, 872],
      "AcquisitionTime": ["135543.230000", "135543.690000", "135544.150000", "135544.610000", "135545.070000", "135545.530000", "135545.990000", "135546.450000", "135546.910000", "135547.370000", "135547.830000", "135548.290000", "135548.750000", "135549.210000", "135549.670000", "135550.130000", "135550.590000", "135551.050000", "135551.510000", "135551.970000", "135552.430000", "135552.890000", "135553.350000", "135553.810000", "135554.270000", "135554.730000", "135555.190000", "135555.650000", "135556.110000", "135556.570000", "135557.030000", "135557.490000", "135557.950000", "135558.410000", "135558.870000", "135559.330000", "135559.790000", "135600.250000", "135600.710000", "135601.170000", "135601.630000", "135602.090000", "135602.550000", "135603.010000", "135603.470000", "135603.930000", "135604.390000", "135604.850000", "135605.310000", "135605.770000", "135606.230000", "135606.690000", "135607.150000", "135607.610000", "135608.070000", "135608.530000", "135608.990000", "135609.450000", "135609.910000", "135610.370000", "135610.830000", "135611.290000", "135611.750000", "135612.210000", "135612.670000", "135613.130000", "135613.590000", "135614.050000", "135614.510000", "135614.970000", "135615.430000", "135615.890000", "135616.350000", "135616.810000", "135617.270000", "135617.730000", "135618.190000", "135618.650000", "135619.110000", "135619.570000", "135620.030000", "135620.490000", "135620.950000", "135621.410000", "135621.870000", "135622.330000", "135622.790000", "135623.250000", "135623.710000", "135624.170000", "135624.630000", "135625.090000", "135625.550000", "135626.010000", "135626.470000", "135626.930000", "135627.390000", "135627.850000", "135628.310000", "135628.770000", "135629.230000", "135629.690000", "135630.150000", "135630.610000", "135631.070000", "135631.530000", "135631.990000", "135632.450000", "135632.910000", "135633.370000", "135633.830000", "135634.290000", "135634.750000", "135635.210000", "135635.670000", "135636.130000", "135636.590000", "135637.050000", "135637.510000", "135637.970000", "135638.430000", "135638.890000", "135639.350000", "135639.810000", "135640.270000", "135640.730000", "135641.190000", "135641.650000", "135642.110000", "135642.570000", "135643.030000", "135643.490000", "135643.950000", "135644.410000", "135644.870000", "135645.330000", "135645.790000", "135646.250000", "135646.710000", "135647.170000", "135647.630000", "135648.090000", "135648.550000", "135649.010000", "135649.470000", "135649.930000", "135650.390000", "135650.850000", "135651.310000", "135651.770000", "135652.230000", "135652.690000", "135653.150000", "135653.610000", "135654.070000", "135654.530000", "135654.990000", "135655.450000", "135655.910000", "135656.370000", "135656.830000", "135657.290000", "135657.750000", "135658.210000", "135658.670000", "135659.130000", "135659.590000", "135700.050000", "135700.510000", "135700.970000", "135701.430000", "135701.890000", "135702.350000", "135702.810000", "135703.270000", "135703.730000", "135704.190000", "135704.650000", "135705.110000", "135705.570000", "135706.030000", "135706.490000", "135706.950000", "135707.410000", "135707.870000", "135708.330000", "135708.790000", "135709.250000", "135709.710000", "135710.170000", "135710.630000", "135711.090000", "135711.550000", "135712.010000", "135712.470000", "135712.930000", "135713.390000", "135713.850000", "135714.310000", "135714.770000", "135715.230000", "135715.690000", "135716.150000", "135716.610000", "135717.070000", "135717.530000", "135717.990000", "135718.450000", "135718.910000", "135719.370000", "135719.830000", "135720.290000", "135720.750000", "135721.210000", "135721.670000", "135722.130000", "135722.590000", "135723.050000", "135723.510000", "135723.970000", "135724.430000", "135724.890000", "135725.350000", "135725.810000", "135726.270000", "135726.730000", "135727.190000", "135727.650000", "135728.110000", "135728.570000", "135729.030000", "135729.490000", "135729.950000", "135730.410000", "135730.870000", "135731.330000", "135731.790000", "135732.250000", "135732.710000", "135733.170000", "135733.630000", "135734.090000", "135734.550000", "135735.010000", "135735.470000", "135735.930000", "135736.390000", "135736.850000", "135737.310000", "135737.770000", "135738.230000", "135738.690000", "135739.150000", "135739.610000", "135740.070000", "135740.530000", "135740.990000", "135741.450000", "135741.910000", "135742.370000", "135742.830000", "135743.290000", "135743.750000", "135744.210000", "135744.670000", "135745.130000", "135745.590000", "135746.050000", "135746.510000", "135746.970000", "135747.430000", "135747.890000", "135748.350000", "135748.810000", "135749.270000", "135749.730000", "135750.190000", "135750.650000", "135751.110000", "135751.570000", "135752.030000", "135752.490000", "135752.950000", "135753.410000", "135753.870000", "135754.330000", "135754.790000", "135755.250000", "135755.710000", "135756.170000", "135756.630000", "135757.090000", "135757.550000", "135758.010000", "135758.470000", "135758.930000", "135759.390000", "135759.850000", "135800.310000", "135800.770000", "135801.230000", "135801.690000", "135802.150000", "135802.610000", "135803.070000", "135803.530000", "135803.990000", "135804.450000", "135804.910000", "135805.370000", "135805.830000", "135806.290000", "135806.750000", "135807.210000", "135807.670000", "135808.130000", "135808.590000", "135809.050000", "135809.510000", "135809.970000", "135810.430000", "135810.890000", "135811.350000", "135811.810000", "135812.270000", "135812.730000", "135813.190000", "135813.650000", "135814.110000", "135814.570000", "135815.030000", "135815.490000", "135815.950000", "135816.410000", "135816.870000", "135817.330000", "135817.790000", "135818.250000", "135818.710000", "135819.170000", "135819.630000", "135820.090000", "135820.550000", "135821.010000", "135821.470000", "135821.930000", "135822.390000", "135822.850000", "135823.310000", "135823.770000", "135824.230000", "135824.690000", "135825.150000", "135825.610000", "135826.070000", "135826.530000", "135826.990000", "135827.450000", "135827.910000", "135828.370000", "135828.830000", "135829.290000", "135829.750000", "135830.210000", "135830.670000", "135831.130000", "135831.590000", "135832.050000", "135832.510000", "135832.970000", "135833.430000", "135833.890000", "135834.350000", "135834.810000", "135835.270000", "135835.730000", "135836.190000", "135836.650000", "135837.110000", "135837.570000", "135838.030000", "135838.490000", "135838.950000", "135839.410000", "135839.870000", "135840.330000", "135840.790000", "135841.250000", "135841.710000", "135842.170000", "135842.630000", "135843.090000", "135843.550000", "135844.010000", "135844.470000", "135844.930000", "135845.390000", "135845.850000", "135846.310000", "135846.770000", "135847.230000", "135847.690000", "135848.150000", "135848.610000", "135849.070000", "135849.530000", "135849.990000", "135850.450000", "135850.910000", "135851.370000", "135851.830000", "135852.290000", "135852.750000", "135853.210000", "135853.670000", "135854.130000", "135854.590000", "135855.050000", "135855.510000", "135855.970000", "135856.430000", "135856.890000", "135857.350000", "135857.810000", "135858.270000", "135858.730000", "135859.190000", "135859.650000", "135900.110000", "135900.570000", "135901.030000", "135901.490000", "135901.950000", "135902.410000", "135902.870000", "135903.330000", "135903.790000", "135904.250000", "135904.710000", "135905.170000", "135905.630000", "135906.090000", "135906.550000", "135907.010000", "135907.470000", "135907.930000", "135908.390000", "135908.850000", "135909.310000", "135909.770000", "135910.230000", "135910.690000", "135911.150000", "135911.610000", "135912.070000", "135912.530000", "135912.990000", "135913.450000", "135913.910000", "135914.370000", "135914.830000", "135915.290000", "135915.750000", "135916.210000", "135916.670000", "135917.130000", "135917.590000", "135918.050000", "135918.510000", "135918.970000", "135919.430000", "135919.890000", "135920.350000", "135920.810000", "135921.270000", "135921.730000", "135922.190000", "135922.650000", "135923.110000", "135923.570000", "135924.030000", "135924.490000", "135924.950000", "135925.410000", "135925.870000", "135926.330000", "135926.790000", "135927.250000", "135927.710000", "135928.170000", "135928.630000", "135929.090000", "135929.550000", "135930.010000", "135930.470000", "135930.930000", "135931.390000", "135931.850000", "135932.310000", "135932.770000", "135933.230000", "135933.690000", "135934.150000", "135934.610000", "135935.070000", "135935.530000", "135935.990000", "135936.450000", "135936.910000", "135937.370000", "135937.830000", "135938.290000", "135938.750000", "135939.210000", "135939.670000", "135940.130000", "135940.590000", "135941.050000", "135941.510000", "135941.970000", "135942.430000", "135942.890000", "135943.350000", "135943.810000", "135944.270000", "135944.730000", "135945.190000", "135945.650000", "135946.110000", "135946.570000", "135947.030000", "135947.490000", "135947.950000", "135948.410000", "135948.870000", "135949.330000", "135949.790000", "135950.250000", "135950.710000", "135951.170000", "135951.630000", "135952.090000", "135952.550000", "135953.010000", "135953.470000", "135953.930000", "135954.390000", "135954.850000", "135955.310000", "135955.770000", "135956.230000", "135956.690000", "135957.150000", "135957.610000", "135958.070000", "135958.530000", "135958.990000", "135959.450000", "135959.910000", "140000.370000", "140000.830000", "140001.290000", "140001.750000", "140002.210000", "140002.670000", "140003.130000", "140003.590000", "140004.050000", "140004.510000", "140004.970000", "140005.430000", "140005.890000", "140006.350000", "140006.810000", "140007.270000", "140007.730000", "140008.190000", "140008.650000", "140009.110000", "140009.570000", "140010.030000", "140010.490000", "140010.950000", "140011.410000", "140011.870000", "140012.330000", "140012.790000", "140013.250000", "140013.710000", "140014.170000", "140014.630000", "140015.090000", "140015.550000", "140016.010000", "140016.470000", "140016.930000", "140017.390000", "140017.850000", "140018.310000", "140018.770000", "140019.230000", "140019.690000", "140020.150000", "140020.610000", "140021.070000", "140021.530000", "140021.990000", "140022.450000", "140022.910000", "140023.370000", "140023.830000", "140024.290000", "140024.750000", "140025.210000", "140025.670000", "140026.130000", "140026.590000", "140027.050000", "140027.510000", "140027.970000", "140028.430000", "140028.890000", "140029.350000", "140029.810000", "140030.270000", "140030.730000", "140031.190000", "140031.650000", "140032.110000", "140032.570000", "140033.030000", "140033.490000", "140033.950000", "140034.410000", "140034.870000", "140035.330000", "140035.790000", "140036.250000", "140036.710000", "140037.170000", "140037.630000", "140038.090000", "140038.550000", "140039.010000", "140039.470000", "140039.930000", "140040.390000", "140040.850000", "140041.310000", "140041.770000", "140042.230000", "140042.690000", "140043.150000", "140043.610000", "140044.070000", "140044.530000", "140044.990000", "140045.450000", "140045.910000", "140046.370000", "140046.830000", "140047.290000", "140047.750000", "140048.210000", "140048.670000", "140049.130000", "140049.590000", "140050.050000", "140050.510000", "140050.970000", "140051.430000", "140051.890000", "140052.350000", "140052.810000", "140053.270000", "140053.730000", "140054.190000", "140054.650000", "140055.110000", "140055.570000", "140056.030000", "140056.490000", "140056.950000", "140057.410000", "140057.870000", "140058.330000", "140058.790000", "140059.250000", "140059.710000", "140100.170000", "140100.630000", "140101.090000", "140101.550000", "140102.010000", "140102.470000", "140102.930000", "140103.390000", "140103.850000", "140104.310000", "140104.770000", "140105.230000", "140105.690000", "140106.150000", "140106.610000", "140107.070000", "140107.530000", "140107.990000", "140108.450000", "140108.910000", "140109.370000", "140109.830000", "140110.290000", "140110.750000", "140111.210000", "140111.670000", "140112.130000", "140112.590000", "140113.050000", "140113.510000", "140113.970000", "140114.430000", "140114.890000", "140115.350000", "140115.810000", "140116.270000", "140116.730000", "140117.190000", "140117.650000", "140118.110000", "140118.570000", "140119.030000", "140119.490000", "140119.950000", "140120.410000", "140120.870000", "140121.330000", "140121.790000", "140122.250000", "140122.710000", "140123.170000", "140123.630000", "140124.090000", "140124.550000", "140125.010000", "140125.470000", "140125.930000", "140126.390000", "140126.850000", "140127.310000", "140127.770000", "140128.230000", "140128.690000", "140129.150000", "140129.610000", "140130.070000", "140130.530000", "140130.990000", "140131.450000", "140131.910000", "140132.370000", "140132.830000", "140133.290000", "140133.750000", "140134.210000", "140134.670000", "140135.130000", "140135.590000", "140136.050000", "140136.510000", "140136.970000", "140137.430000", "140137.890000", "140138.350000", "140138.810000", "140139.270000", "140139.730000", "140140.190000", "140140.650000", "140141.110000", "140141.570000", "140142.030000", "140142.490000", "140142.950000", "140143.410000", "140143.870000", "140144.330000", "140144.790000", "140145.250000", "140145.710000", "140146.170000", "140146.630000", "140147.090000", "140147.550000", "140148.010000", "140148.470000", "140148.930000", "140149.390000", "140149.850000", "140150.310000", "140150.770000", "140151.230000", "140151.690000", "140152.150000", "140152.610000", "140153.070000", "140153.530000", "140153.990000", "140154.450000", "140154.910000", "140155.370000", "140155.830000", "140156.290000", "140156.750000", "140157.210000", "140157.670000", "140158.130000", "140158.590000", "140159.050000", "140159.510000", "140159.970000", "140200.430000", "140200.890000", "140201.350000", "140201.810000", "140202.270000", "140202.730000", "140203.190000", "140203.650000", "140204.110000", "140204.570000", "140205.030000", "140205.490000", "140205.950000", "140206.410000", "140206.870000", "140207.330000", "140207.790000", "140208.250000", "140208.710000", "140209.170000", "140209.630000", "140210.090000", "140210.550000", "140211.010000", "140211.470000", "140211.930000", "140212.390000", "140212.850000", "140213.310000", "140213.770000", "140214.230000", "140214.690000", "140215.150000", "140215.610000", "140216.070000", "140216.530000", "140216.990000", "140217.450000", "140217.910000", "140218.370000", "140218.830000", "140219.290000", "140219.750000", "140220.210000", "140220.670000", "140221.130000", "140221.590000", "140222.050000", "140222.510000", "140222.970000", "140223.430000", "140223.890000"],
