{
  "AcquisitionMatrixPE": 82,
  "AcquisitionNumber": 1,
  "AcquisitionTime": "13:33:2.905000",
  "BandwidthPerPixelPhaseEncode": 24.888,
  "BaseResolution": 82,
  "BodyPartExamined": "BRAIN",
  "ConsistencyInfo": "N4_VE11E_LATEST_20181129",
  "ConversionSoftware": "dcm2niix",
  "ConversionSoftwareVersion": "v1.0.20201102",
  "DerivedVendorReportedEchoSpacing": 0.00049,
  "DeviceSerialNumber": "66112",
  "DwellTime": 2e-06,
  "EchoTime": 0.0272,
  "EchoTrainLength": 82,
  "EffectiveEchoSpacing": 0.00049,
  "FlipAngle": 44,
  "ImageComments": "Unaliased MB8/PE3",
  "ImageOrientationPatientDICOM": [0.999102, 0.0354912, 0.023129, -0.0362862, 0.998731, 0.0349125],
  "ImageType": [
    "ORIGINAL",
    "PRIMARY",
    "M",
    "MB",
    "ND",
    "NORM",
    "MOSAIC"
],
  "ImagingFrequency": 123.252,
  "InPlanePhaseEncodingDirectionDICOM": "COL",
  "InstitutionAddress": "Maynard 3,Hanover,NH,US,03755",
  "InstitutionName": "Dartmouth College - PBS",
  "InstitutionalDepartmentName": "Department",
  "MRAcquisitionType": "2D",
  "MagneticFieldStrength": 3,
  "Manufacturer": "Siemens",
  "ManufacturersModelName": "Prisma",
  "Modality": "MR",
  "MultibandAccelerationFactor": 8,
  "PartialFourier": 1,
  "PatientPosition": "HFS",
  "PercentPhaseFOV": 100,
  "PercentSampling": 100,
  "PhaseEncodingDirection": "j-",
  "PhaseEncodingSteps": 82,
  "PhaseResolution": 1,
  "PixelBandwidth": 3050,
  "ProcedureStepDescription": "Wager_Wager^1076_spacetop",
  "ProtocolName": "func_run-02_task-social_acq-ap-mb8",
  "PulseSequenceDetails": "%CustomerSeq%\\cmrr_mbep2d_bold",
  "ReceiveCoilActiveElements": "HEA;HEP",
  "ReceiveCoilName": "Head_32",
  "ReconMatrixPE": 82,
  "RepetitionTime": 0.46,
  "SAR": 0.096556,
  "ScanOptions": "FS",
  "ScanningSequence": "EP",
  "SequenceName": "epfid2d1_82",
  "SequenceVariant": "SK\\SS",
  "SeriesDescription": "func_run-02_task-social_acq-ap-mb8",
  "SeriesNumber": 16,
  "ShimSetting": [4154, -7780, -7215, 585, -66, -183, 44, 6],
  "SliceThickness": 2.7,
  "SliceTiming": [0, 0.2525, 0.0625, 0.315, 0.1275, 0.3775, 0.19, 0, 0.2525, 0.0625, 0.315, 0.1275, 0.3775, 0.19, 0, 0.2525, 0.0625, 0.315, 0.1275, 0.3775, 0.19, 0, 0.2525, 0.0625, 0.315, 0.1275, 0.3775, 0.19, 0, 0.2525, 0.0625, 0.315, 0.1275, 0.3775, 0.19, 0, 0.2525, 0.0625, 0.315, 0.1275, 0.3775, 0.19, 0, 0.2525, 0.0625, 0.315, 0.1275, 0.3775, 0.19, 0, 0.2525, 0.0625, 0.315, 0.1275, 0.3775, 0.19],
  "SoftwareVersions": "syngo MR E11",
  "SpacingBetweenSlices": 2.7,
  "StationName": "AWP66112",
  "TaskName": "social",
  "TotalReadoutTime": 0.03969,
  "TxRefAmp": 246.123,
  "WipMemBlock": "46302151-1ef3-4eec-8374-64daa0ac90b5||Sequence: R016 ve11e/master r/434b28f1; Aug  7 2019 18:53:46 by eja",
  "dcmmeta_affine": [
    [-2.680518388748169, -0.09735330194234848, 0.059023596346378326, 114.29046630859375],
    [-0.09522026777267456, 2.679523468017578, 0.09644520282745361, -79.2394790649414],
    [0.06205346807837486, -0.09366773813962936, 2.697631359100342, -37.79746627807617],
    [0.0, 0.0, 0.0, 1.0]
],
  "dcmmeta_reorient_transform": [
    [0.0, -1.0, 0.0, 81.0],
    [1.0, 0.0, 0.0, 0.0],
    [0.0, 0.0, 1.0, 0.0],
    [0.0, 0.0, 0.0, 1.0]
],
  "dcmmeta_shape": [82, 82, 56, 872],
  "dcmmeta_slice_dim": 2,
  "dcmmeta_version": 0.6,
  "global": {
    "const": {
      "AccessionNumber": "A003942",
      "AcquisitionMatrix": [82, 0, 0, 82],
      "AngioFlag": "N",
      "BitsAllocated": 16,
      "BitsStored": 16,
      "BodyPartExamined": "BRAIN",
      "Columns": 656,
      "EchoNumbers": 1,
      "EchoTime": 27.2,
      "EchoTrainLength": 82,
      "FlipAngle": 44.0,
      "HighBit": 15,
      "ImageOrientationPatient": [0.9991023090791, 0.03549118861549, 0.02312901907718, -0.0362862309484, 0.99873140801896, 0.03491252039054],
      "ImagePositionPatient": [-847.7732441815, -934.15333273205, -90.076540690567],
      "ImageType": [
        "ORIGINAL",
        "PRIMARY",
        "M",
        "MB",
        "ND",
        "NORM",
        "MOSAIC"
],
      "ImagedNucleus": "1H",
      "ImagingFrequency": 123.252142,
      "InPlanePhaseEncodingDirection": "COL",
      "MRAcquisitionType": "2D",
      "MagneticFieldStrength": 3.0,
      "Manufacturer": "SIEMENS",
      "ManufacturerModelName": "Prisma",
      "Modality": "MR",
      "NumberOfAverages": 1.0,
      "NumberOfPhaseEncodingSteps": 82,
      "PercentPhaseFieldOfView": 100.0,
      "PercentSampling": 100.0,
      "PerformedProcedureStepStartTime": "124130.256000",
      "PhotometricInterpretation": "MONOCHROME2",
      "PixelBandwidth": 3050.0,
      "PixelRepresentation": 0,
      "PixelSpacing": [2.6829268932343, 2.6829268932343],
      "ProtocolName": "func_run-02_task-social_acq-ap-mb8",
      "RepetitionTime": 460.0,
      "Rows": 656,
      "SAR": 0.09655601939,
      "SamplesPerPixel": 1,
      "ScanOptions": "FS",
      "ScanningSequence": "EP",
      "SequenceName": "epfid2d1_82",
      "SequenceVariant": [
        "SK",
        "SS"
],
      "SeriesDescription": "func_run-02_task-social_acq-ap-mb8",
      "SeriesNumber": 16,
      "SeriesTime": "133323.751000",
      "SliceLocation": -38.096319769805,
      "SliceThickness": 2.7000000476837,
      "SmallestImagePixelValue": 0,
      "SoftwareVersions": "syngo MR E11",
      "SpacingBetweenSlices": 2.6999999989884,
      "SpecificCharacterSet": "ISO_IR 100",
      "StudyID": "2",
      "StudyTime": "124130.188000",
      "TransmitCoilName": "Body",
      "VariableFlipAngleFlag": "N",
      "WindowCenterWidthExplanation": "Algo1"
    },
    "slices": {}
  },
  "time": {
    "samples": {
      "AcquisitionNumber": [1, 2, 3, 4, 5, 6, 7, 8, 9, 10, 11, 12, 13, 14, 15, 16, 17, 18, 19, 20, 21, 22, 23, 24, 25, 26, 27, 28, 29, 30, 31, 32, 33, 34, 35, 36, 37, 38, 39, 40, 41, 42, 43, 44, 45, 46, 47, 48, 49, 50, 51, 52, 53, 54, 55, 56, 57, 58, 59, 60, 61, 62, 63, 64, 65, 66, 67, 68, 69, 70, 71, 72, 73, 74, 75, 76, 77, 78, 79, 80, 81, 82, 83, 84, 85, 86, 87, 88, 89, 90, 91, 92, 93, 94, 95, 96, 97, 98, 99, 100, 101, 102, 103, 104, 105, 106, 107, 108, 109, 110, 111, 112, 113, 114, 115, 116, 117, 118, 119, 120, 121, 122, 123, 124, 125, 126, 127, 128, 129, 130, 131, 132, 133, 134, 135, 136, 137, 138, 139, 140, 141, 142, 143, 144, 145, 146, 147, 148, 149, 150, 151, 152, 153, 154, 155, 156, 157, 158, 159, 160, 161, 162, 163, 164, 165, 166, 167, 168, 169, 170, 171, 172, 173, 174, 175, 176, 177, 178, 179, 180, 181, 182, 183, 184, 185, 186, 187, 188, 189, 190, 191, 192, 193, 194, 195, 196, 197, 198, 199, 200, 201, 202, 203, 204, 205, 206, 207, 208, 209, 210, 211, 212, 213, 214, 215, 216, 217, 218, 219, 220, 221, 222, 223, 224, 225, 226, 227, 228, 229, 230, 231, 232, 233, 234, 235, 236, 237, 238, 239, 240, 241, 242, 243, 244, 245, 246, 247, 248, 249, 250, 251, 252, 253, 254, 255, 256, 257, 258, 259, 260, 261, 262, 263, 264, 265, 266, 267, 268, 269, 270, 271, 272, 273, 274, 275, 276, 277, 278, 279, 280, 281, 282, 283, 284, 285, 286, 287, 288, 289, 290, 291, 292, 293, 294, 295, 296, 297, 298, 299, 300, 301, 302, 303, 304, 305, 306, 307, 308, 309, 310, 311, 312, 313, 314, 315, 316, 317, 318, 319, 320, 321, 322, 323, 324, 325, 326, 327, 328, 329, 330, 331, 332, 333, 334, 335, 336, 337, 338, 339, 340, 341, 342, 343, 344, 345, 346, 347, 348, 349, 350, 351, 352, 353, 354, 355, 356, 357, 358, 359, 360, 361, 362, 363, 364, 365, 366, 367, 368, 369, 370, 371, 372, 373, 374, 375, 376, 377, 378, 379, 380, 381, 382, 383, 384, 385, 386, 387, 388, 389, 390, 391, 392, 393, 394, 395, 396, 397, 398, 399, 400, 401, 402, 403, 404, 405, 406, 407, 408, 409, 410, 411, 412, 413, 414, 415, 416, 417, 418, 419, 420, 421, 422, 423, 424, 425, 426, 427, 428, 429, 430, 431, 432, 433, 434, 435, 436, 437, 438, 439, 440, 441, 442, 443, 444, 445, 446, 447, 448, 449, 450, 451, 452, 453, 454, 455, 456, 457, 458, 459, 460, 461, 462, 463, 464, 465, 466, 467, 468, 469, 470, 471, 472, 473, 474, 475, 476, 477, 478, 479, 480, 481, 482, 483, 484, 485, 486, 487, 488, 489, 490, 491, 492, 493, 494, 495, 496, 497, 498, 499, 500, 501, 502, 503, 504, 505, 506, 507, 508, 509, 510, 511, 512, 513, 514, 515, 516, 517, 518, 519, 520, 521, 522, 523, 524, 525, 526, 527, 528, 529, 530, 531, 532, 533, 534, 535, 536, 537, 538, 539, 540, 541, 542, 543, 544, 545, 546, 547, 548, 549, 550, 551, 552, 553, 554, 555, 556, 557, 558, 559, 560, 561, 562, 563, 564, 565, 566, 567, 568, 569, 570, 571, 572, 573, 574, 575, 576, 577, 578, 579, 580, 581, 582, 583, 584, 585, 586, 587, 588, 589, 590, 591, 592, 593, 594, 595, 596, 597, 598, 599, 600, 601, 602, 603, 604, 605, 606, 607, 608, 609, 610, 611, 612, 613, 614, 615, 616, 617, 618, 619, 620, 621, 622, 623, 624, 625, 626, 627, 628, 629, 630, 631, 632, 633, 634, 635, 636, 637, 638, 639, 640, 641, 642, 643, 644, 645, 646, 647, 648, 649, 650, 651, 652, 653, 654, 655, 656, 657, 658, 659, 660, 661, 662, 663, 664, 665, 666, 667, 668, 669, 670, 671, 672, 673, 674, 675, 676, 677, 678, 679, 680, 681, 682, 683, 684, 685, 686, 687, 688, 689, 690, 691, 692, 693, 694, 695, 696, 697, 698, 699, 700, 701, 702, 703, 704, 705, 706, 707, 708, 709, 710, 711, 712, 713, 714, 715, 716, 717, 718, 719, 720, 721, 722, 723, 724, 725, 726, 727, 728, 729, 730, 731, 732, 733, 734, 735, 736, 737, 738, 739, 740, 741, 742, 743, 744, 745, 746, 747, 748, 749, 750, 751, 752, 753, 754, 755, 756, 757, 758, 759, 760, 761, 762, 763, 764, 765, 766, 767, 768, 769, 770, 771, 772, 773, 774, 775, 776, 777, 778, 779, 780, 781, 782, 783, 784, 785, 786, 787, 788, 789, 790, 791, 792, 793, 794, 795, 796, 797, 798, 799, 800, 801, 802, 803, 804, 805, 806, 807, 808, 809, 810, 811, 812, 813, 814, 815, 816, 817, 818, 819, 820, 821, 822, 823, 824, 825, 826, 827, 828, 829, 830, 831, 832, 833, 834, 835, 836, 837, 838, 839, 840, 841, 842, 843, 844, 845, 846, 847, 848, 849, 850, 851, 852, 853, 854, 855, 856, 857, 858, 859, 860, 861, 862, 863, 864, 865, 866, 867, 868, 869, 870, 871, 872],
      "AcquisitionTime": ["133302.905000", "133303.365000", "133303.825000", "133304.285000", "133304.745000", "133305.205000", "133305.665000", "133306.125000", "133306.585000", "133307.045000", "133307.505000", "133307.965000", "133308.425000", "133308.885000", "133309.345000", "133309.805000", "133310.265000", "133310.725000", "133311.185000", "133311.645000", "133312.105000", "133312.565000", "133313.025000", "133313.485000", "133313.945000", "133314.405000", "133314.865000", "133315.325000", "133315.785000", "133316.245000", "133316.705000", "133317.165000", "133317.625000", "133318.085000", "133318.545000", "133319.005000", "133319.465000", "133319.925000", "133320.385000", "133320.845000", "133321.305000", "133321.765000", "133322.225000", "133322.685000", "133323.145000", "133323.605000", "133324.065000", "133324.525000", "133324.985000", "133325.445000", "133325.905000", "133326.365000", "133326.825000", "133327.285000", "133327.745000", "133328.205000", "133328.665000", "133329.125000", "133329.585000", "133330.045000", "133330.505000", "133330.965000", "133331.425000", "133331.885000", "133332.345000", "133332.805000", "133333.265000", "133333.725000", "133334.185000", "133334.645000", "133335.105000", "133335.565000", "133336.025000", "133336.485000", "133336.945000", "133337.405000", "133337.865000", "133338.325000", "133338.785000", "133339.245000", "133339.705000", "133340.165000", "133340.625000", "133341.085000", "133341.545000", "133342.005000", "133342.465000", "133342.925000", "133343.385000", "133343.845000", "133344.305000", "133344.765000", "133345.225000", "133345.685000", "133346.145000", "133346.605000", "133347.065000", "133347.525000", "133347.985000", "133348.445000", "133348.905000", "133349.365000", "133349.825000", "133350.285000", "133350.745000", "133351.205000", "133351.665000", "133352.125000", "133352.585000", "133353.045000", "133353.505000", "133353.965000", "133354.425000", "133354.885000", "133355.345000", "133355.805000", "133356.265000", "133356.725000", "133357.185000", "133357.645000", "133358.105000", "133358.565000", "133359.025000", "133359.485000", "133359.945000", "133400.405000", "133400.865000", "133401.325000", "133401.785000", "133402.245000", "133402.705000", "133403.165000", "133403.625000", "133404.085000", "133404.545000", "133405.005000", "133405.465000", "133405.925000", "133406.385000", "133406.845000", "133407.305000", "133407.765000", "133408.225000", "133408.685000", "133409.145000", "133409.605000", "133410.065000", "133410.525000", "133410.985000", "133411.445000", "133411.905000", "133412.365000", "133412.825000", "133413.285000", "133413.745000", "133414.205000", "133414.665000", "133415.125000", "133415.585000", "133416.045000", "133416.505000", "133416.965000", "133417.425000", "133417.885000", "133418.345000", "133418.805000", "133419.265000", "133419.725000", "133420.185000", "133420.645000", "133421.105000", "133421.565000", "133422.025000", "133422.485000", "133422.945000", "133423.405000", "133423.865000", "133424.325000", "133424.785000", "133425.245000", "133425.705000", "133426.165000", "133426.625000", "133427.085000", "133427.545000", "133428.005000", "133428.465000", "133428.925000", "133429.385000", "133429.845000", "133430.305000", "133430.765000", "133431.225000", "133431.685000", "133432.145000", "133432.605000", "133433.065000", "133433.525000", "133433.985000", "133434.445000", "133434.905000", "133435.365000", "133435.825000", "133436.285000", "133436.745000", "133437.205000", "133437.665000", "133438.125000", "133438.585000", "133439.045000", "133439.505000", "133439.965000", "133440.425000", "133440.885000", "133441.345000", "133441.805000", "133442.265000", "133442.725000", "133443.185000", "133443.645000", "133444.105000", "133444.565000", "133445.025000", "133445.485000", "133445.945000", "133446.405000", "133446.865000", "133447.325000", "133447.785000", "133448.245000", "133448.705000", "133449.165000", "133449.625000", "133450.085000", "133450.545000", "133451.005000", "133451.465000", "133451.925000", "133452.385000", "133452.845000", "133453.305000", "133453.765000", "133454.225000", "133454.685000", "133455.145000", "133455.605000", "133456.065000", "133456.525000", "133456.985000", "133457.445000", "133457.905000", "133458.365000", "133458.825000", "133459.285000", "133459.745000", "133500.205000", "133500.665000", "133501.125000", "133501.585000", "133502.045000", "133502.505000", "133502.965000", "133503.425000", "133503.885000", "133504.345000", "133504.805000", "133505.265000", "133505.725000", "133506.185000", "133506.645000", "133507.105000", "133507.565000", "133508.025000", "133508.485000", "133508.945000", "133509.405000", "133509.865000", "133510.325000", "133510.785000", "133511.245000", "133511.705000", "133512.165000", "133512.625000", "133513.085000", "133513.545000", "133514.005000", "133514.465000", "133514.925000", "133515.385000", "133515.845000", "133516.305000", "133516.765000", "133517.225000", "133517.685000", "133518.145000", "133518.605000", "133519.065000", "133519.525000", "133519.985000", "133520.445000", "133520.905000", "133521.365000", "133521.825000", "133522.285000", "133522.745000", "133523.205000", "133523.665000", "133524.125000", "133524.585000", "133525.045000", "133525.505000", "133525.965000", "133526.425000", "133526.885000", "133527.345000", "133527.805000", "133528.265000", "133528.725000", "133529.185000", "133529.645000", "133530.105000", "133530.565000", "133531.025000", "133531.485000", "133531.945000", "133532.405000", "133532.865000", "133533.325000", "133533.785000", "133534.245000", "133534.705000", "133535.165000", "133535.625000", "133536.085000", "133536.545000", "133537.005000", "133537.465000", "133537.925000", "133538.385000", "133538.845000", "133539.305000", "133539.765000", "133540.225000", "133540.685000", "133541.145000", "133541.605000", "133542.065000", "133542.525000", "133542.985000", "133543.445000", "133543.905000", "133544.365000", "133544.825000", "133545.285000", "133545.745000", "133546.205000", "133546.665000", "133547.125000", "133547.585000", "133548.045000", "133548.505000", "133548.965000", "133549.425000", "133549.885000", "133550.345000", "133550.805000", "133551.265000", "133551.725000", "133552.185000", "133552.645000", "133553.105000", "133553.565000", "133554.025000", "133554.485000", "133554.945000", "133555.405000", "133555.865000", "133556.325000", "133556.785000", "133557.245000", "133557.705000", "133558.165000", "133558.625000", "133559.085000", "133559.545000", "133600.005000", "133600.465000", "133600.925000", "133601.385000", "133601.845000", "133602.305000", "133602.765000", "133603.225000", "133603.685000", "133604.145000", "133604.605000", "133605.065000", "133605.525000", "133605.985000", "133606.445000", "133606.905000", "133607.365000", "133607.825000", "133608.285000", "133608.745000", "133609.205000", "133609.665000", "133610.125000", "133610.585000", "133611.045000", "133611.505000", "133611.965000", "133612.425000", "133612.885000", "133613.345000", "133613.805000", "133614.265000", "133614.725000", "133615.185000", "133615.645000", "133616.105000", "133616.565000", "133617.025000", "133617.485000", "133617.945000", "133618.405000", "133618.865000", "133619.325000", "133619.785000", "133620.245000", "133620.705000", "133621.165000", "133621.625000", "133622.085000", "133622.545000", "133623.005000", "133623.465000", "133623.925000", "133624.385000", "133624.845000", "133625.305000", "133625.765000", "133626.225000", "133626.685000", "133627.145000", "133627.605000", "133628.065000", "133628.525000", "133628.985000", "133629.445000", "133629.905000", "133630.365000", "133630.825000", "133631.285000", "133631.745000", "133632.205000", "133632.665000", "133633.125000", "133633.585000", "133634.045000", "133634.505000", "133634.965000", "133635.425000", "133635.885000", "133636.345000", "133636.805000", "133637.265000", "133637.725000", "133638.185000", "133638.645000", "133639.105000", "133639.565000", "133640.025000", "133640.485000", "133640.945000", "133641.405000", "133641.865000", "133642.325000", "133642.785000", "133643.245000", "133643.705000", "133644.165000", "133644.625000", "133645.085000", "133645.545000", "133646.005000", "133646.465000", "133646.925000", "133647.385000", "133647.845000", "133648.305000", "133648.765000", "133649.225000", "133649.685000", "133650.145000", "133650.605000", "133651.065000", "133651.525000", "133651.985000", "133652.445000", "133652.905000", "133653.365000", "133653.825000", "133654.285000", "133654.745000", "133655.205000", "133655.665000", "133656.125000", "133656.585000", "133657.045000", "133657.505000", "133657.965000", "133658.425000", "133658.885000", "133659.345000", "133659.805000", "133700.265000", "133700.725000", "133701.185000", "133701.645000", "133702.105000", "133702.565000", "133703.025000", "133703.485000", "133703.945000", "133704.405000", "133704.865000", "133705.325000", "133705.785000", "133706.245000", "133706.705000", "133707.165000", "133707.625000", "133708.085000", "133708.545000", "133709.005000", "133709.465000", "133709.925000", "133710.385000", "133710.845000", "133711.305000", "133711.765000", "133712.225000", "133712.685000", "133713.145000", "133713.605000", "133714.065000", "133714.525000", "133714.985000", "133715.445000", "133715.905000", "133716.365000", "133716.825000", "133717.285000", "133717.745000", "133718.205000", "133718.665000", "133719.125000", "133719.585000", "133720.045000", "133720.505000", "133720.965000", "133721.425000", "133721.885000", "133722.345000", "133722.805000", "133723.265000", "133723.725000", "133724.185000", "133724.645000", "133725.105000", "133725.565000", "133726.025000", "133726.485000", "133726.945000", "133727.405000", "133727.865000", "133728.325000", "133728.785000", "133729.245000", "133729.705000", "133730.165000", "133730.625000", "133731.085000", "133731.545000", "133732.005000", "133732.465000", "133732.925000", "133733.385000", "133733.845000", "133734.305000", "133734.765000", "133735.225000", "133735.685000", "133736.145000", "133736.605000", "133737.065000", "133737.525000", "133737.985000", "133738.445000", "133738.905000", "133739.365000", "133739.825000", "133740.285000", "133740.745000", "133741.205000", "133741.665000", "133742.125000", "133742.585000", "133743.045000", "133743.505000", "133743.965000", "133744.425000", "133744.885000", "133745.345000", "133745.805000", "133746.265000", "133746.725000", "133747.185000", "133747.645000", "133748.105000", "133748.565000", "133749.025000", "133749.485000", "133749.945000", "133750.405000", "133750.865000", "133751.325000", "133751.785000", "133752.245000", "133752.705000", "133753.165000", "133753.625000", "133754.085000", "133754.545000", "133755.005000", "133755.465000", "133755.925000", "133756.385000", "133756.845000", "133757.305000", "133757.765000", "133758.225000", "133758.685000", "133759.145000", "133759.605000", "133800.065000", "133800.525000", "133800.985000", "133801.445000", "133801.905000", "133802.365000", "133802.825000", "133803.285000", "133803.745000", "133804.205000", "133804.665000", "133805.125000", "133805.585000", "133806.045000", "133806.505000", "133806.965000", "133807.425000", "133807.885000", "133808.345000", "133808.805000", "133809.265000", "133809.725000", "133810.185000", "133810.645000", "133811.105000", "133811.565000", "133812.025000", "133812.485000", "133812.945000", "133813.405000", "133813.865000", "133814.325000", "133814.785000", "133815.245000", "133815.705000", "133816.165000", "133816.625000", "133817.085000", "133817.545000", "133818.005000", "133818.465000", "133818.925000", "133819.385000", "133819.845000", "133820.305000", "133820.765000", "133821.225000", "133821.685000", "133822.145000", "133822.605000", "133823.065000", "133823.525000", "133823.985000", "133824.445000", "133824.905000", "133825.365000", "133825.825000", "133826.285000", "133826.745000", "133827.205000", "133827.665000", "133828.125000", "133828.585000", "133829.045000", "133829.505000", "133829.965000", "133830.425000", "133830.885000", "133831.345000", "133831.805000", "133832.265000", "133832.725000", "133833.185000", "133833.645000", "133834.105000", "133834.565000", "133835.025000", "133835.485000", "133835.945000", "133836.405000", "133836.865000", "133837.325000", "133837.785000", "133838.245000", "133838.705000", "133839.165000", "133839.625000", "133840.085000", "133840.545000", "133841.005000", "133841.465000", "133841.925000", "133842.385000", "133842.845000", "133843.305000", "133843.765000", "133844.225000", "133844.685000", "133845.145000", "133845.605000", "133846.065000", "133846.525000", "133846.985000", "133847.445000", "133847.905000", "133848.365000", "133848.825000", "133849.285000", "133849.745000", "133850.205000", "133850.665000", "133851.125000", "133851.585000", "133852.045000", "133852.505000", "133852.965000", "133853.425000", "133853.885000", "133854.345000", "133854.805000", "133855.265000", "133855.725000", "133856.185000", "133856.645000", "133857.105000", "133857.565000", "133858.025000", "133858.485000", "133858.945000", "133859.405000", "133859.865000", "133900.325000", "133900.785000", "133901.245000", "133901.705000", "133902.165000", "133902.625000", "133903.085000", "133903.545000", "133904.005000", "133904.465000", "133904.925000", "133905.385000", "133905.845000", "133906.305000", "133906.765000", "133907.225000", "133907.685000", "133908.145000", "133908.605000", "133909.065000", "133909.525000", "133909.985000", "133910.445000", "133910.905000", "133911.365000", "133911.825000", "133912.285000", "133912.745000", "133913.205000", "133913.665000", "133914.125000", "133914.585000", "133915.045000", "133915.505000", "133915.965000", "133916.425000", "133916.885000", "133917.345000", "133917.805000", "133918.265000", "133918.725000", "133919.185000", "133919.645000", "133920.105000", "133920.565000", "133921.025000", "133921.485000", "133921.945000", "133922.405000", "133922.865000", "133923.325000", "133923.785000", "133924.245000", "133924.705000", "133925.165000", "133925.625000", "133926.085000", "133926.545000", "133927.005000", "133927.465000", "133927.925000", "133928.385000", "133928.845000", "133929.305000", "133929.765000", "133930.225000", "133930.685000", "133931.145000", "133931.605000", "133932.065000", "133932.525000", "133932.985000", "133933.445000", "133933.905000", "133934.365000", "133934.825000", "133935.285000", "133935.745000", "133936.205000", "133936.665000", "133937.125000", "133937.585000", "133938.045000", "133938.505000", "133938.965000", "133939.425000", "133939.885000", "133940.345000", "133940.805000", "133941.265000", "133941.725000", "133942.185000", "133942.645000", "133943.105000", "133943.565000"],
