{
  "AcquisitionMatrixPE": 82,
  "AcquisitionNumber": 1,
  "AcquisitionTime": "13:29:7.315000",
  "BandwidthPerPixelPhaseEncode": 24.888,
  "BaseResolution": 82,
  "BodyPartExamined": "BRAIN",
  "ConsistencyInfo": "N4_VE11C_LATEST_20160120",
  "ConversionSoftware": "dcm2niix",
  "ConversionSoftwareVersion": "v1.0.20201102",
  "DerivedVendorReportedEchoSpacing": 0.00049,
  "DeviceSerialNumber": "66112",
  "DwellTime": 2e-06,
  "EchoTime": 0.0272,
  "EchoTrainLength": 82,
  "EffectiveEchoSpacing": 0.00049,
  "FlipAngle": 44,
  "ImageComments": "Unaliased MB8/PE3",
  "ImageOrientationPatientDICOM": [0.999832, 0.0142515, 0.0115182, -0.0144848, 0.999686, 0.0204339],
  "ImageType": [
    "ORIGINAL",
    "PRIMARY",
    "M",
    "MB",
    "ND",
    "NORM",
    "MOSAIC"
],
  "ImagingFrequency": 123.252,
  "InPlanePhaseEncodingDirectionDICOM": "COL",
  "InstitutionAddress": "Maynard 3,Hanover,NH,US,03755",
  "InstitutionName": "Dartmouth College - PBS",
  "InstitutionalDepartmentName": "Department",
  "MRAcquisitionType": "2D",
  "MagneticFieldStrength": 3,
  "Manufacturer": "Siemens",
  "ManufacturersModelName": "Prisma",
  "Modality": "MR",
  "MultibandAccelerationFactor": 8,
  "PartialFourier": 1,
  "PatientPosition": "HFS",
  "PercentPhaseFOV": 100,
  "PercentSampling": 100,
  "PhaseEncodingDirection": "j-",
  "PhaseEncodingSteps": 82,
  "PhaseResolution": 1,
  "PixelBandwidth": 3050,
  "ProcedureStepDescription": "Wager_Wager^1076_spacetop",
  "ProtocolName": "func_run-06_task-social_acq-ap-mb8",
  "PulseSequenceDetails": "%CustomerSeq%\\cmrr_mbep2d_bold",
  "ReceiveCoilActiveElements": "HEA;HEP",
  "ReceiveCoilName": "Head_32",
  "ReconMatrixPE": 82,
  "RepetitionTime": 0.46,
  "SAR": 0.0828612,
  "ScanOptions": "FS",
  "ScanningSequence": "EP",
  "SequenceName": "epfid2d1_82",
  "SequenceVariant": "SK\\SS",
  "SeriesDescription": "func_run-06_task-social_acq-ap-mb8",
  "SeriesNumber": 22,
  "ShimSetting": [4159, -7707, -7339, 608, -15, -107, 24, 70],
  "SliceThickness": 2.7,
  "SliceTiming": [0, 0.2525, 0.0625, 0.315, 0.125, 0.3775, 0.1875, 0, 0.2525, 0.0625, 0.315, 0.125, 0.3775, 0.1875, 0, 0.2525, 0.0625, 0.315, 0.125, 0.3775, 0.1875, 0, 0.2525, 0.0625, 0.315, 0.125, 0.3775, 0.1875, 0, 0.2525, 0.0625, 0.315, 0.125, 0.3775, 0.1875, 0, 0.2525, 0.0625, 0.315, 0.125, 0.3775, 0.1875, 0, 0.2525, 0.0625, 0.315, 0.125, 0.3775, 0.1875, 0, 0.2525, 0.0625, 0.315, 0.125, 0.3775, 0.1875],
  "SoftwareVersions": "syngo MR E11",
  "SpacingBetweenSlices": 2.7,
  "StationName": "AWP66112",
  "TaskName": "social",
  "TotalReadoutTime": 0.03969,
  "TxRefAmp": 238.201,
  "WipMemBlock": "c0775aa6-85a4-4709-aa1c-ec2b8a9fb0eb||Sequence: R016 ve11c/master r/e634e98; Dec 19 2017 11:00:25 by eja",
  "dcmmeta_affine": [
    [-2.68247652053833, -0.03886178880929947, 0.030303185805678368, 113.15691375732422],
    [-0.038235802203416824, 2.6820852756500244, 0.05561276525259018, -96.34735107421875],
    [0.030902570113539696, -0.05482269078493118, 2.6992571353912354, -83.59440612792969],
    [0.0, 0.0, 0.0, 1.0]
],
  "dcmmeta_reorient_transform": [
    [0.0, -1.0, 0.0, 81.0],
    [1.0, 0.0, 0.0, 0.0],
    [0.0, 0.0, 1.0, 0.0],
    [0.0, 0.0, 0.0, 1.0]
],
  "dcmmeta_shape": [82, 82, 56, 872],
  "dcmmeta_slice_dim": 2,
  "dcmmeta_version": 0.6,
  "global": {
    "const": {
      "AccessionNumber": "A003483",
      "AcquisitionMatrix": [82, 0, 0, 82],
      "AngioFlag": "N",
      "BitsAllocated": 16,
      "BitsStored": 16,
      "BodyPartExamined": "BRAIN",
      "Columns": 656,
      "EchoNumbers": 1,
      "EchoTime": 27.2,
      "EchoTrainLength": 82,
      "FlipAngle": 44.0,
      "HighBit": 15,
      "ImageOrientationPatient": [0.99983209810346, 0.01425152534126, 0.01151823022365, -0.0144848487793, 0.9996862730036, 0.0204339111285],
      "ImagePositionPatient": [-868.72650512032, -901.63367390005, -112.63819450852],
      "ImageType": [
        "ORIGINAL",
        "PRIMARY",
        "M",
        "MB",
        "ND",
        "NORM",
        "MOSAIC"
],
      "ImagedNucleus": "1H",
      "ImagingFrequency": 123.252184,
      "InPlanePhaseEncodingDirection": "COL",
      "MRAcquisitionType": "2D",
      "MagneticFieldStrength": 3.0,
      "Manufacturer": "SIEMENS",
      "ManufacturerModelName": "Prisma",
      "Modality": "MR",
      "NumberOfAverages": 1.0,
      "NumberOfPhaseEncodingSteps": 82,
      "PercentPhaseFieldOfView": 100.0,
      "PercentSampling": 100.0,
      "PerformedProcedureStepStartTime": "121040.272000",
      "PhotometricInterpretation": "MONOCHROME2",
      "PixelBandwidth": 3050.0,
      "PixelRepresentation": 0,
      "PixelSpacing": [2.6829268932343, 2.6829268932343],
      "ProtocolName": "func_run-06_task-social_acq-ap-mb8",
      "RepetitionTime": 460.0,
      "Rows": 656,
      "SAR": 0.08286122944032,
      "SamplesPerPixel": 1,
      "ScanOptions": "FS",
      "ScanningSequence": "EP",
      "SequenceName": "epfid2d1_82",
      "SequenceVariant": [
        "SK",
        "SS"
],
      "SeriesDescription": "func_run-06_task-social_acq-ap-mb8",
      "SeriesNumber": 22,
      "SeriesTime": "132933.551000",
      "SliceLocation": -84.285898307058,
      "SliceThickness": 2.7000000476837,
      "SmallestImagePixelValue": 0,
      "SoftwareVersions": "syngo MR E11",
      "SpacingBetweenSlices": 2.6999999967841,
      "SpecificCharacterSet": "ISO_IR 100",
      "StudyID": "1",
      "StudyTime": "121040.187000",
      "TransmitCoilName": "Body",
      "VariableFlipAngleFlag": "N",
      "WindowCenterWidthExplanation": "Algo1",
      "dBdt": 0.0},
    "slices": {}
  },
  "time": {
    "samples": {
      "AcquisitionNumber": [1, 2, 3, 4, 5, 6, 7, 8, 9, 10, 11, 12, 13, 14, 15, 16, 17, 18, 19, 20, 21, 22, 23, 24, 25, 26, 27, 28, 29, 30, 31, 32, 33, 34, 35, 36, 37, 38, 39, 40, 41, 42, 43, 44, 45, 46, 47, 48, 49, 50, 51, 52, 53, 54, 55, 56, 57, 58, 59, 60, 61, 62, 63, 64, 65, 66, 67, 68, 69, 70, 71, 72, 73, 74, 75, 76, 77, 78, 79, 80, 81, 82, 83, 84, 85, 86, 87, 88, 89, 90, 91, 92, 93, 94, 95, 96, 97, 98, 99, 100, 101, 102, 103, 104, 105, 106, 107, 108, 109, 110, 111, 112, 113, 114, 115, 116, 117, 118, 119, 120, 121, 122, 123, 124, 125, 126, 127, 128, 129, 130, 131, 132, 133, 134, 135, 136, 137, 138, 139, 140, 141, 142, 143, 144, 145, 146, 147, 148, 149, 150, 151, 152, 153, 154, 155, 156, 157, 158, 159, 160, 161, 162, 163, 164, 165, 166, 167, 168, 169, 170, 171, 172, 173, 174, 175, 176, 177, 178, 179, 180, 181, 182, 183, 184, 185, 186, 187, 188, 189, 190, 191, 192, 193, 194, 195, 196, 197, 198, 199, 200, 201, 202, 203, 204, 205, 206, 207, 208, 209, 210, 211, 212, 213, 214, 215, 216, 217, 218, 219, 220, 221, 222, 223, 224, 225, 226, 227, 228, 229, 230, 231, 232, 233, 234, 235, 236, 237, 238, 239, 240, 241, 242, 243, 244, 245, 246, 247, 248, 249, 250, 251, 252, 253, 254, 255, 256, 257, 258, 259, 260, 261, 262, 263, 264, 265, 266, 267, 268, 269, 270, 271, 272, 273, 274, 275, 276, 277, 278, 279, 280, 281, 282, 283, 284, 285, 286, 287, 288, 289, 290, 291, 292, 293, 294, 295, 296, 297, 298, 299, 300, 301, 302, 303, 304, 305, 306, 307, 308, 309, 310, 311, 312, 313, 314, 315, 316, 317, 318, 319, 320, 321, 322, 323, 324, 325, 326, 327, 328, 329, 330, 331, 332, 333, 334, 335, 336, 337, 338, 339, 340, 341, 342, 343, 344, 345, 346, 347, 348, 349, 350, 351, 352, 353, 354, 355, 356, 357, 358, 359, 360, 361, 362, 363, 364, 365, 366, 367, 368, 369, 370, 371, 372, 373, 374, 375, 376, 377, 378, 379, 380, 381, 382, 383, 384, 385, 386, 387, 388, 389, 390, 391, 392, 393, 394, 395, 396, 397, 398, 399, 400, 401, 402, 403, 404, 405, 406, 407, 408, 409, 410, 411, 412, 413, 414, 415, 416, 417, 418, 419, 420, 421, 422, 423, 424, 425, 426, 427, 428, 429, 430, 431, 432, 433, 434, 435, 436, 437, 438, 439, 440, 441, 442, 443, 444, 445, 446, 447, 448, 449, 450, 451, 452, 453, 454, 455, 456, 457, 458, 459, 460, 461, 462, 463, 464, 465, 466, 467, 468, 469, 470, 471, 472, 473, 474, 475, 476, 477, 478, 479, 480, 481, 482, 483, 484, 485, 486, 487, 488, 489, 490, 491, 492, 493, 494, 495, 496, 497, 498, 499, 500, 501, 502, 503, 504, 505, 506, 507, 508, 509, 510, 511, 512, 513, 514, 515, 516, 517, 518, 519, 520, 521, 522, 523, 524, 525, 526, 527, 528, 529, 530, 531, 532, 533, 534, 535, 536, 537, 538, 539, 540, 541, 542, 543, 544, 545, 546, 547, 548, 549, 550, 551, 552, 553, 554, 555, 556, 557, 558, 559, 560, 561, 562, 563, 564, 565, 566, 567, 568, 569, 570, 571, 572, 573, 574, 575, 576, 577, 578, 579, 580, 581, 582, 583, 584, 585, 586, 587, 588, 589, 590, 591, 592, 593, 594, 595, 596, 597, 598, 599, 600, 601, 602, 603, 604, 605, 606, 607, 608, 609, 610, 611, 612, 613, 614, 615, 616, 617, 618, 619, 620, 621, 622, 623, 624, 625, 626, 627, 628, 629, 630, 631, 632, 633, 634, 635, 636, 637, 638, 639, 640, 641, 642, 643, 644, 645, 646, 647, 648, 649, 650, 651, 652, 653, 654, 655, 656, 657, 658, 659, 660, 661, 662, 663, 664, 665, 666, 667, 668, 669, 670, 671, 672, 673, 674, 675, 676, 677, 678, 679, 680, 681, 682, 683, 684, 685, 686, 687, 688, 689, 690, 691, 692, 693, 694, 695, 696, 697, 698, 699, 700, 701, 702, 703, 704, 705, 706, 707, 708, 709, 710, 711, 712, 713, 714, 715, 716, 717, 718, 719, 720, 721, 722, 723, 724, 725, 726, 727, 728, 729, 730, 731, 732, 733, 734, 735, 736, 737, 738, 739, 740, 741, 742, 743, 744, 745, 746, 747, 748, 749, 750, 751, 752, 753, 754, 755, 756, 757, 758, 759, 760, 761, 762, 763, 764, 765, 766, 767, 768, 769, 770, 771, 772, 773, 774, 775, 776, 777, 778, 779, 780, 781, 782, 783, 784, 785, 786, 787, 788, 789, 790, 791, 792, 793, 794, 795, 796, 797, 798, 799, 800, 801, 802, 803, 804, 805, 806, 807, 808, 809, 810, 811, 812, 813, 814, 815, 816, 817, 818, 819, 820, 821, 822, 823, 824, 825, 826, 827, 828, 829, 830, 831, 832, 833, 834, 835, 836, 837, 838, 839, 840, 841, 842, 843, 844, 845, 846, 847, 848, 849, 850, 851, 852, 853, 854, 855, 856, 857, 858, 859, 860, 861, 862, 863, 864, 865, 866, 867, 868, 869, 870, 871, 872],
      "AcquisitionTime": ["132907.315000", "132907.775000", "132908.235000", "132908.695000", "132909.155000", "132909.615000", "132910.075000", "132910.535000", "132910.995000", "132911.455000", "132911.915000", "132912.375000", "132912.835000", "132913.295000", "132913.755000", "132914.215000", "132914.675000", "132915.135000", "132915.595000", "132916.055000", "132916.515000", "132916.975000", "132917.435000", "132917.895000", "132918.355000", "132918.815000", "132919.275000", "132919.735000", "132920.195000", "132920.655000", "132921.115000", "132921.575000", "132922.035000", "132922.495000", "132922.955000", "132923.415000", "132923.875000", "132924.335000", "132924.795000", "132925.255000", "132925.715000", "132926.175000", "132926.635000", "132927.095000", "132927.555000", "132928.015000", "132928.475000", "132928.935000", "132929.395000", "132929.855000", "132930.315000", "132930.775000", "132931.235000", "132931.695000", "132932.155000", "132932.615000", "132933.075000", "132933.535000", "132933.995000", "132934.455000", "132934.915000", "132935.375000", "132935.835000", "132936.295000", "132936.755000", "132937.215000", "132937.675000", "132938.135000", "132938.595000", "132939.055000", "132939.515000", "132939.975000", "132940.435000", "132940.895000", "132941.355000", "132941.815000", "132942.275000", "132942.735000", "132943.195000", "132943.655000", "132944.115000", "132944.575000", "132945.035000", "132945.495000", "132945.955000", "132946.415000", "132946.875000", "132947.335000", "132947.795000", "132948.255000", "132948.715000", "132949.175000", "132949.635000", "132950.095000", "132950.555000", "132951.015000", "132951.475000", "132951.935000", "132952.395000", "132952.855000", "132953.315000", "132953.775000", "132954.235000", "132954.695000", "132955.155000", "132955.615000", "132956.075000", "132956.535000", "132956.995000", "132957.455000", "132957.915000", "132958.375000", "132958.835000", "132959.295000", "132959.755000", "133000.215000", "133000.675000", "133001.135000", "133001.595000", "133002.055000", "133002.515000", "133002.975000", "133003.435000", "133003.895000", "133004.355000", "133004.815000", "133005.275000", "133005.735000", "133006.195000", "133006.655000", "133007.115000", "133007.575000", "133008.035000", "133008.495000", "133008.955000", "133009.415000", "133009.875000", "133010.335000", "133010.795000", "133011.255000", "133011.715000", "133012.175000", "133012.635000", "133013.095000", "133013.555000", "133014.015000", "133014.475000", "133014.935000", "133015.395000", "133015.855000", "133016.315000", "133016.775000", "133017.235000", "133017.695000", "133018.155000", "133018.615000", "133019.075000", "133019.535000", "133019.995000", "133020.455000", "133020.915000", "133021.375000", "133021.835000", "133022.295000", "133022.755000", "133023.215000", "133023.675000", "133024.135000", "133024.595000", "133025.055000", "133025.515000", "133025.975000", "133026.435000", "133026.895000", "133027.355000", "133027.815000", "133028.275000", "133028.735000", "133029.195000", "133029.655000", "133030.115000", "133030.575000", "133031.035000", "133031.495000", "133031.955000", "133032.415000", "133032.875000", "133033.335000", "133033.795000", "133034.255000", "133034.715000", "133035.175000", "133035.635000", "133036.095000", "133036.555000", "133037.015000", "133037.475000", "133037.935000", "133038.395000", "133038.855000", "133039.315000", "133039.775000", "133040.235000", "133040.695000", "133041.155000", "133041.615000", "133042.075000", "133042.535000", "133042.995000", "133043.455000", "133043.915000", "133044.375000", "133044.835000", "133045.295000", "133045.755000", "133046.215000", "133046.675000", "133047.135000", "133047.595000", "133048.055000", "133048.515000", "133048.975000", "133049.435000", "133049.895000", "133050.355000", "133050.815000", "133051.275000", "133051.735000", "133052.195000", "133052.655000", "133053.115000", "133053.575000", "133054.035000", "133054.495000", "133054.955000", "133055.415000", "133055.875000", "133056.335000", "133056.795000", "133057.255000", "133057.715000", "133058.175000", "133058.635000", "133059.095000", "133059.555000", "133100.015000", "133100.475000", "133100.935000", "133101.395000", "133101.855000", "133102.315000", "133102.775000", "133103.235000", "133103.695000", "133104.155000", "133104.615000", "133105.075000", "133105.535000", "133105.995000", "133106.455000", "133106.915000", "133107.375000", "133107.835000", "133108.295000", "133108.755000", "133109.215000", "133109.675000", "133110.135000", "133110.595000", "133111.055000", "133111.515000", "133111.975000", "133112.435000", "133112.895000", "133113.355000", "133113.815000", "133114.275000", "133114.735000", "133115.195000", "133115.655000", "133116.115000", "133116.575000", "133117.035000", "133117.495000", "133117.955000", "133118.415000", "133118.875000", "133119.335000", "133119.795000", "133120.255000", "133120.715000", "133121.175000", "133121.635000", "133122.095000", "133122.555000", "133123.015000", "133123.475000", "133123.935000", "133124.395000", "133124.855000", "133125.315000", "133125.775000", "133126.235000", "133126.695000", "133127.155000", "133127.615000", "133128.075000", "133128.535000", "133128.995000", "133129.455000", "133129.915000", "133130.375000", "133130.835000", "133131.295000", "133131.755000", "133132.215000", "133132.675000", "133133.135000", "133133.595000", "133134.055000", "133134.515000", "133134.975000", "133135.435000", "133135.895000", "133136.355000", "133136.815000", "133137.275000", "133137.735000", "133138.195000", "133138.655000", "133139.115000", "133139.575000", "133140.035000", "133140.495000", "133140.955000", "133141.415000", "133141.875000", "133142.335000", "133142.795000", "133143.255000", "133143.715000", "133144.175000", "133144.635000", "133145.095000", "133145.555000", "133146.015000", "133146.475000", "133146.935000", "133147.395000", "133147.855000", "133148.315000", "133148.775000", "133149.235000", "133149.695000", "133150.155000", "133150.615000", "133151.075000", "133151.535000", "133151.995000", "133152.455000", "133152.915000", "133153.375000", "133153.835000", "133154.295000", "133154.755000", "133155.215000", "133155.675000", "133156.135000", "133156.595000", "133157.055000", "133157.515000", "133157.975000", "133158.435000", "133158.895000", "133159.355000", "133159.815000", "133200.275000", "133200.735000", "133201.195000", "133201.655000", "133202.115000", "133202.575000", "133203.035000", "133203.495000", "133203.955000", "133204.415000", "133204.875000", "133205.335000", "133205.795000", "133206.255000", "133206.715000", "133207.175000", "133207.635000", "133208.095000", "133208.555000", "133209.015000", "133209.475000", "133209.935000", "133210.395000", "133210.855000", "133211.315000", "133211.775000", "133212.235000", "133212.695000", "133213.155000", "133213.615000", "133214.075000", "133214.535000", "133214.995000", "133215.455000", "133215.915000", "133216.375000", "133216.835000", "133217.295000", "133217.755000", "133218.215000", "133218.675000", "133219.135000", "133219.595000", "133220.055000", "133220.515000", "133220.975000", "133221.435000", "133221.895000", "133222.355000", "133222.815000", "133223.275000", "133223.735000", "133224.195000", "133224.655000", "133225.115000", "133225.575000", "133226.035000", "133226.495000", "133226.955000", "133227.415000", "133227.875000", "133228.335000", "133228.795000", "133229.255000", "133229.715000", "133230.175000", "133230.635000", "133231.095000", "133231.555000", "133232.015000", "133232.475000", "133232.935000", "133233.395000", "133233.855000", "133234.315000", "133234.775000", "133235.235000", "133235.695000", "133236.155000", "133236.615000", "133237.075000", "133237.535000", "133237.995000", "133238.455000", "133238.915000", "133239.375000", "133239.835000", "133240.295000", "133240.755000", "133241.215000", "133241.675000", "133242.135000", "133242.595000", "133243.055000", "133243.515000", "133243.975000", "133244.435000", "133244.895000", "133245.355000", "133245.815000", "133246.275000", "133246.735000", "133247.195000", "133247.655000", "133248.115000", "133248.575000", "133249.035000", "133249.495000", "133249.955000", "133250.415000", "133250.875000", "133251.335000", "133251.795000", "133252.255000", "133252.715000", "133253.175000", "133253.635000", "133254.095000", "133254.555000", "133255.015000", "133255.475000", "133255.935000", "133256.395000", "133256.855000", "133257.315000", "133257.775000", "133258.235000", "133258.695000", "133259.155000", "133259.615000", "133300.075000", "133300.535000", "133300.995000", "133301.455000", "133301.915000", "133302.375000", "133302.835000", "133303.295000", "133303.755000", "133304.215000", "133304.675000", "133305.135000", "133305.595000", "133306.055000", "133306.515000", "133306.975000", "133307.435000", "133307.895000", "133308.355000", "133308.815000", "133309.275000", "133309.735000", "133310.195000", "133310.655000", "133311.115000", "133311.575000", "133312.035000", "133312.495000", "133312.955000", "133313.415000", "133313.875000", "133314.335000", "133314.795000", "133315.255000", "133315.715000", "133316.175000", "133316.635000", "133317.095000", "133317.555000", "133318.015000", "133318.475000", "133318.935000", "133319.395000", "133319.855000", "133320.315000", "133320.775000", "133321.235000", "133321.695000", "133322.155000", "133322.615000", "133323.075000", "133323.535000", "133323.995000", "133324.455000", "133324.915000", "133325.375000", "133325.835000", "133326.295000", "133326.755000", "133327.215000", "133327.675000", "133328.135000", "133328.595000", "133329.055000", "133329.515000", "133329.975000", "133330.435000", "133330.895000", "133331.355000", "133331.815000", "133332.275000", "133332.735000", "133333.195000", "133333.655000", "133334.115000", "133334.575000", "133335.035000", "133335.495000", "133335.955000", "133336.415000", "133336.875000", "133337.335000", "133337.795000", "133338.255000", "133338.715000", "133339.175000", "133339.635000", "133340.095000", "133340.555000", "133341.015000", "133341.475000", "133341.935000", "133342.395000", "133342.855000", "133343.315000", "133343.775000", "133344.235000", "133344.695000", "133345.155000", "133345.615000", "133346.075000", "133346.535000", "133346.995000", "133347.455000", "133347.915000", "133348.375000", "133348.835000", "133349.295000", "133349.755000", "133350.215000", "133350.675000", "133351.135000", "133351.595000", "133352.055000", "133352.515000", "133352.975000", "133353.435000", "133353.895000", "133354.355000", "133354.815000", "133355.275000", "133355.735000", "133356.195000", "133356.655000", "133357.115000", "133357.575000", "133358.035000", "133358.495000", "133358.955000", "133359.415000", "133359.875000", "133400.335000", "133400.795000", "133401.255000", "133401.715000", "133402.175000", "133402.635000", "133403.095000", "133403.555000", "133404.015000", "133404.475000", "133404.935000", "133405.395000", "133405.855000", "133406.315000", "133406.775000", "133407.235000", "133407.695000", "133408.155000", "133408.615000", "133409.075000", "133409.535000", "133409.995000", "133410.455000", "133410.915000", "133411.375000", "133411.835000", "133412.295000", "133412.755000", "133413.215000", "133413.675000", "133414.135000", "133414.595000", "133415.055000", "133415.515000", "133415.975000", "133416.435000", "133416.895000", "133417.355000", "133417.815000", "133418.275000", "133418.735000", "133419.195000", "133419.655000", "133420.115000", "133420.575000", "133421.035000", "133421.495000", "133421.955000", "133422.415000", "133422.875000", "133423.335000", "133423.795000", "133424.255000", "133424.715000", "133425.175000", "133425.635000", "133426.095000", "133426.555000", "133427.015000", "133427.475000", "133427.935000", "133428.395000", "133428.855000", "133429.315000", "133429.775000", "133430.235000", "133430.695000", "133431.155000", "133431.615000", "133432.075000", "133432.535000", "133432.995000", "133433.455000", "133433.915000", "133434.375000", "133434.835000", "133435.295000", "133435.755000", "133436.215000", "133436.675000", "133437.135000", "133437.595000", "133438.055000", "133438.515000", "133438.975000", "133439.435000", "133439.895000", "133440.355000", "133440.815000", "133441.275000", "133441.735000", "133442.195000", "133442.655000", "133443.115000", "133443.575000", "133444.035000", "133444.495000", "133444.955000", "133445.415000", "133445.875000", "133446.335000", "133446.795000", "133447.255000", "133447.715000", "133448.175000", "133448.635000", "133449.095000", "133449.555000", "133450.015000", "133450.475000", "133450.935000", "133451.395000", "133451.855000", "133452.315000", "133452.775000", "133453.235000", "133453.695000", "133454.155000", "133454.615000", "133455.075000", "133455.535000", "133455.995000", "133456.455000", "133456.915000", "133457.375000", "133457.835000", "133458.295000", "133458.755000", "133459.215000", "133459.675000", "133500.135000", "133500.595000", "133501.055000", "133501.515000", "133501.975000", "133502.435000", "133502.895000", "133503.355000", "133503.815000", "133504.275000", "133504.735000", "133505.195000", "133505.655000", "133506.115000", "133506.575000", "133507.035000", "133507.495000", "133507.955000", "133508.415000", "133508.875000", "133509.335000", "133509.795000", "133510.255000", "133510.715000", "133511.175000", "133511.635000", "133512.095000", "133512.555000", "133513.015000", "133513.475000", "133513.935000", "133514.395000", "133514.855000", "133515.315000", "133515.775000", "133516.235000", "133516.695000", "133517.155000", "133517.615000", "133518.075000", "133518.535000", "133518.995000", "133519.455000", "133519.915000", "133520.375000", "133520.835000", "133521.295000", "133521.755000", "133522.215000", "133522.675000", "133523.135000", "133523.595000", "133524.055000", "133524.515000", "133524.975000", "133525.435000", "133525.895000", "133526.355000", "133526.815000", "133527.275000", "133527.735000", "133528.195000", "133528.655000", "133529.115000", "133529.575000", "133530.035000", "133530.495000", "133530.955000", "133531.415000", "133531.875000", "133532.335000", "133532.795000", "133533.255000", "133533.715000", "133534.175000", "133534.635000", "133535.095000", "133535.555000", "133536.015000", "133536.475000", "133536.935000", "133537.395000", "133537.855000", "133538.315000", "133538.775000", "133539.235000", "133539.695000", "133540.155000", "133540.615000", "133541.075000", "133541.535000", "133541.995000", "133542.455000", "133542.915000", "133543.375000", "133543.835000", "133544.295000", "133544.755000", "133545.215000", "133545.675000", "133546.135000", "133546.595000", "133547.055000", "133547.515000", "133547.975000"],
