{
  "AcquisitionMatrixPE": 140,
  "AcquisitionNumber": 1,
  "AcquisitionTime": "09:51:39.095000",
  "BandwidthPerPixelPhaseEncode": 10.352,
  "BaseResolution": 140,
  "BodyPartExamined": "BRAIN",
  "ConsistencyInfo": "N4_VE11C_LATEST_20160120",
  "ConversionSoftware": "dcm2niix",
  "ConversionSoftwareVersion": "v1.0.20201102",
  "DerivedVendorReportedEchoSpacing": 0.000689998,
  "DeviceSerialNumber": "66112",
  "DiffusionScheme": "Monopolar",
  "DwellTime": 2.1e-06,
  "EchoTime": 0.0884,
  "EchoTrainLength": 105,
  "EffectiveEchoSpacing": 0.000689998,
  "FlipAngle": 90,
  "ImageComments": "Unaliased MB3/PE3 SENSE1",
  "ImageOrientationPatientDICOM": [0.999404, -0.0280293, 0.0201457, 0.0280904, 0.999602, -0.0027581],
  "ImageType": [
    "ORIGINAL",
    "PRIMARY",
    "DIFFUSION",
    "NONE",
    "MB",
    "ND",
    "MOSAIC"
],
  "ImagingFrequency": 123.252,
  "InPlanePhaseEncodingDirectionDICOM": "COL",
  "InstitutionAddress": "Maynard 3,Hanover,NH,US,03755",
  "InstitutionName": "dartmouth_brain_imaging_center",
  "InstitutionalDepartmentName": "Department",
  "MRAcquisitionType": "2D",
  "MagneticFieldStrength": 3,
  "Manufacturer": "Siemens",
  "ManufacturersModelName": "Prisma",
  "Modality": "MR",
  "MultibandAccelerationFactor": 3,
  "PartialFourier": 0.75,
  "PatientPosition": "HFS",
  "PercentPhaseFOV": 100,
  "PercentSampling": 100,
  "PhaseEncodingDirection": "j-",
  "PhaseEncodingSteps": 105,
  "PhaseResolution": 1,
  "PixelBandwidth": 1700,
  "ProcedureStepDescription": "Wager_Wager^1076_spacetop",
  "ProtocolName": "dwi_acq-96dir-6b0-mb",
  "PulseSequenceDetails": "%CustomerSeq%\\cmrr_mbep2d_diff",
  "ReceiveCoilActiveElements": "HEA;HEP",
  "ReceiveCoilName": "Head_32",
  "ReconMatrixPE": 140,
  "RepetitionTime": 4.11,
  "SAR": 0.247705,
  "ScanOptions": "PFP\\FS",
  "ScanningSequence": "EP",
  "SequenceName": "ep_b5#1",
  "SequenceVariant": "SK\\SS",
  "SeriesDescription": "dwi_acq-96dir-6b0-mb",
  "SeriesNumber": 8,
  "ShimSetting": [4136, -7743, -7210, 596, -179, -88, 65, 41],
  "SliceThickness": 1.7,
  "SliceTiming": [0, 2.1225, 0.1525, 2.2725, 0.3025, 2.425, 0.455, 2.575, 0.6075, 2.7275, 0.7575, 2.88, 0.91, 3.03, 1.06, 3.1825, 1.2125, 3.3325, 1.365, 3.485, 1.515, 3.635, 1.6675, 3.7875, 1.8175, 3.94, 1.97, 0, 2.1225, 0.1525, 2.2725, 0.3025, 2.425, 0.455, 2.575, 0.6075, 2.7275, 0.7575, 2.88, 0.91, 3.03, 1.06, 3.1825, 1.2125, 3.3325, 1.365, 3.485, 1.515, 3.635, 1.6675, 3.7875, 1.8175, 3.94, 1.97, 0, 2.1225, 0.1525, 2.2725, 0.3025, 2.425, 0.455, 2.575, 0.6075, 2.7275, 0.7575, 2.88, 0.91, 3.03, 1.06, 3.1825, 1.2125, 3.3325, 1.365, 3.485, 1.515, 3.635, 1.6675, 3.7875, 1.8175, 3.94, 1.97],
  "SoftwareVersions": "syngo MR E11",
  "SpacingBetweenSlices": 1.7,
  "StationName": "AWP66112",
  "TotalReadoutTime": 0.0959097,
  "TxRefAmp": 248.235,
  "WipMemBlock": "d746e6be-48de-45cd-9146-a1ddb4d07180||Sequence: R016 ve11c/master r/e634e98; Dec 19 2017 11:11:25 by eja",
  "dcmmeta_affine": [
    [-1.7132641077041626, 0.04815501347184181, 0.0341026671230793, 120.54935455322266],
    [0.048050206154584885, 1.7136027812957764, -0.005648016929626465, -95.21409606933594],
    [0.03453553467988968, 0.004728179425001144, 1.6996484994888306, -43.99264907836914],
    [0.0, 0.0, 0.0, 1.0]
],
  "dcmmeta_reorient_transform": [
    [0.0, -1.0, 0.0, 139.0],
    [1.0, 0.0, 0.0, 0.0],
    [0.0, 0.0, 1.0, 0.0],
    [0.0, 0.0, 0.0, 1.0]
],
  "dcmmeta_shape": [140, 140, 81, 103],
  "dcmmeta_slice_dim": 2,
  "dcmmeta_version": 0.6,
  "global": {
    "const": {
      "AccessionNumber": "A003495",
      "AcquisitionMatrix": [140, 0, 0, 140],
      "AngioFlag": "N",
      "BitsAllocated": 16,
      "BitsStored": 16,
      "BodyPartExamined": "BRAIN",
      "Columns": 1260,
      "EchoNumbers": 1,
      "EchoTime": 88.4,
      "EchoTrainLength": 105,
      "FlipAngle": 90.0,
      "HighBit": 15,
      "ImageOrientationPatient": [0.99940407679626, -0.0280292870968, 0.02014572778172, 0.02809042345801, 0.99960158111583, -0.0027581045459],
      "ImagePositionPatient": [-1113.6376340445, -1075.6860922674, -60.027549907195],
      "ImageType": [
        "ORIGINAL",
        "PRIMARY",
        "DIFFUSION",
        "NONE",
        "MB",
        "ND",
        "MOSAIC"
],
      "ImagedNucleus": "1H",
      "ImagingFrequency": 123.252087,
      "InPlanePhaseEncodingDirection": "COL",
      "MRAcquisitionType": "2D",
      "MagneticFieldStrength": 3.0,
      "Manufacturer": "SIEMENS",
      "ManufacturerModelName": "Prisma",
      "Modality": "MR",
      "NumberOfAverages": 1.0,
      "NumberOfPhaseEncodingSteps": 105,
      "PercentPhaseFieldOfView": 100.0,
      "PercentSampling": 100.0,
      "PerformedProcedureStepStartTime": "091145.502000",
      "PhotometricInterpretation": "MONOCHROME2",
      "PixelBandwidth": 1700.0,
      "PixelRepresentation": 0,
      "PixelSpacing": [1.7142857313156, 1.7142857313156],
      "ProtocolName": "dwi_acq-96dir-6b0-mb",
      "RepetitionTime": 4110.0,
      "Rows": 1260,
      "SAR": 0.24770461595944,
      "SamplesPerPixel": 1,
      "ScanOptions": [
        "PFP",
        "FS"
],
      "ScanningSequence": "EP",
      "SequenceVariant": [
        "SK",
        "SS"
],
      "SeriesDescription": "dwi_acq-96dir-6b0-mb",
      "SeriesNumber": 8,
      "SeriesTime": "095313.881000",
      "SliceLocation": -41.248949514473,
      "SliceThickness": 1.7000000476837,
      "SmallestImagePixelValue": 0,
      "SoftwareVersions": "syngo MR E11",
      "SpacingBetweenSlices": 1.6999999508593,
      "SpecificCharacterSet": "ISO_IR 100",
      "StudyID": "1",
      "StudyTime": "091145.366000",
      "TransmitCoilName": "Body",
      "VariableFlipAngleFlag": "N",
      "WindowCenterWidthExplanation": "Algo1",
      "dBdt": 0.0},
    "slices": {}
  },
  "time": {
    "samples": {
      "AcquisitionNumber": [1, 2, 3, 4, 5, 6, 7, 8, 9, 10, 11, 12, 13, 14, 15, 16, 17, 18, 19, 20, 21, 22, 23, 24, 25, 26, 27, 28, 29, 30, 31, 32, 33, 34, 35, 36, 37, 38, 39, 40, 41, 42, 43, 44, 45, 46, 47, 48, 49, 50, 51, 52, 53, 54, 55, 56, 57, 58, 59, 60, 61, 62, 63, 64, 65, 66, 67, 68, 69, 70, 71, 72, 73, 74, 75, 76, 77, 78, 79, 80, 81, 82, 83, 84, 85, 86, 87, 88, 89, 90, 91, 92, 93, 94, 95, 96, 97, 98, 99, 100, 101, 102, 103],
      "AcquisitionTime": ["095139.095000", "095143.205000", "095147.315000", "095151.425000", "095155.535000", "095159.645000", "095203.755000", "095207.865000", "095211.975000", "095216.085000", "095220.195000", "095224.305000", "095228.415000", "095232.525000", "095236.635000", "095240.745000", "095244.855000", "095248.965000", "095253.075000", "095257.185000", "095301.295000", "095305.405000", "095309.515000", "095313.625000", "095317.735000", "095321.845000", "095325.955000", "095330.065000", "095334.175000", "095338.285000", "095342.395000", "095346.505000", "095350.615000", "095354.725000", "095358.835000", "095402.945000", "095407.055000", "095411.165000", "095415.275000", "095419.385000", "095423.495000", "095427.605000", "095431.715000", "095435.825000", "095439.935000", "095444.045000", "095448.155000", "095452.265000", "095456.375000", "095500.485000", "095504.595000", "095508.705000", "095512.815000", "095516.925000", "095521.035000", "095525.145000", "095529.255000", "095533.365000", "095537.475000", "095541.585000", "095545.695000", "095549.805000", "095553.915000", "095558.025000", "095602.135000", "095606.245000", "095610.355000", "095614.465000", "095618.575000", "095622.685000", "095626.795000", "095630.905000", "095635.015000", "095639.125000", "095643.235000", "095647.345000", "095651.455000", "095655.565000", "095659.675000", "095703.785000", "095707.895000", "095712.005000", "095716.115000", "095720.225000", "095724.335000", "095728.445000", "095732.555000", "095736.665000", "095740.775000", "095744.885000", "095748.995000", "095753.105000", "095757.215000", "095801.325000", "095805.435000", "095809.545000", "095813.655000", "095817.765000", "095821.875000", "095825.985000", "095830.095000", "095834.205000", "095838.315000"],
      "ContentTime": ["095313.892000", "095313.896000", "095313.900000", "095313.903000", "095313.906000", "095313.910000", "095313.913000", "095313.916000", "095313.924000", "095313.928000", "095313.931000", "095313.934000", "095313.938000", "095313.947000", "095313.951000", "095313.954000", "095313.957000", "095313.961000", "095313.964000", "095313.967000", "095313.971000", "095313.978000", "095433.853000", "095433.857000", "095433.860000", "095433.863000", "095433.867000", "095433.870000", "095433.873000", "095433.877000", "095433.880000", "095433.883000", "095433.887000", "095433.890000", "095433.893000", "095433.897000", "095433.900000", "095433.903000", "095433.907000", "095433.910000", "095433.923000", "095433.926000", "095613.853000", "095613.857000", "095613.860000", "095613.864000", "095613.867000", "095613.870000", "095613.873000", "095613.877000", "095613.880000", "095613.883000", "095613.887000", "095613.890000", "095613.893000", "095613.897000", "095613.900000", "095613.903000", "095613.907000", "095613.910000", "095613.913000", "095613.917000", "095613.920000", "095613.923000", "095613.927000", "095613.930000", "095733.853000", "095733.857000", "095733.860000", "095733.864000", "095733.867000", "095733.870000", "095733.874000", "095733.877000", "095733.880000", "095733.884000", "095733.887000", "095733.890000", "095733.893000", "095733.897000", "095733.900000", "095733.903000", "095733.907000", "095733.910000", "095733.914000", "095733.917000", "095843.302000", "095843.313000", "095843.316000", "095843.320000", "095843.324000", "095843.327000", "095843.331000", "095843.334000", "095843.338000", "095843.341000", "095843.345000", "095843.350000", "095843.353000", "095843.357000", "095843.360000", "095843.364000", "095843.367000"],
      "InstanceCreationTime": ["095313.892000", "095313.896000", "095313.900000", "095313.903000", "095313.906000", "095313.910000", "095313.913000", "095313.916000", "095313.924000", "095313.928000", "095313.931000", "095313.934000", "095313.938000", "095313.947000", "095313.951000", "095313.954000", "095313.957000", "095313.961000", "095313.964000", "095313.967000", "095313.971000", "095313.978000", "095433.853000", "095433.857000", "095433.860000", "095433.863000", "095433.867000", "095433.870000", "095433.873000", "095433.877000", "095433.880000", "095433.883000", "095433.887000", "095433.890000", "095433.893000", "095433.897000", "095433.900000", "095433.903000", "095433.907000", "095433.910000", "095433.923000", "095433.926000", "095613.853000", "095613.857000", "095613.860000", "095613.864000", "095613.867000", "095613.870000", "095613.873000", "095613.877000", "095613.880000", "095613.883000", "095613.887000", "095613.890000", "095613.893000", "095613.897000", "095613.900000", "095613.903000", "095613.907000", "095613.910000", "095613.913000", "095613.917000", "095613.920000", "095613.923000", "095613.927000", "095613.930000", "095733.853000", "095733.857000", "095733.860000", "095733.864000", "095733.867000", "095733.870000", "095733.874000", "095733.877000", "095733.880000", "095733.884000", "095733.887000", "095733.890000", "095733.893000", "095733.897000", "095733.900000", "095733.903000", "095733.907000", "095733.910000", "095733.914000", "095733.917000", "095843.302000", "095843.313000", "095843.316000", "095843.320000", "095843.324000", "095843.327000", "095843.331000", "095843.334000", "095843.338000", "095843.341000", "095843.345000", "095843.350000", "095843.353000", "095843.357000", "095843.360000", "095843.364000", "095843.367000"],
      "InstanceNumber": [1, 2, 3, 4, 5, 6, 7, 8, 9, 10, 11, 12, 13, 14, 15, 16, 17, 18, 19, 20, 21, 22, 23, 24, 25, 26, 27, 28, 29, 30, 31, 32, 33, 34, 35, 36, 37, 38, 39, 40, 41, 42, 43, 44, 45, 46, 47, 48, 49, 50, 51, 52, 53, 54, 55, 56, 57, 58, 59, 60, 61, 62, 63, 64, 65, 66, 67, 68, 69, 70, 71, 72, 73, 74, 75, 76, 77, 78, 79, 80, 81, 82, 83, 84, 85, 86, 87, 88, 89, 90, 91, 92, 93, 94, 95, 96, 97, 98, 99, 100, 101, 102, 103],
      "LargestImagePixelValue": [65535, 65535, 35186, 37287, 35939, 36627, 35100, 34763, 65535, 23492, 24620, 23575, 26138, 23955, 26155, 25221, 24897, 25699, 24392, 24295, 24177, 25125, 24614, 23028, 65535, 15032, 13483, 15020, 12924, 15381, 14499, 11819, 13642, 12851, 13642, 15248, 12659, 13311, 13071, 12644, 65535, 11193, 7634, 10315, 9389, 9188, 7005, 9356, 7322, 9551, 8561, 8438, 8233, 10156, 8785, 8530, 11365, 7184, 9358, 10065, 7022, 11470, 7651, 6854, 6899, 8688, 8421, 7437, 10230, 10682, 9972, 7804, 9043, 65535, 9100, 7572, 8725, 7117, 9089, 7807, 7900, 8501, 7623, 10040, 10114, 10479, 8448, 10143, 10235, 9583, 10939, 7714, 9041, 9856, 8809, 10781, 7484, 7397, 10350, 7232, 10201, 8023, 65535],
      "SequenceName": [
 "ep_b5#1",
 "ep_b5#1",
 "ep_b500#2",
 "ep_b495#3",
 "ep_b500#4",
 "ep_b505#5",
 "ep_b495#6",
 "ep_b500#7",
 "ep_b5#8",
 "ep_b1000#9",
 "ep_b1005#10",
 "ep_b995#11",
 "ep_b1005#12",
 "ep_b995#13",
 "ep_b995#14",
 "ep_b1005#15",
 "ep_b1000#16",
 "ep_b1005#17",
 "ep_b1000#18",
 "ep_b1000#19",
 "ep_b995#20",
 "ep_b1000#21",
 "ep_b1005#22",
 "ep_b1005#23",
 "ep_b5#24",
 "ep_b2000#25",
 "ep_b1995#26",
 "ep_b1990#27",
 "ep_b2000#28",
 "ep_b2005#29",
 "ep_b2010#30",
 "ep_b2000#31",
 "ep_b2010#32",
 "ep_b2000#33",
 "ep_b1995#34",
 "ep_b1995#35",
 "ep_b2005#36",
 "ep_b1995#37",
 "ep_b2005#38",
 "ep_b1995#39",
 "ep_b5#40",
 "ep_b3000#41",
 "ep_b3005#42",
 "ep_b3010#43",
 "ep_b3010#44",
 "ep_b3000#45",
 "ep_b3000#46",
 "ep_b2990#47",
 "ep_b3005#48",
 "ep_b3000#49",
 "ep_b2990#50",
 "ep_b2990#51",
 "ep_b2995#52",
 "ep_b2995#53",
 "ep_b3010#54",
 "ep_b3000#55",
 "ep_b2995#56",
 "ep_b2995#57",
 "ep_b2990#58",
 "ep_b2990#59",
 "ep_b3000#60",
 "ep_b2990#61",
 "ep_b2990#62",
 "ep_b2995#63",
 "ep_b3000#64",
 "ep_b3010#65",
 "ep_b3000#66",
 "ep_b3005#67",
 "ep_b3010#68",
 "ep_b3005#69",
 "ep_b3005#70",
 "ep_b3005#71",
 "ep_b2990#72",
 "ep_b5#73",
 "ep_b3010#74",
 "ep_b3005#75",
 "ep_b3005#76",
 "ep_b3000#77",
 "ep_b2990#78",
 "ep_b3005#79",
 "ep_b2995#80",
 "ep_b3010#81",
 "ep_b3005#82",
 "ep_b3005#83",
 "ep_b3000#84",
 "ep_b3000#85",
 "ep_b3010#86",
 "ep_b3010#87",
 "ep_b2990#88",
 "ep_b3010#89",
 "ep_b2995#90",
 "ep_b2995#91",
 "ep_b2990#92",
 "ep_b2995#93",
 "ep_b3005#94",
 "ep_b3005#95",
 "ep_b2995#96",
 "ep_b3000#97",
 "ep_b2990#98",
 "ep_b2995#99",
 "ep_b2995#100",
 "ep_b2995#101",
 "ep_b5#102"
],
      "WindowCenter": [10040.0, 10045.0, 6877.0, 6954.0, 6908.0, 6853.0, 6940.0, 6891.0, 10053.0, 5174.0, 5167.0, 5205.0, 5155.0, 5199.0, 5216.0, 5172.0, 5198.0, 5194.0, 5193.0, 5189.0, 5237.0, 5196.0, 5184.0, 5179.0, 10055.0, 3352.0, 3329.0, 3349.0, 3364.0, 3338.0, 3329.0, 3292.0, 3313.0, 3342.0, 3369.0, 3379.0, 3278.0, 3359.0, 3328.0, 3324.0, 10059.0, 2420.0, 2295.0, 2396.0, 2368.0, 2373.0, 2297.0, 2397.0, 2271.0, 2344.0, 2328.0, 2343.0, 2327.0, 2402.0, 2351.0, 2318.0, 2422.0, 2281.0, 2389.0, 2381.0, 2266.0, 2417.0, 2341.0, 2257.0, 2284.0, 2349.0, 2322.0, 2292.0, 2393.0, 2396.0, 2372.0, 2313.0, 2385.0, 10045.0, 2342.0, 2315.0, 2289.0, 2251.0, 2341.0, 2297.0, 2295.0, 2313.0, 2325.0, 2354.0, 2396.0, 2382.0, 2302.0, 2347.0, 2391.0, 2349.0, 2420.0, 2311.0, 2343.0, 2408.0, 2333.0, 2408.0, 2319.0, 2288.0, 2405.0, 2259.0, 2384.0, 2328.0, 10050.0],
      "WindowWidth": [22310.0, 22327.0, 14567.0, 14694.0, 14614.0, 14530.0, 14691.0, 14592.0, 22349.0, 11190.0, 11187.0, 11245.0, 11149.0, 11240.0, 11262.0, 11185.0, 11225.0, 11215.0, 11221.0, 11203.0, 11301.0, 11212.0, 11209.0, 11189.0, 22349.0, 7641.0, 7609.0, 7629.0, 7674.0, 7615.0, 7605.0, 7545.0, 7574.0, 7637.0, 7683.0, 7694.0, 7517.0, 7652.0, 7600.0, 7594.0, 22372.0, 5814.0, 5597.0, 5771.0, 5711.0, 5744.0, 5643.0, 5769.0, 5561.0, 5678.0, 5631.0, 5661.0, 5674.0, 5802.0, 5711.0, 5633.0, 5823.0, 5601.0, 5764.0, 5732.0, 5572.0, 5792.0, 5691.0, 5565.0, 5619.0, 5695.0, 5648.0, 5618.0, 5759.0, 5776.0, 5737.0, 5643.0, 5747.0, 22309.0, 5661.0, 5656.0, 5573.0, 5536.0, 5663.0, 5606.0, 5597.0, 5604.0, 5658.0, 5692.0, 5777.0, 5745.0, 5588.0, 5655.0, 5745.0, 5662.0, 5814.0, 5631.0, 5670.0, 5797.0, 5664.0, 5794.0, 5666.0, 5603.0, 5773.0, 5540.0, 5754.0, 5676.0, 22315.0]
    },
    "slices": {}
  }
}