{
  "AcquisitionMatrixPE": 140,
  "AcquisitionNumber": 1,
  "AcquisitionTime": "17:25:0.050000",
  "BandwidthPerPixelPhaseEncode": 10.352,
  "BaseResolution": 140,
  "BodyPartExamined": "BRAIN",
  "ConsistencyInfo": "N4_VE11E_LATEST_20181129",
  "ConversionSoftware": "dcm2niix",
  "ConversionSoftwareVersion": "v1.0.20201102",
  "DerivedVendorReportedEchoSpacing": 0.000689998,
  "DeviceSerialNumber": "66112",
  "DiffusionScheme": "Monopolar",
  "DwellTime": 2.1e-06,
  "EchoTime": 0.0884,
  "EchoTrainLength": 105,
  "EffectiveEchoSpacing": 0.000689998,
  "FlipAngle": 90,
  "ImageComments": "Unaliased MB3/PE3 SENSE1",
  "ImageOrientationPatientDICOM": [0.995602, -0.0855628, 0.038149, 0.0708417, 0.954079, 0.291057],
  "ImageType": [
    "ORIGINAL",
    "PRIMARY",
    "DIFFUSION",
    "NONE",
    "MB",
    "ND",
    "MOSAIC"
],
  "ImagingFrequency": 123.259,
  "InPlanePhaseEncodingDirectionDICOM": "COL",
  "InstitutionAddress": "Maynard 3,Hanover,NH,US,03755",
  "InstitutionName": "Dartmouth College - PBS",
  "InstitutionalDepartmentName": "Department",
  "MRAcquisitionType": "2D",
  "MagneticFieldStrength": 3,
  "Manufacturer": "Siemens",
  "ManufacturersModelName": "Prisma",
  "Modality": "MR",
  "MultibandAccelerationFactor": 3,
  "PartialFourier": 0.75,
  "PatientPosition": "HFS",
  "PercentPhaseFOV": 100,
  "PercentSampling": 100,
  "PhaseEncodingDirection": "j-",
  "PhaseEncodingSteps": 105,
  "PhaseResolution": 1,
  "PixelBandwidth": 1700,
  "ProcedureStepDescription": "Wager_Wager^1076_spacetop",
  "ProtocolName": "dwi_acq-96dir-6b0-mb",
  "PulseSequenceDetails": "%CustomerSeq%\\cmrr_mbep2d_diff",
  "ReceiveCoilActiveElements": "HEA;HEP",
  "ReceiveCoilName": "Head_32",
  "ReconMatrixPE": 140,
  "RepetitionTime": 4.11,
  "SAR": 0.217487,
  "ScanOptions": "PFP\\FS",
  "ScanningSequence": "EP",
  "SequenceName": "ep_b5#1",
  "SequenceVariant": "SK\\SS",
  "SeriesDescription": "dwi_acq-96dir-6b0-mb",
  "SeriesNumber": 8,
  "ShimSetting": [4229, -7768, -7250, 268, -103, 1, -43, 76],
  "SliceThickness": 1.7,
  "SliceTiming": [0, 2.12, 0.1525, 2.2725, 0.3025, 2.4225, 0.455, 2.575, 0.605, 2.7275, 0.7575, 2.8775, 0.91, 3.03, 1.06, 3.18, 1.2125, 3.3325, 1.3625, 3.485, 1.515, 3.635, 1.665, 3.7875, 1.8175, 3.9375, 1.97, 0, 2.12, 0.1525, 2.2725, 0.3025, 2.4225, 0.455, 2.575, 0.605, 2.7275, 0.7575, 2.8775, 0.91, 3.03, 1.06, 3.18, 1.2125, 3.3325, 1.3625, 3.485, 1.515, 3.635, 1.665, 3.7875, 1.8175, 3.9375, 1.97, 0, 2.12, 0.1525, 2.2725, 0.3025, 2.4225, 0.455, 2.575, 0.605, 2.7275, 0.7575, 2.8775, 0.91, 3.03, 1.06, 3.18, 1.2125, 3.3325, 1.3625, 3.485, 1.515, 3.635, 1.665, 3.7875, 1.8175, 3.9375, 1.97],
  "SoftwareVersions": "syngo MR E11",
  "SpacingBetweenSlices": 1.7,
  "StationName": "AWP66112",
  "TotalReadoutTime": 0.0959097,
  "TxRefAmp": 226.948,
  "WipMemBlock": "ac5f4a2b-1bab-41af-be2a-be4dab1e6fdb||Sequence: R016 ve11e/master r/434b28f1; Aug  7 2019 19:06:17 by eja",
  "dcmmeta_affine": [
    [-1.7067465782165527, 0.12144289910793304, 0.10421140491962433, 110.09729766845703],
    [0.14667904376983643, 1.6355645656585693, 0.4880262613296509, -111.87997436523438],
    [0.06539832800626755, -0.49895456433296204, 1.6251063346862793, -40.35987091064453],
    [0.0, 0.0, 0.0, 1.0]
],
  "dcmmeta_reorient_transform": [
    [0.0, -1.0, 0.0, 139.0],
    [1.0, 0.0, 0.0, 0.0],
    [0.0, 0.0, 1.0, 0.0],
    [0.0, 0.0, 0.0, 1.0]
],
  "dcmmeta_shape": [140, 140, 81, 103],
  "dcmmeta_slice_dim": 2,
  "dcmmeta_version": 0.6,
  "global": {
    "const": {
      "AccessionNumber": "A004773",
      "AcquisitionMatrix": [140, 0, 0, 140],
      "AngioFlag": "N",
      "BitsAllocated": 16,
      "BitsStored": 16,
      "BodyPartExamined": "BRAIN",
      "Columns": 1260,
      "EchoNumbers": 1,
      "EchoTime": 88.4,
      "EchoTrainLength": 105,
      "FlipAngle": 90.0,
      "HighBit": 15,
      "ImageOrientationPatient": [0.9956021614812, -0.0855627723953, 0.03814902402419, 0.07084168895549, 0.95407933317858, 0.29105683484064],
      "ImagePositionPatient": [-1150.7639675176, -949.23941012374, -425.75218523198],
      "ImageType": [
        "ORIGINAL",
        "PRIMARY",
        "DIFFUSION",
        "NONE",
        "MB",
        "ND",
        "MOSAIC"
],
      "ImagedNucleus": "1H",
      "ImagingFrequency": 123.259084,
      "InPlanePhaseEncodingDirection": "COL",
      "MRAcquisitionType": "2D",
      "MagneticFieldStrength": 3.0,
      "Manufacturer": "SIEMENS",
      "ManufacturerModelName": "Prisma",
      "Modality": "MR",
      "NumberOfAverages": 1.0,
      "NumberOfPhaseEncodingSteps": 105,
      "PercentPhaseFieldOfView": 100.0,
      "PercentSampling": 100.0,
      "PerformedProcedureStepStartTime": "165759.345000",
      "PhotometricInterpretation": "MONOCHROME2",
      "PixelBandwidth": 1700.0,
      "PixelRepresentation": 0,
      "PixelSpacing": [1.7142857313156, 1.7142857313156],
      "ProtocolName": "dwi_acq-96dir-6b0-mb",
      "RepetitionTime": 4110.0,
      "Rows": 1260,
      "SAR": 0.21748734298509,
      "SamplesPerPixel": 1,
      "ScanOptions": [
        "PFP",
        "FS"
],
      "ScanningSequence": "EP",
      "SequenceVariant": [
        "SK",
        "SS"
],
      "SeriesDescription": "dwi_acq-96dir-6b0-mb",
      "SeriesNumber": 8,
      "SeriesTime": "172629.042000",
      "SliceLocation": -63.950618208713,
      "SliceThickness": 1.7000000476837,
      "SmallestImagePixelValue": 0,
      "SoftwareVersions": "syngo MR E11",
      "SpacingBetweenSlices": 1.7000000240762,
      "SpecificCharacterSet": "ISO_IR 100",
      "StudyID": "1",
      "StudyTime": "165759.278000",
      "TransmitCoilName": "Body",
      "VariableFlipAngleFlag": "N",
      "WindowCenterWidthExplanation": "Algo1"
    },
    "slices": {}
  },
  "time": {
    "samples": {
      "AcquisitionNumber": [1, 2, 3, 4, 5, 6, 7, 8, 9, 10, 11, 12, 13, 14, 15, 16, 17, 18, 19, 20, 21, 22, 23, 24, 25, 26, 27, 28, 29, 30, 31, 32, 33, 34, 35, 36, 37, 38, 39, 40, 41, 42, 43, 44, 45, 46, 47, 48, 49, 50, 51, 52, 53, 54, 55, 56, 57, 58, 59, 60, 61, 62, 63, 64, 65, 66, 67, 68, 69, 70, 71, 72, 73, 74, 75, 76, 77, 78, 79, 80, 81, 82, 83, 84, 85, 86, 87, 88, 89, 90, 91, 92, 93, 94, 95, 96, 97, 98, 99, 100, 101, 102, 103],
      "AcquisitionTime": ["172500.050000", "172504.160000", "172508.270000", "172512.380000", "172516.490000", "172520.600000", "172524.710000", "172528.820000", "172532.930000", "172537.040000", "172541.150000", "172545.260000", "172549.370000", "172553.480000", "172557.590000", "172601.700000", "172605.810000", "172609.920000", "172614.030000", "172618.140000", "172622.250000", "172626.360000", "172630.470000", "172634.580000", "172638.690000", "172642.800000", "172646.910000", "172651.020000", "172655.130000", "172659.240000", "172703.350000", "172707.460000", "172711.570000", "172715.680000", "172719.790000", "172723.900000", "172728.010000", "172732.120000", "172736.230000", "172740.340000", "172744.450000", "172748.560000", "172752.670000", "172756.780000", "172800.890000", "172805.000000", "172809.110000", "172813.220000", "172817.330000", "172821.440000", "172825.550000", "172829.660000", "172833.770000", "172837.880000", "172841.990000", "172846.100000", "172850.210000", "172854.320000", "172858.430000", "172902.540000", "172906.650000", "172910.760000", "172914.870000", "172918.980000", "172923.090000", "172927.200000", "172931.310000", "172935.420000", "172939.530000", "172943.640000", "172947.750000", "172951.860000", "172955.970000", "173000.080000", "173004.190000", "173008.300000", "173012.410000", "173016.520000", "173020.630000", "173024.740000", "173028.850000", "173032.960000", "173037.070000", "173041.180000", "173045.290000", "173049.400000", "173053.510000", "173057.620000", "173101.730000", "173105.840000", "173109.950000", "173114.060000", "173118.170000", "173122.280000", "173126.390000", "173130.500000", "173134.610000", "173138.720000", "173142.830000", "173146.940000", "173151.050000", "173155.160000", "173159.270000"],
      "ContentTime": ["172629.046000", "172629.050000", "172629.053000", "172629.056000", "172629.059000", "172629.072000", "172629.075000", "172629.078000", "172629.081000", "172629.084000", "172629.087000", "172629.090000", "172629.093000", "172629.096000", "172629.099000", "172629.102000", "172629.105000", "172629.108000", "172629.111000", "172629.114000", "172629.117000", "172809.040000", "172809.043000", "172809.046000", "172809.049000", "172809.052000", "172809.055000", "172809.058000", "172809.061000", "172809.064000", "172809.067000", "172809.070000", "172809.073000", "172809.076000", "172809.079000", "172809.082000", "172809.085000", "172809.088000", "172809.091000", "172809.094000", "172809.098000", "172809.101000", "172809.104000", "172809.107000", "172809.110000", "172929.041000", "172929.044000", "172929.047000", "172929.057000", "172929.060000", "172929.063000", "172929.066000", "172929.069000", "172929.072000", "172929.075000", "172929.078000", "172929.081000", "172929.084000", "172929.087000", "172929.090000", "172929.093000", "172929.096000", "172929.099000", "172929.102000", "172929.105000", "173049.041000", "173049.044000", "173049.047000", "173049.050000", "173049.053000", "173049.056000", "173049.059000", "173049.062000", "173049.065000", "173049.068000", "173049.071000", "173049.074000", "173049.077000", "173049.080000", "173049.083000", "173049.086000", "173049.089000", "173049.092000", "173049.095000", "173204.400000", "173204.403000", "173204.406000", "173204.409000", "173204.412000", "173204.416000", "173204.419000", "173204.429000", "173204.433000", "173204.436000", "173204.439000", "173204.442000", "173204.445000", "173204.448000", "173204.451000", "173204.454000", "173204.457000", "173204.460000", "173204.463000"],
      "InstanceCreationTime": ["172629.046000", "172629.050000", "172629.053000", "172629.056000", "172629.059000", "172629.072000", "172629.075000", "172629.078000", "172629.081000", "172629.084000", "172629.087000", "172629.090000", "172629.093000", "172629.096000", "172629.099000", "172629.102000", "172629.105000", "172629.108000", "172629.111000", "172629.114000", "172629.117000", "172809.040000", "172809.043000", "172809.046000", "172809.049000", "172809.052000", "172809.055000", "172809.058000", "172809.061000", "172809.064000", "172809.067000", "172809.070000", "172809.073000", "172809.076000", "172809.079000", "172809.082000", "172809.085000", "172809.088000", "172809.091000", "172809.094000", "172809.098000", "172809.101000", "172809.104000", "172809.107000", "172809.110000", "172929.041000", "172929.044000", "172929.047000", "172929.057000", "172929.060000", "172929.063000", "172929.066000", "172929.069000", "172929.072000", "172929.075000", "172929.078000", "172929.081000", "172929.084000", "172929.087000", "172929.090000", "172929.093000", "172929.096000", "172929.099000", "172929.102000", "172929.105000", "173049.041000", "173049.044000", "173049.047000", "173049.050000", "173049.053000", "173049.056000", "173049.059000", "173049.062000", "173049.065000", "173049.068000", "173049.071000", "173049.074000", "173049.077000", "173049.080000", "173049.083000", "173049.086000", "173049.089000", "173049.092000", "173049.095000", "173204.400000", "173204.403000", "173204.406000", "173204.409000", "173204.412000", "173204.416000", "173204.419000", "173204.429000", "173204.433000", "173204.436000", "173204.439000", "173204.442000", "173204.445000", "173204.448000", "173204.451000", "173204.454000", "173204.457000", "173204.460000", "173204.463000"],
      "InstanceNumber": [1, 2, 3, 4, 5, 6, 7, 8, 9, 10, 11, 12, 13, 14, 15, 16, 17, 18, 19, 20, 21, 22, 23, 24, 25, 26, 27, 28, 29, 30, 31, 32, 33, 34, 35, 36, 37, 38, 39, 40, 41, 42, 43, 44, 45, 46, 47, 48, 49, 50, 51, 52, 53, 54, 55, 56, 57, 58, 59, 60, 61, 62, 63, 64, 65, 66, 67, 68, 69, 70, 71, 72, 73, 74, 75, 76, 77, 78, 79, 80, 81, 82, 83, 84, 85, 86, 87, 88, 89, 90, 91, 92, 93, 94, 95, 96, 97, 98, 99, 100, 101, 102, 103],
      "LargestImagePixelValue": [65535, 65535, 45528, 46235, 47777, 48839, 43065, 46382, 65535, 30783, 33966, 32295, 33285, 31046, 32231, 32321, 32088, 34271, 31259, 32419, 30832, 30910, 34080, 31272, 65535, 15912, 17427, 16023, 17654, 17119, 16462, 17680, 19793, 16043, 15774, 17977, 16447, 17889, 17966, 17048, 65535, 10645, 12316, 12207, 11407, 9396, 10334, 10325, 9640, 11495, 9083, 9661, 10759, 12310, 9870, 9870, 12013, 10481, 9892, 11849, 9424, 12074, 9901, 10716, 10157, 10636, 9475, 9581, 10985, 9173, 11194, 10618, 9680, 65535, 9908, 10490, 9612, 10711, 9153, 10885, 10156, 11998, 10695, 9587, 9096, 10988, 12210, 8790, 10231, 9428, 10440, 10406, 12104, 9684, 10818, 12800, 9599, 9549, 9880, 10112, 10350, 9111, 65535],
      "SequenceName": [
 "ep_b5#1",
 "ep_b5#1",
 "ep_b500#2",
 "ep_b500#3",
 "ep_b500#4",
 "ep_b505#5",
 "ep_b495#6",
 "ep_b500#7",
 "ep_b5#8",
 "ep_b1000#9",
 "ep_b1005#10",
 "ep_b1000#11",
 "ep_b1005#12",
 "ep_b995#13",
 "ep_b995#14",
 "ep_b1005#15",
 "ep_b1000#16",
 "ep_b1000#17",
 "ep_b995#18",
 "ep_b1000#19",
 "ep_b995#20",
 "ep_b1000#21",
 "ep_b1005#22",
 "ep_b1005#23",
 "ep_b5#24",
 "ep_b2000#25",
 "ep_b2000#26",
 "ep_b1995#27",
 "ep_b1995#28",
 "ep_b2005#29",
 "ep_b2010#30",
 "ep_b2005#31",
 "ep_b2005#32",
 "ep_b1995#33",
 "ep_b1990#34",
 "ep_b1995#35",
 "ep_b2005#36",
 "ep_b2000#37",
 "ep_b2010#38",
 "ep_b2000#39",
 "ep_b5#40",
 "ep_b3000#41",
 "ep_b3005#42",
 "ep_b3010#43",
 "ep_b3010#44",
 "ep_b2995#45",
 "ep_b2995#46",
 "ep_b2990#47",
 "ep_b3000#48",
 "ep_b3000#49",
 "ep_b2990#50",
 "ep_b2990#51",
 "ep_b2995#52",
 "ep_b2995#53",
 "ep_b3010#54",
 "ep_b3000#55",
 "ep_b2995#56",
 "ep_b3000#57",
 "ep_b2990#58",
 "ep_b2990#59",
 "ep_b3000#60",
 "ep_b2990#61",
 "ep_b2990#62",
 "ep_b2995#63",
 "ep_b3005#64",
 "ep_b3010#65",
 "ep_b3000#66",
 "ep_b3005#67",
 "ep_b3010#68",
 "ep_b3005#69",
 "ep_b3005#70",
 "ep_b3010#71",
 "ep_b2990#72",
 "ep_b5#73",
 "ep_b3010#74",
 "ep_b3000#75",
 "ep_b3005#76",
 "ep_b3005#77",
 "ep_b2995#78",
 "ep_b3000#79",
 "ep_b2995#80",
 "ep_b3010#81",
 "ep_b3010#82",
 "ep_b3005#83",
 "ep_b3000#84",
 "ep_b3000#85",
 "ep_b3005#86",
 "ep_b3010#87",
 "ep_b2990#88",
 "ep_b3010#89",
 "ep_b2990#90",
 "ep_b2995#91",
 "ep_b2995#92",
 "ep_b2995#93",
 "ep_b3005#94",
 "ep_b3005#95",
 "ep_b2995#96",
 "ep_b3000#97",
 "ep_b2990#98",
 "ep_b3000#99",
 "ep_b3000#100",
 "ep_b2995#101",
 "ep_b5#102"
],
      "WindowCenter": [10316.0, 10321.0, 6917.0, 6931.0, 6890.0, 6928.0, 6965.0, 6926.0, 10318.0, 5194.0, 5196.0, 5178.0, 5168.0, 5190.0, 5218.0, 5169.0, 5201.0, 5198.0, 5203.0, 5150.0, 5224.0, 5143.0, 5226.0, 5137.0, 10360.0, 3324.0, 3294.0, 3311.0, 3360.0, 3326.0, 3352.0, 3318.0, 3352.0, 3316.0, 3339.0, 3353.0, 3271.0, 3294.0, 3331.0, 3285.0, 10327.0, 2373.0, 2360.0, 2432.0, 2415.0, 2301.0, 2346.0, 2379.0, 2287.0, 2366.0, 2311.0, 2367.0, 2365.0, 2411.0, 2357.0, 2324.0, 2407.0, 2312.0, 2382.0, 2413.0, 2278.0, 2400.0, 2367.0, 2348.0, 2322.0, 2365.0, 2284.0, 2296.0, 2364.0, 2308.0, 2370.0, 2348.0, 2368.0, 10281.0, 2366.0, 2341.0, 2292.0, 2319.0, 2291.0, 2329.0, 2321.0, 2382.0, 2350.0, 2319.0, 2307.0, 2371.0, 2361.0, 2288.0, 2382.0, 2343.0, 2399.0, 2322.0, 2366.0, 2327.0, 2351.0, 2433.0, 2355.0, 2278.0, 2383.0, 2301.0, 2330.0, 2307.0, 10333.0],
      "WindowWidth": [23221.0, 23248.0, 14730.0, 14732.0, 14651.0, 14751.0, 14818.0, 14740.0, 23231.0, 11267.0, 11289.0, 11234.0, 11227.0, 11283.0, 11311.0, 11222.0, 11266.0, 11268.0, 11282.0, 11169.0, 11320.0, 11164.0, 11338.0, 11118.0, 23372.0, 7618.0, 7555.0, 7587.0, 7661.0, 7627.0, 7674.0, 7591.0, 7654.0, 7595.0, 7649.0, 7676.0, 7519.0, 7524.0, 7615.0, 7513.0, 23243.0, 5763.0, 5677.0, 5857.0, 5805.0, 5618.0, 5689.0, 5751.0, 5550.0, 5733.0, 5612.0, 5721.0, 5732.0, 5832.0, 5725.0, 5648.0, 5814.0, 5595.0, 5759.0, 5794.0, 5546.0, 5776.0, 5733.0, 5694.0, 5646.0, 5725.0, 5572.0, 5598.0, 5723.0, 5644.0, 5751.0, 5691.0, 5732.0, 23120.0, 5726.0, 5664.0, 5569.0, 5626.0, 5558.0, 5642.0, 5634.0, 5733.0, 5694.0, 5658.0, 5639.0, 5756.0, 5678.0, 5584.0, 5762.0, 5691.0, 5811.0, 5601.0, 5696.0, 5666.0, 5704.0, 5864.0, 5725.0, 5549.0, 5765.0, 5576.0, 5674.0, 5639.0, 23311.0]
    },
    "slices": {}
  }
}