{
  "AcquisitionMatrixPE": 82,
  "AcquisitionNumber": 1,
  "AcquisitionTime": "19:51:8.365000",
  "BandwidthPerPixelPhaseEncode": 24.888,
  "BaseResolution": 82,
  "BodyPartExamined": "BRAIN",
  "ConsistencyInfo": "N4_VE11E_LATEST_20181129",
  "ConversionSoftware": "dcm2niix",
  "ConversionSoftwareVersion": "v1.0.20201102",
  "DerivedVendorReportedEchoSpacing": 0.00049,
  "DeviceSerialNumber": "66112",
  "DwellTime": 2e-06,
  "EchoTime": 0.0272,
  "EchoTrainLength": 82,
  "EffectiveEchoSpacing": 0.00049,
  "FlipAngle": 44,
  "ImageComments": "Unaliased MB8/PE3",
  "ImageOrientationPatientDICOM": [0.999388, 0.0345778, 0.00529612, -0.0348994, 0.975221, 0.218462],
  "ImageType": [
    "ORIGINAL",
    "PRIMARY",
    "M",
    "MB",
    "ND",
    "NORM",
    "MOSAIC"
],
  "ImagingFrequency": 123.259,
  "InPlanePhaseEncodingDirectionDICOM": "COL",
  "InstitutionAddress": "Maynard 3,Hanover,NH,US,03755",
  "InstitutionName": "Dartmouth College - PBS",
  "InstitutionalDepartmentName": "Department",
  "MRAcquisitionType": "2D",
  "MagneticFieldStrength": 3,
  "Manufacturer": "Siemens",
  "ManufacturersModelName": "Prisma",
  "Modality": "MR",
  "MultibandAccelerationFactor": 8,
  "PartialFourier": 1,
  "PatientPosition": "HFS",
  "PercentPhaseFOV": 100,
  "PercentSampling": 100,
  "PhaseEncodingDirection": "j-",
  "PhaseEncodingSteps": 82,
  "PhaseResolution": 1,
  "PixelBandwidth": 3050,
  "ProcedureStepDescription": "Wager_Wager^1076_spacetop",
  "ProtocolName": "func_run-03_task-social_acq-ap-mb8",
  "PulseSequenceDetails": "%CustomerSeq%\\cmrr_mbep2d_bold",
  "ReceiveCoilActiveElements": "HEA;HEP",
  "ReceiveCoilName": "Head_32",
  "ReconMatrixPE": 82,
  "RepetitionTime": 0.46,
  "SAR": 0.100104,
  "ScanOptions": "FS",
  "ScanningSequence": "EP",
  "SequenceName": "epfid2d1_82",
  "SequenceVariant": "SK\\SS",
  "SeriesDescription": "func_run-03_task-social_acq-ap-mb8",
  "SeriesNumber": 12,
  "ShimSetting": [4229, -7803, -7257, 348, -106, -244, 29, 45],
  "SliceThickness": 2.7,
  "SliceTiming": [0, 0.25, 0.0625, 0.3125, 0.125, 0.375, 0.1875, 0, 0.25, 0.0625, 0.3125, 0.125, 0.375, 0.1875, 0, 0.25, 0.0625, 0.3125, 0.125, 0.375, 0.1875, 0, 0.25, 0.0625, 0.3125, 0.125, 0.375, 0.1875, 0, 0.25, 0.0625, 0.3125, 0.125, 0.375, 0.1875, 0, 0.25, 0.0625, 0.3125, 0.125, 0.375, 0.1875, 0, 0.25, 0.0625, 0.3125, 0.125, 0.375, 0.1875, 0, 0.25, 0.0625, 0.3125, 0.125, 0.375, 0.1875],
  "SoftwareVersions": "syngo MR E11",
  "SpacingBetweenSlices": 2.7,
  "StationName": "AWP66112",
  "TaskName": "social",
  "TotalReadoutTime": 0.03969,
  "TxRefAmp": 229.949,
  "WipMemBlock": "bf8b549c-8742-4a48-bbc2-3b001ccb1578||Sequence: R016 ve11e/master r/434b28f1; Aug  7 2019 18:53:46 by eja",
  "dcmmeta_affine": [
    [-2.6812849044799805, -0.0936325192451477, -0.0064504556357860565, 116.146728515625],
    [-0.09276978671550751, 2.6164469718933105, 0.5899860262870789, -101.13699340820312],
    [0.014209112152457237, -0.5861181616783142, 2.6347436904907227, -51.96849060058594],
    [0.0, 0.0, 0.0, 1.0]
],
  "dcmmeta_reorient_transform": [
    [0.0, -1.0, 0.0, 81.0],
    [1.0, 0.0, 0.0, 0.0],
    [0.0, 0.0, 1.0, 0.0],
    [0.0, 0.0, 0.0, 1.0]
],
  "dcmmeta_shape": [82, 82, 56, 872],
  "dcmmeta_slice_dim": 2,
  "dcmmeta_version": 0.6,
  "global": {
    "const": {
      "AccessionNumber": "A004326",
      "AcquisitionMatrix": [82, 0, 0, 82],
      "AngioFlag": "N",
      "BitsAllocated": 16,
      "BitsStored": 16,
      "BodyPartExamined": "BRAIN",
      "Columns": 656,
      "EchoNumbers": 1,
      "EchoTime": 27.2,
      "EchoTrainLength": 82,
      "FlipAngle": 44.0,
      "HighBit": 15,
      "ImageOrientationPatient": [0.99938797509701, 0.0345778297091, 0.00529612349907, -0.0348993930449, 0.97522115038314, 0.21846221689458],
      "ImagePositionPatient": [-851.21871910381, -888.34044866955, -271.73798694125],
      "ImageType": [
        "ORIGINAL",
        "PRIMARY",
        "M",
        "MB",
        "ND",
        "NORM",
        "MOSAIC"
],
      "ImagedNucleus": "1H",
      "ImagingFrequency": 123.259124,
      "InPlanePhaseEncodingDirection": "COL",
      "MRAcquisitionType": "2D",
      "MagneticFieldStrength": 3.0,
      "Manufacturer": "SIEMENS",
      "ManufacturerModelName": "Prisma",
      "Modality": "MR",
      "NumberOfAverages": 1.0,
      "NumberOfPhaseEncodingSteps": 82,
      "PercentPhaseFieldOfView": 100.0,
      "PercentSampling": 100.0,
      "PerformedProcedureStepStartTime": "192222.218000",
      "PhotometricInterpretation": "MONOCHROME2",
      "PixelBandwidth": 3050.0,
      "PixelRepresentation": 0,
      "PixelSpacing": [2.6829268932343, 2.6829268932343],
      "ProtocolName": "func_run-03_task-social_acq-ap-mb8",
      "RepetitionTime": 460.0,
      "Rows": 656,
      "SAR": 0.10010440568043,
      "SamplesPerPixel": 1,
      "ScanOptions": "FS",
      "ScanningSequence": "EP",
      "SequenceName": "epfid2d1_82",
      "SequenceVariant": [
        "SK",
        "SS"
],
      "SeriesDescription": "func_run-03_task-social_acq-ap-mb8",
      "SeriesNumber": 12,
      "SeriesTime": "195118.259000",
      "SliceLocation": -73.089729829673,
      "SliceThickness": 2.7000000476837,
      "SmallestImagePixelValue": 0,
      "SoftwareVersions": "syngo MR E11",
      "SpacingBetweenSlices": 2.699999915577,
      "SpecificCharacterSet": "ISO_IR 100",
      "StudyID": "1",
      "StudyTime": "192222.134000",
      "TransmitCoilName": "Body",
      "VariableFlipAngleFlag": "N",
      "WindowCenterWidthExplanation": "Algo1"
    },
    "slices": {}
  },
  "time": {
    "samples": {
      "AcquisitionNumber": [1, 2, 3, 4, 5, 6, 7, 8, 9, 10, 11, 12, 13, 14, 15, 16, 17, 18, 19, 20, 21, 22, 23, 24, 25, 26, 27, 28, 29, 30, 31, 32, 33, 34, 35, 36, 37, 38, 39, 40, 41, 42, 43, 44, 45, 46, 47, 48, 49, 50, 51, 52, 53, 54, 55, 56, 57, 58, 59, 60, 61, 62, 63, 64, 65, 66, 67, 68, 69, 70, 71, 72, 73, 74, 75, 76, 77, 78, 79, 80, 81, 82, 83, 84, 85, 86, 87, 88, 89, 90, 91, 92, 93, 94, 95, 96, 97, 98, 99, 100, 101, 102, 103, 104, 105, 106, 107, 108, 109, 110, 111, 112, 113, 114, 115, 116, 117, 118, 119, 120, 121, 122, 123, 124, 125, 126, 127, 128, 129, 130, 131, 132, 133, 134, 135, 136, 137, 138, 139, 140, 141, 142, 143, 144, 145, 146, 147, 148, 149, 150, 151, 152, 153, 154, 155, 156, 157, 158, 159, 160, 161, 162, 163, 164, 165, 166, 167, 168, 169, 170, 171, 172, 173, 174, 175, 176, 177, 178, 179, 180, 181, 182, 183, 184, 185, 186, 187, 188, 189, 190, 191, 192, 193, 194, 195, 196, 197, 198, 199, 200, 201, 202, 203, 204, 205, 206, 207, 208, 209, 210, 211, 212, 213, 214, 215, 216, 217, 218, 219, 220, 221, 222, 223, 224, 225, 226, 227, 228, 229, 230, 231, 232, 233, 234, 235, 236, 237, 238, 239, 240, 241, 242, 243, 244, 245, 246, 247, 248, 249, 250, 251, 252, 253, 254, 255, 256, 257, 258, 259, 260, 261, 262, 263, 264, 265, 266, 267, 268, 269, 270, 271, 272, 273, 274, 275, 276, 277, 278, 279, 280, 281, 282, 283, 284, 285, 286, 287, 288, 289, 290, 291, 292, 293, 294, 295, 296, 297, 298, 299, 300, 301, 302, 303, 304, 305, 306, 307, 308, 309, 310, 311, 312, 313, 314, 315, 316, 317, 318, 319, 320, 321, 322, 323, 324, 325, 326, 327, 328, 329, 330, 331, 332, 333, 334, 335, 336, 337, 338, 339, 340, 341, 342, 343, 344, 345, 346, 347, 348, 349, 350, 351, 352, 353, 354, 355, 356, 357, 358, 359, 360, 361, 362, 363, 364, 365, 366, 367, 368, 369, 370, 371, 372, 373, 374, 375, 376, 377, 378, 379, 380, 381, 382, 383, 384, 385, 386, 387, 388, 389, 390, 391, 392, 393, 394, 395, 396, 397, 398, 399, 400, 401, 402, 403, 404, 405, 406, 407, 408, 409, 410, 411, 412, 413, 414, 415, 416, 417, 418, 419, 420, 421, 422, 423, 424, 425, 426, 427, 428, 429, 430, 431, 432, 433, 434, 435, 436, 437, 438, 439, 440, 441, 442, 443, 444, 445, 446, 447, 448, 449, 450, 451, 452, 453, 454, 455, 456, 457, 458, 459, 460, 461, 462, 463, 464, 465, 466, 467, 468, 469, 470, 471, 472, 473, 474, 475, 476, 477, 478, 479, 480, 481, 482, 483, 484, 485, 486, 487, 488, 489, 490, 491, 492, 493, 494, 495, 496, 497, 498, 499, 500, 501, 502, 503, 504, 505, 506, 507, 508, 509, 510, 511, 512, 513, 514, 515, 516, 517, 518, 519, 520, 521, 522, 523, 524, 525, 526, 527, 528, 529, 530, 531, 532, 533, 534, 535, 536, 537, 538, 539, 540, 541, 542, 543, 544, 545, 546, 547, 548, 549, 550, 551, 552, 553, 554, 555, 556, 557, 558, 559, 560, 561, 562, 563, 564, 565, 566, 567, 568, 569, 570, 571, 572, 573, 574, 575, 576, 577, 578, 579, 580, 581, 582, 583, 584, 585, 586, 587, 588, 589, 590, 591, 592, 593, 594, 595, 596, 597, 598, 599, 600, 601, 602, 603, 604, 605, 606, 607, 608, 609, 610, 611, 612, 613, 614, 615, 616, 617, 618, 619, 620, 621, 622, 623, 624, 625, 626, 627, 628, 629, 630, 631, 632, 633, 634, 635, 636, 637, 638, 639, 640, 641, 642, 643, 644, 645, 646, 647, 648, 649, 650, 651, 652, 653, 654, 655, 656, 657, 658, 659, 660, 661, 662, 663, 664, 665, 666, 667, 668, 669, 670, 671, 672, 673, 674, 675, 676, 677, 678, 679, 680, 681, 682, 683, 684, 685, 686, 687, 688, 689, 690, 691, 692, 693, 694, 695, 696, 697, 698, 699, 700, 701, 702, 703, 704, 705, 706, 707, 708, 709, 710, 711, 712, 713, 714, 715, 716, 717, 718, 719, 720, 721, 722, 723, 724, 725, 726, 727, 728, 729, 730, 731, 732, 733, 734, 735, 736, 737, 738, 739, 740, 741, 742, 743, 744, 745, 746, 747, 748, 749, 750, 751, 752, 753, 754, 755, 756, 757, 758, 759, 760, 761, 762, 763, 764, 765, 766, 767, 768, 769, 770, 771, 772, 773, 774, 775, 776, 777, 778, 779, 780, 781, 782, 783, 784, 785, 786, 787, 788, 789, 790, 791, 792, 793, 794, 795, 796, 797, 798, 799, 800, 801, 802, 803, 804, 805, 806, 807, 808, 809, 810, 811, 812, 813, 814, 815, 816, 817, 818, 819, 820, 821, 822, 823, 824, 825, 826, 827, 828, 829, 830, 831, 832, 833, 834, 835, 836, 837, 838, 839, 840, 841, 842, 843, 844, 845, 846, 847, 848, 849, 850, 851, 852, 853, 854, 855, 856, 857, 858, 859, 860, 861, 862, 863, 864, 865, 866, 867, 868, 869, 870, 871, 872],
      "AcquisitionTime": ["195108.365000", "195108.825000", "195109.285000", "195109.745000", "195110.205000", "195110.665000", "195111.125000", "195111.585000", "195112.045000", "195112.505000", "195112.965000", "195113.425000", "195113.885000", "195114.345000", "195114.805000", "195115.265000", "195115.725000", "195116.185000", "195116.645000", "195117.105000", "195117.565000", "195118.025000", "195118.485000", "195118.945000", "195119.405000", "195119.865000", "195120.325000", "195120.785000", "195121.245000", "195121.705000", "195122.165000", "195122.625000", "195123.085000", "195123.545000", "195124.005000", "195124.465000", "195124.925000", "195125.385000", "195125.845000", "195126.305000", "195126.765000", "195127.225000", "195127.685000", "195128.145000", "195128.605000", "195129.065000", "195129.525000", "195129.985000", "195130.445000", "195130.905000", "195131.365000", "195131.825000", "195132.285000", "195132.745000", "195133.205000", "195133.665000", "195134.125000", "195134.585000", "195135.045000", "195135.505000", "195135.965000", "195136.425000", "195136.885000", "195137.345000", "195137.805000", "195138.265000", "195138.725000", "195139.185000", "195139.645000", "195140.105000", "195140.565000", "195141.025000", "195141.485000", "195141.945000", "195142.405000", "195142.865000", "195143.325000", "195143.785000", "195144.245000", "195144.705000", "195145.165000", "195145.625000", "195146.085000", "195146.545000", "195147.005000", "195147.465000", "195147.925000", "195148.385000", "195148.845000", "195149.305000", "195149.765000", "195150.225000", "195150.685000", "195151.145000", "195151.605000", "195152.065000", "195152.525000", "195152.985000", "195153.445000", "195153.905000", "195154.365000", "195154.825000", "195155.285000", "195155.745000", "195156.205000", "195156.665000", "195157.125000", "195157.585000", "195158.045000", "195158.505000", "195158.965000", "195159.425000", "195159.885000", "195200.345000", "195200.805000", "195201.265000", "195201.725000", "195202.185000", "195202.645000", "195203.105000", "195203.565000", "195204.025000", "195204.485000", "195204.945000", "195205.405000", "195205.865000", "195206.325000", "195206.785000", "195207.245000", "195207.705000", "195208.165000", "195208.625000", "195209.085000", "195209.545000", "195210.005000", "195210.465000", "195210.925000", "195211.385000", "195211.845000", "195212.305000", "195212.765000", "195213.225000", "195213.685000", "195214.145000", "195214.605000", "195215.065000", "195215.525000", "195215.985000", "195216.445000", "195216.905000", "195217.365000", "195217.825000", "195218.285000", "195218.745000", "195219.205000", "195219.665000", "195220.125000", "195220.585000", "195221.045000", "195221.505000", "195221.965000", "195222.425000", "195222.885000", "195223.345000", "195223.805000", "195224.265000", "195224.725000", "195225.185000", "195225.645000", "195226.105000", "195226.565000", "195227.025000", "195227.485000", "195227.945000", "195228.405000", "195228.865000", "195229.325000", "195229.785000", "195230.245000", "195230.705000", "195231.165000", "195231.625000", "195232.085000", "195232.545000", "195233.005000", "195233.465000", "195233.925000", "195234.385000", "195234.845000", "195235.305000", "195235.765000", "195236.225000", "195236.685000", "195237.145000", "195237.605000", "195238.065000", "195238.525000", "195238.985000", "195239.445000", "195239.905000", "195240.365000", "195240.825000", "195241.285000", "195241.745000", "195242.205000", "195242.665000", "195243.125000", "195243.585000", "195244.045000", "195244.505000", "195244.965000", "195245.425000", "195245.885000", "195246.345000", "195246.805000", "195247.265000", "195247.725000", "195248.185000", "195248.645000", "195249.105000", "195249.565000", "195250.025000", "195250.485000", "195250.945000", "195251.405000", "195251.865000", "195252.325000", "195252.785000", "195253.245000", "195253.705000", "195254.165000", "195254.625000", "195255.085000", "195255.545000", "195256.005000", "195256.465000", "195256.925000", "195257.385000", "195257.845000", "195258.305000", "195258.765000", "195259.225000", "195259.685000", "195300.145000", "195300.605000", "195301.065000", "195301.525000", "195301.985000", "195302.445000", "195302.905000", "195303.365000", "195303.825000", "195304.285000", "195304.745000", "195305.205000", "195305.665000", "195306.125000", "195306.585000", "195307.045000", "195307.505000", "195307.965000", "195308.425000", "195308.885000", "195309.345000", "195309.805000", "195310.265000", "195310.725000", "195311.185000", "195311.645000", "195312.105000", "195312.565000", "195313.025000", "195313.485000", "195313.945000", "195314.405000", "195314.865000", "195315.325000", "195315.785000", "195316.245000", "195316.705000", "195317.165000", "195317.625000", "195318.085000", "195318.545000", "195319.005000", "195319.465000", "195319.925000", "195320.385000", "195320.845000", "195321.305000", "195321.765000", "195322.225000", "195322.685000", "195323.145000", "195323.605000", "195324.065000", "195324.525000", "195324.985000", "195325.445000", "195325.905000", "195326.365000", "195326.825000", "195327.285000", "195327.745000", "195328.205000", "195328.665000", "195329.125000", "195329.585000", "195330.045000", "195330.505000", "195330.965000", "195331.425000", "195331.885000", "195332.345000", "195332.805000", "195333.265000", "195333.725000", "195334.185000", "195334.645000", "195335.105000", "195335.565000", "195336.025000", "195336.485000", "195336.945000", "195337.405000", "195337.865000", "195338.325000", "195338.785000", "195339.245000", "195339.705000", "195340.165000", "195340.625000", "195341.085000", "195341.545000", "195342.005000", "195342.465000", "195342.925000", "195343.385000", "195343.845000", "195344.305000", "195344.765000", "195345.225000", "195345.685000", "195346.145000", "195346.605000", "195347.065000", "195347.525000", "195347.985000", "195348.445000", "195348.905000", "195349.365000", "195349.825000", "195350.285000", "195350.745000", "195351.205000", "195351.665000", "195352.125000", "195352.585000", "195353.045000", "195353.505000", "195353.965000", "195354.425000", "195354.885000", "195355.345000", "195355.805000", "195356.265000", "195356.725000", "195357.185000", "195357.645000", "195358.105000", "195358.565000", "195359.025000", "195359.485000", "195359.945000", "195400.405000", "195400.865000", "195401.325000", "195401.785000", "195402.245000", "195402.705000", "195403.165000", "195403.625000", "195404.085000", "195404.545000", "195405.005000", "195405.465000", "195405.925000", "195406.385000", "195406.845000", "195407.305000", "195407.765000", "195408.225000", "195408.685000", "195409.145000", "195409.605000", "195410.065000", "195410.525000", "195410.985000", "195411.445000", "195411.905000", "195412.365000", "195412.825000", "195413.285000", "195413.745000", "195414.205000", "195414.665000", "195415.125000", "195415.585000", "195416.045000", "195416.505000", "195416.965000", "195417.425000", "195417.885000", "195418.345000", "195418.805000", "195419.265000", "195419.725000", "195420.185000", "195420.645000", "195421.105000", "195421.565000", "195422.025000", "195422.485000", "195422.945000", "195423.405000", "195423.865000", "195424.325000", "195424.785000", "195425.245000", "195425.705000", "195426.165000", "195426.625000", "195427.085000", "195427.545000", "195428.005000", "195428.465000", "195428.925000", "195429.385000", "195429.845000", "195430.305000", "195430.765000", "195431.225000", "195431.685000", "195432.145000", "195432.605000", "195433.065000", "195433.525000", "195433.985000", "195434.445000", "195434.905000", "195435.365000", "195435.825000", "195436.285000", "195436.745000", "195437.205000", "195437.665000", "195438.125000", "195438.585000", "195439.045000", "195439.505000", "195439.965000", "195440.425000", "195440.885000", "195441.345000", "195441.805000", "195442.265000", "195442.725000", "195443.185000", "195443.645000", "195444.105000", "195444.565000", "195445.025000", "195445.485000", "195445.945000", "195446.405000", "195446.865000", "195447.325000", "195447.785000", "195448.245000", "195448.705000", "195449.165000", "195449.625000", "195450.085000", "195450.545000", "195451.005000", "195451.465000", "195451.925000", "195452.385000", "195452.845000", "195453.305000", "195453.765000", "195454.225000", "195454.685000", "195455.145000", "195455.605000", "195456.065000", "195456.525000", "195456.985000", "195457.445000", "195457.905000", "195458.365000", "195458.825000", "195459.285000", "195459.745000", "195500.205000", "195500.665000", "195501.125000", "195501.585000", "195502.045000", "195502.505000", "195502.965000", "195503.425000", "195503.885000", "195504.345000", "195504.805000", "195505.265000", "195505.725000", "195506.185000", "195506.645000", "195507.105000", "195507.565000", "195508.025000", "195508.485000", "195508.945000", "195509.405000", "195509.865000", "195510.325000", "195510.785000", "195511.245000", "195511.705000", "195512.165000", "195512.625000", "195513.085000", "195513.545000", "195514.005000", "195514.465000", "195514.925000", "195515.385000", "195515.845000", "195516.305000", "195516.765000", "195517.225000", "195517.685000", "195518.145000", "195518.605000", "195519.065000", "195519.525000", "195519.985000", "195520.445000", "195520.905000", "195521.365000", "195521.825000", "195522.285000", "195522.745000", "195523.205000", "195523.665000", "195524.125000", "195524.585000", "195525.045000", "195525.505000", "195525.965000", "195526.425000", "195526.885000", "195527.345000", "195527.805000", "195528.265000", "195528.725000", "195529.185000", "195529.645000", "195530.105000", "195530.565000", "195531.025000", "195531.485000", "195531.945000", "195532.405000", "195532.865000", "195533.325000", "195533.785000", "195534.245000", "195534.705000", "195535.165000", "195535.625000", "195536.085000", "195536.545000", "195537.005000", "195537.465000", "195537.925000", "195538.385000", "195538.845000", "195539.305000", "195539.765000", "195540.225000", "195540.685000", "195541.145000", "195541.605000", "195542.065000", "195542.525000", "195542.985000", "195543.445000", "195543.905000", "195544.365000", "195544.825000", "195545.285000", "195545.745000", "195546.205000", "195546.665000", "195547.125000", "195547.585000", "195548.045000", "195548.505000", "195548.965000", "195549.425000", "195549.885000", "195550.345000", "195550.805000", "195551.265000", "195551.725000", "195552.185000", "195552.645000", "195553.105000", "195553.565000", "195554.025000", "195554.485000", "195554.945000", "195555.405000", "195555.865000", "195556.325000", "195556.785000", "195557.245000", "195557.705000", "195558.165000", "195558.625000", "195559.085000", "195559.545000", "195600.005000", "195600.465000", "195600.925000", "195601.385000", "195601.845000", "195602.305000", "195602.765000", "195603.225000", "195603.685000", "195604.145000", "195604.605000", "195605.065000", "195605.525000", "195605.985000", "195606.445000", "195606.905000", "195607.365000", "195607.825000", "195608.285000", "195608.745000", "195609.205000", "195609.665000", "195610.125000", "195610.585000", "195611.045000", "195611.505000", "195611.965000", "195612.425000", "195612.885000", "195613.345000", "195613.805000", "195614.265000", "195614.725000", "195615.185000", "195615.645000", "195616.105000", "195616.565000", "195617.025000", "195617.485000", "195617.945000", "195618.405000", "195618.865000", "195619.325000", "195619.785000", "195620.245000", "195620.705000", "195621.165000", "195621.625000", "195622.085000", "195622.545000", "195623.005000", "195623.465000", "195623.925000", "195624.385000", "195624.845000", "195625.305000", "195625.765000", "195626.225000", "195626.685000", "195627.145000", "195627.605000", "195628.065000", "195628.525000", "195628.985000", "195629.445000", "195629.905000", "195630.365000", "195630.825000", "195631.285000", "195631.745000", "195632.205000", "195632.665000", "195633.125000", "195633.585000", "195634.045000", "195634.505000", "195634.965000", "195635.425000", "195635.885000", "195636.345000", "195636.805000", "195637.265000", "195637.725000", "195638.185000", "195638.645000", "195639.105000", "195639.565000", "195640.025000", "195640.485000", "195640.945000", "195641.405000", "195641.865000", "195642.325000", "195642.785000", "195643.245000", "195643.705000", "195644.165000", "195644.625000", "195645.085000", "195645.545000", "195646.005000", "195646.465000", "195646.925000", "195647.385000", "195647.845000", "195648.305000", "195648.765000", "195649.225000", "195649.685000", "195650.145000", "195650.605000", "195651.065000", "195651.525000", "195651.985000", "195652.445000", "195652.905000", "195653.365000", "195653.825000", "195654.285000", "195654.745000", "195655.205000", "195655.665000", "195656.125000", "195656.585000", "195657.045000", "195657.505000", "195657.965000", "195658.425000", "195658.885000", "195659.345000", "195659.805000", "195700.265000", "195700.725000", "195701.185000", "195701.645000", "195702.105000", "195702.565000", "195703.025000", "195703.485000", "195703.945000", "195704.405000", "195704.865000", "195705.325000", "195705.785000", "195706.245000", "195706.705000", "195707.165000", "195707.625000", "195708.085000", "195708.545000", "195709.005000", "195709.465000", "195709.925000", "195710.385000", "195710.845000", "195711.305000", "195711.765000", "195712.225000", "195712.685000", "195713.145000", "195713.605000", "195714.065000", "195714.525000", "195714.985000", "195715.445000", "195715.905000", "195716.365000", "195716.825000", "195717.285000", "195717.745000", "195718.205000", "195718.665000", "195719.125000", "195719.585000", "195720.045000", "195720.505000", "195720.965000", "195721.425000", "195721.885000", "195722.345000", "195722.805000", "195723.265000", "195723.725000", "195724.185000", "195724.645000", "195725.105000", "195725.565000", "195726.025000", "195726.485000", "195726.945000", "195727.405000", "195727.865000", "195728.325000", "195728.785000", "195729.245000", "195729.705000", "195730.165000", "195730.625000", "195731.085000", "195731.545000", "195732.005000", "195732.465000", "195732.925000", "195733.385000", "195733.845000", "195734.305000", "195734.765000", "195735.225000", "195735.685000", "195736.145000", "195736.605000", "195737.065000", "195737.525000", "195737.985000", "195738.445000", "195738.905000", "195739.365000", "195739.825000", "195740.285000", "195740.745000", "195741.205000", "195741.665000", "195742.125000", "195742.585000", "195743.045000", "195743.505000", "195743.965000", "195744.425000", "195744.885000", "195745.345000", "195745.805000", "195746.265000", "195746.725000", "195747.185000", "195747.645000", "195748.105000", "195748.565000", "195749.025000"],
