{
  "AcquisitionMatrixPE": 82,
  "AcquisitionNumber": 1,
  "AcquisitionTime": "20:58:56.220000",
  "BandwidthPerPixelPhaseEncode": 24.888,
  "BaseResolution": 82,
  "BodyPartExamined": "BRAIN",
  "ConsistencyInfo": "N4_VE11E_LATEST_20181129",
  "ConversionSoftware": "dcm2niix",
  "ConversionSoftwareVersion": "v1.0.20201102",
  "DerivedVendorReportedEchoSpacing": 0.00049,
  "DeviceSerialNumber": "66112",
  "DwellTime": 2e-06,
  "EchoTime": 0.0272,
  "EchoTrainLength": 82,
  "EffectiveEchoSpacing": 0.00049,
  "FlipAngle": 44,
  "ImageComments": "Unaliased MB8/PE3",
  "ImageOrientationPatientDICOM": [0.99805, 0.00778216, -0.0619382, 0.000522616, 0.991123, 0.13295],
  "ImageType": [
    "ORIGINAL",
    "PRIMARY",
    "M",
    "MB",
    "ND",
    "NORM",
    "MOSAIC"
],
  "ImagingFrequency": 123.259,
  "InPlanePhaseEncodingDirectionDICOM": "COL",
  "InstitutionAddress": "Maynard 3,Hanover,NH,US,03755",
  "InstitutionName": "Dartmouth College - PBS",
  "InstitutionalDepartmentName": "Department",
  "MRAcquisitionType": "2D",
  "MagneticFieldStrength": 3,
  "Manufacturer": "Siemens",
  "ManufacturersModelName": "Prisma",
  "Modality": "MR",
  "MultibandAccelerationFactor": 8,
  "PartialFourier": 1,
  "PatientPosition": "HFS",
  "PercentPhaseFOV": 100,
  "PercentSampling": 100,
  "PhaseEncodingDirection": "j-",
  "PhaseEncodingSteps": 82,
  "PhaseResolution": 1,
  "PixelBandwidth": 3050,
  "ProcedureStepDescription": "Wager_Wager^1076_spacetop",
  "ProtocolName": "func_run-03_task-alignvideo_acq-ap-mb8",
  "PulseSequenceDetails": "%CustomerSeq%\\cmrr_mbep2d_bold",
  "ReceiveCoilActiveElements": "HEA;HEP",
  "ReceiveCoilName": "Head_32",
  "ReconMatrixPE": 82,
  "RepetitionTime": 0.46,
  "SAR": 0.100217,
  "ScanOptions": "FS",
  "ScanningSequence": "EP",
  "SequenceName": "epfid2d1_82",
  "SequenceVariant": "SK\\SS",
  "SeriesDescription": "func_run-03_task-alignvideo_acq-ap-mb8",
  "SeriesNumber": 32,
  "ShimSetting": [4231, -7812, -7254, 296, -101, -304, 35, 38],
  "SliceThickness": 2.7,
  "SliceTiming": [0, 0.25, 0.0625, 0.315, 0.125, 0.3775, 0.1875, 0, 0.25, 0.0625, 0.315, 0.125, 0.3775, 0.1875, 0, 0.25, 0.0625, 0.315, 0.125, 0.3775, 0.1875, 0, 0.25, 0.0625, 0.315, 0.125, 0.3775, 0.1875, 0, 0.25, 0.0625, 0.315, 0.125, 0.3775, 0.1875, 0, 0.25, 0.0625, 0.315, 0.125, 0.3775, 0.1875, 0, 0.25, 0.0625, 0.315, 0.125, 0.3775, 0.1875, 0, 0.25, 0.0625, 0.315, 0.125, 0.3775, 0.1875],
  "SoftwareVersions": "syngo MR E11",
  "SpacingBetweenSlices": 2.7,
  "StationName": "AWP66112",
  "TaskName": "alignvideo",
  "TotalReadoutTime": 0.03969,
  "TxRefAmp": 229.949,
  "WipMemBlock": "a4d25d34-82fd-483e-8c15-cca9917408d7||Sequence: R016 ve11e/master r/434b28f1; Aug  7 2019 18:53:46 by eja",
  "dcmmeta_affine": [
    [-2.677694320678711, 0.00140213908161968, -0.16854213178157806, 117.23657989501953],
    [-0.020878974348306656, 2.659109592437744, 0.3583517372608185, -102.2784194946289],
    [-0.1661757230758667, -0.3566945791244507, 2.6708009243011475, -65.44146728515625],
    [0.0, 0.0, 0.0, 1.0]
],
  "dcmmeta_reorient_transform": [
    [0.0, -1.0, 0.0, 81.0],
    [1.0, 0.0, 0.0, 0.0],
    [0.0, 0.0, 1.0, 0.0],
    [0.0, 0.0, 0.0, 1.0]
],
  "dcmmeta_shape": [82, 82, 56, 1065],
  "dcmmeta_slice_dim": 2,
  "dcmmeta_version": 0.6,
  "global": {
    "const": {
      "AccessionNumber": "A004326",
      "AcquisitionMatrix": [82, 0, 0, 82],
      "AngioFlag": "N",
      "BitsAllocated": 16,
      "BitsStored": 16,
      "BodyPartExamined": "BRAIN",
      "Columns": 656,
      "EchoNumbers": 1,
      "EchoTime": 27.2,
      "EchoTrainLength": 82,
      "FlipAngle": 44.0,
      "HighBit": 15,
      "ImageOrientationPatient": [0.99804964520222, 0.00778216301437, -0.0619382244703, 0.00052261548259, 0.99112263592176, 0.13294979291661],
      "ImagePositionPatient": [-886.2508105946, -882.26616917729, -149.01263503074],
      "ImageType": [
        "ORIGINAL",
        "PRIMARY",
        "M",
        "MB",
        "ND",
        "NORM",
        "MOSAIC"
],
      "ImagedNucleus": "1H",
      "ImagingFrequency": 123.259156,
      "InPlanePhaseEncodingDirection": "COL",
      "MRAcquisitionType": "2D",
      "MagneticFieldStrength": 3.0,
      "Manufacturer": "SIEMENS",
      "ManufacturerModelName": "Prisma",
      "Modality": "MR",
      "NumberOfAverages": 1.0,
      "NumberOfPhaseEncodingSteps": 82,
      "PercentPhaseFieldOfView": 100.0,
      "PercentSampling": 100.0,
      "PerformedProcedureStepStartTime": "192222.218000",
      "PhotometricInterpretation": "MONOCHROME2",
      "PixelBandwidth": 3050.0,
      "PixelRepresentation": 0,
      "PixelSpacing": [2.6829268932343, 2.6829268932343],
      "ProtocolName": "func_run-03_task-alignvideo_acq-ap-mb8",
      "RepetitionTime": 460.0,
      "Rows": 656,
      "SAR": 0.10021733257574,
      "SamplesPerPixel": 1,
      "ScanOptions": "FS",
      "ScanningSequence": "EP",
      "SequenceName": "epfid2d1_82",
      "SequenceVariant": [
        "SK",
        "SS"
],
      "SeriesDescription": "func_run-03_task-alignvideo_acq-ap-mb8",
      "SeriesNumber": 32,
      "SeriesTime": "205918.324000",
      "SliceLocation": -85.626695808754,
      "SliceThickness": 2.7000000476837,
      "SmallestImagePixelValue": 0,
      "SoftwareVersions": "syngo MR E11",
      "SpacingBetweenSlices": 2.6999999928502,
      "SpecificCharacterSet": "ISO_IR 100",
      "StudyID": "1",
      "StudyTime": "192222.134000",
      "TransmitCoilName": "Body",
      "VariableFlipAngleFlag": "N",
      "WindowCenterWidthExplanation": "Algo1"
    },
    "slices": {}
  },
  "time": {
    "samples": {
      "AcquisitionNumber": [1, 2, 3, 4, 5, 6, 7, 8, 9, 10, 11, 12, 13, 14, 15, 16, 17, 18, 19, 20, 21, 22, 23, 24, 25, 26, 27, 28, 29, 30, 31, 32, 33, 34, 35, 36, 37, 38, 39, 40, 41, 42, 43, 44, 45, 46, 47, 48, 49, 50, 51, 52, 53, 54, 55, 56, 57, 58, 59, 60, 61, 62, 63, 64, 65, 66, 67, 68, 69, 70, 71, 72, 73, 74, 75, 76, 77, 78, 79, 80, 81, 82, 83, 84, 85, 86, 87, 88, 89, 90, 91, 92, 93, 94, 95, 96, 97, 98, 99, 100, 101, 102, 103, 104, 105, 106, 107, 108, 109, 110, 111, 112, 113, 114, 115, 116, 117, 118, 119, 120, 121, 122, 123, 124, 125, 126, 127, 128, 129, 130, 131, 132, 133, 134, 135, 136, 137, 138, 139, 140, 141, 142, 143, 144, 145, 146, 147, 148, 149, 150, 151, 152, 153, 154, 155, 156, 157, 158, 159, 160, 161, 162, 163, 164, 165, 166, 167, 168, 169, 170, 171, 172, 173, 174, 175, 176, 177, 178, 179, 180, 181, 182, 183, 184, 185, 186, 187, 188, 189, 190, 191, 192, 193, 194, 195, 196, 197, 198, 199, 200, 201, 202, 203, 204, 205, 206, 207, 208, 209, 210, 211, 212, 213, 214, 215, 216, 217, 218, 219, 220, 221, 222, 223, 224, 225, 226, 227, 228, 229, 230, 231, 232, 233, 234, 235, 236, 237, 238, 239, 240, 241, 242, 243, 244, 245, 246, 247, 248, 249, 250, 251, 252, 253, 254, 255, 256, 257, 258, 259, 260, 261, 262, 263, 264, 265, 266, 267, 268, 269, 270, 271, 272, 273, 274, 275, 276, 277, 278, 279, 280, 281, 282, 283, 284, 285, 286, 287, 288, 289, 290, 291, 292, 293, 294, 295, 296, 297, 298, 299, 300, 301, 302, 303, 304, 305, 306, 307, 308, 309, 310, 311, 312, 313, 314, 315, 316, 317, 318, 319, 320, 321, 322, 323, 324, 325, 326, 327, 328, 329, 330, 331, 332, 333, 334, 335, 336, 337, 338, 339, 340, 341, 342, 343, 344, 345, 346, 347, 348, 349, 350, 351, 352, 353, 354, 355, 356, 357, 358, 359, 360, 361, 362, 363, 364, 365, 366, 367, 368, 369, 370, 371, 372, 373, 374, 375, 376, 377, 378, 379, 380, 381, 382, 383, 384, 385, 386, 387, 388, 389, 390, 391, 392, 393, 394, 395, 396, 397, 398, 399, 400, 401, 402, 403, 404, 405, 406, 407, 408, 409, 410, 411, 412, 413, 414, 415, 416, 417, 418, 419, 420, 421, 422, 423, 424, 425, 426, 427, 428, 429, 430, 431, 432, 433, 434, 435, 436, 437, 438, 439, 440, 441, 442, 443, 444, 445, 446, 447, 448, 449, 450, 451, 452, 453, 454, 455, 456, 457, 458, 459, 460, 461, 462, 463, 464, 465, 466, 467, 468, 469, 470, 471, 472, 473, 474, 475, 476, 477, 478, 479, 480, 481, 482, 483, 484, 485, 486, 487, 488, 489, 490, 491, 492, 493, 494, 495, 496, 497, 498, 499, 500, 501, 502, 503, 504, 505, 506, 507, 508, 509, 510, 511, 512, 513, 514, 515, 516, 517, 518, 519, 520, 521, 522, 523, 524, 525, 526, 527, 528, 529, 530, 531, 532, 533, 534, 535, 536, 537, 538, 539, 540, 541, 542, 543, 544, 545, 546, 547, 548, 549, 550, 551, 552, 553, 554, 555, 556, 557, 558, 559, 560, 561, 562, 563, 564, 565, 566, 567, 568, 569, 570, 571, 572, 573, 574, 575, 576, 577, 578, 579, 580, 581, 582, 583, 584, 585, 586, 587, 588, 589, 590, 591, 592, 593, 594, 595, 596, 597, 598, 599, 600, 601, 602, 603, 604, 605, 606, 607, 608, 609, 610, 611, 612, 613, 614, 615, 616, 617, 618, 619, 620, 621, 622, 623, 624, 625, 626, 627, 628, 629, 630, 631, 632, 633, 634, 635, 636, 637, 638, 639, 640, 641, 642, 643, 644, 645, 646, 647, 648, 649, 650, 651, 652, 653, 654, 655, 656, 657, 658, 659, 660, 661, 662, 663, 664, 665, 666, 667, 668, 669, 670, 671, 672, 673, 674, 675, 676, 677, 678, 679, 680, 681, 682, 683, 684, 685, 686, 687, 688, 689, 690, 691, 692, 693, 694, 695, 696, 697, 698, 699, 700, 701, 702, 703, 704, 705, 706, 707, 708, 709, 710, 711, 712, 713, 714, 715, 716, 717, 718, 719, 720, 721, 722, 723, 724, 725, 726, 727, 728, 729, 730, 731, 732, 733, 734, 735, 736, 737, 738, 739, 740, 741, 742, 743, 744, 745, 746, 747, 748, 749, 750, 751, 752, 753, 754, 755, 756, 757, 758, 759, 760, 761, 762, 763, 764, 765, 766, 767, 768, 769, 770, 771, 772, 773, 774, 775, 776, 777, 778, 779, 780, 781, 782, 783, 784, 785, 786, 787, 788, 789, 790, 791, 792, 793, 794, 795, 796, 797, 798, 799, 800, 801, 802, 803, 804, 805, 806, 807, 808, 809, 810, 811, 812, 813, 814, 815, 816, 817, 818, 819, 820, 821, 822, 823, 824, 825, 826, 827, 828, 829, 830, 831, 832, 833, 834, 835, 836, 837, 838, 839, 840, 841, 842, 843, 844, 845, 846, 847, 848, 849, 850, 851, 852, 853, 854, 855, 856, 857, 858, 859, 860, 861, 862, 863, 864, 865, 866, 867, 868, 869, 870, 871, 872, 873, 874, 875, 876, 877, 878, 879, 880, 881, 882, 883, 884, 885, 886, 887, 888, 889, 890, 891, 892, 893, 894, 895, 896, 897, 898, 899, 900, 901, 902, 903, 904, 905, 906, 907, 908, 909, 910, 911, 912, 913, 914, 915, 916, 917, 918, 919, 920, 921, 922, 923, 924, 925, 926, 927, 928, 929, 930, 931, 932, 933, 934, 935, 936, 937, 938, 939, 940, 941, 942, 943, 944, 945, 946, 947, 948, 949, 950, 951, 952, 953, 954, 955, 956, 957, 958, 959, 960, 961, 962, 963, 964, 965, 966, 967, 968, 969, 970, 971, 972, 973, 974, 975, 976, 977, 978, 979, 980, 981, 982, 983, 984, 985, 986, 987, 988, 989, 990, 991, 992, 993, 994, 995, 996, 997, 998, 999, 1000, 1001, 1002, 1003, 1004, 1005, 1006, 1007, 1008, 1009, 1010, 1011, 1012, 1013, 1014, 1015, 1016, 1017, 1018, 1019, 1020, 1021, 1022, 1023, 1024, 1025, 1026, 1027, 1028, 1029, 1030, 1031, 1032, 1033, 1034, 1035, 1036, 1037, 1038, 1039, 1040, 1041, 1042, 1043, 1044, 1045, 1046, 1047, 1048, 1049, 1050, 1051, 1052, 1053, 1054, 1055, 1056, 1057, 1058, 1059, 1060, 1061, 1062, 1063, 1064, 1065],
      "AcquisitionTime": ["205856.220000", "205856.680000", "205857.140000", "205857.600000", "205858.060000", "205858.520000", "205858.980000", "205859.440000", "205859.900000", "205900.360000", "205900.820000", "205901.280000", "205901.740000", "205902.200000", "205902.660000", "205903.120000", "205903.580000", "205904.040000", "205904.500000", "205904.960000", "205905.420000", "205905.880000", "205906.340000", "205906.800000", "205907.260000", "205907.720000", "205908.180000", "205908.640000", "205909.100000", "205909.560000", "205910.020000", "205910.480000", "205910.940000", "205911.400000", "205911.860000", "205912.320000", "205912.780000", "205913.240000", "205913.700000", "205914.160000", "205914.620000", "205915.080000", "205915.540000", "205916.000000", "205916.460000", "205916.920000", "205917.380000", "205917.840000", "205918.300000", "205918.760000", "205919.220000", "205919.680000", "205920.140000", "205920.600000", "205921.060000", "205921.520000", "205921.980000", "205922.440000", "205922.900000", "205923.360000", "205923.820000", "205924.280000", "205924.740000", "205925.200000", "205925.660000", "205926.120000", "205926.580000", "205927.040000", "205927.500000", "205927.960000", "205928.420000", "205928.880000", "205929.340000", "205929.800000", "205930.260000", "205930.720000", "205931.180000", "205931.640000", "205932.100000", "205932.560000", "205933.020000", "205933.480000", "205933.940000", "205934.400000", "205934.860000", "205935.320000", "205935.780000", "205936.240000", "205936.700000", "205937.160000", "205937.620000", "205938.080000", "205938.540000", "205939.000000", "205939.460000", "205939.920000", "205940.380000", "205940.840000", "205941.300000", "205941.760000", "205942.220000", "205942.680000", "205943.140000", "205943.600000", "205944.060000", "205944.520000", "205944.980000", "205945.440000", "205945.900000", "205946.360000", "205946.820000", "205947.280000", "205947.740000", "205948.200000", "205948.660000", "205949.120000", "205949.580000", "205950.040000", "205950.500000", "205950.960000", "205951.420000", "205951.880000", "205952.340000", "205952.800000", "205953.260000", "205953.720000", "205954.180000", "205954.640000", "205955.100000", "205955.560000", "205956.020000", "205956.480000", "205956.940000", "205957.400000", "205957.860000", "205958.320000", "205958.780000", "205959.240000", "205959.700000", "210000.160000", "210000.620000", "210001.080000", "210001.540000", "210002.000000", "210002.460000", "210002.920000", "210003.380000", "210003.840000", "210004.300000", "210004.760000", "210005.220000", "210005.680000", "210006.140000", "210006.600000", "210007.060000", "210007.520000", "210007.980000", "210008.440000", "210008.900000", "210009.360000", "210009.820000", "210010.280000", "210010.740000", "210011.200000", "210011.660000", "210012.120000", "210012.580000", "210013.040000", "210013.500000", "210013.960000", "210014.420000", "210014.880000", "210015.340000", "210015.800000", "210016.260000", "210016.720000", "210017.180000", "210017.640000", "210018.100000", "210018.560000", "210019.020000", "210019.480000", "210019.940000", "210020.400000", "210020.860000", "210021.320000", "210021.780000", "210022.240000", "210022.700000", "210023.160000", "210023.620000", "210024.080000", "210024.540000", "210025.000000", "210025.460000", "210025.920000", "210026.380000", "210026.840000", "210027.300000", "210027.760000", "210028.220000", "210028.680000", "210029.140000", "210029.600000", "210030.060000", "210030.520000", "210030.980000", "210031.440000", "210031.900000", "210032.360000", "210032.820000", "210033.280000", "210033.740000", "210034.200000", "210034.660000", "210035.120000", "210035.580000", "210036.040000", "210036.500000", "210036.960000", "210037.420000", "210037.880000", "210038.340000", "210038.800000", "210039.260000", "210039.720000", "210040.180000", "210040.640000", "210041.100000", "210041.560000", "210042.020000", "210042.480000", "210042.940000", "210043.400000", "210043.860000", "210044.320000", "210044.780000", "210045.240000", "210045.700000", "210046.160000", "210046.620000", "210047.080000", "210047.540000", "210048.000000", "210048.460000", "210048.920000", "210049.380000", "210049.840000", "210050.300000", "210050.760000", "210051.220000", "210051.680000", "210052.140000", "210052.600000", "210053.060000", "210053.520000", "210053.980000", "210054.440000", "210054.900000", "210055.360000", "210055.820000", "210056.280000", "210056.740000", "210057.200000", "210057.660000", "210058.120000", "210058.580000", "210059.040000", "210059.500000", "210059.960000", "210100.420000", "210100.880000", "210101.340000", "210101.800000", "210102.260000", "210102.720000", "210103.180000", "210103.640000", "210104.100000", "210104.560000", "210105.020000", "210105.480000", "210105.940000", "210106.400000", "210106.860000", "210107.320000", "210107.780000", "210108.240000", "210108.700000", "210109.160000", "210109.620000", "210110.080000", "210110.540000", "210111.000000", "210111.460000", "210111.920000", "210112.380000", "210112.840000", "210113.300000", "210113.760000", "210114.220000", "210114.680000", "210115.140000", "210115.600000", "210116.060000", "210116.520000", "210116.980000", "210117.440000", "210117.900000", "210118.360000", "210118.820000", "210119.280000", "210119.740000", "210120.200000", "210120.660000", "210121.120000", "210121.580000", "210122.040000", "210122.500000", "210122.960000", "210123.420000", "210123.880000", "210124.340000", "210124.800000", "210125.260000", "210125.720000", "210126.180000", "210126.640000", "210127.100000", "210127.560000", "210128.020000", "210128.480000", "210128.940000", "210129.400000", "210129.860000", "210130.320000", "210130.780000", "210131.240000", "210131.700000", "210132.160000", "210132.620000", "210133.080000", "210133.540000", "210134.000000", "210134.460000", "210134.920000", "210135.380000", "210135.840000", "210136.300000", "210136.760000", "210137.220000", "210137.680000", "210138.140000", "210138.600000", "210139.060000", "210139.520000", "210139.980000", "210140.440000", "210140.900000", "210141.360000", "210141.820000", "210142.280000", "210142.740000", "210143.200000", "210143.660000", "210144.120000", "210144.580000", "210145.040000", "210145.500000", "210145.960000", "210146.420000", "210146.880000", "210147.340000", "210147.800000", "210148.260000", "210148.720000", "210149.180000", "210149.640000", "210150.100000", "210150.560000", "210151.020000", "210151.480000", "210151.940000", "210152.400000", "210152.860000", "210153.320000", "210153.780000", "210154.240000", "210154.700000", "210155.160000", "210155.620000", "210156.080000", "210156.540000", "210157.000000", "210157.460000", "210157.920000", "210158.380000", "210158.840000", "210159.300000", "210159.760000", "210200.220000", "210200.680000", "210201.140000", "210201.600000", "210202.060000", "210202.520000", "210202.980000", "210203.440000", "210203.900000", "210204.360000", "210204.820000", "210205.280000", "210205.740000", "210206.200000", "210206.660000", "210207.120000", "210207.580000", "210208.040000", "210208.500000", "210208.960000", "210209.420000", "210209.880000", "210210.340000", "210210.800000", "210211.260000", "210211.720000", "210212.180000", "210212.640000", "210213.100000", "210213.560000", "210214.020000", "210214.480000", "210214.940000", "210215.400000", "210215.860000", "210216.320000", "210216.780000", "210217.240000", "210217.700000", "210218.160000", "210218.620000", "210219.080000", "210219.540000", "210220.000000", "210220.460000", "210220.920000", "210221.380000", "210221.840000", "210222.300000", "210222.760000", "210223.220000", "210223.680000", "210224.140000", "210224.600000", "210225.060000", "210225.520000", "210225.980000", "210226.440000", "210226.900000", "210227.360000", "210227.820000", "210228.280000", "210228.740000", "210229.200000", "210229.660000", "210230.120000", "210230.580000", "210231.040000", "210231.500000", "210231.960000", "210232.420000", "210232.880000", "210233.340000", "210233.800000", "210234.260000", "210234.720000", "210235.180000", "210235.640000", "210236.100000", "210236.560000", "210237.020000", "210237.480000", "210237.940000", "210238.400000", "210238.860000", "210239.320000", "210239.780000", "210240.240000", "210240.700000", "210241.160000", "210241.620000", "210242.080000", "210242.540000", "210243.000000", "210243.460000", "210243.920000", "210244.380000", "210244.840000", "210245.300000", "210245.760000", "210246.220000", "210246.680000", "210247.140000", "210247.600000", "210248.060000", "210248.520000", "210248.980000", "210249.440000", "210249.900000", "210250.360000", "210250.820000", "210251.280000", "210251.740000", "210252.200000", "210252.660000", "210253.120000", "210253.580000", "210254.040000", "210254.500000", "210254.960000", "210255.420000", "210255.880000", "210256.340000", "210256.800000", "210257.260000", "210257.720000", "210258.180000", "210258.640000", "210259.100000", "210259.560000", "210300.020000", "210300.480000", "210300.940000", "210301.400000", "210301.860000", "210302.320000", "210302.780000", "210303.240000", "210303.700000", "210304.160000", "210304.620000", "210305.080000", "210305.540000", "210306.000000", "210306.460000", "210306.920000", "210307.380000", "210307.840000", "210308.300000", "210308.760000", "210309.220000", "210309.680000", "210310.140000", "210310.600000", "210311.060000", "210311.520000", "210311.980000", "210312.440000", "210312.900000", "210313.360000", "210313.820000", "210314.280000", "210314.740000", "210315.200000", "210315.660000", "210316.120000", "210316.580000", "210317.040000", "210317.500000", "210317.960000", "210318.420000", "210318.880000", "210319.340000", "210319.800000", "210320.260000", "210320.720000", "210321.180000", "210321.640000", "210322.100000", "210322.560000", "210323.020000", "210323.480000", "210323.940000", "210324.400000", "210324.860000", "210325.320000", "210325.780000", "210326.240000", "210326.700000", "210327.160000", "210327.620000", "210328.080000", "210328.540000", "210329.000000", "210329.460000", "210329.920000", "210330.380000", "210330.840000", "210331.300000", "210331.760000", "210332.220000", "210332.680000", "210333.140000", "210333.600000", "210334.060000", "210334.520000", "210334.980000", "210335.440000", "210335.900000", "210336.360000", "210336.820000", "210337.280000", "210337.740000", "210338.200000", "210338.660000", "210339.120000", "210339.580000", "210340.040000", "210340.500000", "210340.960000", "210341.420000", "210341.880000", "210342.340000", "210342.800000", "210343.260000", "210343.720000", "210344.180000", "210344.640000", "210345.100000", "210345.560000", "210346.020000", "210346.480000", "210346.940000", "210347.400000", "210347.860000", "210348.320000", "210348.780000", "210349.240000", "210349.700000", "210350.160000", "210350.620000", "210351.080000", "210351.540000", "210352.000000", "210352.460000", "210352.920000", "210353.380000", "210353.840000", "210354.300000", "210354.760000", "210355.220000", "210355.680000", "210356.140000", "210356.600000", "210357.060000", "210357.520000", "210357.980000", "210358.440000", "210358.900000", "210359.360000", "210359.820000", "210400.280000", "210400.740000", "210401.200000", "210401.660000", "210402.120000", "210402.580000", "210403.040000", "210403.500000", "210403.960000", "210404.420000", "210404.880000", "210405.340000", "210405.800000", "210406.260000", "210406.720000", "210407.180000", "210407.640000", "210408.100000", "210408.560000", "210409.020000", "210409.480000", "210409.940000", "210410.400000", "210410.860000", "210411.320000", "210411.780000", "210412.240000", "210412.700000", "210413.160000", "210413.620000", "210414.080000", "210414.540000", "210415.000000", "210415.460000", "210415.920000", "210416.380000", "210416.840000", "210417.300000", "210417.760000", "210418.220000", "210418.680000", "210419.140000", "210419.600000", "210420.060000", "210420.520000", "210420.980000", "210421.440000", "210421.900000", "210422.360000", "210422.820000", "210423.280000", "210423.740000", "210424.200000", "210424.660000", "210425.120000", "210425.580000", "210426.040000", "210426.500000", "210426.960000", "210427.420000", "210427.880000", "210428.340000", "210428.800000", "210429.260000", "210429.720000", "210430.180000", "210430.640000", "210431.100000", "210431.560000", "210432.020000", "210432.480000", "210432.940000", "210433.400000", "210433.860000", "210434.320000", "210434.780000", "210435.240000", "210435.700000", "210436.160000", "210436.620000", "210437.080000", "210437.540000", "210438.000000", "210438.460000", "210438.920000", "210439.380000", "210439.840000", "210440.300000", "210440.760000", "210441.220000", "210441.680000", "210442.140000", "210442.600000", "210443.060000", "210443.520000", "210443.980000", "210444.440000", "210444.900000", "210445.360000", "210445.820000", "210446.280000", "210446.740000", "210447.200000", "210447.660000", "210448.120000", "210448.580000", "210449.040000", "210449.500000", "210449.960000", "210450.420000", "210450.880000", "210451.340000", "210451.800000", "210452.260000", "210452.720000", "210453.180000", "210453.640000", "210454.100000", "210454.560000", "210455.020000", "210455.480000", "210455.940000", "210456.400000", "210456.860000", "210457.320000", "210457.780000", "210458.240000", "210458.700000", "210459.160000", "210459.620000", "210500.080000", "210500.540000", "210501.000000", "210501.460000", "210501.920000", "210502.380000", "210502.840000", "210503.300000", "210503.760000", "210504.220000", "210504.680000", "210505.140000", "210505.600000", "210506.060000", "210506.520000", "210506.980000", "210507.440000", "210507.900000", "210508.360000", "210508.820000", "210509.280000", "210509.740000", "210510.200000", "210510.660000", "210511.120000", "210511.580000", "210512.040000", "210512.500000", "210512.960000", "210513.420000", "210513.880000", "210514.340000", "210514.800000", "210515.260000", "210515.720000", "210516.180000", "210516.640000", "210517.100000", "210517.560000", "210518.020000", "210518.480000", "210518.940000", "210519.400000", "210519.860000", "210520.320000", "210520.780000", "210521.240000", "210521.700000", "210522.160000", "210522.620000", "210523.080000", "210523.540000", "210524.000000", "210524.460000", "210524.920000", "210525.380000", "210525.840000", "210526.300000", "210526.760000", "210527.220000", "210527.680000", "210528.140000", "210528.600000", "210529.060000", "210529.520000", "210529.980000", "210530.440000", "210530.900000", "210531.360000", "210531.820000", "210532.280000", "210532.740000", "210533.200000", "210533.660000", "210534.120000", "210534.580000", "210535.040000", "210535.500000", "210535.960000", "210536.420000", "210536.880000", "210537.340000", "210537.800000", "210538.260000", "210538.720000", "210539.180000", "210539.640000", "210540.100000", "210540.560000", "210541.020000", "210541.480000", "210541.940000", "210542.400000", "210542.860000", "210543.320000", "210543.780000", "210544.240000", "210544.700000", "210545.160000", "210545.620000", "210546.080000", "210546.540000", "210547.000000", "210547.460000", "210547.920000", "210548.380000", "210548.840000", "210549.300000", "210549.760000", "210550.220000", "210550.680000", "210551.140000", "210551.600000", "210552.060000", "210552.520000", "210552.980000", "210553.440000", "210553.900000", "210554.360000", "210554.820000", "210555.280000", "210555.740000", "210556.200000", "210556.660000", "210557.120000", "210557.580000", "210558.040000", "210558.500000", "210558.960000", "210559.420000", "210559.880000", "210600.340000", "210600.800000", "210601.260000", "210601.720000", "210602.180000", "210602.640000", "210603.100000", "210603.560000", "210604.020000", "210604.480000", "210604.940000", "210605.400000", "210605.860000", "210606.320000", "210606.780000", "210607.240000", "210607.700000", "210608.160000", "210608.620000", "210609.080000", "210609.540000", "210610.000000", "210610.460000", "210610.920000", "210611.380000", "210611.840000", "210612.300000", "210612.760000", "210613.220000", "210613.680000", "210614.140000", "210614.600000", "210615.060000", "210615.520000", "210615.980000", "210616.440000", "210616.900000", "210617.360000", "210617.820000", "210618.280000", "210618.740000", "210619.200000", "210619.660000", "210620.120000", "210620.580000", "210621.040000", "210621.500000", "210621.960000", "210622.420000", "210622.880000", "210623.340000", "210623.800000", "210624.260000", "210624.720000", "210625.180000", "210625.640000", "210626.100000", "210626.560000", "210627.020000", "210627.480000", "210627.940000", "210628.400000", "210628.860000", "210629.320000", "210629.780000", "210630.240000", "210630.700000", "210631.160000", "210631.620000", "210632.080000", "210632.540000", "210633.000000", "210633.460000", "210633.920000", "210634.380000", "210634.840000", "210635.300000", "210635.760000", "210636.220000", "210636.680000", "210637.140000", "210637.600000", "210638.060000", "210638.520000", "210638.980000", "210639.440000", "210639.900000", "210640.360000", "210640.820000", "210641.280000", "210641.740000", "210642.200000", "210642.660000", "210643.120000", "210643.580000", "210644.040000", "210644.500000", "210644.960000", "210645.420000", "210645.880000", "210646.340000", "210646.800000", "210647.260000", "210647.720000", "210648.180000", "210648.640000", "210649.100000", "210649.560000", "210650.020000", "210650.480000", "210650.940000", "210651.400000", "210651.860000", "210652.320000", "210652.780000", "210653.240000", "210653.700000", "210654.160000", "210654.620000", "210655.080000", "210655.540000", "210656.000000", "210656.460000", "210656.920000", "210657.380000", "210657.840000", "210658.300000", "210658.760000", "210659.220000", "210659.680000", "210700.140000", "210700.600000", "210701.060000", "210701.520000", "210701.980000", "210702.440000", "210702.900000", "210703.360000", "210703.820000", "210704.280000", "210704.740000", "210705.200000", "210705.660000"],
