{
  "AcquisitionMatrixPE": 82,
  "AcquisitionNumber": 1,
  "AcquisitionTime": "20:05:21.542500",
  "BandwidthPerPixelPhaseEncode": 24.888,
  "BaseResolution": 82,
  "BodyPartExamined": "BRAIN",
  "ConsistencyInfo": "N4_VE11E_LATEST_20181129",
  "ConversionSoftware": "dcm2niix",
  "ConversionSoftwareVersion": "v1.0.20201102",
  "DerivedVendorReportedEchoSpacing": 0.00049,
  "DeviceSerialNumber": "66112",
  "DwellTime": 2e-06,
  "EchoTime": 0.0272,
  "EchoTrainLength": 82,
  "EffectiveEchoSpacing": 0.00049,
  "FlipAngle": 44,
  "ImageComments": "Unaliased MB8/PE3",
  "ImageOrientationPatientDICOM": [0.999388, 0.0345778, 0.00529612, -0.0348994, 0.975221, 0.218462],
  "ImageType": [
    "ORIGINAL",
    "PRIMARY",
    "M",
    "MB",
    "ND",
    "NORM",
    "MOSAIC"
],
  "ImagingFrequency": 123.259,
  "InPlanePhaseEncodingDirectionDICOM": "COL",
  "InstitutionAddress": "Maynard 3,Hanover,NH,US,03755",
  "InstitutionName": "Dartmouth College - PBS",
  "InstitutionalDepartmentName": "Department",
  "MRAcquisitionType": "2D",
  "MagneticFieldStrength": 3,
  "Manufacturer": "Siemens",
  "ManufacturersModelName": "Prisma",
  "Modality": "MR",
  "MultibandAccelerationFactor": 8,
  "PartialFourier": 1,
  "PatientPosition": "HFS",
  "PercentPhaseFOV": 100,
  "PercentSampling": 100,
  "PhaseEncodingDirection": "j-",
  "PhaseEncodingSteps": 82,
  "PhaseResolution": 1,
  "PixelBandwidth": 3050,
  "ProcedureStepDescription": "Wager_Wager^1076_spacetop",
  "ProtocolName": "func_run-05_task-social_acq-ap-mb8",
  "PulseSequenceDetails": "%CustomerSeq%\\cmrr_mbep2d_bold",
  "ReceiveCoilActiveElements": "HEA;HEP",
  "ReceiveCoilName": "Head_32",
  "ReconMatrixPE": 82,
  "RepetitionTime": 0.46,
  "SAR": 0.100104,
  "ScanOptions": "FS",
  "ScanningSequence": "EP",
  "SequenceName": "epfid2d1_82",
  "SequenceVariant": "SK\\SS",
  "SeriesDescription": "func_run-05_task-social_acq-ap-mb8",
  "SeriesNumber": 16,
  "ShimSetting": [4229, -7803, -7257, 348, -106, -244, 29, 45],
  "SliceThickness": 2.7,
  "SliceTiming": [0, 0.2525, 0.0625, 0.315, 0.125, 0.3775, 0.1875, 0, 0.2525, 0.0625, 0.315, 0.125, 0.3775, 0.1875, 0, 0.2525, 0.0625, 0.315, 0.125, 0.3775, 0.1875, 0, 0.2525, 0.0625, 0.315, 0.125, 0.3775, 0.1875, 0, 0.2525, 0.0625, 0.315, 0.125, 0.3775, 0.1875, 0, 0.2525, 0.0625, 0.315, 0.125, 0.3775, 0.1875, 0, 0.2525, 0.0625, 0.315, 0.125, 0.3775, 0.1875, 0, 0.2525, 0.0625, 0.315, 0.125, 0.3775, 0.1875],
  "SoftwareVersions": "syngo MR E11",
  "SpacingBetweenSlices": 2.7,
  "StationName": "AWP66112",
  "TaskName": "social",
  "TotalReadoutTime": 0.03969,
  "TxRefAmp": 229.949,
  "WipMemBlock": "36c8d8a1-1a33-4fc2-abbf-6b2a628488b5||Sequence: R016 ve11e/master r/434b28f1; Aug  7 2019 18:53:46 by eja",
  "dcmmeta_affine": [
    [-2.6812849044799805, -0.0936325192451477, -0.0064504556357860565, 116.146728515625],
    [-0.09276978671550751, 2.6164469718933105, 0.5899860262870789, -101.13699340820312],
    [0.014209112152457237, -0.5861181616783142, 2.6347436904907227, -51.96849060058594],
    [0.0, 0.0, 0.0, 1.0]
],
  "dcmmeta_reorient_transform": [
    [0.0, -1.0, 0.0, 81.0],
    [1.0, 0.0, 0.0, 0.0],
    [0.0, 0.0, 1.0, 0.0],
    [0.0, 0.0, 0.0, 1.0]
],
  "dcmmeta_shape": [82, 82, 56, 872],
  "dcmmeta_slice_dim": 2,
  "dcmmeta_version": 0.6,
  "global": {
    "const": {
      "AccessionNumber": "A004326",
      "AcquisitionMatrix": [82, 0, 0, 82],
      "AngioFlag": "N",
      "BitsAllocated": 16,
      "BitsStored": 16,
      "BodyPartExamined": "BRAIN",
      "Columns": 656,
      "EchoNumbers": 1,
      "EchoTime": 27.2,
      "EchoTrainLength": 82,
      "FlipAngle": 44.0,
      "HighBit": 15,
      "ImageOrientationPatient": [0.99938797509701, 0.0345778297091, 0.00529612349907, -0.0348993930449, 0.97522115038314, 0.21846221689458],
      "ImagePositionPatient": [-851.21871910381, -888.34044866955, -271.73798694125],
      "ImageType": [
        "ORIGINAL",
        "PRIMARY",
        "M",
        "MB",
        "ND",
        "NORM",
        "MOSAIC"
],
      "ImagedNucleus": "1H",
      "ImagingFrequency": 123.259138,
      "InPlanePhaseEncodingDirection": "COL",
      "MRAcquisitionType": "2D",
      "MagneticFieldStrength": 3.0,
      "Manufacturer": "SIEMENS",
      "ManufacturerModelName": "Prisma",
      "Modality": "MR",
      "NumberOfAverages": 1.0,
      "NumberOfPhaseEncodingSteps": 82,
      "PercentPhaseFieldOfView": 100.0,
      "PercentSampling": 100.0,
      "PerformedProcedureStepStartTime": "192222.218000",
      "PhotometricInterpretation": "MONOCHROME2",
      "PixelBandwidth": 3050.0,
      "PixelRepresentation": 0,
      "PixelSpacing": [2.6829268932343, 2.6829268932343],
      "ProtocolName": "func_run-05_task-social_acq-ap-mb8",
      "RepetitionTime": 460.0,
      "Rows": 656,
      "SAR": 0.10010440568043,
      "SamplesPerPixel": 1,
      "ScanOptions": "FS",
      "ScanningSequence": "EP",
      "SequenceName": "epfid2d1_82",
      "SequenceVariant": [
        "SK",
        "SS"
],
      "SeriesDescription": "func_run-05_task-social_acq-ap-mb8",
      "SeriesNumber": 16,
      "SeriesTime": "200538.173000",
      "SliceLocation": -73.089729829673,
      "SliceThickness": 2.7000000476837,
      "SmallestImagePixelValue": 0,
      "SoftwareVersions": "syngo MR E11",
      "SpacingBetweenSlices": 2.699999915577,
      "SpecificCharacterSet": "ISO_IR 100",
      "StudyID": "1",
      "StudyTime": "192222.134000",
      "TransmitCoilName": "Body",
      "VariableFlipAngleFlag": "N",
      "WindowCenterWidthExplanation": "Algo1"
    },
    "slices": {}
  },
  "time": {
    "samples": {
      "AcquisitionNumber": [1, 2, 3, 4, 5, 6, 7, 8, 9, 10, 11, 12, 13, 14, 15, 16, 17, 18, 19, 20, 21, 22, 23, 24, 25, 26, 27, 28, 29, 30, 31, 32, 33, 34, 35, 36, 37, 38, 39, 40, 41, 42, 43, 44, 45, 46, 47, 48, 49, 50, 51, 52, 53, 54, 55, 56, 57, 58, 59, 60, 61, 62, 63, 64, 65, 66, 67, 68, 69, 70, 71, 72, 73, 74, 75, 76, 77, 78, 79, 80, 81, 82, 83, 84, 85, 86, 87, 88, 89, 90, 91, 92, 93, 94, 95, 96, 97, 98, 99, 100, 101, 102, 103, 104, 105, 106, 107, 108, 109, 110, 111, 112, 113, 114, 115, 116, 117, 118, 119, 120, 121, 122, 123, 124, 125, 126, 127, 128, 129, 130, 131, 132, 133, 134, 135, 136, 137, 138, 139, 140, 141, 142, 143, 144, 145, 146, 147, 148, 149, 150, 151, 152, 153, 154, 155, 156, 157, 158, 159, 160, 161, 162, 163, 164, 165, 166, 167, 168, 169, 170, 171, 172, 173, 174, 175, 176, 177, 178, 179, 180, 181, 182, 183, 184, 185, 186, 187, 188, 189, 190, 191, 192, 193, 194, 195, 196, 197, 198, 199, 200, 201, 202, 203, 204, 205, 206, 207, 208, 209, 210, 211, 212, 213, 214, 215, 216, 217, 218, 219, 220, 221, 222, 223, 224, 225, 226, 227, 228, 229, 230, 231, 232, 233, 234, 235, 236, 237, 238, 239, 240, 241, 242, 243, 244, 245, 246, 247, 248, 249, 250, 251, 252, 253, 254, 255, 256, 257, 258, 259, 260, 261, 262, 263, 264, 265, 266, 267, 268, 269, 270, 271, 272, 273, 274, 275, 276, 277, 278, 279, 280, 281, 282, 283, 284, 285, 286, 287, 288, 289, 290, 291, 292, 293, 294, 295, 296, 297, 298, 299, 300, 301, 302, 303, 304, 305, 306, 307, 308, 309, 310, 311, 312, 313, 314, 315, 316, 317, 318, 319, 320, 321, 322, 323, 324, 325, 326, 327, 328, 329, 330, 331, 332, 333, 334, 335, 336, 337, 338, 339, 340, 341, 342, 343, 344, 345, 346, 347, 348, 349, 350, 351, 352, 353, 354, 355, 356, 357, 358, 359, 360, 361, 362, 363, 364, 365, 366, 367, 368, 369, 370, 371, 372, 373, 374, 375, 376, 377, 378, 379, 380, 381, 382, 383, 384, 385, 386, 387, 388, 389, 390, 391, 392, 393, 394, 395, 396, 397, 398, 399, 400, 401, 402, 403, 404, 405, 406, 407, 408, 409, 410, 411, 412, 413, 414, 415, 416, 417, 418, 419, 420, 421, 422, 423, 424, 425, 426, 427, 428, 429, 430, 431, 432, 433, 434, 435, 436, 437, 438, 439, 440, 441, 442, 443, 444, 445, 446, 447, 448, 449, 450, 451, 452, 453, 454, 455, 456, 457, 458, 459, 460, 461, 462, 463, 464, 465, 466, 467, 468, 469, 470, 471, 472, 473, 474, 475, 476, 477, 478, 479, 480, 481, 482, 483, 484, 485, 486, 487, 488, 489, 490, 491, 492, 493, 494, 495, 496, 497, 498, 499, 500, 501, 502, 503, 504, 505, 506, 507, 508, 509, 510, 511, 512, 513, 514, 515, 516, 517, 518, 519, 520, 521, 522, 523, 524, 525, 526, 527, 528, 529, 530, 531, 532, 533, 534, 535, 536, 537, 538, 539, 540, 541, 542, 543, 544, 545, 546, 547, 548, 549, 550, 551, 552, 553, 554, 555, 556, 557, 558, 559, 560, 561, 562, 563, 564, 565, 566, 567, 568, 569, 570, 571, 572, 573, 574, 575, 576, 577, 578, 579, 580, 581, 582, 583, 584, 585, 586, 587, 588, 589, 590, 591, 592, 593, 594, 595, 596, 597, 598, 599, 600, 601, 602, 603, 604, 605, 606, 607, 608, 609, 610, 611, 612, 613, 614, 615, 616, 617, 618, 619, 620, 621, 622, 623, 624, 625, 626, 627, 628, 629, 630, 631, 632, 633, 634, 635, 636, 637, 638, 639, 640, 641, 642, 643, 644, 645, 646, 647, 648, 649, 650, 651, 652, 653, 654, 655, 656, 657, 658, 659, 660, 661, 662, 663, 664, 665, 666, 667, 668, 669, 670, 671, 672, 673, 674, 675, 676, 677, 678, 679, 680, 681, 682, 683, 684, 685, 686, 687, 688, 689, 690, 691, 692, 693, 694, 695, 696, 697, 698, 699, 700, 701, 702, 703, 704, 705, 706, 707, 708, 709, 710, 711, 712, 713, 714, 715, 716, 717, 718, 719, 720, 721, 722, 723, 724, 725, 726, 727, 728, 729, 730, 731, 732, 733, 734, 735, 736, 737, 738, 739, 740, 741, 742, 743, 744, 745, 746, 747, 748, 749, 750, 751, 752, 753, 754, 755, 756, 757, 758, 759, 760, 761, 762, 763, 764, 765, 766, 767, 768, 769, 770, 771, 772, 773, 774, 775, 776, 777, 778, 779, 780, 781, 782, 783, 784, 785, 786, 787, 788, 789, 790, 791, 792, 793, 794, 795, 796, 797, 798, 799, 800, 801, 802, 803, 804, 805, 806, 807, 808, 809, 810, 811, 812, 813, 814, 815, 816, 817, 818, 819, 820, 821, 822, 823, 824, 825, 826, 827, 828, 829, 830, 831, 832, 833, 834, 835, 836, 837, 838, 839, 840, 841, 842, 843, 844, 845, 846, 847, 848, 849, 850, 851, 852, 853, 854, 855, 856, 857, 858, 859, 860, 861, 862, 863, 864, 865, 866, 867, 868, 869, 870, 871, 872],
      "AcquisitionTime": ["200521.542500", "200522.002500", "200522.462500", "200522.922500", "200523.382500", "200523.842500", "200524.302500", "200524.762500", "200525.222500", "200525.682500", "200526.142500", "200526.602500", "200527.062500", "200527.522500", "200527.982500", "200528.442500", "200528.902500", "200529.362500", "200529.822500", "200530.282500", "200530.742500", "200531.202500", "200531.662500", "200532.122500", "200532.582500", "200533.042500", "200533.502500", "200533.962500", "200534.422500", "200534.882500", "200535.342500", "200535.802500", "200536.262500", "200536.722500", "200537.182500", "200537.642500", "200538.102500", "200538.562500", "200539.022500", "200539.482500", "200539.942500", "200540.402500", "200540.862500", "200541.322500", "200541.782500", "200542.242500", "200542.702500", "200543.162500", "200543.622500", "200544.082500", "200544.542500", "200545.002500", "200545.462500", "200545.922500", "200546.382500", "200546.842500", "200547.302500", "200547.762500", "200548.222500", "200548.682500", "200549.142500", "200549.602500", "200550.062500", "200550.522500", "200550.982500", "200551.442500", "200551.902500", "200552.362500", "200552.822500", "200553.282500", "200553.742500", "200554.202500", "200554.662500", "200555.122500", "200555.582500", "200556.042500", "200556.502500", "200556.962500", "200557.422500", "200557.882500", "200558.342500", "200558.802500", "200559.262500", "200559.722500", "200600.182500", "200600.642500", "200601.102500", "200601.562500", "200602.022500", "200602.482500", "200602.942500", "200603.402500", "200603.862500", "200604.322500", "200604.782500", "200605.242500", "200605.702500", "200606.162500", "200606.622500", "200607.082500", "200607.542500", "200608.002500", "200608.462500", "200608.922500", "200609.382500", "200609.842500", "200610.302500", "200610.762500", "200611.222500", "200611.682500", "200612.142500", "200612.602500", "200613.062500", "200613.522500", "200613.982500", "200614.442500", "200614.902500", "200615.362500", "200615.822500", "200616.282500", "200616.742500", "200617.202500", "200617.662500", "200618.122500", "200618.582500", "200619.042500", "200619.502500", "200619.962500", "200620.422500", "200620.882500", "200621.342500", "200621.802500", "200622.262500", "200622.722500", "200623.182500", "200623.642500", "200624.102500", "200624.562500", "200625.022500", "200625.482500", "200625.942500", "200626.402500", "200626.862500", "200627.322500", "200627.782500", "200628.242500", "200628.702500", "200629.162500", "200629.622500", "200630.082500", "200630.542500", "200631.002500", "200631.462500", "200631.922500", "200632.382500", "200632.842500", "200633.302500", "200633.762500", "200634.222500", "200634.682500", "200635.142500", "200635.602500", "200636.062500", "200636.522500", "200636.982500", "200637.442500", "200637.902500", "200638.362500", "200638.822500", "200639.282500", "200639.742500", "200640.202500", "200640.662500", "200641.122500", "200641.582500", "200642.042500", "200642.502500", "200642.962500", "200643.422500", "200643.882500", "200644.342500", "200644.802500", "200645.262500", "200645.722500", "200646.182500", "200646.642500", "200647.102500", "200647.562500", "200648.022500", "200648.482500", "200648.942500", "200649.402500", "200649.862500", "200650.322500", "200650.782500", "200651.242500", "200651.702500", "200652.162500", "200652.622500", "200653.082500", "200653.542500", "200654.002500", "200654.462500", "200654.922500", "200655.382500", "200655.842500", "200656.302500", "200656.762500", "200657.222500", "200657.682500", "200658.142500", "200658.602500", "200659.062500", "200659.522500", "200659.982500", "200700.442500", "200700.902500", "200701.362500", "200701.822500", "200702.282500", "200702.742500", "200703.202500", "200703.662500", "200704.122500", "200704.582500", "200705.042500", "200705.502500", "200705.962500", "200706.422500", "200706.882500", "200707.342500", "200707.802500", "200708.262500", "200708.722500", "200709.182500", "200709.642500", "200710.102500", "200710.562500", "200711.022500", "200711.482500", "200711.942500", "200712.402500", "200712.862500", "200713.322500", "200713.782500", "200714.242500", "200714.702500", "200715.162500", "200715.622500", "200716.082500", "200716.542500", "200717.002500", "200717.462500", "200717.922500", "200718.382500", "200718.842500", "200719.302500", "200719.762500", "200720.222500", "200720.682500", "200721.142500", "200721.602500", "200722.062500", "200722.522500", "200722.982500", "200723.442500", "200723.902500", "200724.362500", "200724.822500", "200725.282500", "200725.742500", "200726.202500", "200726.662500", "200727.122500", "200727.582500", "200728.042500", "200728.502500", "200728.962500", "200729.422500", "200729.882500", "200730.342500", "200730.802500", "200731.262500", "200731.722500", "200732.182500", "200732.642500", "200733.102500", "200733.562500", "200734.022500", "200734.482500", "200734.942500", "200735.402500", "200735.862500", "200736.322500", "200736.782500", "200737.242500", "200737.702500", "200738.162500", "200738.622500", "200739.082500", "200739.542500", "200740.002500", "200740.462500", "200740.922500", "200741.382500", "200741.842500", "200742.302500", "200742.762500", "200743.222500", "200743.682500", "200744.142500", "200744.602500", "200745.062500", "200745.522500", "200745.982500", "200746.442500", "200746.902500", "200747.362500", "200747.822500", "200748.282500", "200748.742500", "200749.202500", "200749.662500", "200750.122500", "200750.582500", "200751.042500", "200751.502500", "200751.962500", "200752.422500", "200752.882500", "200753.342500", "200753.802500", "200754.262500", "200754.722500", "200755.182500", "200755.642500", "200756.102500", "200756.562500", "200757.022500", "200757.482500", "200757.942500", "200758.402500", "200758.862500", "200759.322500", "200759.782500", "200800.242500", "200800.702500", "200801.162500", "200801.622500", "200802.082500", "200802.542500", "200803.002500", "200803.462500", "200803.922500", "200804.382500", "200804.842500", "200805.302500", "200805.762500", "200806.222500", "200806.682500", "200807.142500", "200807.602500", "200808.062500", "200808.522500", "200808.982500", "200809.442500", "200809.902500", "200810.362500", "200810.822500", "200811.282500", "200811.742500", "200812.202500", "200812.662500", "200813.122500", "200813.582500", "200814.042500", "200814.502500", "200814.962500", "200815.422500", "200815.882500", "200816.342500", "200816.802500", "200817.262500", "200817.722500", "200818.182500", "200818.642500", "200819.102500", "200819.562500", "200820.022500", "200820.482500", "200820.942500", "200821.402500", "200821.862500", "200822.322500", "200822.782500", "200823.242500", "200823.702500", "200824.162500", "200824.622500", "200825.082500", "200825.542500", "200826.002500", "200826.462500", "200826.922500", "200827.382500", "200827.842500", "200828.302500", "200828.762500", "200829.222500", "200829.682500", "200830.142500", "200830.602500", "200831.062500", "200831.522500", "200831.982500", "200832.442500", "200832.902500", "200833.362500", "200833.822500", "200834.282500", "200834.742500", "200835.202500", "200835.662500", "200836.122500", "200836.582500", "200837.042500", "200837.502500", "200837.962500", "200838.422500", "200838.882500", "200839.342500", "200839.802500", "200840.262500", "200840.722500", "200841.182500", "200841.642500", "200842.102500", "200842.562500", "200843.022500", "200843.482500", "200843.942500", "200844.402500", "200844.862500", "200845.322500", "200845.782500", "200846.242500", "200846.702500", "200847.162500", "200847.622500", "200848.082500", "200848.542500", "200849.002500", "200849.462500", "200849.922500", "200850.382500", "200850.842500", "200851.302500", "200851.762500", "200852.222500", "200852.682500", "200853.142500", "200853.602500", "200854.062500", "200854.522500", "200854.982500", "200855.442500", "200855.902500", "200856.362500", "200856.822500", "200857.282500", "200857.742500", "200858.202500", "200858.662500", "200859.122500", "200859.582500", "200900.042500", "200900.502500", "200900.962500", "200901.422500", "200901.882500", "200902.342500", "200902.802500", "200903.262500", "200903.722500", "200904.182500", "200904.642500", "200905.102500", "200905.562500", "200906.022500", "200906.482500", "200906.942500", "200907.402500", "200907.862500", "200908.322500", "200908.782500", "200909.242500", "200909.702500", "200910.162500", "200910.622500", "200911.082500", "200911.542500", "200912.002500", "200912.462500", "200912.922500", "200913.382500", "200913.842500", "200914.302500", "200914.762500", "200915.222500", "200915.682500", "200916.142500", "200916.602500", "200917.062500", "200917.522500", "200917.982500", "200918.442500", "200918.902500", "200919.362500", "200919.822500", "200920.282500", "200920.742500", "200921.202500", "200921.662500", "200922.122500", "200922.582500", "200923.042500", "200923.502500", "200923.962500", "200924.422500", "200924.882500", "200925.342500", "200925.802500", "200926.262500", "200926.722500", "200927.182500", "200927.642500", "200928.102500", "200928.562500", "200929.022500", "200929.482500", "200929.942500", "200930.402500", "200930.862500", "200931.322500", "200931.782500", "200932.242500", "200932.702500", "200933.162500", "200933.622500", "200934.082500", "200934.542500", "200935.002500", "200935.462500", "200935.922500", "200936.382500", "200936.842500", "200937.302500", "200937.762500", "200938.222500", "200938.682500", "200939.142500", "200939.602500", "200940.062500", "200940.522500", "200940.982500", "200941.442500", "200941.902500", "200942.362500", "200942.822500", "200943.282500", "200943.742500", "200944.202500", "200944.662500", "200945.122500", "200945.582500", "200946.042500", "200946.502500", "200946.962500", "200947.422500", "200947.882500", "200948.342500", "200948.802500", "200949.262500", "200949.722500", "200950.182500", "200950.642500", "200951.102500", "200951.562500", "200952.022500", "200952.482500", "200952.942500", "200953.402500", "200953.862500", "200954.322500", "200954.782500", "200955.242500", "200955.702500", "200956.162500", "200956.622500", "200957.082500", "200957.542500", "200958.002500", "200958.462500", "200958.922500", "200959.382500", "200959.842500", "201000.302500", "201000.762500", "201001.222500", "201001.682500", "201002.142500", "201002.602500", "201003.062500", "201003.522500", "201003.982500", "201004.442500", "201004.902500", "201005.362500", "201005.822500", "201006.282500", "201006.742500", "201007.202500", "201007.662500", "201008.122500", "201008.582500", "201009.042500", "201009.502500", "201009.962500", "201010.422500", "201010.882500", "201011.342500", "201011.802500", "201012.262500", "201012.722500", "201013.182500", "201013.642500", "201014.102500", "201014.562500", "201015.022500", "201015.482500", "201015.942500", "201016.402500", "201016.862500", "201017.322500", "201017.782500", "201018.242500", "201018.702500", "201019.162500", "201019.622500", "201020.082500", "201020.542500", "201021.002500", "201021.462500", "201021.922500", "201022.382500", "201022.842500", "201023.302500", "201023.762500", "201024.222500", "201024.682500", "201025.142500", "201025.602500", "201026.062500", "201026.522500", "201026.982500", "201027.442500", "201027.902500", "201028.362500", "201028.822500", "201029.282500", "201029.742500", "201030.202500", "201030.662500", "201031.122500", "201031.582500", "201032.042500", "201032.502500", "201032.962500", "201033.422500", "201033.882500", "201034.342500", "201034.802500", "201035.262500", "201035.722500", "201036.182500", "201036.642500", "201037.102500", "201037.562500", "201038.022500", "201038.482500", "201038.942500", "201039.402500", "201039.862500", "201040.322500", "201040.782500", "201041.242500", "201041.702500", "201042.162500", "201042.622500", "201043.082500", "201043.542500", "201044.002500", "201044.462500", "201044.922500", "201045.382500", "201045.842500", "201046.302500", "201046.762500", "201047.222500", "201047.682500", "201048.142500", "201048.602500", "201049.062500", "201049.522500", "201049.982500", "201050.442500", "201050.902500", "201051.362500", "201051.822500", "201052.282500", "201052.742500", "201053.202500", "201053.662500", "201054.122500", "201054.582500", "201055.042500", "201055.502500", "201055.962500", "201056.422500", "201056.882500", "201057.342500", "201057.802500", "201058.262500", "201058.722500", "201059.182500", "201059.642500", "201100.102500", "201100.562500", "201101.022500", "201101.482500", "201101.942500", "201102.402500", "201102.862500", "201103.322500", "201103.782500", "201104.242500", "201104.702500", "201105.162500", "201105.622500", "201106.082500", "201106.542500", "201107.002500", "201107.462500", "201107.922500", "201108.382500", "201108.842500", "201109.302500", "201109.762500", "201110.222500", "201110.682500", "201111.142500", "201111.602500", "201112.062500", "201112.522500", "201112.982500", "201113.442500", "201113.902500", "201114.362500", "201114.822500", "201115.282500", "201115.742500", "201116.202500", "201116.662500", "201117.122500", "201117.582500", "201118.042500", "201118.502500", "201118.962500", "201119.422500", "201119.882500", "201120.342500", "201120.802500", "201121.262500", "201121.722500", "201122.182500", "201122.642500", "201123.102500", "201123.562500", "201124.022500", "201124.482500", "201124.942500", "201125.402500", "201125.862500", "201126.322500", "201126.782500", "201127.242500", "201127.702500", "201128.162500", "201128.622500", "201129.082500", "201129.542500", "201130.002500", "201130.462500", "201130.922500", "201131.382500", "201131.842500", "201132.302500", "201132.762500", "201133.222500", "201133.682500", "201134.142500", "201134.602500", "201135.062500", "201135.522500", "201135.982500", "201136.442500", "201136.902500", "201137.362500", "201137.822500", "201138.282500", "201138.742500", "201139.202500", "201139.662500", "201140.122500", "201140.582500", "201141.042500", "201141.502500", "201141.962500", "201142.422500", "201142.882500", "201143.342500", "201143.802500", "201144.262500", "201144.722500", "201145.182500", "201145.642500", "201146.102500", "201146.562500", "201147.022500", "201147.482500", "201147.942500", "201148.402500", "201148.862500", "201149.322500", "201149.782500", "201150.242500", "201150.702500", "201151.162500", "201151.622500", "201152.082500", "201152.542500", "201153.002500", "201153.462500", "201153.922500", "201154.382500", "201154.842500", "201155.302500", "201155.762500", "201156.222500", "201156.682500", "201157.142500", "201157.602500", "201158.062500", "201158.522500", "201158.982500", "201159.442500", "201159.902500", "201200.362500", "201200.822500", "201201.282500", "201201.742500", "201202.202500"],
