{
  "AcquisitionMatrixPE": 82,
  "AcquisitionNumber": 1,
  "AcquisitionTime": "20:14:3.422500",
  "BandwidthPerPixelPhaseEncode": 24.888,
  "BaseResolution": 82,
  "BodyPartExamined": "BRAIN",
  "ConsistencyInfo": "N4_VE11E_LATEST_20181129",
  "ConversionSoftware": "dcm2niix",
  "ConversionSoftwareVersion": "v1.0.20201102",
  "DerivedVendorReportedEchoSpacing": 0.00049,
  "DeviceSerialNumber": "66112",
  "DwellTime": 2e-06,
  "EchoTime": 0.0272,
  "EchoTrainLength": 82,
  "EffectiveEchoSpacing": 0.00049,
  "FlipAngle": 44,
  "ImageComments": "Unaliased MB8/PE3",
  "ImageOrientationPatientDICOM": [0.999388, 0.0345778, 0.00529612, -0.0348994, 0.975221, 0.218462],
  "ImageType": [
    "ORIGINAL",
    "PRIMARY",
    "M",
    "MB",
    "ND",
    "NORM",
    "MOSAIC"
],
  "ImagingFrequency": 123.259,
  "InPlanePhaseEncodingDirectionDICOM": "COL",
  "InstitutionAddress": "Maynard 3,Hanover,NH,US,03755",
  "InstitutionName": "Dartmouth College - PBS",
  "InstitutionalDepartmentName": "Department",
  "MRAcquisitionType": "2D",
  "MagneticFieldStrength": 3,
  "Manufacturer": "Siemens",
  "ManufacturersModelName": "Prisma",
  "Modality": "MR",
  "MultibandAccelerationFactor": 8,
  "PartialFourier": 1,
  "PatientPosition": "HFS",
  "PercentPhaseFOV": 100,
  "PercentSampling": 100,
  "PhaseEncodingDirection": "j-",
  "PhaseEncodingSteps": 82,
  "PhaseResolution": 1,
  "PixelBandwidth": 3050,
  "ProcedureStepDescription": "Wager_Wager^1076_spacetop",
  "ProtocolName": "func_run-06_task-social_acq-ap-mb8",
  "PulseSequenceDetails": "%CustomerSeq%\\cmrr_mbep2d_bold",
  "ReceiveCoilActiveElements": "HEA;HEP",
  "ReceiveCoilName": "Head_32",
  "ReconMatrixPE": 82,
  "RepetitionTime": 0.46,
  "SAR": 0.100104,
  "ScanOptions": "FS",
  "ScanningSequence": "EP",
  "SequenceName": "epfid2d1_82",
  "SequenceVariant": "SK\\SS",
  "SeriesDescription": "func_run-06_task-social_acq-ap-mb8",
  "SeriesNumber": 18,
  "ShimSetting": [4229, -7803, -7257, 348, -106, -244, 29, 45],
  "SliceThickness": 2.7,
  "SliceTiming": [0, 0.2525, 0.065, 0.315, 0.1275, 0.3775, 0.19, 0, 0.2525, 0.065, 0.315, 0.1275, 0.3775, 0.19, 0, 0.2525, 0.065, 0.315, 0.1275, 0.3775, 0.19, 0, 0.2525, 0.065, 0.315, 0.1275, 0.3775, 0.19, 0, 0.2525, 0.065, 0.315, 0.1275, 0.3775, 0.19, 0, 0.2525, 0.065, 0.315, 0.1275, 0.3775, 0.19, 0, 0.2525, 0.065, 0.315, 0.1275, 0.3775, 0.19, 0, 0.2525, 0.065, 0.315, 0.1275, 0.3775, 0.19],
  "SoftwareVersions": "syngo MR E11",
  "SpacingBetweenSlices": 2.7,
  "StationName": "AWP66112",
  "TaskName": "social",
  "TotalReadoutTime": 0.03969,
  "TxRefAmp": 229.949,
  "WipMemBlock": "daae4031-4889-4682-8afc-42e1e6ba86c0||Sequence: R016 ve11e/master r/434b28f1; Aug  7 2019 18:53:46 by eja",
  "dcmmeta_affine": [
    [-2.6812849044799805, -0.0936325192451477, -0.0064504556357860565, 116.146728515625],
    [-0.09276978671550751, 2.6164469718933105, 0.5899860262870789, -101.13699340820312],
    [0.014209112152457237, -0.5861181616783142, 2.6347436904907227, -51.96849060058594],
    [0.0, 0.0, 0.0, 1.0]
],
  "dcmmeta_reorient_transform": [
    [0.0, -1.0, 0.0, 81.0],
    [1.0, 0.0, 0.0, 0.0],
    [0.0, 0.0, 1.0, 0.0],
    [0.0, 0.0, 0.0, 1.0]
],
  "dcmmeta_shape": [82, 82, 56, 872],
  "dcmmeta_slice_dim": 2,
  "dcmmeta_version": 0.6,
  "global": {
    "const": {
      "AccessionNumber": "A004326",
      "AcquisitionMatrix": [82, 0, 0, 82],
      "AngioFlag": "N",
      "BitsAllocated": 16,
      "BitsStored": 16,
      "BodyPartExamined": "BRAIN",
      "Columns": 656,
      "EchoNumbers": 1,
      "EchoTime": 27.2,
      "EchoTrainLength": 82,
      "FlipAngle": 44.0,
      "HighBit": 15,
      "ImageOrientationPatient": [0.99938797509701, 0.0345778297091, 0.00529612349907, -0.0348993930449, 0.97522115038314, 0.21846221689458],
      "ImagePositionPatient": [-851.21871910381, -888.34044866955, -271.73798694125],
      "ImageType": [
        "ORIGINAL",
        "PRIMARY",
        "M",
        "MB",
        "ND",
        "NORM",
        "MOSAIC"
],
      "ImagedNucleus": "1H",
      "ImagingFrequency": 123.259137,
      "InPlanePhaseEncodingDirection": "COL",
      "MRAcquisitionType": "2D",
      "MagneticFieldStrength": 3.0,
      "Manufacturer": "SIEMENS",
      "ManufacturerModelName": "Prisma",
      "Modality": "MR",
      "NumberOfAverages": 1.0,
      "NumberOfPhaseEncodingSteps": 82,
      "PercentPhaseFieldOfView": 100.0,
      "PercentSampling": 100.0,
      "PerformedProcedureStepStartTime": "192222.218000",
      "PhotometricInterpretation": "MONOCHROME2",
      "PixelBandwidth": 3050.0,
      "PixelRepresentation": 0,
      "PixelSpacing": [2.6829268932343, 2.6829268932343],
      "ProtocolName": "func_run-06_task-social_acq-ap-mb8",
      "RepetitionTime": 460.0,
      "Rows": 656,
      "SAR": 0.10010440568043,
      "SamplesPerPixel": 1,
      "ScanOptions": "FS",
      "ScanningSequence": "EP",
      "SequenceName": "epfid2d1_82",
      "SequenceVariant": [
        "SK",
        "SS"
],
      "SeriesDescription": "func_run-06_task-social_acq-ap-mb8",
      "SeriesNumber": 18,
      "SeriesTime": "201418.251000",
      "SliceLocation": -73.089729829673,
      "SliceThickness": 2.7000000476837,
      "SmallestImagePixelValue": 0,
      "SoftwareVersions": "syngo MR E11",
      "SpacingBetweenSlices": 2.699999915577,
      "SpecificCharacterSet": "ISO_IR 100",
      "StudyID": "1",
      "StudyTime": "192222.134000",
      "TransmitCoilName": "Body",
      "VariableFlipAngleFlag": "N",
      "WindowCenterWidthExplanation": "Algo1"
    },
    "slices": {}
  },
  "time": {
    "samples": {
      "AcquisitionNumber": [1, 2, 3, 4, 5, 6, 7, 8, 9, 10, 11, 12, 13, 14, 15, 16, 17, 18, 19, 20, 21, 22, 23, 24, 25, 26, 27, 28, 29, 30, 31, 32, 33, 34, 35, 36, 37, 38, 39, 40, 41, 42, 43, 44, 45, 46, 47, 48, 49, 50, 51, 52, 53, 54, 55, 56, 57, 58, 59, 60, 61, 62, 63, 64, 65, 66, 67, 68, 69, 70, 71, 72, 73, 74, 75, 76, 77, 78, 79, 80, 81, 82, 83, 84, 85, 86, 87, 88, 89, 90, 91, 92, 93, 94, 95, 96, 97, 98, 99, 100, 101, 102, 103, 104, 105, 106, 107, 108, 109, 110, 111, 112, 113, 114, 115, 116, 117, 118, 119, 120, 121, 122, 123, 124, 125, 126, 127, 128, 129, 130, 131, 132, 133, 134, 135, 136, 137, 138, 139, 140, 141, 142, 143, 144, 145, 146, 147, 148, 149, 150, 151, 152, 153, 154, 155, 156, 157, 158, 159, 160, 161, 162, 163, 164, 165, 166, 167, 168, 169, 170, 171, 172, 173, 174, 175, 176, 177, 178, 179, 180, 181, 182, 183, 184, 185, 186, 187, 188, 189, 190, 191, 192, 193, 194, 195, 196, 197, 198, 199, 200, 201, 202, 203, 204, 205, 206, 207, 208, 209, 210, 211, 212, 213, 214, 215, 216, 217, 218, 219, 220, 221, 222, 223, 224, 225, 226, 227, 228, 229, 230, 231, 232, 233, 234, 235, 236, 237, 238, 239, 240, 241, 242, 243, 244, 245, 246, 247, 248, 249, 250, 251, 252, 253, 254, 255, 256, 257, 258, 259, 260, 261, 262, 263, 264, 265, 266, 267, 268, 269, 270, 271, 272, 273, 274, 275, 276, 277, 278, 279, 280, 281, 282, 283, 284, 285, 286, 287, 288, 289, 290, 291, 292, 293, 294, 295, 296, 297, 298, 299, 300, 301, 302, 303, 304, 305, 306, 307, 308, 309, 310, 311, 312, 313, 314, 315, 316, 317, 318, 319, 320, 321, 322, 323, 324, 325, 326, 327, 328, 329, 330, 331, 332, 333, 334, 335, 336, 337, 338, 339, 340, 341, 342, 343, 344, 345, 346, 347, 348, 349, 350, 351, 352, 353, 354, 355, 356, 357, 358, 359, 360, 361, 362, 363, 364, 365, 366, 367, 368, 369, 370, 371, 372, 373, 374, 375, 376, 377, 378, 379, 380, 381, 382, 383, 384, 385, 386, 387, 388, 389, 390, 391, 392, 393, 394, 395, 396, 397, 398, 399, 400, 401, 402, 403, 404, 405, 406, 407, 408, 409, 410, 411, 412, 413, 414, 415, 416, 417, 418, 419, 420, 421, 422, 423, 424, 425, 426, 427, 428, 429, 430, 431, 432, 433, 434, 435, 436, 437, 438, 439, 440, 441, 442, 443, 444, 445, 446, 447, 448, 449, 450, 451, 452, 453, 454, 455, 456, 457, 458, 459, 460, 461, 462, 463, 464, 465, 466, 467, 468, 469, 470, 471, 472, 473, 474, 475, 476, 477, 478, 479, 480, 481, 482, 483, 484, 485, 486, 487, 488, 489, 490, 491, 492, 493, 494, 495, 496, 497, 498, 499, 500, 501, 502, 503, 504, 505, 506, 507, 508, 509, 510, 511, 512, 513, 514, 515, 516, 517, 518, 519, 520, 521, 522, 523, 524, 525, 526, 527, 528, 529, 530, 531, 532, 533, 534, 535, 536, 537, 538, 539, 540, 541, 542, 543, 544, 545, 546, 547, 548, 549, 550, 551, 552, 553, 554, 555, 556, 557, 558, 559, 560, 561, 562, 563, 564, 565, 566, 567, 568, 569, 570, 571, 572, 573, 574, 575, 576, 577, 578, 579, 580, 581, 582, 583, 584, 585, 586, 587, 588, 589, 590, 591, 592, 593, 594, 595, 596, 597, 598, 599, 600, 601, 602, 603, 604, 605, 606, 607, 608, 609, 610, 611, 612, 613, 614, 615, 616, 617, 618, 619, 620, 621, 622, 623, 624, 625, 626, 627, 628, 629, 630, 631, 632, 633, 634, 635, 636, 637, 638, 639, 640, 641, 642, 643, 644, 645, 646, 647, 648, 649, 650, 651, 652, 653, 654, 655, 656, 657, 658, 659, 660, 661, 662, 663, 664, 665, 666, 667, 668, 669, 670, 671, 672, 673, 674, 675, 676, 677, 678, 679, 680, 681, 682, 683, 684, 685, 686, 687, 688, 689, 690, 691, 692, 693, 694, 695, 696, 697, 698, 699, 700, 701, 702, 703, 704, 705, 706, 707, 708, 709, 710, 711, 712, 713, 714, 715, 716, 717, 718, 719, 720, 721, 722, 723, 724, 725, 726, 727, 728, 729, 730, 731, 732, 733, 734, 735, 736, 737, 738, 739, 740, 741, 742, 743, 744, 745, 746, 747, 748, 749, 750, 751, 752, 753, 754, 755, 756, 757, 758, 759, 760, 761, 762, 763, 764, 765, 766, 767, 768, 769, 770, 771, 772, 773, 774, 775, 776, 777, 778, 779, 780, 781, 782, 783, 784, 785, 786, 787, 788, 789, 790, 791, 792, 793, 794, 795, 796, 797, 798, 799, 800, 801, 802, 803, 804, 805, 806, 807, 808, 809, 810, 811, 812, 813, 814, 815, 816, 817, 818, 819, 820, 821, 822, 823, 824, 825, 826, 827, 828, 829, 830, 831, 832, 833, 834, 835, 836, 837, 838, 839, 840, 841, 842, 843, 844, 845, 846, 847, 848, 849, 850, 851, 852, 853, 854, 855, 856, 857, 858, 859, 860, 861, 862, 863, 864, 865, 866, 867, 868, 869, 870, 871, 872],
      "AcquisitionTime": ["201403.422500", "201403.882500", "201404.342500", "201404.802500", "201405.262500", "201405.722500", "201406.182500", "201406.642500", "201407.102500", "201407.562500", "201408.022500", "201408.482500", "201408.942500", "201409.402500", "201409.862500", "201410.322500", "201410.782500", "201411.242500", "201411.702500", "201412.162500", "201412.622500", "201413.082500", "201413.542500", "201414.002500", "201414.462500", "201414.922500", "201415.382500", "201415.842500", "201416.302500", "201416.762500", "201417.222500", "201417.682500", "201418.142500", "201418.602500", "201419.062500", "201419.522500", "201419.982500", "201420.442500", "201420.902500", "201421.362500", "201421.822500", "201422.282500", "201422.742500", "201423.202500", "201423.662500", "201424.122500", "201424.582500", "201425.042500", "201425.502500", "201425.962500", "201426.422500", "201426.882500", "201427.342500", "201427.802500", "201428.262500", "201428.722500", "201429.182500", "201429.642500", "201430.102500", "201430.562500", "201431.022500", "201431.482500", "201431.942500", "201432.402500", "201432.862500", "201433.322500", "201433.782500", "201434.242500", "201434.702500", "201435.162500", "201435.622500", "201436.082500", "201436.542500", "201437.002500", "201437.462500", "201437.922500", "201438.382500", "201438.842500", "201439.302500", "201439.762500", "201440.222500", "201440.682500", "201441.142500", "201441.602500", "201442.062500", "201442.522500", "201442.982500", "201443.442500", "201443.902500", "201444.362500", "201444.822500", "201445.282500", "201445.742500", "201446.202500", "201446.662500", "201447.122500", "201447.582500", "201448.042500", "201448.502500", "201448.962500", "201449.422500", "201449.882500", "201450.342500", "201450.802500", "201451.262500", "201451.722500", "201452.182500", "201452.642500", "201453.102500", "201453.562500", "201454.022500", "201454.482500", "201454.942500", "201455.402500", "201455.862500", "201456.322500", "201456.782500", "201457.242500", "201457.702500", "201458.162500", "201458.622500", "201459.082500", "201459.542500", "201500.002500", "201500.462500", "201500.922500", "201501.382500", "201501.842500", "201502.302500", "201502.762500", "201503.222500", "201503.682500", "201504.142500", "201504.602500", "201505.062500", "201505.522500", "201505.982500", "201506.442500", "201506.902500", "201507.362500", "201507.822500", "201508.282500", "201508.742500", "201509.202500", "201509.662500", "201510.122500", "201510.582500", "201511.042500", "201511.502500", "201511.962500", "201512.422500", "201512.882500", "201513.342500", "201513.802500", "201514.262500", "201514.722500", "201515.182500", "201515.642500", "201516.102500", "201516.562500", "201517.022500", "201517.482500", "201517.942500", "201518.402500", "201518.862500", "201519.322500", "201519.782500", "201520.242500", "201520.702500", "201521.162500", "201521.622500", "201522.082500", "201522.542500", "201523.002500", "201523.462500", "201523.922500", "201524.382500", "201524.842500", "201525.302500", "201525.762500", "201526.222500", "201526.682500", "201527.142500", "201527.602500", "201528.062500", "201528.522500", "201528.982500", "201529.442500", "201529.902500", "201530.362500", "201530.822500", "201531.282500", "201531.742500", "201532.202500", "201532.662500", "201533.122500", "201533.582500", "201534.042500", "201534.502500", "201534.962500", "201535.422500", "201535.882500", "201536.342500", "201536.802500", "201537.262500", "201537.722500", "201538.182500", "201538.642500", "201539.102500", "201539.562500", "201540.022500", "201540.482500", "201540.942500", "201541.402500", "201541.862500", "201542.322500", "201542.782500", "201543.242500", "201543.702500", "201544.162500", "201544.622500", "201545.082500", "201545.542500", "201546.002500", "201546.462500", "201546.922500", "201547.382500", "201547.842500", "201548.302500", "201548.762500", "201549.222500", "201549.682500", "201550.142500", "201550.602500", "201551.062500", "201551.522500", "201551.982500", "201552.442500", "201552.902500", "201553.362500", "201553.822500", "201554.282500", "201554.742500", "201555.202500", "201555.662500", "201556.122500", "201556.582500", "201557.042500", "201557.502500", "201557.962500", "201558.422500", "201558.882500", "201559.342500", "201559.802500", "201600.262500", "201600.722500", "201601.182500", "201601.642500", "201602.102500", "201602.562500", "201603.022500", "201603.482500", "201603.942500", "201604.402500", "201604.862500", "201605.322500", "201605.782500", "201606.242500", "201606.702500", "201607.162500", "201607.622500", "201608.082500", "201608.542500", "201609.002500", "201609.462500", "201609.922500", "201610.382500", "201610.842500", "201611.302500", "201611.762500", "201612.222500", "201612.682500", "201613.142500", "201613.602500", "201614.062500", "201614.522500", "201614.982500", "201615.442500", "201615.902500", "201616.362500", "201616.822500", "201617.282500", "201617.742500", "201618.202500", "201618.662500", "201619.122500", "201619.582500", "201620.042500", "201620.502500", "201620.962500", "201621.422500", "201621.882500", "201622.342500", "201622.802500", "201623.262500", "201623.722500", "201624.182500", "201624.642500", "201625.102500", "201625.562500", "201626.022500", "201626.482500", "201626.942500", "201627.402500", "201627.862500", "201628.322500", "201628.782500", "201629.242500", "201629.702500", "201630.162500", "201630.622500", "201631.082500", "201631.542500", "201632.002500", "201632.462500", "201632.922500", "201633.382500", "201633.842500", "201634.302500", "201634.762500", "201635.222500", "201635.682500", "201636.142500", "201636.602500", "201637.062500", "201637.522500", "201637.982500", "201638.442500", "201638.902500", "201639.362500", "201639.822500", "201640.282500", "201640.742500", "201641.202500", "201641.662500", "201642.122500", "201642.582500", "201643.042500", "201643.502500", "201643.962500", "201644.422500", "201644.882500", "201645.342500", "201645.802500", "201646.262500", "201646.722500", "201647.182500", "201647.642500", "201648.102500", "201648.562500", "201649.022500", "201649.482500", "201649.942500", "201650.402500", "201650.862500", "201651.322500", "201651.782500", "201652.242500", "201652.702500", "201653.162500", "201653.622500", "201654.082500", "201654.542500", "201655.002500", "201655.462500", "201655.922500", "201656.382500", "201656.842500", "201657.302500", "201657.762500", "201658.222500", "201658.682500", "201659.142500", "201659.602500", "201700.062500", "201700.522500", "201700.982500", "201701.442500", "201701.902500", "201702.362500", "201702.822500", "201703.282500", "201703.742500", "201704.202500", "201704.662500", "201705.122500", "201705.582500", "201706.042500", "201706.502500", "201706.962500", "201707.422500", "201707.882500", "201708.342500", "201708.802500", "201709.262500", "201709.722500", "201710.182500", "201710.642500", "201711.102500", "201711.562500", "201712.022500", "201712.482500", "201712.942500", "201713.402500", "201713.862500", "201714.322500", "201714.782500", "201715.242500", "201715.702500", "201716.162500", "201716.622500", "201717.082500", "201717.542500", "201718.002500", "201718.462500", "201718.922500", "201719.382500", "201719.842500", "201720.302500", "201720.762500", "201721.222500", "201721.682500", "201722.142500", "201722.602500", "201723.062500", "201723.522500", "201723.982500", "201724.442500", "201724.902500", "201725.362500", "201725.822500", "201726.282500", "201726.742500", "201727.202500", "201727.662500", "201728.122500", "201728.582500", "201729.042500", "201729.502500", "201729.962500", "201730.422500", "201730.882500", "201731.342500", "201731.802500", "201732.262500", "201732.722500", "201733.182500", "201733.642500", "201734.102500", "201734.562500", "201735.022500", "201735.482500", "201735.942500", "201736.402500", "201736.862500", "201737.322500", "201737.782500", "201738.242500", "201738.702500", "201739.162500", "201739.622500", "201740.082500", "201740.542500", "201741.002500", "201741.462500", "201741.922500", "201742.382500", "201742.842500", "201743.302500", "201743.762500", "201744.222500", "201744.682500", "201745.142500", "201745.602500", "201746.062500", "201746.522500", "201746.982500", "201747.442500", "201747.902500", "201748.362500", "201748.822500", "201749.282500", "201749.742500", "201750.202500", "201750.662500", "201751.122500", "201751.582500", "201752.042500", "201752.502500", "201752.962500", "201753.422500", "201753.882500", "201754.342500", "201754.802500", "201755.262500", "201755.722500", "201756.182500", "201756.642500", "201757.102500", "201757.562500", "201758.022500", "201758.482500", "201758.942500", "201759.402500", "201759.862500", "201800.322500", "201800.782500", "201801.242500", "201801.702500", "201802.162500", "201802.622500", "201803.082500", "201803.542500", "201804.002500", "201804.462500", "201804.922500", "201805.382500", "201805.842500", "201806.302500", "201806.762500", "201807.222500", "201807.682500", "201808.142500", "201808.602500", "201809.062500", "201809.522500", "201809.982500", "201810.442500", "201810.902500", "201811.362500", "201811.822500", "201812.282500", "201812.742500", "201813.202500", "201813.662500", "201814.122500", "201814.582500", "201815.042500", "201815.502500", "201815.962500", "201816.422500", "201816.882500", "201817.342500", "201817.802500", "201818.262500", "201818.722500", "201819.182500", "201819.642500", "201820.102500", "201820.562500", "201821.022500", "201821.482500", "201821.942500", "201822.402500", "201822.862500", "201823.322500", "201823.782500", "201824.242500", "201824.702500", "201825.162500", "201825.622500", "201826.082500", "201826.542500", "201827.002500", "201827.462500", "201827.922500", "201828.382500", "201828.842500", "201829.302500", "201829.762500", "201830.222500", "201830.682500", "201831.142500", "201831.602500", "201832.062500", "201832.522500", "201832.982500", "201833.442500", "201833.902500", "201834.362500", "201834.822500", "201835.282500", "201835.742500", "201836.202500", "201836.662500", "201837.122500", "201837.582500", "201838.042500", "201838.502500", "201838.962500", "201839.422500", "201839.882500", "201840.342500", "201840.802500", "201841.262500", "201841.722500", "201842.182500", "201842.642500", "201843.102500", "201843.562500", "201844.022500", "201844.482500", "201844.942500", "201845.402500", "201845.862500", "201846.322500", "201846.782500", "201847.242500", "201847.702500", "201848.162500", "201848.622500", "201849.082500", "201849.542500", "201850.002500", "201850.462500", "201850.922500", "201851.382500", "201851.842500", "201852.302500", "201852.762500", "201853.222500", "201853.682500", "201854.142500", "201854.602500", "201855.062500", "201855.522500", "201855.982500", "201856.442500", "201856.902500", "201857.362500", "201857.822500", "201858.282500", "201858.742500", "201859.202500", "201859.662500", "201900.122500", "201900.582500", "201901.042500", "201901.502500", "201901.962500", "201902.422500", "201902.882500", "201903.342500", "201903.802500", "201904.262500", "201904.722500", "201905.182500", "201905.642500", "201906.102500", "201906.562500", "201907.022500", "201907.482500", "201907.942500", "201908.402500", "201908.862500", "201909.322500", "201909.782500", "201910.242500", "201910.702500", "201911.162500", "201911.622500", "201912.082500", "201912.542500", "201913.002500", "201913.462500", "201913.922500", "201914.382500", "201914.842500", "201915.302500", "201915.762500", "201916.222500", "201916.682500", "201917.142500", "201917.602500", "201918.062500", "201918.522500", "201918.982500", "201919.442500", "201919.902500", "201920.362500", "201920.822500", "201921.282500", "201921.742500", "201922.202500", "201922.662500", "201923.122500", "201923.582500", "201924.042500", "201924.502500", "201924.962500", "201925.422500", "201925.882500", "201926.342500", "201926.802500", "201927.262500", "201927.722500", "201928.182500", "201928.642500", "201929.102500", "201929.562500", "201930.022500", "201930.482500", "201930.942500", "201931.402500", "201931.862500", "201932.322500", "201932.782500", "201933.242500", "201933.702500", "201934.162500", "201934.622500", "201935.082500", "201935.542500", "201936.002500", "201936.462500", "201936.922500", "201937.382500", "201937.842500", "201938.302500", "201938.762500", "201939.222500", "201939.682500", "201940.142500", "201940.602500", "201941.062500", "201941.522500", "201941.982500", "201942.442500", "201942.902500", "201943.362500", "201943.822500", "201944.282500", "201944.742500", "201945.202500", "201945.662500", "201946.122500", "201946.582500", "201947.042500", "201947.502500", "201947.962500", "201948.422500", "201948.882500", "201949.342500", "201949.802500", "201950.262500", "201950.722500", "201951.182500", "201951.642500", "201952.102500", "201952.562500", "201953.022500", "201953.482500", "201953.942500", "201954.402500", "201954.862500", "201955.322500", "201955.782500", "201956.242500", "201956.702500", "201957.162500", "201957.622500", "201958.082500", "201958.542500", "201959.002500", "201959.462500", "201959.922500", "202000.382500", "202000.842500", "202001.302500", "202001.762500", "202002.222500", "202002.682500", "202003.142500", "202003.602500", "202004.062500", "202004.522500", "202004.982500", "202005.442500", "202005.902500", "202006.362500", "202006.822500", "202007.282500", "202007.742500", "202008.202500", "202008.662500", "202009.122500", "202009.582500", "202010.042500", "202010.502500", "202010.962500", "202011.422500", "202011.882500", "202012.342500", "202012.802500", "202013.262500", "202013.722500", "202014.182500", "202014.642500", "202015.102500", "202015.562500", "202016.022500", "202016.482500", "202016.942500", "202017.402500", "202017.862500", "202018.322500", "202018.782500", "202019.242500", "202019.702500", "202020.162500", "202020.622500", "202021.082500", "202021.542500", "202022.002500", "202022.462500", "202022.922500", "202023.382500", "202023.842500", "202024.302500", "202024.762500", "202025.222500", "202025.682500", "202026.142500", "202026.602500", "202027.062500", "202027.522500", "202027.982500", "202028.442500", "202028.902500", "202029.362500", "202029.822500", "202030.282500", "202030.742500", "202031.202500", "202031.662500", "202032.122500", "202032.582500", "202033.042500", "202033.502500", "202033.962500", "202034.422500", "202034.882500", "202035.342500", "202035.802500", "202036.262500", "202036.722500", "202037.182500", "202037.642500", "202038.102500", "202038.562500", "202039.022500", "202039.482500", "202039.942500", "202040.402500", "202040.862500", "202041.322500", "202041.782500", "202042.242500", "202042.702500", "202043.162500", "202043.622500", "202044.082500"],
