{
  "AcquisitionMatrixPE": 82,
  "AcquisitionNumber": 1,
  "AcquisitionTime": "11:14:39.552500",
  "BandwidthPerPixelPhaseEncode": 24.888,
  "BaseResolution": 82,
  "BodyPartExamined": "BRAIN",
  "ConsistencyInfo": "N4_VE11E_LATEST_20181129",
  "ConversionSoftware": "dcm2niix",
  "ConversionSoftwareVersion": "v1.0.20201102",
  "DerivedVendorReportedEchoSpacing": 0.00049,
  "DeviceSerialNumber": "66112",
  "DwellTime": 2e-06,
  "EchoTime": 0.0272,
  "EchoTrainLength": 82,
  "EffectiveEchoSpacing": 0.00049,
  "FlipAngle": 44,
  "ImageComments": "Unaliased MB8/PE3",
  "ImageOrientationPatientDICOM": [0.995502, 0.0668574, -0.0671223, -0.0764249, 0.985432, -0.151928],
  "ImageType": [
    "ORIGINAL",
    "PRIMARY",
    "M",
    "MB",
    "ND",
    "NORM",
    "MOSAIC"
],
  "ImagingFrequency": 123.259,
  "InPlanePhaseEncodingDirectionDICOM": "COL",
  "InstitutionAddress": "Maynard 3,Hanover,NH,US,03755",
  "InstitutionName": "Dartmouth College - PBS",
  "InstitutionalDepartmentName": "Department",
  "MRAcquisitionType": "2D",
  "MagneticFieldStrength": 3,
  "Manufacturer": "Siemens",
  "ManufacturersModelName": "Prisma",
  "Modality": "MR",
  "MultibandAccelerationFactor": 8,
  "PartialFourier": 1,
  "PatientPosition": "HFS",
  "PercentPhaseFOV": 100,
  "PercentSampling": 100,
  "PhaseEncodingDirection": "j-",
  "PhaseEncodingSteps": 82,
  "PhaseResolution": 1,
  "PixelBandwidth": 3050,
  "ProcedureStepDescription": "Wager_Wager^1076_spacetop",
  "ProtocolName": "func_run-05_task-social_acq-ap-mb8",
  "PulseSequenceDetails": "%CustomerSeq%\\cmrr_mbep2d_bold",
  "ReceiveCoilActiveElements": "HEA;HEP",
  "ReceiveCoilName": "Head_32",
  "ReconMatrixPE": 82,
  "RepetitionTime": 0.46,
  "SAR": 0.0832372,
  "ScanOptions": "FS",
  "ScanningSequence": "EP",
  "SequenceName": "epfid2d1_82",
  "SequenceVariant": "SK\\SS",
  "SeriesDescription": "func_run-05_task-social_acq-ap-mb8",
  "SeriesNumber": 20,
  "ShimSetting": [4188, -7739, -7253, 205, -167, 115, -65, 124],
  "SliceThickness": 2.7,
  "SliceTiming": [0, 0.2525, 0.065, 0.315, 0.1275, 0.3775, 0.19, 0, 0.2525, 0.065, 0.315, 0.1275, 0.3775, 0.19, 0, 0.2525, 0.065, 0.315, 0.1275, 0.3775, 0.19, 0, 0.2525, 0.065, 0.315, 0.1275, 0.3775, 0.19, 0, 0.2525, 0.065, 0.315, 0.1275, 0.3775, 0.19, 0, 0.2525, 0.065, 0.315, 0.1275, 0.3775, 0.19, 0, 0.2525, 0.065, 0.315, 0.1275, 0.3775, 0.19, 0, 0.2525, 0.065, 0.315, 0.1275, 0.3775, 0.19],
  "SoftwareVersions": "syngo MR E11",
  "SpacingBetweenSlices": 2.7,
  "StationName": "AWP66112",
  "TaskName": "social",
  "TotalReadoutTime": 0.03969,
  "TxRefAmp": 243.555,
  "WipMemBlock": "76583652-1c6b-47b6-a652-f2aa8e761272||Sequence: R016 ve11e/master r/434b28f1; Aug  7 2019 18:53:46 by eja",
  "dcmmeta_affine": [
    [-2.6708598136901855, -0.20504248142242432, -0.1511649340391159, 126.71813201904297],
    [-0.1793733835220337, 2.643843173980713, -0.4222117066383362, -80.26376342773438],
    [-0.18008433282375336, 0.40761232376098633, 2.662496328353882, -91.35884857177734],
    [0.0, 0.0, 0.0, 1.0]
],
  "dcmmeta_reorient_transform": [
    [0.0, -1.0, 0.0, 81.0],
    [1.0, 0.0, 0.0, 0.0],
    [0.0, 0.0, 1.0, 0.0],
    [0.0, 0.0, 0.0, 1.0]
],
  "dcmmeta_shape": [82, 82, 56, 872],
  "dcmmeta_slice_dim": 2,
  "dcmmeta_version": 0.6,
  "global": {
    "const": {
      "AccessionNumber": "A004845",
      "AcquisitionMatrix": [82, 0, 0, 82],
      "AngioFlag": "N",
      "BitsAllocated": 16,
      "BitsStored": 16,
      "BodyPartExamined": "BRAIN",
      "Columns": 656,
      "EchoNumbers": 1,
      "EchoTime": 27.2,
      "EchoTrainLength": 82,
      "FlipAngle": 44.0,
      "HighBit": 15,
      "ImageOrientationPatient": [0.99550222784174, 0.06685735135375, -0.0671223430171, -0.0764249213254, 0.98543241631916, -0.1519282207748],
      "ImagePositionPatient": [-817.79923466347, -944.15067017219, 110.32668792752],
      "ImageType": [
        "ORIGINAL",
        "PRIMARY",
        "M",
        "MB",
        "ND",
        "NORM",
        "MOSAIC"
],
      "ImagedNucleus": "1H",
      "ImagingFrequency": 123.259248,
      "InPlanePhaseEncodingDirection": "COL",
      "MRAcquisitionType": "2D",
      "MagneticFieldStrength": 3.0,
      "Manufacturer": "SIEMENS",
      "ManufacturerModelName": "Prisma",
      "Modality": "MR",
      "NumberOfAverages": 1.0,
      "NumberOfPhaseEncodingSteps": 82,
      "PercentPhaseFieldOfView": 100.0,
      "PercentSampling": 100.0,
      "PerformedProcedureStepStartTime": "101206.751000",
      "PhotometricInterpretation": "MONOCHROME2",
      "PixelBandwidth": 3050.0,
      "PixelRepresentation": 0,
      "PixelSpacing": [2.6829268932343, 2.6829268932343],
      "ProtocolName": "func_run-05_task-social_acq-ap-mb8",
      "RepetitionTime": 460.0,
      "Rows": 656,
      "SAR": 0.08323721170328,
      "SamplesPerPixel": 1,
      "ScanOptions": "FS",
      "ScanningSequence": "EP",
      "SequenceName": "epfid2d1_82",
      "SequenceVariant": [
        "SK",
        "SS"
],
      "SeriesDescription": "func_run-05_task-social_acq-ap-mb8",
      "SeriesNumber": 20,
      "SeriesTime": "111451.069000",
      "SliceLocation": -84.633196269573,
      "SliceThickness": 2.7000000476837,
      "SmallestImagePixelValue": 0,
      "SoftwareVersions": "syngo MR E11",
      "SpacingBetweenSlices": 2.7000000412594,
      "SpecificCharacterSet": "ISO_IR 100",
      "StudyID": "1",
      "StudyTime": "101206.640000",
      "TransmitCoilName": "Body",
      "VariableFlipAngleFlag": "N",
      "WindowCenterWidthExplanation": "Algo1"
    },
    "slices": {}
  },
  "time": {
    "samples": {
      "AcquisitionNumber": [1, 2, 3, 4, 5, 6, 7, 8, 9, 10, 11, 12, 13, 14, 15, 16, 17, 18, 19, 20, 21, 22, 23, 24, 25, 26, 27, 28, 29, 30, 31, 32, 33, 34, 35, 36, 37, 38, 39, 40, 41, 42, 43, 44, 45, 46, 47, 48, 49, 50, 51, 52, 53, 54, 55, 56, 57, 58, 59, 60, 61, 62, 63, 64, 65, 66, 67, 68, 69, 70, 71, 72, 73, 74, 75, 76, 77, 78, 79, 80, 81, 82, 83, 84, 85, 86, 87, 88, 89, 90, 91, 92, 93, 94, 95, 96, 97, 98, 99, 100, 101, 102, 103, 104, 105, 106, 107, 108, 109, 110, 111, 112, 113, 114, 115, 116, 117, 118, 119, 120, 121, 122, 123, 124, 125, 126, 127, 128, 129, 130, 131, 132, 133, 134, 135, 136, 137, 138, 139, 140, 141, 142, 143, 144, 145, 146, 147, 148, 149, 150, 151, 152, 153, 154, 155, 156, 157, 158, 159, 160, 161, 162, 163, 164, 165, 166, 167, 168, 169, 170, 171, 172, 173, 174, 175, 176, 177, 178, 179, 180, 181, 182, 183, 184, 185, 186, 187, 188, 189, 190, 191, 192, 193, 194, 195, 196, 197, 198, 199, 200, 201, 202, 203, 204, 205, 206, 207, 208, 209, 210, 211, 212, 213, 214, 215, 216, 217, 218, 219, 220, 221, 222, 223, 224, 225, 226, 227, 228, 229, 230, 231, 232, 233, 234, 235, 236, 237, 238, 239, 240, 241, 242, 243, 244, 245, 246, 247, 248, 249, 250, 251, 252, 253, 254, 255, 256, 257, 258, 259, 260, 261, 262, 263, 264, 265, 266, 267, 268, 269, 270, 271, 272, 273, 274, 275, 276, 277, 278, 279, 280, 281, 282, 283, 284, 285, 286, 287, 288, 289, 290, 291, 292, 293, 294, 295, 296, 297, 298, 299, 300, 301, 302, 303, 304, 305, 306, 307, 308, 309, 310, 311, 312, 313, 314, 315, 316, 317, 318, 319, 320, 321, 322, 323, 324, 325, 326, 327, 328, 329, 330, 331, 332, 333, 334, 335, 336, 337, 338, 339, 340, 341, 342, 343, 344, 345, 346, 347, 348, 349, 350, 351, 352, 353, 354, 355, 356, 357, 358, 359, 360, 361, 362, 363, 364, 365, 366, 367, 368, 369, 370, 371, 372, 373, 374, 375, 376, 377, 378, 379, 380, 381, 382, 383, 384, 385, 386, 387, 388, 389, 390, 391, 392, 393, 394, 395, 396, 397, 398, 399, 400, 401, 402, 403, 404, 405, 406, 407, 408, 409, 410, 411, 412, 413, 414, 415, 416, 417, 418, 419, 420, 421, 422, 423, 424, 425, 426, 427, 428, 429, 430, 431, 432, 433, 434, 435, 436, 437, 438, 439, 440, 441, 442, 443, 444, 445, 446, 447, 448, 449, 450, 451, 452, 453, 454, 455, 456, 457, 458, 459, 460, 461, 462, 463, 464, 465, 466, 467, 468, 469, 470, 471, 472, 473, 474, 475, 476, 477, 478, 479, 480, 481, 482, 483, 484, 485, 486, 487, 488, 489, 490, 491, 492, 493, 494, 495, 496, 497, 498, 499, 500, 501, 502, 503, 504, 505, 506, 507, 508, 509, 510, 511, 512, 513, 514, 515, 516, 517, 518, 519, 520, 521, 522, 523, 524, 525, 526, 527, 528, 529, 530, 531, 532, 533, 534, 535, 536, 537, 538, 539, 540, 541, 542, 543, 544, 545, 546, 547, 548, 549, 550, 551, 552, 553, 554, 555, 556, 557, 558, 559, 560, 561, 562, 563, 564, 565, 566, 567, 568, 569, 570, 571, 572, 573, 574, 575, 576, 577, 578, 579, 580, 581, 582, 583, 584, 585, 586, 587, 588, 589, 590, 591, 592, 593, 594, 595, 596, 597, 598, 599, 600, 601, 602, 603, 604, 605, 606, 607, 608, 609, 610, 611, 612, 613, 614, 615, 616, 617, 618, 619, 620, 621, 622, 623, 624, 625, 626, 627, 628, 629, 630, 631, 632, 633, 634, 635, 636, 637, 638, 639, 640, 641, 642, 643, 644, 645, 646, 647, 648, 649, 650, 651, 652, 653, 654, 655, 656, 657, 658, 659, 660, 661, 662, 663, 664, 665, 666, 667, 668, 669, 670, 671, 672, 673, 674, 675, 676, 677, 678, 679, 680, 681, 682, 683, 684, 685, 686, 687, 688, 689, 690, 691, 692, 693, 694, 695, 696, 697, 698, 699, 700, 701, 702, 703, 704, 705, 706, 707, 708, 709, 710, 711, 712, 713, 714, 715, 716, 717, 718, 719, 720, 721, 722, 723, 724, 725, 726, 727, 728, 729, 730, 731, 732, 733, 734, 735, 736, 737, 738, 739, 740, 741, 742, 743, 744, 745, 746, 747, 748, 749, 750, 751, 752, 753, 754, 755, 756, 757, 758, 759, 760, 761, 762, 763, 764, 765, 766, 767, 768, 769, 770, 771, 772, 773, 774, 775, 776, 777, 778, 779, 780, 781, 782, 783, 784, 785, 786, 787, 788, 789, 790, 791, 792, 793, 794, 795, 796, 797, 798, 799, 800, 801, 802, 803, 804, 805, 806, 807, 808, 809, 810, 811, 812, 813, 814, 815, 816, 817, 818, 819, 820, 821, 822, 823, 824, 825, 826, 827, 828, 829, 830, 831, 832, 833, 834, 835, 836, 837, 838, 839, 840, 841, 842, 843, 844, 845, 846, 847, 848, 849, 850, 851, 852, 853, 854, 855, 856, 857, 858, 859, 860, 861, 862, 863, 864, 865, 866, 867, 868, 869, 870, 871, 872],
      "AcquisitionTime": ["111439.552500", "111440.012500", "111440.472500", "111440.932500", "111441.392500", "111441.852500", "111442.312500", "111442.772500", "111443.232500", "111443.692500", "111444.152500", "111444.612500", "111445.072500", "111445.532500", "111445.992500", "111446.452500", "111446.912500", "111447.372500", "111447.832500", "111448.292500", "111448.752500", "111449.212500", "111449.672500", "111450.132500", "111450.592500", "111451.052500", "111451.512500", "111451.972500", "111452.432500", "111452.892500", "111453.352500", "111453.812500", "111454.272500", "111454.732500", "111455.192500", "111455.652500", "111456.112500", "111456.572500", "111457.032500", "111457.492500", "111457.952500", "111458.412500", "111458.872500", "111459.332500", "111459.792500", "111500.252500", "111500.712500", "111501.172500", "111501.632500", "111502.092500", "111502.552500", "111503.012500", "111503.472500", "111503.932500", "111504.392500", "111504.852500", "111505.312500", "111505.772500", "111506.232500", "111506.692500", "111507.152500", "111507.612500", "111508.072500", "111508.532500", "111508.992500", "111509.452500", "111509.912500", "111510.372500", "111510.832500", "111511.292500", "111511.752500", "111512.212500", "111512.672500", "111513.132500", "111513.592500", "111514.052500", "111514.512500", "111514.972500", "111515.432500", "111515.892500", "111516.352500", "111516.812500", "111517.272500", "111517.732500", "111518.192500", "111518.652500", "111519.112500", "111519.572500", "111520.032500", "111520.492500", "111520.952500", "111521.412500", "111521.872500", "111522.332500", "111522.792500", "111523.252500", "111523.712500", "111524.172500", "111524.632500", "111525.092500", "111525.552500", "111526.012500", "111526.472500", "111526.932500", "111527.392500", "111527.852500", "111528.312500", "111528.772500", "111529.232500", "111529.692500", "111530.152500", "111530.612500", "111531.072500", "111531.532500", "111531.992500", "111532.452500", "111532.912500", "111533.372500", "111533.832500", "111534.292500", "111534.752500", "111535.212500", "111535.672500", "111536.132500", "111536.592500", "111537.052500", "111537.512500", "111537.972500", "111538.432500", "111538.892500", "111539.352500", "111539.812500", "111540.272500", "111540.732500", "111541.192500", "111541.652500", "111542.112500", "111542.572500", "111543.032500", "111543.492500", "111543.952500", "111544.412500", "111544.872500", "111545.332500", "111545.792500", "111546.252500", "111546.712500", "111547.172500", "111547.632500", "111548.092500", "111548.552500", "111549.012500", "111549.472500", "111549.932500", "111550.392500", "111550.852500", "111551.312500", "111551.772500", "111552.232500", "111552.692500", "111553.152500", "111553.612500", "111554.072500", "111554.532500", "111554.992500", "111555.452500", "111555.912500", "111556.372500", "111556.832500", "111557.292500", "111557.752500", "111558.212500", "111558.672500", "111559.132500", "111559.592500", "111600.052500", "111600.512500", "111600.972500", "111601.432500", "111601.892500", "111602.352500", "111602.812500", "111603.272500", "111603.732500", "111604.192500", "111604.652500", "111605.112500", "111605.572500", "111606.032500", "111606.492500", "111606.952500", "111607.412500", "111607.872500", "111608.332500", "111608.792500", "111609.252500", "111609.712500", "111610.172500", "111610.632500", "111611.092500", "111611.552500", "111612.012500", "111612.472500", "111612.932500", "111613.392500", "111613.852500", "111614.312500", "111614.772500", "111615.232500", "111615.692500", "111616.152500", "111616.612500", "111617.072500", "111617.532500", "111617.992500", "111618.452500", "111618.912500", "111619.372500", "111619.832500", "111620.292500", "111620.752500", "111621.212500", "111621.672500", "111622.132500", "111622.592500", "111623.052500", "111623.512500", "111623.972500", "111624.432500", "111624.892500", "111625.352500", "111625.812500", "111626.272500", "111626.732500", "111627.192500", "111627.652500", "111628.112500", "111628.572500", "111629.032500", "111629.492500", "111629.952500", "111630.412500", "111630.872500", "111631.332500", "111631.792500", "111632.252500", "111632.712500", "111633.172500", "111633.632500", "111634.092500", "111634.552500", "111635.012500", "111635.472500", "111635.932500", "111636.392500", "111636.852500", "111637.312500", "111637.772500", "111638.232500", "111638.692500", "111639.152500", "111639.612500", "111640.072500", "111640.532500", "111640.992500", "111641.452500", "111641.912500", "111642.372500", "111642.832500", "111643.292500", "111643.752500", "111644.212500", "111644.672500", "111645.132500", "111645.592500", "111646.052500", "111646.512500", "111646.972500", "111647.432500", "111647.892500", "111648.352500", "111648.812500", "111649.272500", "111649.732500", "111650.192500", "111650.652500", "111651.112500", "111651.572500", "111652.032500", "111652.492500", "111652.952500", "111653.412500", "111653.872500", "111654.332500", "111654.792500", "111655.252500", "111655.712500", "111656.172500", "111656.632500", "111657.092500", "111657.552500", "111658.012500", "111658.472500", "111658.932500", "111659.392500", "111659.852500", "111700.312500", "111700.772500", "111701.232500", "111701.692500", "111702.152500", "111702.612500", "111703.072500", "111703.532500", "111703.992500", "111704.452500", "111704.912500", "111705.372500", "111705.832500", "111706.292500", "111706.752500", "111707.212500", "111707.672500", "111708.132500", "111708.592500", "111709.052500", "111709.512500", "111709.972500", "111710.432500", "111710.892500", "111711.352500", "111711.812500", "111712.272500", "111712.732500", "111713.192500", "111713.652500", "111714.112500", "111714.572500", "111715.032500", "111715.492500", "111715.952500", "111716.412500", "111716.872500", "111717.332500", "111717.792500", "111718.252500", "111718.712500", "111719.172500", "111719.632500", "111720.092500", "111720.552500", "111721.012500", "111721.472500", "111721.932500", "111722.392500", "111722.852500", "111723.312500", "111723.772500", "111724.232500", "111724.692500", "111725.152500", "111725.612500", "111726.072500", "111726.532500", "111726.992500", "111727.452500", "111727.912500", "111728.372500", "111728.832500", "111729.292500", "111729.752500", "111730.212500", "111730.672500", "111731.132500", "111731.592500", "111732.052500", "111732.512500", "111732.972500", "111733.432500", "111733.892500", "111734.352500", "111734.812500", "111735.272500", "111735.732500", "111736.192500", "111736.652500", "111737.112500", "111737.572500", "111738.032500", "111738.492500", "111738.952500", "111739.412500", "111739.872500", "111740.332500", "111740.792500", "111741.252500", "111741.712500", "111742.172500", "111742.632500", "111743.092500", "111743.552500", "111744.012500", "111744.472500", "111744.932500", "111745.392500", "111745.852500", "111746.312500", "111746.772500", "111747.232500", "111747.692500", "111748.152500", "111748.612500", "111749.072500", "111749.532500", "111749.992500", "111750.452500", "111750.912500", "111751.372500", "111751.832500", "111752.292500", "111752.752500", "111753.212500", "111753.672500", "111754.132500", "111754.592500", "111755.052500", "111755.512500", "111755.972500", "111756.432500", "111756.892500", "111757.352500", "111757.812500", "111758.272500", "111758.732500", "111759.192500", "111759.652500", "111800.112500", "111800.572500", "111801.032500", "111801.492500", "111801.952500", "111802.412500", "111802.872500", "111803.332500", "111803.792500", "111804.252500", "111804.712500", "111805.172500", "111805.632500", "111806.092500", "111806.552500", "111807.012500", "111807.472500", "111807.932500", "111808.392500", "111808.852500", "111809.312500", "111809.772500", "111810.232500", "111810.692500", "111811.152500", "111811.612500", "111812.072500", "111812.532500", "111812.992500", "111813.452500", "111813.912500", "111814.372500", "111814.832500", "111815.292500", "111815.752500", "111816.212500", "111816.672500", "111817.132500", "111817.592500", "111818.052500", "111818.512500", "111818.972500", "111819.432500", "111819.892500", "111820.352500", "111820.812500", "111821.272500", "111821.732500", "111822.192500", "111822.652500", "111823.112500", "111823.572500", "111824.032500", "111824.492500", "111824.952500", "111825.412500", "111825.872500", "111826.332500", "111826.792500", "111827.252500", "111827.712500", "111828.172500", "111828.632500", "111829.092500", "111829.552500", "111830.012500", "111830.472500", "111830.932500", "111831.392500", "111831.852500", "111832.312500", "111832.772500", "111833.232500", "111833.692500", "111834.152500", "111834.612500", "111835.072500", "111835.532500", "111835.992500", "111836.452500", "111836.912500", "111837.372500", "111837.832500", "111838.292500", "111838.752500", "111839.212500", "111839.672500", "111840.132500", "111840.592500", "111841.052500", "111841.512500", "111841.972500", "111842.432500", "111842.892500", "111843.352500", "111843.812500", "111844.272500", "111844.732500", "111845.192500", "111845.652500", "111846.112500", "111846.572500", "111847.032500", "111847.492500", "111847.952500", "111848.412500", "111848.872500", "111849.332500", "111849.792500", "111850.252500", "111850.712500", "111851.172500", "111851.632500", "111852.092500", "111852.552500", "111853.012500", "111853.472500", "111853.932500", "111854.392500", "111854.852500", "111855.312500", "111855.772500", "111856.232500", "111856.692500", "111857.152500", "111857.612500", "111858.072500", "111858.532500", "111858.992500", "111859.452500", "111859.912500", "111900.372500", "111900.832500", "111901.292500", "111901.752500", "111902.212500", "111902.672500", "111903.132500", "111903.592500", "111904.052500", "111904.512500", "111904.972500", "111905.432500", "111905.892500", "111906.352500", "111906.812500", "111907.272500", "111907.732500", "111908.192500", "111908.652500", "111909.112500", "111909.572500", "111910.032500", "111910.492500", "111910.952500", "111911.412500", "111911.872500", "111912.332500", "111912.792500", "111913.252500", "111913.712500", "111914.172500", "111914.632500", "111915.092500", "111915.552500", "111916.012500", "111916.472500", "111916.932500", "111917.392500", "111917.852500", "111918.312500", "111918.772500", "111919.232500", "111919.692500", "111920.152500", "111920.612500", "111921.072500", "111921.532500", "111921.992500", "111922.452500", "111922.912500", "111923.372500", "111923.832500", "111924.292500", "111924.752500", "111925.212500", "111925.672500", "111926.132500", "111926.592500", "111927.052500", "111927.512500", "111927.972500", "111928.432500", "111928.892500", "111929.352500", "111929.812500", "111930.272500", "111930.732500", "111931.192500", "111931.652500", "111932.112500", "111932.572500", "111933.032500", "111933.492500", "111933.952500", "111934.412500", "111934.872500", "111935.332500", "111935.792500", "111936.252500", "111936.712500", "111937.172500", "111937.632500", "111938.092500", "111938.552500", "111939.012500", "111939.472500", "111939.932500", "111940.392500", "111940.852500", "111941.312500", "111941.772500", "111942.232500", "111942.692500", "111943.152500", "111943.612500", "111944.072500", "111944.532500", "111944.992500", "111945.452500", "111945.912500", "111946.372500", "111946.832500", "111947.292500", "111947.752500", "111948.212500", "111948.672500", "111949.132500", "111949.592500", "111950.052500", "111950.512500", "111950.972500", "111951.432500", "111951.892500", "111952.352500", "111952.812500", "111953.272500", "111953.732500", "111954.192500", "111954.652500", "111955.112500", "111955.572500", "111956.032500", "111956.492500", "111956.952500", "111957.412500", "111957.872500", "111958.332500", "111958.792500", "111959.252500", "111959.712500", "112000.172500", "112000.632500", "112001.092500", "112001.552500", "112002.012500", "112002.472500", "112002.932500", "112003.392500", "112003.852500", "112004.312500", "112004.772500", "112005.232500", "112005.692500", "112006.152500", "112006.612500", "112007.072500", "112007.532500", "112007.992500", "112008.452500", "112008.912500", "112009.372500", "112009.832500", "112010.292500", "112010.752500", "112011.212500", "112011.672500", "112012.132500", "112012.592500", "112013.052500", "112013.512500", "112013.972500", "112014.432500", "112014.892500", "112015.352500", "112015.812500", "112016.272500", "112016.732500", "112017.192500", "112017.652500", "112018.112500", "112018.572500", "112019.032500", "112019.492500", "112019.952500", "112020.412500", "112020.872500", "112021.332500", "112021.792500", "112022.252500", "112022.712500", "112023.172500", "112023.632500", "112024.092500", "112024.552500", "112025.012500", "112025.472500", "112025.932500", "112026.392500", "112026.852500", "112027.312500", "112027.772500", "112028.232500", "112028.692500", "112029.152500", "112029.612500", "112030.072500", "112030.532500", "112030.992500", "112031.452500", "112031.912500", "112032.372500", "112032.832500", "112033.292500", "112033.752500", "112034.212500", "112034.672500", "112035.132500", "112035.592500", "112036.052500", "112036.512500", "112036.972500", "112037.432500", "112037.892500", "112038.352500", "112038.812500", "112039.272500", "112039.732500", "112040.192500", "112040.652500", "112041.112500", "112041.572500", "112042.032500", "112042.492500", "112042.952500", "112043.412500", "112043.872500", "112044.332500", "112044.792500", "112045.252500", "112045.712500", "112046.172500", "112046.632500", "112047.092500", "112047.552500", "112048.012500", "112048.472500", "112048.932500", "112049.392500", "112049.852500", "112050.312500", "112050.772500", "112051.232500", "112051.692500", "112052.152500", "112052.612500", "112053.072500", "112053.532500", "112053.992500", "112054.452500", "112054.912500", "112055.372500", "112055.832500", "112056.292500", "112056.752500", "112057.212500", "112057.672500", "112058.132500", "112058.592500", "112059.052500", "112059.512500", "112059.972500", "112100.432500", "112100.892500", "112101.352500", "112101.812500", "112102.272500", "112102.732500", "112103.192500", "112103.652500", "112104.112500", "112104.572500", "112105.032500", "112105.492500", "112105.952500", "112106.412500", "112106.872500", "112107.332500", "112107.792500", "112108.252500", "112108.712500", "112109.172500", "112109.632500", "112110.092500", "112110.552500", "112111.012500", "112111.472500", "112111.932500", "112112.392500", "112112.852500", "112113.312500", "112113.772500", "112114.232500", "112114.692500", "112115.152500", "112115.612500", "112116.072500", "112116.532500", "112116.992500", "112117.452500", "112117.912500", "112118.372500", "112118.832500", "112119.292500", "112119.752500", "112120.212500"],
