{
  "AcquisitionMatrixPE": 82,
  "AcquisitionNumber": 1,
  "AcquisitionTime": "11:22:18.115000",
  "BandwidthPerPixelPhaseEncode": 24.888,
  "BaseResolution": 82,
  "BodyPartExamined": "BRAIN",
  "ConsistencyInfo": "N4_VE11E_LATEST_20181129",
  "ConversionSoftware": "dcm2niix",
  "ConversionSoftwareVersion": "v1.0.20201102",
  "DerivedVendorReportedEchoSpacing": 0.00049,
  "DeviceSerialNumber": "66112",
  "DwellTime": 2e-06,
  "EchoTime": 0.0272,
  "EchoTrainLength": 82,
  "EffectiveEchoSpacing": 0.00049,
  "FlipAngle": 44,
  "ImageComments": "Unaliased MB8/PE3",
  "ImageOrientationPatientDICOM": [0.995502, 0.0668574, -0.0671223, -0.0764249, 0.985432, -0.151928],
  "ImageType": [
    "ORIGINAL",
    "PRIMARY",
    "M",
    "MB",
    "ND",
    "NORM",
    "MOSAIC"
],
  "ImagingFrequency": 123.259,
  "InPlanePhaseEncodingDirectionDICOM": "COL",
  "InstitutionAddress": "Maynard 3,Hanover,NH,US,03755",
  "InstitutionName": "Dartmouth College - PBS",
  "InstitutionalDepartmentName": "Department",
  "MRAcquisitionType": "2D",
  "MagneticFieldStrength": 3,
  "Manufacturer": "Siemens",
  "ManufacturersModelName": "Prisma",
  "Modality": "MR",
  "MultibandAccelerationFactor": 8,
  "PartialFourier": 1,
  "PatientPosition": "HFS",
  "PercentPhaseFOV": 100,
  "PercentSampling": 100,
  "PhaseEncodingDirection": "j-",
  "PhaseEncodingSteps": 82,
  "PhaseResolution": 1,
  "PixelBandwidth": 3050,
  "ProcedureStepDescription": "Wager_Wager^1076_spacetop",
  "ProtocolName": "func_run-06_task-social_acq-ap-mb8",
  "PulseSequenceDetails": "%CustomerSeq%\\cmrr_mbep2d_bold",
  "ReceiveCoilActiveElements": "HEA;HEP",
  "ReceiveCoilName": "Head_32",
  "ReconMatrixPE": 82,
  "RepetitionTime": 0.46,
  "SAR": 0.0832372,
  "ScanOptions": "FS",
  "ScanningSequence": "EP",
  "SequenceName": "epfid2d1_82",
  "SequenceVariant": "SK\\SS",
  "SeriesDescription": "func_run-06_task-social_acq-ap-mb8",
  "SeriesNumber": 22,
  "ShimSetting": [4188, -7739, -7253, 205, -167, 115, -65, 124],
  "SliceThickness": 2.7,
  "SliceTiming": [0, 0.2525, 0.065, 0.315, 0.1275, 0.3775, 0.19, 0, 0.2525, 0.065, 0.315, 0.1275, 0.3775, 0.19, 0, 0.2525, 0.065, 0.315, 0.1275, 0.3775, 0.19, 0, 0.2525, 0.065, 0.315, 0.1275, 0.3775, 0.19, 0, 0.2525, 0.065, 0.315, 0.1275, 0.3775, 0.19, 0, 0.2525, 0.065, 0.315, 0.1275, 0.3775, 0.19, 0, 0.2525, 0.065, 0.315, 0.1275, 0.3775, 0.19, 0, 0.2525, 0.065, 0.315, 0.1275, 0.3775, 0.19],
  "SoftwareVersions": "syngo MR E11",
  "SpacingBetweenSlices": 2.7,
  "StationName": "AWP66112",
  "TaskName": "social",
  "TotalReadoutTime": 0.03969,
  "TxRefAmp": 243.555,
  "WipMemBlock": "25fdae0a-1bdc-4cdc-9329-5657ce835f68||Sequence: R016 ve11e/master r/434b28f1; Aug  7 2019 18:53:46 by eja",
  "dcmmeta_affine": [
    [-2.6708598136901855, -0.20504248142242432, -0.1511649340391159, 126.71813201904297],
    [-0.1793733835220337, 2.643843173980713, -0.4222117066383362, -80.26376342773438],
    [-0.18008433282375336, 0.40761232376098633, 2.662496328353882, -91.35884857177734],
    [0.0, 0.0, 0.0, 1.0]
],
  "dcmmeta_reorient_transform": [
    [0.0, -1.0, 0.0, 81.0],
    [1.0, 0.0, 0.0, 0.0],
    [0.0, 0.0, 1.0, 0.0],
    [0.0, 0.0, 0.0, 1.0]
],
  "dcmmeta_shape": [82, 82, 56, 872],
  "dcmmeta_slice_dim": 2,
  "dcmmeta_version": 0.6,
  "global": {
    "const": {
      "AccessionNumber": "A004845",
      "AcquisitionMatrix": [82, 0, 0, 82],
      "AngioFlag": "N",
      "BitsAllocated": 16,
      "BitsStored": 16,
      "BodyPartExamined": "BRAIN",
      "Columns": 656,
      "EchoNumbers": 1,
      "EchoTime": 27.2,
      "EchoTrainLength": 82,
      "FlipAngle": 44.0,
      "HighBit": 15,
      "ImageOrientationPatient": [0.99550222784174, 0.06685735135375, -0.0671223430171, -0.0764249213254, 0.98543241631916, -0.1519282207748],
      "ImagePositionPatient": [-817.79923466347, -944.15067017219, 110.32668792752],
      "ImageType": [
        "ORIGINAL",
        "PRIMARY",
        "M",
        "MB",
        "ND",
        "NORM",
        "MOSAIC"
],
      "ImagedNucleus": "1H",
      "ImagingFrequency": 123.25925,
      "InPlanePhaseEncodingDirection": "COL",
      "MRAcquisitionType": "2D",
      "MagneticFieldStrength": 3.0,
      "Manufacturer": "SIEMENS",
      "ManufacturerModelName": "Prisma",
      "Modality": "MR",
      "NumberOfAverages": 1.0,
      "NumberOfPhaseEncodingSteps": 82,
      "PercentPhaseFieldOfView": 100.0,
      "PercentSampling": 100.0,
      "PerformedProcedureStepStartTime": "101206.751000",
      "PhotometricInterpretation": "MONOCHROME2",
      "PixelBandwidth": 3050.0,
      "PixelRepresentation": 0,
      "PixelSpacing": [2.6829268932343, 2.6829268932343],
      "ProtocolName": "func_run-06_task-social_acq-ap-mb8",
      "RepetitionTime": 460.0,
      "Rows": 656,
      "SAR": 0.08323721170328,
      "SamplesPerPixel": 1,
      "ScanOptions": "FS",
      "ScanningSequence": "EP",
      "SequenceName": "epfid2d1_82",
      "SequenceVariant": [
        "SK",
        "SS"
],
      "SeriesDescription": "func_run-06_task-social_acq-ap-mb8",
      "SeriesNumber": 22,
      "SeriesTime": "112230.902000",
      "SliceLocation": -84.633196269573,
      "SliceThickness": 2.7000000476837,
      "SmallestImagePixelValue": 0,
      "SoftwareVersions": "syngo MR E11",
      "SpacingBetweenSlices": 2.7000000412594,
      "SpecificCharacterSet": "ISO_IR 100",
      "StudyID": "1",
      "StudyTime": "101206.640000",
      "TransmitCoilName": "Body",
      "VariableFlipAngleFlag": "N",
      "WindowCenterWidthExplanation": "Algo1"
    },
    "slices": {}
  },
  "time": {
    "samples": {
      "AcquisitionNumber": [1, 2, 3, 4, 5, 6, 7, 8, 9, 10, 11, 12, 13, 14, 15, 16, 17, 18, 19, 20, 21, 22, 23, 24, 25, 26, 27, 28, 29, 30, 31, 32, 33, 34, 35, 36, 37, 38, 39, 40, 41, 42, 43, 44, 45, 46, 47, 48, 49, 50, 51, 52, 53, 54, 55, 56, 57, 58, 59, 60, 61, 62, 63, 64, 65, 66, 67, 68, 69, 70, 71, 72, 73, 74, 75, 76, 77, 78, 79, 80, 81, 82, 83, 84, 85, 86, 87, 88, 89, 90, 91, 92, 93, 94, 95, 96, 97, 98, 99, 100, 101, 102, 103, 104, 105, 106, 107, 108, 109, 110, 111, 112, 113, 114, 115, 116, 117, 118, 119, 120, 121, 122, 123, 124, 125, 126, 127, 128, 129, 130, 131, 132, 133, 134, 135, 136, 137, 138, 139, 140, 141, 142, 143, 144, 145, 146, 147, 148, 149, 150, 151, 152, 153, 154, 155, 156, 157, 158, 159, 160, 161, 162, 163, 164, 165, 166, 167, 168, 169, 170, 171, 172, 173, 174, 175, 176, 177, 178, 179, 180, 181, 182, 183, 184, 185, 186, 187, 188, 189, 190, 191, 192, 193, 194, 195, 196, 197, 198, 199, 200, 201, 202, 203, 204, 205, 206, 207, 208, 209, 210, 211, 212, 213, 214, 215, 216, 217, 218, 219, 220, 221, 222, 223, 224, 225, 226, 227, 228, 229, 230, 231, 232, 233, 234, 235, 236, 237, 238, 239, 240, 241, 242, 243, 244, 245, 246, 247, 248, 249, 250, 251, 252, 253, 254, 255, 256, 257, 258, 259, 260, 261, 262, 263, 264, 265, 266, 267, 268, 269, 270, 271, 272, 273, 274, 275, 276, 277, 278, 279, 280, 281, 282, 283, 284, 285, 286, 287, 288, 289, 290, 291, 292, 293, 294, 295, 296, 297, 298, 299, 300, 301, 302, 303, 304, 305, 306, 307, 308, 309, 310, 311, 312, 313, 314, 315, 316, 317, 318, 319, 320, 321, 322, 323, 324, 325, 326, 327, 328, 329, 330, 331, 332, 333, 334, 335, 336, 337, 338, 339, 340, 341, 342, 343, 344, 345, 346, 347, 348, 349, 350, 351, 352, 353, 354, 355, 356, 357, 358, 359, 360, 361, 362, 363, 364, 365, 366, 367, 368, 369, 370, 371, 372, 373, 374, 375, 376, 377, 378, 379, 380, 381, 382, 383, 384, 385, 386, 387, 388, 389, 390, 391, 392, 393, 394, 395, 396, 397, 398, 399, 400, 401, 402, 403, 404, 405, 406, 407, 408, 409, 410, 411, 412, 413, 414, 415, 416, 417, 418, 419, 420, 421, 422, 423, 424, 425, 426, 427, 428, 429, 430, 431, 432, 433, 434, 435, 436, 437, 438, 439, 440, 441, 442, 443, 444, 445, 446, 447, 448, 449, 450, 451, 452, 453, 454, 455, 456, 457, 458, 459, 460, 461, 462, 463, 464, 465, 466, 467, 468, 469, 470, 471, 472, 473, 474, 475, 476, 477, 478, 479, 480, 481, 482, 483, 484, 485, 486, 487, 488, 489, 490, 491, 492, 493, 494, 495, 496, 497, 498, 499, 500, 501, 502, 503, 504, 505, 506, 507, 508, 509, 510, 511, 512, 513, 514, 515, 516, 517, 518, 519, 520, 521, 522, 523, 524, 525, 526, 527, 528, 529, 530, 531, 532, 533, 534, 535, 536, 537, 538, 539, 540, 541, 542, 543, 544, 545, 546, 547, 548, 549, 550, 551, 552, 553, 554, 555, 556, 557, 558, 559, 560, 561, 562, 563, 564, 565, 566, 567, 568, 569, 570, 571, 572, 573, 574, 575, 576, 577, 578, 579, 580, 581, 582, 583, 584, 585, 586, 587, 588, 589, 590, 591, 592, 593, 594, 595, 596, 597, 598, 599, 600, 601, 602, 603, 604, 605, 606, 607, 608, 609, 610, 611, 612, 613, 614, 615, 616, 617, 618, 619, 620, 621, 622, 623, 624, 625, 626, 627, 628, 629, 630, 631, 632, 633, 634, 635, 636, 637, 638, 639, 640, 641, 642, 643, 644, 645, 646, 647, 648, 649, 650, 651, 652, 653, 654, 655, 656, 657, 658, 659, 660, 661, 662, 663, 664, 665, 666, 667, 668, 669, 670, 671, 672, 673, 674, 675, 676, 677, 678, 679, 680, 681, 682, 683, 684, 685, 686, 687, 688, 689, 690, 691, 692, 693, 694, 695, 696, 697, 698, 699, 700, 701, 702, 703, 704, 705, 706, 707, 708, 709, 710, 711, 712, 713, 714, 715, 716, 717, 718, 719, 720, 721, 722, 723, 724, 725, 726, 727, 728, 729, 730, 731, 732, 733, 734, 735, 736, 737, 738, 739, 740, 741, 742, 743, 744, 745, 746, 747, 748, 749, 750, 751, 752, 753, 754, 755, 756, 757, 758, 759, 760, 761, 762, 763, 764, 765, 766, 767, 768, 769, 770, 771, 772, 773, 774, 775, 776, 777, 778, 779, 780, 781, 782, 783, 784, 785, 786, 787, 788, 789, 790, 791, 792, 793, 794, 795, 796, 797, 798, 799, 800, 801, 802, 803, 804, 805, 806, 807, 808, 809, 810, 811, 812, 813, 814, 815, 816, 817, 818, 819, 820, 821, 822, 823, 824, 825, 826, 827, 828, 829, 830, 831, 832, 833, 834, 835, 836, 837, 838, 839, 840, 841, 842, 843, 844, 845, 846, 847, 848, 849, 850, 851, 852, 853, 854, 855, 856, 857, 858, 859, 860, 861, 862, 863, 864, 865, 866, 867, 868, 869, 870, 871, 872],
      "AcquisitionTime": ["112218.115000", "112218.575000", "112219.035000", "112219.495000", "112219.955000", "112220.415000", "112220.875000", "112221.335000", "112221.795000", "112222.255000", "112222.715000", "112223.175000", "112223.635000", "112224.095000", "112224.555000", "112225.015000", "112225.475000", "112225.935000", "112226.395000", "112226.855000", "112227.315000", "112227.775000", "112228.235000", "112228.695000", "112229.155000", "112229.615000", "112230.075000", "112230.535000", "112230.995000", "112231.455000", "112231.915000", "112232.375000", "112232.835000", "112233.295000", "112233.755000", "112234.215000", "112234.675000", "112235.135000", "112235.595000", "112236.055000", "112236.515000", "112236.975000", "112237.435000", "112237.895000", "112238.355000", "112238.815000", "112239.275000", "112239.735000", "112240.195000", "112240.655000", "112241.115000", "112241.575000", "112242.035000", "112242.495000", "112242.955000", "112243.415000", "112243.875000", "112244.335000", "112244.795000", "112245.255000", "112245.715000", "112246.175000", "112246.635000", "112247.095000", "112247.555000", "112248.015000", "112248.475000", "112248.935000", "112249.395000", "112249.855000", "112250.315000", "112250.775000", "112251.235000", "112251.695000", "112252.155000", "112252.615000", "112253.075000", "112253.535000", "112253.995000", "112254.455000", "112254.915000", "112255.375000", "112255.835000", "112256.295000", "112256.755000", "112257.215000", "112257.675000", "112258.135000", "112258.595000", "112259.055000", "112259.515000", "112259.975000", "112300.435000", "112300.895000", "112301.355000", "112301.815000", "112302.275000", "112302.735000", "112303.195000", "112303.655000", "112304.115000", "112304.575000", "112305.035000", "112305.495000", "112305.955000", "112306.415000", "112306.875000", "112307.335000", "112307.795000", "112308.255000", "112308.715000", "112309.175000", "112309.635000", "112310.095000", "112310.555000", "112311.015000", "112311.475000", "112311.935000", "112312.395000", "112312.855000", "112313.315000", "112313.775000", "112314.235000", "112314.695000", "112315.155000", "112315.615000", "112316.075000", "112316.535000", "112316.995000", "112317.455000", "112317.915000", "112318.375000", "112318.835000", "112319.295000", "112319.755000", "112320.215000", "112320.675000", "112321.135000", "112321.595000", "112322.055000", "112322.515000", "112322.975000", "112323.435000", "112323.895000", "112324.355000", "112324.815000", "112325.275000", "112325.735000", "112326.195000", "112326.655000", "112327.115000", "112327.575000", "112328.035000", "112328.495000", "112328.955000", "112329.415000", "112329.875000", "112330.335000", "112330.795000", "112331.255000", "112331.715000", "112332.175000", "112332.635000", "112333.095000", "112333.555000", "112334.015000", "112334.475000", "112334.935000", "112335.395000", "112335.855000", "112336.315000", "112336.775000", "112337.235000", "112337.695000", "112338.155000", "112338.615000", "112339.075000", "112339.535000", "112339.995000", "112340.455000", "112340.915000", "112341.375000", "112341.835000", "112342.295000", "112342.755000", "112343.215000", "112343.675000", "112344.135000", "112344.595000", "112345.055000", "112345.515000", "112345.975000", "112346.435000", "112346.895000", "112347.355000", "112347.815000", "112348.275000", "112348.735000", "112349.195000", "112349.655000", "112350.115000", "112350.575000", "112351.035000", "112351.495000", "112351.955000", "112352.415000", "112352.875000", "112353.335000", "112353.795000", "112354.255000", "112354.715000", "112355.175000", "112355.635000", "112356.095000", "112356.555000", "112357.015000", "112357.475000", "112357.935000", "112358.395000", "112358.855000", "112359.315000", "112359.775000", "112400.235000", "112400.695000", "112401.155000", "112401.615000", "112402.075000", "112402.535000", "112402.995000", "112403.455000", "112403.915000", "112404.375000", "112404.835000", "112405.295000", "112405.755000", "112406.215000", "112406.675000", "112407.135000", "112407.595000", "112408.055000", "112408.515000", "112408.975000", "112409.435000", "112409.895000", "112410.355000", "112410.815000", "112411.275000", "112411.735000", "112412.195000", "112412.655000", "112413.115000", "112413.575000", "112414.035000", "112414.495000", "112414.955000", "112415.415000", "112415.875000", "112416.335000", "112416.795000", "112417.255000", "112417.715000", "112418.175000", "112418.635000", "112419.095000", "112419.555000", "112420.015000", "112420.475000", "112420.935000", "112421.395000", "112421.855000", "112422.315000", "112422.775000", "112423.235000", "112423.695000", "112424.155000", "112424.615000", "112425.075000", "112425.535000", "112425.995000", "112426.455000", "112426.915000", "112427.375000", "112427.835000", "112428.295000", "112428.755000", "112429.215000", "112429.675000", "112430.135000", "112430.595000", "112431.055000", "112431.515000", "112431.975000", "112432.435000", "112432.895000", "112433.355000", "112433.815000", "112434.275000", "112434.735000", "112435.195000", "112435.655000", "112436.115000", "112436.575000", "112437.035000", "112437.495000", "112437.955000", "112438.415000", "112438.875000", "112439.335000", "112439.795000", "112440.255000", "112440.715000", "112441.175000", "112441.635000", "112442.095000", "112442.555000", "112443.015000", "112443.475000", "112443.935000", "112444.395000", "112444.855000", "112445.315000", "112445.775000", "112446.235000", "112446.695000", "112447.155000", "112447.615000", "112448.075000", "112448.535000", "112448.995000", "112449.455000", "112449.915000", "112450.375000", "112450.835000", "112451.295000", "112451.755000", "112452.215000", "112452.675000", "112453.135000", "112453.595000", "112454.055000", "112454.515000", "112454.975000", "112455.435000", "112455.895000", "112456.355000", "112456.815000", "112457.275000", "112457.735000", "112458.195000", "112458.655000", "112459.115000", "112459.575000", "112500.035000", "112500.495000", "112500.955000", "112501.415000", "112501.875000", "112502.335000", "112502.795000", "112503.255000", "112503.715000", "112504.175000", "112504.635000", "112505.095000", "112505.555000", "112506.015000", "112506.475000", "112506.935000", "112507.395000", "112507.855000", "112508.315000", "112508.775000", "112509.235000", "112509.695000", "112510.155000", "112510.615000", "112511.075000", "112511.535000", "112511.995000", "112512.455000", "112512.915000", "112513.375000", "112513.835000", "112514.295000", "112514.755000", "112515.215000", "112515.675000", "112516.135000", "112516.595000", "112517.055000", "112517.515000", "112517.975000", "112518.435000", "112518.895000", "112519.355000", "112519.815000", "112520.275000", "112520.735000", "112521.195000", "112521.655000", "112522.115000", "112522.575000", "112523.035000", "112523.495000", "112523.955000", "112524.415000", "112524.875000", "112525.335000", "112525.795000", "112526.255000", "112526.715000", "112527.175000", "112527.635000", "112528.095000", "112528.555000", "112529.015000", "112529.475000", "112529.935000", "112530.395000", "112530.855000", "112531.315000", "112531.775000", "112532.235000", "112532.695000", "112533.155000", "112533.615000", "112534.075000", "112534.535000", "112534.995000", "112535.455000", "112535.915000", "112536.375000", "112536.835000", "112537.295000", "112537.755000", "112538.215000", "112538.675000", "112539.135000", "112539.595000", "112540.055000", "112540.515000", "112540.975000", "112541.435000", "112541.895000", "112542.355000", "112542.815000", "112543.275000", "112543.735000", "112544.195000", "112544.655000", "112545.115000", "112545.575000", "112546.035000", "112546.495000", "112546.955000", "112547.415000", "112547.875000", "112548.335000", "112548.795000", "112549.255000", "112549.715000", "112550.175000", "112550.635000", "112551.095000", "112551.555000", "112552.015000", "112552.475000", "112552.935000", "112553.395000", "112553.855000", "112554.315000", "112554.775000", "112555.235000", "112555.695000", "112556.155000", "112556.615000", "112557.075000", "112557.535000", "112557.995000", "112558.455000", "112558.915000", "112559.375000", "112559.835000", "112600.295000", "112600.755000", "112601.215000", "112601.675000", "112602.135000", "112602.595000", "112603.055000", "112603.515000", "112603.975000", "112604.435000", "112604.895000", "112605.355000", "112605.815000", "112606.275000", "112606.735000", "112607.195000", "112607.655000", "112608.115000", "112608.575000", "112609.035000", "112609.495000", "112609.955000", "112610.415000", "112610.875000", "112611.335000", "112611.795000", "112612.255000", "112612.715000", "112613.175000", "112613.635000", "112614.095000", "112614.555000", "112615.015000", "112615.475000", "112615.935000", "112616.395000", "112616.855000", "112617.315000", "112617.775000", "112618.235000", "112618.695000", "112619.155000", "112619.615000", "112620.075000", "112620.535000", "112620.995000", "112621.455000", "112621.915000", "112622.375000", "112622.835000", "112623.295000", "112623.755000", "112624.215000", "112624.675000", "112625.135000", "112625.595000", "112626.055000", "112626.515000", "112626.975000", "112627.435000", "112627.895000", "112628.355000", "112628.815000", "112629.275000", "112629.735000", "112630.195000", "112630.655000", "112631.115000", "112631.575000", "112632.035000", "112632.495000", "112632.955000", "112633.415000", "112633.875000", "112634.335000", "112634.795000", "112635.255000", "112635.715000", "112636.175000", "112636.635000", "112637.095000", "112637.555000", "112638.015000", "112638.475000", "112638.935000", "112639.395000", "112639.855000", "112640.315000", "112640.775000", "112641.235000", "112641.695000", "112642.155000", "112642.615000", "112643.075000", "112643.535000", "112643.995000", "112644.455000", "112644.915000", "112645.375000", "112645.835000", "112646.295000", "112646.755000", "112647.215000", "112647.675000", "112648.135000", "112648.595000", "112649.055000", "112649.515000", "112649.975000", "112650.435000", "112650.895000", "112651.355000", "112651.815000", "112652.275000", "112652.735000", "112653.195000", "112653.655000", "112654.115000", "112654.575000", "112655.035000", "112655.495000", "112655.955000", "112656.415000", "112656.875000", "112657.335000", "112657.795000", "112658.255000", "112658.715000", "112659.175000", "112659.635000", "112700.095000", "112700.555000", "112701.015000", "112701.475000", "112701.935000", "112702.395000", "112702.855000", "112703.315000", "112703.775000", "112704.235000", "112704.695000", "112705.155000", "112705.615000", "112706.075000", "112706.535000", "112706.995000", "112707.455000", "112707.915000", "112708.375000", "112708.835000", "112709.295000", "112709.755000", "112710.215000", "112710.675000", "112711.135000", "112711.595000", "112712.055000", "112712.515000", "112712.975000", "112713.435000", "112713.895000", "112714.355000", "112714.815000", "112715.275000", "112715.735000", "112716.195000", "112716.655000", "112717.115000", "112717.575000", "112718.035000", "112718.495000", "112718.955000", "112719.415000", "112719.875000", "112720.335000", "112720.795000", "112721.255000", "112721.715000", "112722.175000", "112722.635000", "112723.095000", "112723.555000", "112724.015000", "112724.475000", "112724.935000", "112725.395000", "112725.855000", "112726.315000", "112726.775000", "112727.235000", "112727.695000", "112728.155000", "112728.615000", "112729.075000", "112729.535000", "112729.995000", "112730.455000", "112730.915000", "112731.375000", "112731.835000", "112732.295000", "112732.755000", "112733.215000", "112733.675000", "112734.135000", "112734.595000", "112735.055000", "112735.515000", "112735.975000", "112736.435000", "112736.895000", "112737.355000", "112737.815000", "112738.275000", "112738.735000", "112739.195000", "112739.655000", "112740.115000", "112740.575000", "112741.035000", "112741.495000", "112741.955000", "112742.415000", "112742.875000", "112743.335000", "112743.795000", "112744.255000", "112744.715000", "112745.175000", "112745.635000", "112746.095000", "112746.555000", "112747.015000", "112747.475000", "112747.935000", "112748.395000", "112748.855000", "112749.315000", "112749.775000", "112750.235000", "112750.695000", "112751.155000", "112751.615000", "112752.075000", "112752.535000", "112752.995000", "112753.455000", "112753.915000", "112754.375000", "112754.835000", "112755.295000", "112755.755000", "112756.215000", "112756.675000", "112757.135000", "112757.595000", "112758.055000", "112758.515000", "112758.975000", "112759.435000", "112759.895000", "112800.355000", "112800.815000", "112801.275000", "112801.735000", "112802.195000", "112802.655000", "112803.115000", "112803.575000", "112804.035000", "112804.495000", "112804.955000", "112805.415000", "112805.875000", "112806.335000", "112806.795000", "112807.255000", "112807.715000", "112808.175000", "112808.635000", "112809.095000", "112809.555000", "112810.015000", "112810.475000", "112810.935000", "112811.395000", "112811.855000", "112812.315000", "112812.775000", "112813.235000", "112813.695000", "112814.155000", "112814.615000", "112815.075000", "112815.535000", "112815.995000", "112816.455000", "112816.915000", "112817.375000", "112817.835000", "112818.295000", "112818.755000", "112819.215000", "112819.675000", "112820.135000", "112820.595000", "112821.055000", "112821.515000", "112821.975000", "112822.435000", "112822.895000", "112823.355000", "112823.815000", "112824.275000", "112824.735000", "112825.195000", "112825.655000", "112826.115000", "112826.575000", "112827.035000", "112827.495000", "112827.955000", "112828.415000", "112828.875000", "112829.335000", "112829.795000", "112830.255000", "112830.715000", "112831.175000", "112831.635000", "112832.095000", "112832.555000", "112833.015000", "112833.475000", "112833.935000", "112834.395000", "112834.855000", "112835.315000", "112835.775000", "112836.235000", "112836.695000", "112837.155000", "112837.615000", "112838.075000", "112838.535000", "112838.995000", "112839.455000", "112839.915000", "112840.375000", "112840.835000", "112841.295000", "112841.755000", "112842.215000", "112842.675000", "112843.135000", "112843.595000", "112844.055000", "112844.515000", "112844.975000", "112845.435000", "112845.895000", "112846.355000", "112846.815000", "112847.275000", "112847.735000", "112848.195000", "112848.655000", "112849.115000", "112849.575000", "112850.035000", "112850.495000", "112850.955000", "112851.415000", "112851.875000", "112852.335000", "112852.795000", "112853.255000", "112853.715000", "112854.175000", "112854.635000", "112855.095000", "112855.555000", "112856.015000", "112856.475000", "112856.935000", "112857.395000", "112857.855000", "112858.315000", "112858.775000"],
