{
  "AcquisitionMatrixPE": 82,
  "AcquisitionNumber": 1,
  "AcquisitionTime": "11:33:59.312500",
  "BandwidthPerPixelPhaseEncode": 24.888,
  "BaseResolution": 82,
  "BodyPartExamined": "BRAIN",
  "ConsistencyInfo": "N4_VE11E_LATEST_20181129",
  "ConversionSoftware": "dcm2niix",
  "ConversionSoftwareVersion": "v1.0.20201102",
  "DerivedVendorReportedEchoSpacing": 0.00049,
  "DeviceSerialNumber": "66112",
  "DwellTime": 2e-06,
  "EchoTime": 0.0272,
  "EchoTrainLength": 82,
  "EffectiveEchoSpacing": 0.00049,
  "FlipAngle": 44,
  "ImageComments": "Unaliased MB8/PE3",
  "ImageOrientationPatientDICOM": [0.996568, 0.0676935, -0.0476402, -0.0738829, 0.986938, -0.143157],
  "ImageType": [
    "ORIGINAL",
    "PRIMARY",
    "M",
    "MB",
    "ND",
    "NORM",
    "MOSAIC"
],
  "ImagingFrequency": 123.259,
  "InPlanePhaseEncodingDirectionDICOM": "COL",
  "InstitutionAddress": "Maynard 3,Hanover,NH,US,03755",
  "InstitutionName": "Dartmouth College - PBS",
  "InstitutionalDepartmentName": "Department",
  "MRAcquisitionType": "2D",
  "MagneticFieldStrength": 3,
  "Manufacturer": "Siemens",
  "ManufacturersModelName": "Prisma",
  "Modality": "MR",
  "MultibandAccelerationFactor": 8,
  "PartialFourier": 1,
  "PatientPosition": "HFS",
  "PercentPhaseFOV": 100,
  "PercentSampling": 100,
  "PhaseEncodingDirection": "j-",
  "PhaseEncodingSteps": 82,
  "PhaseResolution": 1,
  "PixelBandwidth": 3050,
  "ProcedureStepDescription": "Wager_Wager^1076_spacetop",
  "ProtocolName": "func_run-01_task-alignvideo_acq-ap-mb8",
  "PulseSequenceDetails": "%CustomerSeq%\\cmrr_mbep2d_bold",
  "ReceiveCoilActiveElements": "HEA;HEP",
  "ReceiveCoilName": "Head_32",
  "ReconMatrixPE": 82,
  "RepetitionTime": 0.46,
  "SAR": 0.0833343,
  "ScanOptions": "FS",
  "ScanningSequence": "EP",
  "SequenceName": "epfid2d1_82",
  "SequenceVariant": "SK\\SS",
  "SeriesDescription": "func_run-01_task-alignvideo_acq-ap-mb8",
  "SeriesNumber": 30,
  "ShimSetting": [4188, -7740, -7254, 189, -162, 90, -55, 125],
  "SliceThickness": 2.7,
  "SliceTiming": [0, 0.25, 0.0625, 0.315, 0.125, 0.3775, 0.1875, 0, 0.25, 0.0625, 0.315, 0.125, 0.3775, 0.1875, 0, 0.25, 0.0625, 0.315, 0.125, 0.3775, 0.1875, 0, 0.25, 0.0625, 0.315, 0.125, 0.3775, 0.1875, 0, 0.25, 0.0625, 0.315, 0.125, 0.3775, 0.1875, 0, 0.25, 0.0625, 0.315, 0.125, 0.3775, 0.1875, 0, 0.25, 0.0625, 0.315, 0.125, 0.3775, 0.1875, 0, 0.25, 0.0625, 0.315, 0.125, 0.3775, 0.1875],
  "SoftwareVersions": "syngo MR E11",
  "SpacingBetweenSlices": 2.7,
  "StationName": "AWP66112",
  "TaskName": "alignvideo",
  "TotalReadoutTime": 0.03969,
  "TxRefAmp": 243.555,
  "WipMemBlock": "1e7f5281-512a-4804-ba73-5c2f00e08a33||Sequence: R016 ve11e/master r/434b28f1; Aug  7 2019 18:53:46 by eja",
  "dcmmeta_affine": [
    [-2.6737194061279297, -0.19822241365909576, -0.10078336298465729, 124.82891845703125],
    [-0.18161675333976746, 2.647883653640747, -0.3946995735168457, -82.4654541015625],
    [-0.1278151571750641, 0.3840785026550293, 2.6690924167633057, -98.0027084350586],
    [0.0, 0.0, 0.0, 1.0]
],
  "dcmmeta_reorient_transform": [
    [0.0, -1.0, 0.0, 81.0],
    [1.0, 0.0, 0.0, 0.0],
    [0.0, 0.0, 1.0, 0.0],
    [0.0, 0.0, 0.0, 1.0]
],
  "dcmmeta_shape": [82, 82, 56, 1073],
  "dcmmeta_slice_dim": 2,
  "dcmmeta_version": 0.6,
  "global": {
    "const": {
      "AccessionNumber": "A004845",
      "AcquisitionMatrix": [82, 0, 0, 82],
      "AngioFlag": "N",
      "BitsAllocated": 16,
      "BitsStored": 16,
      "BodyPartExamined": "BRAIN",
      "Columns": 656,
      "EchoNumbers": 1,
      "EchoTime": 27.2,
      "EchoTrainLength": 82,
      "FlipAngle": 44.0,
      "HighBit": 15,
      "ImageOrientationPatient": [0.99656811109877, 0.06769351392814, -0.0476401943016, -0.073882895167, 0.98693846126125, -0.1431565279162],
      "ImagePositionPatient": [-819.24053480363, -944.07977090468, 80.021129930748],
      "ImageType": [
        "ORIGINAL",
        "PRIMARY",
        "M",
        "MB",
        "ND",
        "NORM",
        "MOSAIC"
],
      "ImagedNucleus": "1H",
      "ImagingFrequency": 123.25925,
      "InPlanePhaseEncodingDirection": "COL",
      "MRAcquisitionType": "2D",
      "MagneticFieldStrength": 3.0,
      "Manufacturer": "SIEMENS",
      "ManufacturerModelName": "Prisma",
      "Modality": "MR",
      "NumberOfAverages": 1.0,
      "NumberOfPhaseEncodingSteps": 82,
      "PercentPhaseFieldOfView": 100.0,
      "PercentSampling": 100.0,
      "PerformedProcedureStepStartTime": "101206.751000",
      "PhotometricInterpretation": "MONOCHROME2",
      "PixelBandwidth": 3050.0,
      "PixelRepresentation": 0,
      "PixelSpacing": [2.6829268932343, 2.6829268932343],
      "ProtocolName": "func_run-01_task-alignvideo_acq-ap-mb8",
      "RepetitionTime": 460.0,
      "Rows": 656,
      "SAR": 0.08333428378407,
      "SamplesPerPixel": 1,
      "ScanOptions": "FS",
      "ScanningSequence": "EP",
      "SequenceName": "epfid2d1_82",
      "SequenceVariant": [
        "SK",
        "SS"
],
      "SeriesDescription": "func_run-01_task-alignvideo_acq-ap-mb8",
      "SeriesNumber": 30,
      "SeriesTime": "113410.996000",
      "SliceLocation": -89.485146682839,
      "SliceThickness": 2.7000000476837,
      "SmallestImagePixelValue": 0,
      "SoftwareVersions": "syngo MR E11",
      "SpacingBetweenSlices": 2.6999999571594,
      "SpecificCharacterSet": "ISO_IR 100",
      "StudyID": "1",
      "StudyTime": "101206.640000",
      "TransmitCoilName": "Body",
      "VariableFlipAngleFlag": "N",
      "WindowCenterWidthExplanation": "Algo1"
    },
    "slices": {}
  },
  "time": {
    "samples": {
      "AcquisitionNumber": [1, 2, 3, 4, 5, 6, 7, 8, 9, 10, 11, 12, 13, 14, 15, 16, 17, 18, 19, 20, 21, 22, 23, 24, 25, 26, 27, 28, 29, 30, 31, 32, 33, 34, 35, 36, 37, 38, 39, 40, 41, 42, 43, 44, 45, 46, 47, 48, 49, 50, 51, 52, 53, 54, 55, 56, 57, 58, 59, 60, 61, 62, 63, 64, 65, 66, 67, 68, 69, 70, 71, 72, 73, 74, 75, 76, 77, 78, 79, 80, 81, 82, 83, 84, 85, 86, 87, 88, 89, 90, 91, 92, 93, 94, 95, 96, 97, 98, 99, 100, 101, 102, 103, 104, 105, 106, 107, 108, 109, 110, 111, 112, 113, 114, 115, 116, 117, 118, 119, 120, 121, 122, 123, 124, 125, 126, 127, 128, 129, 130, 131, 132, 133, 134, 135, 136, 137, 138, 139, 140, 141, 142, 143, 144, 145, 146, 147, 148, 149, 150, 151, 152, 153, 154, 155, 156, 157, 158, 159, 160, 161, 162, 163, 164, 165, 166, 167, 168, 169, 170, 171, 172, 173, 174, 175, 176, 177, 178, 179, 180, 181, 182, 183, 184, 185, 186, 187, 188, 189, 190, 191, 192, 193, 194, 195, 196, 197, 198, 199, 200, 201, 202, 203, 204, 205, 206, 207, 208, 209, 210, 211, 212, 213, 214, 215, 216, 217, 218, 219, 220, 221, 222, 223, 224, 225, 226, 227, 228, 229, 230, 231, 232, 233, 234, 235, 236, 237, 238, 239, 240, 241, 242, 243, 244, 245, 246, 247, 248, 249, 250, 251, 252, 253, 254, 255, 256, 257, 258, 259, 260, 261, 262, 263, 264, 265, 266, 267, 268, 269, 270, 271, 272, 273, 274, 275, 276, 277, 278, 279, 280, 281, 282, 283, 284, 285, 286, 287, 288, 289, 290, 291, 292, 293, 294, 295, 296, 297, 298, 299, 300, 301, 302, 303, 304, 305, 306, 307, 308, 309, 310, 311, 312, 313, 314, 315, 316, 317, 318, 319, 320, 321, 322, 323, 324, 325, 326, 327, 328, 329, 330, 331, 332, 333, 334, 335, 336, 337, 338, 339, 340, 341, 342, 343, 344, 345, 346, 347, 348, 349, 350, 351, 352, 353, 354, 355, 356, 357, 358, 359, 360, 361, 362, 363, 364, 365, 366, 367, 368, 369, 370, 371, 372, 373, 374, 375, 376, 377, 378, 379, 380, 381, 382, 383, 384, 385, 386, 387, 388, 389, 390, 391, 392, 393, 394, 395, 396, 397, 398, 399, 400, 401, 402, 403, 404, 405, 406, 407, 408, 409, 410, 411, 412, 413, 414, 415, 416, 417, 418, 419, 420, 421, 422, 423, 424, 425, 426, 427, 428, 429, 430, 431, 432, 433, 434, 435, 436, 437, 438, 439, 440, 441, 442, 443, 444, 445, 446, 447, 448, 449, 450, 451, 452, 453, 454, 455, 456, 457, 458, 459, 460, 461, 462, 463, 464, 465, 466, 467, 468, 469, 470, 471, 472, 473, 474, 475, 476, 477, 478, 479, 480, 481, 482, 483, 484, 485, 486, 487, 488, 489, 490, 491, 492, 493, 494, 495, 496, 497, 498, 499, 500, 501, 502, 503, 504, 505, 506, 507, 508, 509, 510, 511, 512, 513, 514, 515, 516, 517, 518, 519, 520, 521, 522, 523, 524, 525, 526, 527, 528, 529, 530, 531, 532, 533, 534, 535, 536, 537, 538, 539, 540, 541, 542, 543, 544, 545, 546, 547, 548, 549, 550, 551, 552, 553, 554, 555, 556, 557, 558, 559, 560, 561, 562, 563, 564, 565, 566, 567, 568, 569, 570, 571, 572, 573, 574, 575, 576, 577, 578, 579, 580, 581, 582, 583, 584, 585, 586, 587, 588, 589, 590, 591, 592, 593, 594, 595, 596, 597, 598, 599, 600, 601, 602, 603, 604, 605, 606, 607, 608, 609, 610, 611, 612, 613, 614, 615, 616, 617, 618, 619, 620, 621, 622, 623, 624, 625, 626, 627, 628, 629, 630, 631, 632, 633, 634, 635, 636, 637, 638, 639, 640, 641, 642, 643, 644, 645, 646, 647, 648, 649, 650, 651, 652, 653, 654, 655, 656, 657, 658, 659, 660, 661, 662, 663, 664, 665, 666, 667, 668, 669, 670, 671, 672, 673, 674, 675, 676, 677, 678, 679, 680, 681, 682, 683, 684, 685, 686, 687, 688, 689, 690, 691, 692, 693, 694, 695, 696, 697, 698, 699, 700, 701, 702, 703, 704, 705, 706, 707, 708, 709, 710, 711, 712, 713, 714, 715, 716, 717, 718, 719, 720, 721, 722, 723, 724, 725, 726, 727, 728, 729, 730, 731, 732, 733, 734, 735, 736, 737, 738, 739, 740, 741, 742, 743, 744, 745, 746, 747, 748, 749, 750, 751, 752, 753, 754, 755, 756, 757, 758, 759, 760, 761, 762, 763, 764, 765, 766, 767, 768, 769, 770, 771, 772, 773, 774, 775, 776, 777, 778, 779, 780, 781, 782, 783, 784, 785, 786, 787, 788, 789, 790, 791, 792, 793, 794, 795, 796, 797, 798, 799, 800, 801, 802, 803, 804, 805, 806, 807, 808, 809, 810, 811, 812, 813, 814, 815, 816, 817, 818, 819, 820, 821, 822, 823, 824, 825, 826, 827, 828, 829, 830, 831, 832, 833, 834, 835, 836, 837, 838, 839, 840, 841, 842, 843, 844, 845, 846, 847, 848, 849, 850, 851, 852, 853, 854, 855, 856, 857, 858, 859, 860, 861, 862, 863, 864, 865, 866, 867, 868, 869, 870, 871, 872, 873, 874, 875, 876, 877, 878, 879, 880, 881, 882, 883, 884, 885, 886, 887, 888, 889, 890, 891, 892, 893, 894, 895, 896, 897, 898, 899, 900, 901, 902, 903, 904, 905, 906, 907, 908, 909, 910, 911, 912, 913, 914, 915, 916, 917, 918, 919, 920, 921, 922, 923, 924, 925, 926, 927, 928, 929, 930, 931, 932, 933, 934, 935, 936, 937, 938, 939, 940, 941, 942, 943, 944, 945, 946, 947, 948, 949, 950, 951, 952, 953, 954, 955, 956, 957, 958, 959, 960, 961, 962, 963, 964, 965, 966, 967, 968, 969, 970, 971, 972, 973, 974, 975, 976, 977, 978, 979, 980, 981, 982, 983, 984, 985, 986, 987, 988, 989, 990, 991, 992, 993, 994, 995, 996, 997, 998, 999, 1000, 1001, 1002, 1003, 1004, 1005, 1006, 1007, 1008, 1009, 1010, 1011, 1012, 1013, 1014, 1015, 1016, 1017, 1018, 1019, 1020, 1021, 1022, 1023, 1024, 1025, 1026, 1027, 1028, 1029, 1030, 1031, 1032, 1033, 1034, 1035, 1036, 1037, 1038, 1039, 1040, 1041, 1042, 1043, 1044, 1045, 1046, 1047, 1048, 1049, 1050, 1051, 1052, 1053, 1054, 1055, 1056, 1057, 1058, 1059, 1060, 1061, 1062, 1063, 1064, 1065, 1066, 1067, 1068, 1069, 1070, 1071, 1072, 1073],
      "AcquisitionTime": ["113359.312500", "113359.772500", "113400.232500", "113400.692500", "113401.152500", "113401.612500", "113402.072500", "113402.532500", "113402.992500", "113403.452500", "113403.912500", "113404.372500", "113404.832500", "113405.292500", "113405.752500", "113406.212500", "113406.672500", "113407.132500", "113407.592500", "113408.052500", "113408.512500", "113408.972500", "113409.432500", "113409.892500", "113410.352500", "113410.812500", "113411.272500", "113411.732500", "113412.192500", "113412.652500", "113413.112500", "113413.572500", "113414.032500", "113414.492500", "113414.952500", "113415.412500", "113415.872500", "113416.332500", "113416.792500", "113417.252500", "113417.712500", "113418.172500", "113418.632500", "113419.092500", "113419.552500", "113420.012500", "113420.472500", "113420.932500", "113421.392500", "113421.852500", "113422.312500", "113422.772500", "113423.232500", "113423.692500", "113424.152500", "113424.612500", "113425.072500", "113425.532500", "113425.992500", "113426.452500", "113426.912500", "113427.372500", "113427.832500", "113428.292500", "113428.752500", "113429.212500", "113429.672500", "113430.132500", "113430.592500", "113431.052500", "113431.512500", "113431.972500", "113432.432500", "113432.892500", "113433.352500", "113433.812500", "113434.272500", "113434.732500", "113435.192500", "113435.652500", "113436.112500", "113436.572500", "113437.032500", "113437.492500", "113437.952500", "113438.412500", "113438.872500", "113439.332500", "113439.792500", "113440.252500", "113440.712500", "113441.172500", "113441.632500", "113442.092500", "113442.552500", "113443.012500", "113443.472500", "113443.932500", "113444.392500", "113444.852500", "113445.312500", "113445.772500", "113446.232500", "113446.692500", "113447.152500", "113447.612500", "113448.072500", "113448.532500", "113448.992500", "113449.452500", "113449.912500", "113450.372500", "113450.832500", "113451.292500", "113451.752500", "113452.212500", "113452.672500", "113453.132500", "113453.592500", "113454.052500", "113454.512500", "113454.972500", "113455.432500", "113455.892500", "113456.352500", "113456.812500", "113457.272500", "113457.732500", "113458.192500", "113458.652500", "113459.112500", "113459.572500", "113500.032500", "113500.492500", "113500.952500", "113501.412500", "113501.872500", "113502.332500", "113502.792500", "113503.252500", "113503.712500", "113504.172500", "113504.632500", "113505.092500", "113505.552500", "113506.012500", "113506.472500", "113506.932500", "113507.392500", "113507.852500", "113508.312500", "113508.772500", "113509.232500", "113509.692500", "113510.152500", "113510.612500", "113511.072500", "113511.532500", "113511.992500", "113512.452500", "113512.912500", "113513.372500", "113513.832500", "113514.292500", "113514.752500", "113515.212500", "113515.672500", "113516.132500", "113516.592500", "113517.052500", "113517.512500", "113517.972500", "113518.432500", "113518.892500", "113519.352500", "113519.812500", "113520.272500", "113520.732500", "113521.192500", "113521.652500", "113522.112500", "113522.572500", "113523.032500", "113523.492500", "113523.952500", "113524.412500", "113524.872500", "113525.332500", "113525.792500", "113526.252500", "113526.712500", "113527.172500", "113527.632500", "113528.092500", "113528.552500", "113529.012500", "113529.472500", "113529.932500", "113530.392500", "113530.852500", "113531.312500", "113531.772500", "113532.232500", "113532.692500", "113533.152500", "113533.612500", "113534.072500", "113534.532500", "113534.992500", "113535.452500", "113535.912500", "113536.372500", "113536.832500", "113537.292500", "113537.752500", "113538.212500", "113538.672500", "113539.132500", "113539.592500", "113540.052500", "113540.512500", "113540.972500", "113541.432500", "113541.892500", "113542.352500", "113542.812500", "113543.272500", "113543.732500", "113544.192500", "113544.652500", "113545.112500", "113545.572500", "113546.032500", "113546.492500", "113546.952500", "113547.412500", "113547.872500", "113548.332500", "113548.792500", "113549.252500", "113549.712500", "113550.172500", "113550.632500", "113551.092500", "113551.552500", "113552.012500", "113552.472500", "113552.932500", "113553.392500", "113553.852500", "113554.312500", "113554.772500", "113555.232500", "113555.692500", "113556.152500", "113556.612500", "113557.072500", "113557.532500", "113557.992500", "113558.452500", "113558.912500", "113559.372500", "113559.832500", "113600.292500", "113600.752500", "113601.212500", "113601.672500", "113602.132500", "113602.592500", "113603.052500", "113603.512500", "113603.972500", "113604.432500", "113604.892500", "113605.352500", "113605.812500", "113606.272500", "113606.732500", "113607.192500", "113607.652500", "113608.112500", "113608.572500", "113609.032500", "113609.492500", "113609.952500", "113610.412500", "113610.872500", "113611.332500", "113611.792500", "113612.252500", "113612.712500", "113613.172500", "113613.632500", "113614.092500", "113614.552500", "113615.012500", "113615.472500", "113615.932500", "113616.392500", "113616.852500", "113617.312500", "113617.772500", "113618.232500", "113618.692500", "113619.152500", "113619.612500", "113620.072500", "113620.532500", "113620.992500", "113621.452500", "113621.912500", "113622.372500", "113622.832500", "113623.292500", "113623.752500", "113624.212500", "113624.672500", "113625.132500", "113625.592500", "113626.052500", "113626.512500", "113626.972500", "113627.432500", "113627.892500", "113628.352500", "113628.812500", "113629.272500", "113629.732500", "113630.192500", "113630.652500", "113631.112500", "113631.572500", "113632.032500", "113632.492500", "113632.952500", "113633.412500", "113633.872500", "113634.332500", "113634.792500", "113635.252500", "113635.712500", "113636.172500", "113636.632500", "113637.092500", "113637.552500", "113638.012500", "113638.472500", "113638.932500", "113639.392500", "113639.852500", "113640.312500", "113640.772500", "113641.232500", "113641.692500", "113642.152500", "113642.612500", "113643.072500", "113643.532500", "113643.992500", "113644.452500", "113644.912500", "113645.372500", "113645.832500", "113646.292500", "113646.752500", "113647.212500", "113647.672500", "113648.132500", "113648.592500", "113649.052500", "113649.512500", "113649.972500", "113650.432500", "113650.892500", "113651.352500", "113651.812500", "113652.272500", "113652.732500", "113653.192500", "113653.652500", "113654.112500", "113654.572500", "113655.032500", "113655.492500", "113655.952500", "113656.412500", "113656.872500", "113657.332500", "113657.792500", "113658.252500", "113658.712500", "113659.172500", "113659.632500", "113700.092500", "113700.552500", "113701.012500", "113701.472500", "113701.932500", "113702.392500", "113702.852500", "113703.312500", "113703.772500", "113704.232500", "113704.692500", "113705.152500", "113705.612500", "113706.072500", "113706.532500", "113706.992500", "113707.452500", "113707.912500", "113708.372500", "113708.832500", "113709.292500", "113709.752500", "113710.212500", "113710.672500", "113711.132500", "113711.592500", "113712.052500", "113712.512500", "113712.972500", "113713.432500", "113713.892500", "113714.352500", "113714.812500", "113715.272500", "113715.732500", "113716.192500", "113716.652500", "113717.112500", "113717.572500", "113718.032500", "113718.492500", "113718.952500", "113719.412500", "113719.872500", "113720.332500", "113720.792500", "113721.252500", "113721.712500", "113722.172500", "113722.632500", "113723.092500", "113723.552500", "113724.012500", "113724.472500", "113724.932500", "113725.392500", "113725.852500", "113726.312500", "113726.772500", "113727.232500", "113727.692500", "113728.152500", "113728.612500", "113729.072500", "113729.532500", "113729.992500", "113730.452500", "113730.912500", "113731.372500", "113731.832500", "113732.292500", "113732.752500", "113733.212500", "113733.672500", "113734.132500", "113734.592500", "113735.052500", "113735.512500", "113735.972500", "113736.432500", "113736.892500", "113737.352500", "113737.812500", "113738.272500", "113738.732500", "113739.192500", "113739.652500", "113740.112500", "113740.572500", "113741.032500", "113741.492500", "113741.952500", "113742.412500", "113742.872500", "113743.332500", "113743.792500", "113744.252500", "113744.712500", "113745.172500", "113745.632500", "113746.092500", "113746.552500", "113747.012500", "113747.472500", "113747.932500", "113748.392500", "113748.852500", "113749.312500", "113749.772500", "113750.232500", "113750.692500", "113751.152500", "113751.612500", "113752.072500", "113752.532500", "113752.992500", "113753.452500", "113753.912500", "113754.372500", "113754.832500", "113755.292500", "113755.752500", "113756.212500", "113756.672500", "113757.132500", "113757.592500", "113758.052500", "113758.512500", "113758.972500", "113759.432500", "113759.892500", "113800.352500", "113800.812500", "113801.272500", "113801.732500", "113802.192500", "113802.652500", "113803.112500", "113803.572500", "113804.032500", "113804.492500", "113804.952500", "113805.412500", "113805.872500", "113806.332500", "113806.792500", "113807.252500", "113807.712500", "113808.172500", "113808.632500", "113809.092500", "113809.552500", "113810.012500", "113810.472500", "113810.932500", "113811.392500", "113811.852500", "113812.312500", "113812.772500", "113813.232500", "113813.692500", "113814.152500", "113814.612500", "113815.072500", "113815.532500", "113815.992500", "113816.452500", "113816.912500", "113817.372500", "113817.832500", "113818.292500", "113818.752500", "113819.212500", "113819.672500", "113820.132500", "113820.592500", "113821.052500", "113821.512500", "113821.972500", "113822.432500", "113822.892500", "113823.352500", "113823.812500", "113824.272500", "113824.732500", "113825.192500", "113825.652500", "113826.112500", "113826.572500", "113827.032500", "113827.492500", "113827.952500", "113828.412500", "113828.872500", "113829.332500", "113829.792500", "113830.252500", "113830.712500", "113831.172500", "113831.632500", "113832.092500", "113832.552500", "113833.012500", "113833.472500", "113833.932500", "113834.392500", "113834.852500", "113835.312500", "113835.772500", "113836.232500", "113836.692500", "113837.152500", "113837.612500", "113838.072500", "113838.532500", "113838.992500", "113839.452500", "113839.912500", "113840.372500", "113840.832500", "113841.292500", "113841.752500", "113842.212500", "113842.672500", "113843.132500", "113843.592500", "113844.052500", "113844.512500", "113844.972500", "113845.432500", "113845.892500", "113846.352500", "113846.812500", "113847.272500", "113847.732500", "113848.192500", "113848.652500", "113849.112500", "113849.572500", "113850.032500", "113850.492500", "113850.952500", "113851.412500", "113851.872500", "113852.332500", "113852.792500", "113853.252500", "113853.712500", "113854.172500", "113854.632500", "113855.092500", "113855.552500", "113856.012500", "113856.472500", "113856.932500", "113857.392500", "113857.852500", "113858.312500", "113858.772500", "113859.232500", "113859.692500", "113900.152500", "113900.612500", "113901.072500", "113901.532500", "113901.992500", "113902.452500", "113902.912500", "113903.372500", "113903.832500", "113904.292500", "113904.752500", "113905.212500", "113905.672500", "113906.132500", "113906.592500", "113907.052500", "113907.512500", "113907.972500", "113908.432500", "113908.892500", "113909.352500", "113909.812500", "113910.272500", "113910.732500", "113911.192500", "113911.652500", "113912.112500", "113912.572500", "113913.032500", "113913.492500", "113913.952500", "113914.412500", "113914.872500", "113915.332500", "113915.792500", "113916.252500", "113916.712500", "113917.172500", "113917.632500", "113918.092500", "113918.552500", "113919.012500", "113919.472500", "113919.932500", "113920.392500", "113920.852500", "113921.312500", "113921.772500", "113922.232500", "113922.692500", "113923.152500", "113923.612500", "113924.072500", "113924.532500", "113924.992500", "113925.452500", "113925.912500", "113926.372500", "113926.832500", "113927.292500", "113927.752500", "113928.212500", "113928.672500", "113929.132500", "113929.592500", "113930.052500", "113930.512500", "113930.972500", "113931.432500", "113931.892500", "113932.352500", "113932.812500", "113933.272500", "113933.732500", "113934.192500", "113934.652500", "113935.112500", "113935.572500", "113936.032500", "113936.492500", "113936.952500", "113937.412500", "113937.872500", "113938.332500", "113938.792500", "113939.252500", "113939.712500", "113940.172500", "113940.632500", "113941.092500", "113941.552500", "113942.012500", "113942.472500", "113942.932500", "113943.392500", "113943.852500", "113944.312500", "113944.772500", "113945.232500", "113945.692500", "113946.152500", "113946.612500", "113947.072500", "113947.532500", "113947.992500", "113948.452500", "113948.912500", "113949.372500", "113949.832500", "113950.292500", "113950.752500", "113951.212500", "113951.672500", "113952.132500", "113952.592500", "113953.052500", "113953.512500", "113953.972500", "113954.432500", "113954.892500", "113955.352500", "113955.812500", "113956.272500", "113956.732500", "113957.192500", "113957.652500", "113958.112500", "113958.572500", "113959.032500", "113959.492500", "113959.952500", "114000.412500", "114000.872500", "114001.332500", "114001.792500", "114002.252500", "114002.712500", "114003.172500", "114003.632500", "114004.092500", "114004.552500", "114005.012500", "114005.472500", "114005.932500", "114006.392500", "114006.852500", "114007.312500", "114007.772500", "114008.232500", "114008.692500", "114009.152500", "114009.612500", "114010.072500", "114010.532500", "114010.992500", "114011.452500", "114011.912500", "114012.372500", "114012.832500", "114013.292500", "114013.752500", "114014.212500", "114014.672500", "114015.132500", "114015.592500", "114016.052500", "114016.512500", "114016.972500", "114017.432500", "114017.892500", "114018.352500", "114018.812500", "114019.272500", "114019.732500", "114020.192500", "114020.652500", "114021.112500", "114021.572500", "114022.032500", "114022.492500", "114022.952500", "114023.412500", "114023.872500", "114024.332500", "114024.792500", "114025.252500", "114025.712500", "114026.172500", "114026.632500", "114027.092500", "114027.552500", "114028.012500", "114028.472500", "114028.932500", "114029.392500", "114029.852500", "114030.312500", "114030.772500", "114031.232500", "114031.692500", "114032.152500", "114032.612500", "114033.072500", "114033.532500", "114033.992500", "114034.452500", "114034.912500", "114035.372500", "114035.832500", "114036.292500", "114036.752500", "114037.212500", "114037.672500", "114038.132500", "114038.592500", "114039.052500", "114039.512500", "114039.972500", "114040.432500", "114040.892500", "114041.352500", "114041.812500", "114042.272500", "114042.732500", "114043.192500", "114043.652500", "114044.112500", "114044.572500", "114045.032500", "114045.492500", "114045.952500", "114046.412500", "114046.872500", "114047.332500", "114047.792500", "114048.252500", "114048.712500", "114049.172500", "114049.632500", "114050.092500", "114050.552500", "114051.012500", "114051.472500", "114051.932500", "114052.392500", "114052.852500", "114053.312500", "114053.772500", "114054.232500", "114054.692500", "114055.152500", "114055.612500", "114056.072500", "114056.532500", "114056.992500", "114057.452500", "114057.912500", "114058.372500", "114058.832500", "114059.292500", "114059.752500", "114100.212500", "114100.672500", "114101.132500", "114101.592500", "114102.052500", "114102.512500", "114102.972500", "114103.432500", "114103.892500", "114104.352500", "114104.812500", "114105.272500", "114105.732500", "114106.192500", "114106.652500", "114107.112500", "114107.572500", "114108.032500", "114108.492500", "114108.952500", "114109.412500", "114109.872500", "114110.332500", "114110.792500", "114111.252500", "114111.712500", "114112.172500", "114112.632500", "114113.092500", "114113.552500", "114114.012500", "114114.472500", "114114.932500", "114115.392500", "114115.852500", "114116.312500", "114116.772500", "114117.232500", "114117.692500", "114118.152500", "114118.612500", "114119.072500", "114119.532500", "114119.992500", "114120.452500", "114120.912500", "114121.372500", "114121.832500", "114122.292500", "114122.752500", "114123.212500", "114123.672500", "114124.132500", "114124.592500", "114125.052500", "114125.512500", "114125.972500", "114126.432500", "114126.892500", "114127.352500", "114127.812500", "114128.272500", "114128.732500", "114129.192500", "114129.652500", "114130.112500", "114130.572500", "114131.032500", "114131.492500", "114131.952500", "114132.412500", "114132.872500", "114133.332500", "114133.792500", "114134.252500", "114134.712500", "114135.172500", "114135.632500", "114136.092500", "114136.552500", "114137.012500", "114137.472500", "114137.932500", "114138.392500", "114138.852500", "114139.312500", "114139.772500", "114140.232500", "114140.692500", "114141.152500", "114141.612500", "114142.072500", "114142.532500", "114142.992500", "114143.452500", "114143.912500", "114144.372500", "114144.832500", "114145.292500", "114145.752500", "114146.212500", "114146.672500", "114147.132500", "114147.592500", "114148.052500", "114148.512500", "114148.972500", "114149.432500", "114149.892500", "114150.352500", "114150.812500", "114151.272500", "114151.732500", "114152.192500", "114152.652500", "114153.112500", "114153.572500", "114154.032500", "114154.492500", "114154.952500", "114155.412500", "114155.872500", "114156.332500", "114156.792500", "114157.252500", "114157.712500", "114158.172500", "114158.632500", "114159.092500", "114159.552500", "114200.012500", "114200.472500", "114200.932500", "114201.392500", "114201.852500", "114202.312500", "114202.772500", "114203.232500", "114203.692500", "114204.152500", "114204.612500", "114205.072500", "114205.532500", "114205.992500", "114206.452500", "114206.912500", "114207.372500", "114207.832500", "114208.292500", "114208.752500", "114209.212500", "114209.672500", "114210.132500", "114210.592500", "114211.052500", "114211.512500", "114211.972500", "114212.432500"],
