{
  "AcquisitionMatrixPE": 140,
  "AcquisitionNumber": 1,
  "AcquisitionTime": "08:58:16.505000",
  "BandwidthPerPixelPhaseEncode": 10.352,
  "BaseResolution": 140,
  "BodyPartExamined": "BRAIN",
  "ConsistencyInfo": "N4_VE11E_LATEST_20181129",
  "ConversionSoftware": "dcm2niix",
  "ConversionSoftwareVersion": "v1.0.20201102",
  "DerivedVendorReportedEchoSpacing": 0.000689998,
  "DeviceSerialNumber": "66112",
  "DiffusionScheme": "Monopolar",
  "DwellTime": 2.1e-06,
  "EchoTime": 0.088,
  "EchoTrainLength": 105,
  "EffectiveEchoSpacing": 0.000689998,
  "FlipAngle": 90,
  "ImageComments": "Unaliased MB3/PE3",
  "ImageOrientationPatientDICOM": [0.999979, 0.00273124, -0.00589312, -0.00209438, 0.994418, 0.105489],
  "ImageType": [
    "ORIGINAL",
    "PRIMARY",
    "DIFFUSION",
    "NONE",
    "MB",
    "ND"
],
  "ImagingFrequency": 123.252,
  "InPlanePhaseEncodingDirectionDICOM": "COL",
  "InstitutionAddress": "Maynard 3,Hanover,NH,US,03755",
  "InstitutionName": "Dartmouth College - PBS",
  "InstitutionalDepartmentName": "Department",
  "IntendedFor": [
    "ses-01/dwi/sub-0064_ses-01_acq-96dirX6b0Xmb_dwi.nii.gz"
],
  "MRAcquisitionType": "2D",
  "MagneticFieldStrength": 3,
  "Manufacturer": "Siemens",
  "ManufacturersModelName": "Prisma",
  "Modality": "MR",
  "MultibandAccelerationFactor": 3,
  "PartialFourier": 0.75,
  "PatientPosition": "HFS",
  "PercentPhaseFOV": 100,
  "PercentSampling": 100,
  "PhaseEncodingDirection": "j",
  "PhaseEncodingSteps": 105,
  "PhaseResolution": 1,
  "PixelBandwidth": 1700,
  "ProcedureStepDescription": "Wager_Wager^1076_spacetop",
  "ProtocolName": "dwi_acq-discorr-PA",
  "PulseSequenceDetails": "%CustomerSeq%\\cmrr_mbep2d_diff",
  "ReceiveCoilActiveElements": "HEA;HEP",
  "ReceiveCoilName": "Head_32",
  "ReconMatrixPE": 140,
  "RepetitionTime": 4.1,
  "SAR": 0.145706,
  "ScanOptions": "PFP\\FS",
  "ScanningSequence": "EP",
  "SequenceName": "ep_b0",
  "SequenceVariant": "SK\\SS",
  "SeriesDescription": "dwi_acq-discorr-PA",
  "SeriesNumber": 6,
  "ShimSetting": [4132, -7720, -7205, 670, -87, -12, -8, 120],
  "SliceThickness": 1.7,
  "SliceTiming": [0, 2.10938, 0.14844, 2.26562, 0.29688, 2.41406, 0.45312, 2.57031, 0.60156, 2.71875, 0.75, 2.86719, 0.90625, 3.02344, 1.05469, 3.17188, 1.21094, 3.32031, 1.35938, 3.46875, 1.50781, 3.625, 1.65625, 3.77344, 1.8125, 3.92969, 1.96094, 0, 2.10938, 0.14844, 2.26562, 0.29688, 2.41406, 0.45312, 2.57031, 0.60156, 2.71875, 0.75, 2.86719, 0.90625, 3.02344, 1.05469, 3.17188, 1.21094, 3.32031, 1.35938, 3.46875, 1.50781, 3.625, 1.65625, 3.77344, 1.8125, 3.92969, 1.96094, 0, 2.10938, 0.14844, 2.26562, 0.29688, 2.41406, 0.45312, 2.57031, 0.60156, 2.71875, 0.75, 2.86719, 0.90625, 3.02344, 1.05469, 3.17188, 1.21094, 3.32031, 1.35938, 3.46875, 1.50781, 3.625, 1.65625, 3.77344, 1.8125, 3.92969, 1.96094],
  "SoftwareVersions": "syngo MR E11",
  "SpacingBetweenSlices": 1.7,
  "StationName": "AWP66112",
  "TotalReadoutTime": 0.0959097,
  "TxRefAmp": 220.272,
  "WipMemBlock": "89597cef-0964-4ffe-861b-571c2fb9d84d||Sequence: R016 ve11e/master r/434b28f1; Aug  7 2019 19:06:17 by eja",
  "dcmmeta_affine": [
    [-1.714249610900879, -0.0035903656389564276, -0.01045215129852295, 120.720458984375],
    [-0.004682124592363834, 1.7047170400619507, 0.1793060302734375, -93.57190704345703],
    [-0.010102497413754463, -0.1808379590511322, 1.6904830932617188, -29.344478607177734],
    [0.0, 0.0, 0.0, 1.0]
],
  "dcmmeta_reorient_transform": [
    [0.0, -1.0, 0.0, 139.0],
    [1.0, 0.0, 0.0, 0.0],
    [0.0, 0.0, -1.0, 80.0],
    [0.0, 0.0, 0.0, 1.0]
],
  "dcmmeta_shape": [140, 140, 81],
  "dcmmeta_slice_dim": 2,
  "dcmmeta_version": 0.6,
  "global": {
    "const": {
      "AccessionNumber": "A003971",
      "AcquisitionMatrix": [140, 0, 0, 140],
      "AcquisitionNumber": 1,
      "AngioFlag": "N",
      "BitsAllocated": 16,
      "BitsStored": 16,
      "BodyPartExamined": "BRAIN",
      "Columns": 140,
      "EchoNumbers": 1,
      "EchoTime": 88.0,
      "EchoTrainLength": 105,
      "FlipAngle": 90.0,
      "HighBit": 15,
      "ImageOrientationPatient": [0.9999789054926, 0.00273123930482, -0.0058931232534, -0.0020943799199, 0.99441828441104, 0.10548881078937],
      "ImageType": [
        "ORIGINAL",
        "PRIMARY",
        "DIFFUSION",
        "NONE",
        "MB",
        "ND"
],
      "ImagedNucleus": "1H",
      "ImagingFrequency": 123.252154,
      "InPlanePhaseEncodingDirection": "COL",
      "MRAcquisitionType": "2D",
      "MagneticFieldStrength": 3.0,
      "Manufacturer": "SIEMENS",
      "ManufacturerModelName": "Prisma",
      "Modality": "MR",
      "NumberOfAverages": 1.0,
      "NumberOfPhaseEncodingSteps": 105,
      "PercentPhaseFieldOfView": 100.0,
      "PercentSampling": 100.0,
      "PerformedProcedureStepStartTime": "083257.524000",
      "PhotometricInterpretation": "MONOCHROME2",
      "PixelBandwidth": 1700.0,
      "PixelRepresentation": 0,
      "PixelSpacing": [1.7142857313156, 1.7142857313156],
      "ProtocolName": "dwi_acq-discorr-PA",
      "RepetitionTime": 4100.0,
      "Rows": 140,
      "SAR": 0.14570622805892,
      "SamplesPerPixel": 1,
      "ScanOptions": [
        "PFP",
        "FS"
],
      "ScanningSequence": "EP",
      "SequenceName": "ep_b0",
      "SequenceVariant": [
        "SK",
        "SS"
],
      "SeriesDescription": "dwi_acq-discorr-PA",
      "SeriesNumber": 6,
      "SeriesTime": "085821.005000",
      "SliceThickness": 1.7000000476837,
      "SmallestImagePixelValue": 0,
      "SoftwareVersions": "syngo MR E11",
      "SpacingBetweenSlices": 1.7,
      "SpecificCharacterSet": "ISO_IR 100",
      "StudyID": "1",
      "StudyTime": "083257.390000",
      "TransmitCoilName": "Body",
      "VariableFlipAngleFlag": "N",
      "WindowCenterWidthExplanation": "Algo1"
    },
    "slices": {
      "AcquisitionTime": ["085816.505000", "085818.620000", "085816.657500", "085818.772500", "085816.807500", "085818.922500", "085816.960000", "085819.075000", "085817.110000", "085819.225000", "085817.260000", "085819.377500", "085817.412500", "085819.527500", "085817.562500", "085819.680000", "085817.715000", "085819.830000", "085817.865000", "085819.980000", "085818.017500", "085820.132500", "085818.167500", "085820.282500", "085818.320000", "085820.435000", "085818.470000", "085816.505000", "085818.620000", "085816.657500", "085818.772500", "085816.807500", "085818.922500", "085816.960000", "085819.075000", "085817.110000", "085819.225000", "085817.260000", "085819.377500", "085817.412500", "085819.527500", "085817.562500", "085819.680000", "085817.715000", "085819.830000", "085817.865000", "085819.980000", "085818.017500", "085820.132500", "085818.167500", "085820.282500", "085818.320000", "085820.435000", "085818.470000", "085816.505000", "085818.620000", "085816.657500", "085818.772500", "085816.807500", "085818.922500", "085816.960000", "085819.075000", "085817.110000", "085819.225000", "085817.260000", "085819.377500", "085817.412500", "085819.527500", "085817.562500", "085819.680000", "085817.715000", "085819.830000", "085817.865000", "085819.980000", "085818.017500", "085820.132500", "085818.167500", "085820.282500", "085818.320000", "085820.435000", "085818.470000"],
      "ContentTime": ["085821.007000", "085821.095000", "085821.014000", "085821.101000", "085821.020000", "085821.107000", "085821.026000", "085821.113000", "085821.033000", "085821.131000", "085821.039000", "085821.138000", "085821.046000", "085821.144000", "085821.053000", "085821.151000", "085821.059000", "085821.158000", "085821.065000", "085821.166000", "085821.071000", "085821.173000", "085821.077000", "085821.180000", "085821.082000", "085821.187000", "085821.089000", "085821.010000", "085821.097000", "085821.016000", "085821.103000", "085821.022000", "085821.109000", "085821.029000", "085821.115000", "085821.035000", "085821.133000", "085821.042000", "085821.140000", "085821.048000", "085821.147000", "085821.055000", "085821.153000", "085821.061000", "085821.160000", "085821.066000", "085821.169000", "085821.073000", "085821.175000", "085821.079000", "085821.182000", "085821.085000", "085821.190000", "085821.090000", "085821.012000", "085821.099000", "085821.018000", "085821.105000", "085821.024000", "085821.111000", "085821.031000", "085821.118000", "085821.037000", "085821.136000", "085821.044000", "085821.142000", "085821.050000", "085821.149000", "085821.057000", "085821.155000", "085821.063000", "085821.162000", "085821.069000", "085821.171000", "085821.074000", "085821.178000", "085821.081000", "085821.184000", "085821.087000", "085821.192000", "085821.093000"],
      "CsaImage.GSWDDataType": [
        "predicted",
        "predicted",
        "predicted",
        "predicted",
        "predicted",
        "predicted",
        "predicted",
        "predicted",
        "predicted",
        "predicted",
        "predicted",
        "predicted",
        "predicted",
        "predicted",
        "predicted",
        "predicted",
        "predicted",
        "predicted",
        "predicted",
        "predicted",
        "predicted",
        "predicted",
        "predicted",
        "measured",
        "predicted",
        "measured",
        "predicted",
        "predicted",
        "predicted",
        "predicted",
        "predicted",
        "predicted",
        "predicted",
        "predicted",
        "predicted",
        "predicted",
        "predicted",
        "predicted",
        "predicted",
        "predicted",
        "predicted",
        "predicted",
        "predicted",
        "predicted",
        "predicted",
        "predicted",
        "predicted",
        "predicted",
        "predicted",
        "predicted",
        "measured",
        "predicted",
        "measured",
        "predicted",
        "predicted",
        "predicted",
        "predicted",
        "predicted",
        "predicted",
        "predicted",
        "predicted",
        "predicted",
        "predicted",
        "predicted",
        "predicted",
        "predicted",
        "predicted",
        "predicted",
        "predicted",
        "predicted",
        "predicted",
        "predicted",
        "predicted",
        "predicted",
        "predicted",
        "predicted",
        "predicted",
        "measured",
        "predicted",
        "measured",
        "predicted"
],
      "CsaImage.ICE_Dims": [
        "X_1_1_1_1_1_1_1_1_1_1_1_23",
        "X_1_1_1_1_1_1_42_1_1_2_1_23",
        "X_1_1_1_1_1_1_2_1_1_3_1_23",
        "X_1_1_1_1_1_1_43_1_1_4_1_23",
        "X_1_1_1_1_1_1_3_1_1_5_1_23",
        "X_1_1_1_1_1_1_44_1_1_6_1_23",
        "X_1_1_1_1_1_1_4_1_1_7_1_23",
        "X_1_1_1_1_1_1_45_1_1_8_1_23",
        "X_1_1_1_1_1_1_5_1_1_9_1_23",
        "X_1_1_1_1_1_1_46_1_1_10_1_23",
        "X_1_1_1_1_1_1_6_1_1_11_1_23",
        "X_1_1_1_1_1_1_47_1_1_12_1_23",
        "X_1_1_1_1_1_1_7_1_1_13_1_23",
        "X_1_1_1_1_1_1_48_1_1_14_1_23",
        "X_1_1_1_1_1_1_8_1_1_15_1_23",
        "X_1_1_1_1_1_1_49_1_1_16_1_23",
        "X_1_1_1_1_1_1_9_1_1_17_1_23",
        "X_1_1_1_1_1_1_50_1_1_18_1_23",
        "X_1_1_1_1_1_1_10_1_1_19_1_23",
        "X_1_1_1_1_1_1_51_1_1_20_1_23",
        "X_1_1_1_1_1_1_11_1_1_21_1_23",
        "X_1_1_1_1_1_1_52_1_1_22_1_23",
        "X_1_1_1_1_1_1_12_1_1_23_1_23",
        "X_1_1_1_1_1_1_53_1_1_24_1_23",
        "X_1_1_1_1_1_1_13_1_1_25_1_23",
        "X_1_1_1_1_1_1_54_1_1_26_1_23",
        "X_1_1_1_1_1_1_14_1_1_27_1_23",
        "X_1_1_1_1_1_1_55_1_1_28_1_23",
        "X_1_1_1_1_1_1_15_1_1_29_1_23",
        "X_1_1_1_1_1_1_56_1_1_30_1_23",
        "X_1_1_1_1_1_1_16_1_1_31_1_23",
        "X_1_1_1_1_1_1_57_1_1_32_1_23",
        "X_1_1_1_1_1_1_17_1_1_33_1_23",
        "X_1_1_1_1_1_1_58_1_1_34_1_23",
        "X_1_1_1_1_1_1_18_1_1_35_1_23",
        "X_1_1_1_1_1_1_59_1_1_36_1_23",
        "X_1_1_1_1_1_1_19_1_1_37_1_23",
        "X_1_1_1_1_1_1_60_1_1_38_1_23",
        "X_1_1_1_1_1_1_20_1_1_39_1_23",
        "X_1_1_1_1_1_1_61_1_1_40_1_23",
        "X_1_1_1_1_1_1_21_1_1_41_1_23",
        "X_1_1_1_1_1_1_62_1_1_42_1_23",
        "X_1_1_1_1_1_1_22_1_1_43_1_23",
        "X_1_1_1_1_1_1_63_1_1_44_1_23",
        "X_1_1_1_1_1_1_23_1_1_45_1_23",
        "X_1_1_1_1_1_1_64_1_1_46_1_23",
        "X_1_1_1_1_1_1_24_1_1_47_1_23",
        "X_1_1_1_1_1_1_65_1_1_48_1_23",
        "X_1_1_1_1_1_1_25_1_1_49_1_23",
        "X_1_1_1_1_1_1_66_1_1_50_1_23",
        "X_1_1_1_1_1_1_26_1_1_51_1_23",
        "X_1_1_1_1_1_1_67_1_1_52_1_23",
        "X_1_1_1_1_1_1_27_1_1_53_1_23",
        "X_1_1_1_1_1_1_68_1_1_54_1_23",
        "X_1_1_1_1_1_1_28_1_1_55_1_23",
        "X_1_1_1_1_1_1_69_1_1_56_1_23",
        "X_1_1_1_1_1_1_29_1_1_57_1_23",
        "X_1_1_1_1_1_1_70_1_1_58_1_23",
        "X_1_1_1_1_1_1_30_1_1_59_1_23",
        "X_1_1_1_1_1_1_71_1_1_60_1_23",
        "X_1_1_1_1_1_1_31_1_1_61_1_23",
        "X_1_1_1_1_1_1_72_1_1_62_1_23",
        "X_1_1_1_1_1_1_32_1_1_63_1_23",
        "X_1_1_1_1_1_1_73_1_1_64_1_23",
        "X_1_1_1_1_1_1_33_1_1_65_1_23",
        "X_1_1_1_1_1_1_74_1_1_66_1_23",
        "X_1_1_1_1_1_1_34_1_1_67_1_23",
        "X_1_1_1_1_1_1_75_1_1_68_1_23",
        "X_1_1_1_1_1_1_35_1_1_69_1_23",
        "X_1_1_1_1_1_1_76_1_1_70_1_23",
        "X_1_1_1_1_1_1_36_1_1_71_1_23",
        "X_1_1_1_1_1_1_77_1_1_72_1_23",
        "X_1_1_1_1_1_1_37_1_1_73_1_23",
        "X_1_1_1_1_1_1_78_1_1_74_1_23",
        "X_1_1_1_1_1_1_38_1_1_75_1_23",
        "X_1_1_1_1_1_1_79_1_1_76_1_23",
        "X_1_1_1_1_1_1_39_1_1_77_1_23",
        "X_1_1_1_1_1_1_80_1_1_78_1_23",
        "X_1_1_1_1_1_1_40_1_1_79_1_23",
        "X_1_1_1_1_1_1_81_1_1_80_1_23",
        "X_1_1_1_1_1_1_41_1_1_81_1_23"
],
      "CsaImage.ProtocolSliceNumber": [0, 1, 2, 3, 4, 5, 6, 7, 8, 9, 10, 11, 12, 13, 14, 15, 16, 17, 18, 19, 20, 21, 22, 23, 24, 25, 26, 27, 28, 29, 30, 31, 32, 33, 34, 35, 36, 37, 38, 39, 40, 41, 42, 43, 44, 45, 46, 47, 48, 49, 50, 51, 52, 53, 54, 55, 56, 57, 58, 59, 60, 61, 62, 63, 64, 65, 66, 67, 68, 69, 70, 71, 72, 73, 74, 75, 76, 77, 78, 79, 80],
      "CsaImage.RFSWDDataType": [
        "predicted",
        "predicted",
        "predicted",
        "predicted",
        "predicted",
        "predicted",
        "predicted",
        "predicted",
        "predicted",
        "predicted",
        "predicted",
        "predicted",
        "predicted",
        "predicted",
        "predicted",
        "predicted",
        "predicted",
        "predicted",
        "predicted",
        "predicted",
        "predicted",
        "predicted",
        "predicted",
        "measured",
        "predicted",
        "measured",
        "predicted",
        "predicted",
        "predicted",
        "predicted",
        "predicted",
        "predicted",
        "predicted",
        "predicted",
        "predicted",
        "predicted",
        "predicted",
        "predicted",
        "predicted",
        "predicted",
        "predicted",
        "predicted",
        "predicted",
        "predicted",
        "predicted",
        "predicted",
        "predicted",
        "predicted",
        "predicted",
        "predicted",
        "measured",
        "predicted",
        "measured",
        "predicted",
        "predicted",
        "predicted",
        "predicted",
        "predicted",
        "predicted",
        "predicted",
        "predicted",
        "predicted",
        "predicted",
        "predicted",
        "predicted",
        "predicted",
        "predicted",
        "predicted",
        "predicted",
        "predicted",
        "predicted",
        "predicted",
        "predicted",
        "predicted",
        "predicted",
        "predicted",
        "predicted",
        "measured",
        "predicted",
        "measured",
        "predicted"
],
      "CsaImage.SlicePosition_PCS": [
        [-120.22139975, -143.38375695, -54.48111901],
        [-120.2109476, -143.56306298, -52.79063591],
        [-120.20049542, -143.74236901, -51.100149],
        [-120.19004323, -143.92167504, -49.4096621],
        [-120.17959105, -144.10098107, -47.719179],
        [-120.16913887, -144.2802871, -46.0286921],
        [-120.15868669, -144.45959313, -44.338209],
        [-120.14823451, -144.63889916, -42.647724],
        [-120.13778233, -144.81820519, -40.95723709],
        [-120.12733015, -144.99751122, -39.26675209],
        [-120.11687797, -145.17681725, -37.57626709],
        [-120.10642579, -145.35612519, -35.88578209],
        [-120.09597363, -145.53543122, -34.19529709],
        [-120.08552145, -145.71473725, -32.50481209],
        [-120.07506927, -145.89404328, -30.81432709],
        [-120.06461709, -146.07334931, -29.12384209],
        [-120.05416491, -146.25265534, -27.43335709],
        [-120.04371273, -146.43196137, -25.74287209],
        [-120.03326055, -146.6112674, -24.05238613],
        [-120.02280837, -146.79057343, -22.36190113],
        [-120.01235619, -146.96987946, -20.67141613],
        [-120.001904, -147.14918549, -18.98093113],
        [-119.99145184, -147.32849343, -17.29044613],
        [-119.98099966, -147.50779946, -15.59996089],
        [-119.97054748, -147.68710549, -13.90947565],
        [-119.96009529, -147.86641152, -12.2189905],
        [-119.94964313, -148.04571755, -10.52850529],
        [-119.93919095, -148.22502358, -8.83802017],
        [-119.92873877, -148.40432961, -7.14753517],
        [-119.91828659, -148.58363564, -5.4570497],
        [-119.9078344, -148.76294167, -3.76656517],
        [-119.89738222, -148.9422477, -2.07607922],
        [-119.88693006, -149.12155373, -0.38559422],
        [-119.87647788, -149.30086167, 1.30489078],
        [-119.86602569, -149.4801677, 2.99537578],
        [-119.85557351, -149.65947373, 4.68586174],
        [-119.84512134, -149.83877976, 6.37634674],
        [-119.83466916, -150.01808579, 8.06683174],
        [-119.82421698, -150.19739182, 9.75731674],
        [-119.8137648, -150.37669785, 11.44780174],
        [-119.80331262, -150.55600388, 13.13828674],
        [-119.79286045, -150.73530991, 14.82877174],
        [-119.78240827, -150.91461594, 16.51925674],
        [-119.77195609, -151.09392197, 18.20974174],
        [-119.76150391, -151.27322991, 19.90022674],
        [-119.75105173, -151.45253594, 21.59071174],
        [-119.74059955, -151.63184197, 23.28119865],
        [-119.73014737, -151.81114609, 24.97168174],
        [-119.7196952, -151.99045212, 26.66216865],
        [-119.70924302, -152.16976197, 28.35265175],
        [-119.69879084, -152.349068, 30.04313865],
        [-119.68833866, -152.52837403, 31.73362175],
        [-119.67788648, -152.70768006, 33.42410866],
        [-119.66743431, -152.88698609, 35.11459175],
        [-119.65698212, -153.06629212, 36.80507866],
        [-119.64652994, -153.24559815, 38.49556556],
        [-119.63607777, -153.42490418, 40.18604866],
        [-119.62562559, -153.60421021, 41.87653557],
        [-119.61517341, -153.78351624, 43.56701866],
        [-119.60472123, -153.96282227, 45.25750557],
        [-119.59426906, -154.1421283, 46.94798866],
        [-119.58381688, -154.32143433, 48.63847557],
        [-119.5733647, -154.50074036, 50.32895866],
        [-119.56291252, -154.68004639, 52.01944557],
        [-119.55246034, -154.85935242, 53.70993248],
        [-119.54200815, -155.03865845, 55.40041557],
        [-119.53155599, -155.21796448, 57.09089866],
        [-119.52110381, -155.39727051, 58.78138939],
        [-119.51065163, -155.57657654, 60.47187248],
        [-119.50019945, -155.75588257, 62.16235557],
        [-119.48974728, -155.9351886, 63.85283867],
        [-119.4792951, -156.11449845, 65.54332939],
        [-119.46884292, -156.29380448, 67.23381248],
        [-119.45839074, -156.47311051, 68.92429558],
        [-119.44793855, -156.65241654, 70.61477867],
        [-119.43748637, -156.83172257, 72.30526939],
        [-119.42703419, -157.0110286, 73.99575248],
        [-119.41658201, -157.19033463, 75.68623558],
        [-119.40612983, -157.36964066, 77.37671867],
        [-119.39567765, -157.54894669, 79.06720939],
        [-119.3852255, -157.72825272, 80.75769249]
],
      "CsaImage.TimeAfterStart": [16.4, 18.515, 16.55, 18.6675, 16.7025, 18.8175, 16.8525, 18.97, 17.005, 19.12, 17.155, 19.27, 17.3075, 19.4225, 17.4575, 19.5725, 17.61, 19.725, 17.76, 19.875, 17.91, 20.0275, 18.0625, 20.1775, 18.2125, 20.33, 18.365, 16.4, 18.515, 16.55, 18.6675, 16.7025, 18.8175, 16.8525, 18.97, 17.005, 19.12, 17.155, 19.27, 17.3075, 19.4225, 17.4575, 19.5725, 17.61, 19.725, 17.76, 19.875, 17.91, 20.0275, 18.0625, 20.1775, 18.2125, 20.33, 18.365, 16.4, 18.515, 16.55, 18.6675, 16.7025, 18.8175, 16.8525, 18.97, 17.005, 19.12, 17.155, 19.27, 17.3075, 19.4225, 17.4575, 19.5725, 17.61, 19.725, 17.76, 19.875, 17.91, 20.0275, 18.0625, 20.1775, 18.2125, 20.33, 18.365],
      "ImagePositionPatient": [
        [-120.22139974765, -143.38375694659, -54.481119006102],
        [-120.21094759635, -143.56306297686, -52.79063591284],
        [-120.20049541525, -143.74236900713, -51.100149004881],
        [-120.19004323414, -143.92167503741, -49.409662096922],
        [-120.17959105304, -144.10098106768, -47.71917900366],
        [-120.16913887194, -144.28028709795, -46.028692095701],
        [-120.15868669084, -144.45959312823, -44.33820900244],
        [-120.14823450974, -144.6388991585, -42.647724001829],
        [-120.13778232864, -144.81820518877, -40.95723709387],
        [-120.12733014754, -144.99751121905, -39.26675209326],
        [-120.11687796644, -145.17681724932, -37.57626709265],
        [-120.10642578534, -145.35612518694, -35.885782092039],
        [-120.09597363404, -145.53543121722, -34.195297091429],
        [-120.08552145294, -145.71473724749, -32.504812090818],
        [-120.07506927184, -145.89404327776, -30.814327090208],
        [-120.06461709074, -146.07334930804, -29.123842089598],
        [-120.05416490964, -146.25265533831, -27.433357088987],
        [-120.04371272854, -146.43196136858, -25.742872088377],
        [-120.03326054743, -146.61126739886, -24.052386134092],
        [-120.02280836633, -146.79057342913, -22.361901133482],
        [-120.01235618523, -146.9698794594, -20.671416132872],
        [-120.00190400413, -147.14918548968, -18.980931132261],
        [-119.99145183793, -147.3284934273, -17.290446131651],
        [-119.98099965683, -147.50779945757, -15.599960892622],
        [-119.97054747573, -147.68710548785, -13.909475653593],
        [-119.96009529463, -147.86641151812, -12.218990503971],
        [-119.94964312843, -148.04571754839, -10.528505294745],
        [-119.93919094733, -148.22502357867, -8.8380201749249],
        [-119.92873876623, -148.40432960894, -7.1475351743146],
        [-119.91828658513, -148.58363563921, -5.4570496968671],
        [-119.90783440403, -148.76294166949, -3.7665651730939],
        [-119.89738222293, -148.94224769976, -2.0760792188092],
        [-119.88693005673, -149.12155373003, -0.3855942181988],
        [-119.87647787563, -149.30086166766, 1.3048907824115],
        [-119.86602569452, -149.48016769793, 2.9953757830219],
        [-119.85557351342, -149.6594737282, 4.6858617373065],
        [-119.84512133977, -149.83877975848, 6.3763467379169],
        [-119.83466915867, -150.01808578875, 8.0668317385272],
        [-119.82421697757, -150.19739181902, 9.7573167391376],
        [-119.81376480392, -150.3766978493, 11.447801739748],
        [-119.80331262282, -150.55600387957, 13.138286740358],
        [-119.79286044544, -150.73530990984, 14.828771740969],
        [-119.78240826807, -150.91461594012, 16.519256741579],
        [-119.77195608883, -151.09392197039, 18.209741742189],
        [-119.76150390959, -151.27322990801, 19.9002267428],
        [-119.75105173129, -151.45253593828, 21.59071174341],
        [-119.74059955298, -151.63184196856, 23.281198651369],
        [-119.73014737374, -151.81114609148, 24.971681744631],
        [-119.71969519637, -151.99045212176, 26.66216865259],
        [-119.70924301899, -152.16976196673, 28.352651745851],
        [-119.69879083789, -152.349067997, 30.04313865381],
        [-119.68833866051, -152.52837402727, 31.733621747072],
        [-119.67788647941, -152.70768005755, 33.424108655031],
        [-119.66743430576, -152.88698608782, 35.114591748293],
        [-119.65698212466, -153.06629211809, 36.805078656252],
        [-119.64652994356, -153.24559814837, 38.495565564211],
        [-119.63607776991, -153.42490417864, 40.186048657473],
        [-119.62562558881, -153.60421020891, 41.876535565432],
        [-119.61517340771, -153.78351623919, 43.567018658693],
        [-119.60472122661, -153.96282226946, 45.257505566652],
        [-119.59426906041, -154.14212829974, 46.947988659914],
        [-119.58381687931, -154.32143433001, 48.638475567873],
        [-119.57336469821, -154.50074036028, 50.328958661135],
        [-119.56291251711, -154.68004639056, 52.019445569094],
        [-119.552460336, -154.85935242083, 53.709932477053],
        [-119.5420081549, -155.0386584511, 55.400415570314],
        [-119.5315559887, -155.21796448138, 57.090898663576],
        [-119.5211038076, -155.39727051165, 58.781389386232],
        [-119.5106516265, -155.57657654192, 60.471872479494],
        [-119.5001994454, -155.7558825722, 62.162355572756],
        [-119.4897472792, -155.93518860247, 63.852838666017],
        [-119.4792950981, -156.11449844744, 65.543329388674],
        [-119.468842917, -156.29380447771, 67.233812481935],
        [-119.4583907359, -156.47311050799, 68.924295575197],
        [-119.4479385548, -156.65241653826, 70.614778668459],
        [-119.4374863737, -156.83172256853, 72.305269391115],
        [-119.4270341926, -157.01102859881, 73.995752484377],
        [-119.4165820115, -157.19033462908, 75.686235577639],
        [-119.4061298304, -157.36964065935, 77.3767186709],
        [-119.39567764929, -157.54894668963, 79.067209393557],
        [-119.385225498, -157.7282527199, 80.757692486818]
],
      "InstanceCreationTime": ["085821.007000", "085821.095000", "085821.014000", "085821.101000", "085821.020000", "085821.107000", "085821.026000", "085821.113000", "085821.033000", "085821.131000", "085821.039000", "085821.138000", "085821.046000", "085821.144000", "085821.053000", "085821.151000", "085821.059000", "085821.158000", "085821.065000", "085821.166000", "085821.071000", "085821.173000", "085821.077000", "085821.180000", "085821.082000", "085821.187000", "085821.089000", "085821.010000", "085821.097000", "085821.016000", "085821.103000", "085821.022000", "085821.109000", "085821.029000", "085821.115000", "085821.035000", "085821.133000", "085821.042000", "085821.140000", "085821.048000", "085821.147000", "085821.055000", "085821.153000", "085821.061000", "085821.160000", "085821.066000", "085821.169000", "085821.073000", "085821.175000", "085821.079000", "085821.182000", "085821.085000", "085821.190000", "085821.090000", "085821.012000", "085821.099000", "085821.018000", "085821.105000", "085821.024000", "085821.111000", "085821.031000", "085821.118000", "085821.037000", "085821.136000", "085821.044000", "085821.142000", "085821.050000", "085821.149000", "085821.057000", "085821.155000", "085821.063000", "085821.162000", "085821.069000", "085821.171000", "085821.074000", "085821.178000", "085821.081000", "085821.184000", "085821.087000", "085821.192000", "085821.093000"],
      "InstanceNumber": [1, 2, 3, 4, 5, 6, 7, 8, 9, 10, 11, 12, 13, 14, 15, 16, 17, 18, 19, 20, 21, 22, 23, 24, 25, 26, 27, 28, 29, 30, 31, 32, 33, 34, 35, 36, 37, 38, 39, 40, 41, 42, 43, 44, 45, 46, 47, 48, 49, 50, 51, 52, 53, 54, 55, 56, 57, 58, 59, 60, 61, 62, 63, 64, 65, 66, 67, 68, 69, 70, 71, 72, 73, 74, 75, 76, 77, 78, 79, 80, 81],
      "LargestImagePixelValue": [28516, 30269, 31790, 43746, 36386, 32833, 29571, 36481, 42469, 38252, 34138, 54363, 65535, 65535, 65535, 65535, 65535, 65535, 65535, 65535, 62810, 65535, 65535, 65535, 63323, 48099, 52028, 34684, 38012, 49604, 45646, 34633, 32801, 31805, 32601, 38340, 37158, 46524, 36402, 35980, 35295, 41436, 41202, 48499, 48338, 41333, 47597, 45180, 51458, 54770, 57090, 56028, 65535, 59123, 46254, 48584, 42098, 54451, 46829, 49883, 38509, 38203, 41205, 42335, 38686, 37981, 40964, 37902, 37427, 38888, 37041, 45113, 19992, 11928, 10414, 9158, 7526, 6805, 3047, 871, 970],
      "SliceLocation": [-39.792059070164, -38.092061132353, -36.392059401012, -34.692057669671, -32.992059731676, -31.292058000335, -29.59206006234, -27.892060227672, -26.192058496331, -24.492058661664, -22.792058826996, -21.092058791152, -19.392058956667, -17.692059121999, -15.992059287331, -14.292059452663, -12.592059617996, -10.892059783328, -9.1920590003233, -7.4920591656554, -5.7920593309876, -4.0920594963197, -2.3920594605673, -0.6920593888153, 1.0079406829367, 2.7079406657822, 4.407940707807, 6.107940661017, 7.8079404956848, 9.507940804521, 11.207940165021, 12.907940948025, 14.607940782601, 16.307940818445, 18.007940653113, 19.707941436118, 21.40794127074, 23.107941105408, 24.807940940075, 26.507940774697, 28.207940609365, 29.90794044401, 31.607940278655, 33.307940113312, 35.007940149144, 36.707939983795, 38.407941715119, 40.107939451926, 41.807941183244, 43.507939523568, 45.207941254909, 46.907939192881, 48.607940924222, 50.307938862171, 52.007940593512, 53.707942324853, 55.407940262802, 57.107941994143, 58.807939932137, 60.507941663478, 62.207939601381, 63.907941332723, 65.607939270717, 67.307941002058, 69.007942733399, 70.707940671394, 72.407938609297, 74.107944133985, 75.807942071979, 77.507940009974, 79.207937947877, 80.907943874917, 82.607941812911, 84.307939750906, 86.007937688901, 87.707943213588, 89.407941151583, 91.107939089577, 92.807937027572, 94.50794255226, 96.207940490071],
