{
  "AcquisitionMatrixPE": 140,
  "AcquisitionNumber": 1,
  "AcquisitionTime": "16:32:28.057500",
  "BandwidthPerPixelPhaseEncode": 10.352,
  "BaseResolution": 140,
  "BodyPartExamined": "BRAIN",
  "ConsistencyInfo": "N4_VE11E_LATEST_20181129",
  "ConversionSoftware": "dcm2niix",
  "ConversionSoftwareVersion": "v1.0.20201102",
  "DerivedVendorReportedEchoSpacing": 0.000689998,
  "DeviceSerialNumber": "66112",
  "DiffusionScheme": "Monopolar",
  "DwellTime": 2.1e-06,
  "EchoTime": 0.0884,
  "EchoTrainLength": 105,
  "EffectiveEchoSpacing": 0.000689998,
  "FlipAngle": 90,
  "ImageComments": "Unaliased MB3/PE3 SENSE1",
  "ImageOrientationPatientDICOM": [0.999148, 0.0130955, 0.0391296, -0.0259891, 0.936289, 0.350267],
  "ImageType": [
    "ORIGINAL",
    "PRIMARY",
    "DIFFUSION",
    "NONE",
    "MB",
    "ND",
    "MOSAIC"
],
  "ImagingFrequency": 123.252,
  "InPlanePhaseEncodingDirectionDICOM": "COL",
  "InstitutionAddress": "Maynard 3,Hanover,NH,US,03755",
  "InstitutionName": "Dartmouth College - PBS",
  "InstitutionalDepartmentName": "Department",
  "MRAcquisitionType": "2D",
  "MagneticFieldStrength": 3,
  "Manufacturer": "Siemens",
  "ManufacturersModelName": "Prisma",
  "Modality": "MR",
  "MultibandAccelerationFactor": 3,
  "PartialFourier": 0.75,
  "PatientPosition": "HFS",
  "PercentPhaseFOV": 100,
  "PercentSampling": 100,
  "PhaseEncodingDirection": "j-",
  "PhaseEncodingSteps": 105,
  "PhaseResolution": 1,
  "PixelBandwidth": 1700,
  "ProcedureStepDescription": "Wager_Wager^1076_spacetop",
  "ProtocolName": "dwi_acq-96dir-6b0-mb",
  "PulseSequenceDetails": "%CustomerSeq%\\cmrr_mbep2d_diff",
  "ReceiveCoilActiveElements": "HEA;HEP",
  "ReceiveCoilName": "Head_32",
  "ReconMatrixPE": 140,
  "RepetitionTime": 4.11,
  "SAR": 0.236709,
  "ScanOptions": "PFP\\FS",
  "ScanningSequence": "EP",
  "SequenceName": "ep_b5#1",
  "SequenceVariant": "SK\\SS",
  "SeriesDescription": "dwi_acq-96dir-6b0-mb",
  "SeriesNumber": 8,
  "ShimSetting": [4145, -7779, -7281, 451, -71, -192, 79, 69],
  "SliceThickness": 1.7,
  "SliceTiming": [0, 2.12, 0.1525, 2.2725, 0.3025, 2.4225, 0.455, 2.575, 0.605, 2.7275, 0.7575, 2.8775, 0.9075, 3.03, 1.06, 3.18, 1.2125, 3.3325, 1.3625, 3.485, 1.515, 3.635, 1.665, 3.7875, 1.8175, 3.9375, 1.97, 0, 2.12, 0.1525, 2.2725, 0.3025, 2.4225, 0.455, 2.575, 0.605, 2.7275, 0.7575, 2.8775, 0.9075, 3.03, 1.06, 3.18, 1.2125, 3.3325, 1.3625, 3.485, 1.515, 3.635, 1.665, 3.7875, 1.8175, 3.9375, 1.97, 0, 2.12, 0.1525, 2.2725, 0.3025, 2.4225, 0.455, 2.575, 0.605, 2.7275, 0.7575, 2.8775, 0.9075, 3.03, 1.06, 3.18, 1.2125, 3.3325, 1.3625, 3.485, 1.515, 3.635, 1.665, 3.7875, 1.8175, 3.9375, 1.97],
  "SoftwareVersions": "syngo MR E11",
  "SpacingBetweenSlices": 1.7,
  "StationName": "AWP66112",
  "TotalReadoutTime": 0.0959097,
  "TxRefAmp": 249.475,
  "WipMemBlock": "2e0d5d13-e4b6-4895-846f-201ff647cd30||Sequence: R016 ve11e/master r/434b28f1; Aug  7 2019 19:06:17 by eja",
  "dcmmeta_affine": [
    [-1.7128257751464844, -0.0445527657866478, 0.05448443815112114, 125.70108795166016],
    [-0.02244943380355835, 1.605067253112793, 0.5966758131980896, -105.62346649169922],
    [0.06707926094532013, -0.6004579067230225, 1.5909147262573242, -14.94644546508789],
    [0.0, 0.0, 0.0, 1.0]
],
  "dcmmeta_reorient_transform": [
    [0.0, -1.0, 0.0, 139.0],
    [1.0, 0.0, 0.0, 0.0],
    [0.0, 0.0, 1.0, 0.0],
    [0.0, 0.0, 0.0, 1.0]
],
  "dcmmeta_shape": [140, 140, 81, 103],
  "dcmmeta_slice_dim": 2,
  "dcmmeta_version": 0.6,
  "global": {
    "const": {
      "AccessionNumber": "A003974",
      "AcquisitionMatrix": [140, 0, 0, 140],
      "AngioFlag": "N",
      "BitsAllocated": 16,
      "BitsStored": 16,
      "BodyPartExamined": "BRAIN",
      "Columns": 1260,
      "EchoNumbers": 1,
      "EchoTime": 88.4,
      "EchoTrainLength": 105,
      "FlipAngle": 90.0,
      "HighBit": 15,
      "ImageOrientationPatient": [0.99914832968667, 0.01309550265908, 0.03912956803295, -0.0259891134639, 0.93628922178407, 0.35026712542335],
      "ImagePositionPatient": [-1053.7411073426, -1028.8902253568, -472.23092822776],
      "ImageType": [
        "ORIGINAL",
        "PRIMARY",
        "DIFFUSION",
        "NONE",
        "MB",
        "ND",
        "MOSAIC"
],
      "ImagedNucleus": "1H",
      "ImagingFrequency": 123.252181,
      "InPlanePhaseEncodingDirection": "COL",
      "MRAcquisitionType": "2D",
      "MagneticFieldStrength": 3.0,
      "Manufacturer": "SIEMENS",
      "ManufacturerModelName": "Prisma",
      "Modality": "MR",
      "NumberOfAverages": 1.0,
      "NumberOfPhaseEncodingSteps": 105,
      "PercentPhaseFieldOfView": 100.0,
      "PercentSampling": 100.0,
      "PerformedProcedureStepStartTime": "161039.773000",
      "PhotometricInterpretation": "MONOCHROME2",
      "PixelBandwidth": 1700.0,
      "PixelRepresentation": 0,
      "PixelSpacing": [1.7142857313156, 1.7142857313156],
      "ProtocolName": "dwi_acq-96dir-6b0-mb",
      "RepetitionTime": 4110.0,
      "Rows": 1260,
      "SAR": 0.23670850039155,
      "SamplesPerPixel": 1,
      "ScanOptions": [
        "PFP",
        "FS"
],
      "ScanningSequence": "EP",
      "SequenceVariant": [
        "SK",
        "SS"
],
      "SeriesDescription": "dwi_acq-96dir-6b0-mb",
      "SeriesNumber": 8,
      "SeriesTime": "163353.658000",
      "SliceLocation": -47.031018963472,
      "SliceThickness": 1.7000000476837,
      "SmallestImagePixelValue": 0,
      "SoftwareVersions": "syngo MR E11",
      "SpacingBetweenSlices": 1.7000000660871,
      "SpecificCharacterSet": "ISO_IR 100",
      "StudyID": "1",
      "StudyTime": "161039.662000",
      "TransmitCoilName": "Body",
      "VariableFlipAngleFlag": "N",
      "WindowCenterWidthExplanation": "Algo1"
    },
    "slices": {}
  },
  "time": {
    "samples": {
      "AcquisitionNumber": [1, 2, 3, 4, 5, 6, 7, 8, 9, 10, 11, 12, 13, 14, 15, 16, 17, 18, 19, 20, 21, 22, 23, 24, 25, 26, 27, 28, 29, 30, 31, 32, 33, 34, 35, 36, 37, 38, 39, 40, 41, 42, 43, 44, 45, 46, 47, 48, 49, 50, 51, 52, 53, 54, 55, 56, 57, 58, 59, 60, 61, 62, 63, 64, 65, 66, 67, 68, 69, 70, 71, 72, 73, 74, 75, 76, 77, 78, 79, 80, 81, 82, 83, 84, 85, 86, 87, 88, 89, 90, 91, 92, 93, 94, 95, 96, 97, 98, 99, 100, 101, 102, 103],
      "AcquisitionTime": ["163228.057500", "163232.167500", "163236.277500", "163240.387500", "163244.497500", "163248.607500", "163252.717500", "163256.827500", "163300.937500", "163305.047500", "163309.157500", "163313.267500", "163317.377500", "163321.487500", "163325.597500", "163329.707500", "163333.817500", "163337.927500", "163342.037500", "163346.147500", "163350.257500", "163354.367500", "163358.477500", "163402.587500", "163406.697500", "163410.807500", "163414.917500", "163419.027500", "163423.137500", "163427.247500", "163431.357500", "163435.467500", "163439.577500", "163443.687500", "163447.797500", "163451.907500", "163456.017500", "163500.127500", "163504.237500", "163508.347500", "163512.457500", "163516.567500", "163520.677500", "163524.787500", "163528.897500", "163533.007500", "163537.117500", "163541.227500", "163545.337500", "163549.447500", "163553.557500", "163557.667500", "163601.777500", "163605.887500", "163609.997500", "163614.107500", "163618.217500", "163622.327500", "163626.437500", "163630.547500", "163634.657500", "163638.767500", "163642.877500", "163646.987500", "163651.097500", "163655.207500", "163659.317500", "163703.427500", "163707.537500", "163711.647500", "163715.757500", "163719.867500", "163723.977500", "163728.087500", "163732.197500", "163736.307500", "163740.417500", "163744.527500", "163748.637500", "163752.747500", "163756.857500", "163800.967500", "163805.077500", "163809.187500", "163813.297500", "163817.407500", "163821.517500", "163825.627500", "163829.737500", "163833.847500", "163837.957500", "163842.067500", "163846.177500", "163850.287500", "163854.397500", "163858.507500", "163902.617500", "163906.727500", "163910.837500", "163914.947500", "163919.057500", "163923.167500", "163927.277500"],
      "ContentTime": ["163353.662000", "163353.666000", "163353.669000", "163353.672000", "163353.675000", "163353.678000", "163353.681000", "163353.684000", "163353.688000", "163353.691000", "163353.694000", "163353.697000", "163353.700000", "163353.703000", "163353.713000", "163353.716000", "163353.719000", "163353.722000", "163353.725000", "163353.736000", "163513.656000", "163513.659000", "163513.663000", "163513.666000", "163513.669000", "163513.672000", "163513.675000", "163513.678000", "163513.681000", "163513.684000", "163513.696000", "163513.699000", "163513.702000", "163513.705000", "163513.708000", "163513.711000", "163513.714000", "163513.717000", "163513.720000", "163513.723000", "163653.657000", "163653.660000", "163653.664000", "163653.667000", "163653.670000", "163653.673000", "163653.676000", "163653.679000", "163653.682000", "163653.685000", "163653.696000", "163653.699000", "163653.702000", "163653.705000", "163653.708000", "163653.711000", "163653.714000", "163653.717000", "163653.720000", "163653.723000", "163653.726000", "163653.729000", "163653.733000", "163653.736000", "163813.657000", "163813.660000", "163813.663000", "163813.666000", "163813.670000", "163813.673000", "163813.676000", "163813.679000", "163813.682000", "163813.685000", "163813.688000", "163813.691000", "163813.694000", "163813.697000", "163813.700000", "163813.703000", "163813.706000", "163813.709000", "163813.712000", "163932.382000", "163932.386000", "163932.389000", "163932.392000", "163932.395000", "163932.398000", "163932.401000", "163932.404000", "163932.407000", "163932.410000", "163932.413000", "163932.428000", "163932.431000", "163932.435000", "163932.438000", "163932.442000", "163932.445000", "163932.448000", "163932.452000", "163932.455000"],
      "InstanceCreationTime": ["163353.662000", "163353.666000", "163353.669000", "163353.672000", "163353.675000", "163353.678000", "163353.681000", "163353.684000", "163353.688000", "163353.691000", "163353.694000", "163353.697000", "163353.700000", "163353.703000", "163353.713000", "163353.716000", "163353.719000", "163353.722000", "163353.725000", "163353.736000", "163513.656000", "163513.659000", "163513.663000", "163513.666000", "163513.669000", "163513.672000", "163513.675000", "163513.678000", "163513.681000", "163513.684000", "163513.696000", "163513.699000", "163513.702000", "163513.705000", "163513.708000", "163513.711000", "163513.714000", "163513.717000", "163513.720000", "163513.723000", "163653.657000", "163653.660000", "163653.664000", "163653.667000", "163653.670000", "163653.673000", "163653.676000", "163653.679000", "163653.682000", "163653.685000", "163653.696000", "163653.699000", "163653.702000", "163653.705000", "163653.708000", "163653.711000", "163653.714000", "163653.717000", "163653.720000", "163653.723000", "163653.726000", "163653.729000", "163653.733000", "163653.736000", "163813.657000", "163813.660000", "163813.663000", "163813.666000", "163813.670000", "163813.673000", "163813.676000", "163813.679000", "163813.682000", "163813.685000", "163813.688000", "163813.691000", "163813.694000", "163813.697000", "163813.700000", "163813.703000", "163813.706000", "163813.709000", "163813.712000", "163932.382000", "163932.386000", "163932.389000", "163932.392000", "163932.395000", "163932.398000", "163932.401000", "163932.404000", "163932.407000", "163932.410000", "163932.413000", "163932.428000", "163932.431000", "163932.435000", "163932.438000", "163932.442000", "163932.445000", "163932.448000", "163932.452000", "163932.455000"],
      "InstanceNumber": [1, 2, 3, 4, 5, 6, 7, 8, 9, 10, 11, 12, 13, 14, 15, 16, 17, 18, 19, 20, 21, 22, 23, 24, 25, 26, 27, 28, 29, 30, 31, 32, 33, 34, 35, 36, 37, 38, 39, 40, 41, 42, 43, 44, 45, 46, 47, 48, 49, 50, 51, 52, 53, 54, 55, 56, 57, 58, 59, 60, 61, 62, 63, 64, 65, 66, 67, 68, 69, 70, 71, 72, 73, 74, 75, 76, 77, 78, 79, 80, 81, 82, 83, 84, 85, 86, 87, 88, 89, 90, 91, 92, 93, 94, 95, 96, 97, 98, 99, 100, 101, 102, 103],
      "LargestImagePixelValue": [65535, 65535, 64436, 65535, 65535, 65535, 59991, 60960, 65535, 42937, 44380, 43653, 46959, 43814, 44754, 46634, 41640, 45141, 39697, 47900, 40589, 45318, 45688, 43739, 65535, 23001, 25051, 22729, 20997, 22668, 23357, 20765, 23654, 25848, 20670, 21658, 22776, 25806, 23888, 21872, 65535, 14328, 14720, 15783, 12616, 15031, 14452, 11930, 13002, 12163, 12863, 12561, 11085, 13082, 12164, 11299, 14237, 16126, 11885, 13007, 13721, 14862, 11841, 11622, 12551, 11638, 15706, 13998, 14030, 15504, 14714, 11832, 11840, 65535, 12234, 14535, 12862, 11475, 13052, 14321, 12301, 14126, 12819, 14103, 14391, 12965, 13654, 12749, 13189, 13925, 13923, 14914, 14700, 12394, 15636, 15433, 12631, 14799, 12155, 12351, 15291, 10826, 65535],
      "SequenceName": [
 "ep_b5#1",
 "ep_b5#1",
 "ep_b500#2",
 "ep_b500#3",
 "ep_b500#4",
 "ep_b505#5",
 "ep_b495#6",
 "ep_b500#7",
 "ep_b5#8",
 "ep_b1000#9",
 "ep_b1005#10",
 "ep_b1000#11",
 "ep_b1005#12",
 "ep_b995#13",
 "ep_b995#14",
 "ep_b1005#15",
 "ep_b1000#16",
 "ep_b1000#17",
 "ep_b995#18",
 "ep_b1000#19",
 "ep_b995#20",
 "ep_b1000#21",
 "ep_b1005#22",
 "ep_b1005#23",
 "ep_b5#24",
 "ep_b2000#25",
 "ep_b2000#26",
 "ep_b1995#27",
 "ep_b1995#28",
 "ep_b2005#29",
 "ep_b2010#30",
 "ep_b2005#31",
 "ep_b2005#32",
 "ep_b1995#33",
 "ep_b1990#34",
 "ep_b1995#35",
 "ep_b2000#36",
 "ep_b2000#37",
 "ep_b2010#38",
 "ep_b2000#39",
 "ep_b5#40",
 "ep_b3000#41",
 "ep_b3005#42",
 "ep_b3010#43",
 "ep_b3010#44",
 "ep_b2995#45",
 "ep_b2995#46",
 "ep_b2990#47",
 "ep_b3000#48",
 "ep_b3000#49",
 "ep_b2990#50",
 "ep_b2990#51",
 "ep_b2995#52",
 "ep_b2995#53",
 "ep_b3010#54",
 "ep_b3000#55",
 "ep_b2995#56",
 "ep_b3000#57",
 "ep_b2990#58",
 "ep_b2990#59",
 "ep_b3005#60",
 "ep_b2990#61",
 "ep_b2990#62",
 "ep_b2995#63",
 "ep_b3005#64",
 "ep_b3010#65",
 "ep_b3000#66",
 "ep_b3005#67",
 "ep_b3010#68",
 "ep_b3005#69",
 "ep_b3005#70",
 "ep_b3010#71",
 "ep_b2990#72",
 "ep_b5#73",
 "ep_b3010#74",
 "ep_b3000#75",
 "ep_b3005#76",
 "ep_b3005#77",
 "ep_b2995#78",
 "ep_b3000#79",
 "ep_b3000#80",
 "ep_b3010#81",
 "ep_b3010#82",
 "ep_b3005#83",
 "ep_b3000#84",
 "ep_b3005#85",
 "ep_b3005#86",
 "ep_b3005#87",
 "ep_b2990#88",
 "ep_b3010#89",
 "ep_b2995#90",
 "ep_b3000#91",
 "ep_b2995#92",
 "ep_b2995#93",
 "ep_b3005#94",
 "ep_b3005#95",
 "ep_b2990#96",
 "ep_b3005#97",
 "ep_b2990#98",
 "ep_b3000#99",
 "ep_b3000#100",
 "ep_b2990#101",
 "ep_b5#102"
],
      "WindowCenter": [10721.0, 10727.0, 7798.0, 7802.0, 7777.0, 7697.0, 7792.0, 7813.0, 10732.0, 5996.0, 5868.0, 5929.0, 5935.0, 5895.0, 5966.0, 5912.0, 5967.0, 5939.0, 5971.0, 5997.0, 5972.0, 5980.0, 5923.0, 5957.0, 10725.0, 3943.0, 3874.0, 3804.0, 3928.0, 3846.0, 3784.0, 3874.0, 3775.0, 3957.0, 3890.0, 3889.0, 3841.0, 3888.0, 3867.0, 3823.0, 10736.0, 2848.0, 2720.0, 2799.0, 2694.0, 2815.0, 2814.0, 2757.0, 2715.0, 2761.0, 2687.0, 2706.0, 2750.0, 2807.0, 2742.0, 2712.0, 2841.0, 2775.0, 2745.0, 2735.0, 2788.0, 2758.0, 2787.0, 2782.0, 2784.0, 2724.0, 2783.0, 2791.0, 2780.0, 2820.0, 2822.0, 2767.0, 2744.0, 10707.0, 2698.0, 2780.0, 2688.0, 2740.0, 2699.0, 2727.0, 2714.0, 2684.0, 2772.0, 2750.0, 2834.0, 2803.0, 2670.0, 2675.0, 2761.0, 2713.0, 2821.0, 2749.0, 2711.0, 2790.0, 2756.0, 2803.0, 2812.0, 2758.0, 2755.0, 2722.0, 2817.0, 2752.0, 10719.0],
      "WindowWidth": [24248.0, 24269.0, 16458.0, 16465.0, 16405.0, 16275.0, 16479.0, 16500.0, 24283.0, 12758.0, 12548.0, 12641.0, 12646.0, 12602.0, 12711.0, 12606.0, 12720.0, 12661.0, 12737.0, 12730.0, 12732.0, 12718.0, 12638.0, 12680.0, 24259.0, 8793.0, 8658.0, 8529.0, 8773.0, 8613.0, 8498.0, 8688.0, 8481.0, 8801.0, 8714.0, 8712.0, 8601.0, 8664.0, 8643.0, 8565.0, 24294.0, 6714.0, 6413.0, 6586.0, 6381.0, 6637.0, 6633.0, 6527.0, 6426.0, 6559.0, 6348.0, 6395.0, 6585.0, 6666.0, 6539.0, 6481.0, 6715.0, 6523.0, 6503.0, 6456.0, 6582.0, 6500.0, 6599.0, 6628.0, 6605.0, 6493.0, 6560.0, 6604.0, 6571.0, 6655.0, 6663.0, 6592.0, 6496.0, 24208.0, 6395.0, 6550.0, 6366.0, 6542.0, 6375.0, 6446.0, 6454.0, 6344.0, 6572.0, 6506.0, 6683.0, 6646.0, 6319.0, 6334.0, 6509.0, 6397.0, 6651.0, 6470.0, 6398.0, 6625.0, 6505.0, 6615.0, 6659.0, 6519.0, 6514.0, 6455.0, 6640.0, 6592.0, 24222.0]
    },
    "slices": {}
  }
}