{
  "AcquisitionMatrixPE": 82,
  "AcquisitionNumber": 1,
  "AcquisitionTime": "12:58:33.602500",
  "BandwidthPerPixelPhaseEncode": 24.888,
  "BaseResolution": 82,
  "BodyPartExamined": "BRAIN",
  "ConsistencyInfo": "N4_VE11C_LATEST_20160120",
  "ConversionSoftware": "dcm2niix",
  "ConversionSoftwareVersion": "v1.0.20201102",
  "DerivedVendorReportedEchoSpacing": 0.00049,
  "DeviceSerialNumber": "66112",
  "DwellTime": 2e-06,
  "EchoTime": 0.0272,
  "EchoTrainLength": 82,
  "EffectiveEchoSpacing": 0.00049,
  "FlipAngle": 44,
  "ImageComments": "Unaliased MB8/PE3",
  "ImageOrientationPatientDICOM": [0.999832, 0.0142515, 0.0115182, -0.0144848, 0.999686, 0.0204339],
  "ImageType": [
    "ORIGINAL",
    "PRIMARY",
    "M",
    "MB",
    "ND",
    "NORM",
    "MOSAIC"
],
  "ImagingFrequency": 123.252,
  "InPlanePhaseEncodingDirectionDICOM": "COL",
  "InstitutionAddress": "Maynard 3,Hanover,NH,US,03755",
  "InstitutionName": "Dartmouth College - PBS",
  "InstitutionalDepartmentName": "Department",
  "MRAcquisitionType": "2D",
  "MagneticFieldStrength": 3,
  "Manufacturer": "Siemens",
  "ManufacturersModelName": "Prisma",
  "Modality": "MR",
  "MultibandAccelerationFactor": 8,
  "PartialFourier": 1,
  "PatientPosition": "HFS",
  "PercentPhaseFOV": 100,
  "PercentSampling": 100,
  "PhaseEncodingDirection": "j-",
  "PhaseEncodingSteps": 82,
  "PhaseResolution": 1,
  "PixelBandwidth": 3050,
  "ProcedureStepDescription": "Wager_Wager^1076_spacetop",
  "ProtocolName": "func_run-02_task-social_acq-ap-mb8",
  "PulseSequenceDetails": "%CustomerSeq%\\cmrr_mbep2d_bold",
  "ReceiveCoilActiveElements": "HEA;HEP",
  "ReceiveCoilName": "Head_32",
  "ReconMatrixPE": 82,
  "RepetitionTime": 0.46,
  "SAR": 0.0828612,
  "ScanOptions": "FS",
  "ScanningSequence": "EP",
  "SequenceName": "epfid2d1_82",
  "SequenceVariant": "SK\\SS",
  "SeriesDescription": "func_run-02_task-social_acq-ap-mb8",
  "SeriesNumber": 14,
  "ShimSetting": [4159, -7707, -7339, 608, -15, -107, 24, 70],
  "SliceThickness": 2.7,
  "SliceTiming": [0, 0.25, 0.0625, 0.3125, 0.125, 0.3775, 0.1875, 0, 0.25, 0.0625, 0.3125, 0.125, 0.3775, 0.1875, 0, 0.25, 0.0625, 0.3125, 0.125, 0.3775, 0.1875, 0, 0.25, 0.0625, 0.3125, 0.125, 0.3775, 0.1875, 0, 0.25, 0.0625, 0.3125, 0.125, 0.3775, 0.1875, 0, 0.25, 0.0625, 0.3125, 0.125, 0.3775, 0.1875, 0, 0.25, 0.0625, 0.3125, 0.125, 0.3775, 0.1875, 0, 0.25, 0.0625, 0.3125, 0.125, 0.3775, 0.1875],
  "SoftwareVersions": "syngo MR E11",
  "SpacingBetweenSlices": 2.7,
  "StationName": "AWP66112",
  "TaskName": "social",
  "TotalReadoutTime": 0.03969,
  "TxRefAmp": 238.201,
  "WipMemBlock": "cc468897-1563-41e0-918d-061f30434413||Sequence: R016 ve11c/master r/e634e98; Dec 19 2017 11:00:25 by eja",
  "dcmmeta_affine": [
    [-2.68247652053833, -0.03886178880929947, 0.030303185805678368, 113.15691375732422],
    [-0.038235802203416824, 2.6820852756500244, 0.05561276525259018, -96.34735107421875],
    [0.030902570113539696, -0.05482269078493118, 2.6992571353912354, -83.59440612792969],
    [0.0, 0.0, 0.0, 1.0]
],
  "dcmmeta_reorient_transform": [
    [0.0, -1.0, 0.0, 81.0],
    [1.0, 0.0, 0.0, 0.0],
    [0.0, 0.0, 1.0, 0.0],
    [0.0, 0.0, 0.0, 1.0]
],
  "dcmmeta_shape": [82, 82, 56, 872],
  "dcmmeta_slice_dim": 2,
  "dcmmeta_version": 0.6,
  "global": {
    "const": {
      "AccessionNumber": "A003483",
      "AcquisitionMatrix": [82, 0, 0, 82],
      "AngioFlag": "N",
      "BitsAllocated": 16,
      "BitsStored": 16,
      "BodyPartExamined": "BRAIN",
      "Columns": 656,
      "EchoNumbers": 1,
      "EchoTime": 27.2,
      "EchoTrainLength": 82,
      "FlipAngle": 44.0,
      "HighBit": 15,
      "ImageOrientationPatient": [0.99983209810346, 0.01425152534126, 0.01151823022365, -0.0144848487793, 0.9996862730036, 0.0204339111285],
      "ImagePositionPatient": [-868.72650512032, -901.63367390005, -112.63819450852],
      "ImageType": [
        "ORIGINAL",
        "PRIMARY",
        "M",
        "MB",
        "ND",
        "NORM",
        "MOSAIC"
],
      "ImagedNucleus": "1H",
      "ImagingFrequency": 123.252177,
      "InPlanePhaseEncodingDirection": "COL",
      "MRAcquisitionType": "2D",
      "MagneticFieldStrength": 3.0,
      "Manufacturer": "SIEMENS",
      "ManufacturerModelName": "Prisma",
      "Modality": "MR",
      "NumberOfAverages": 1.0,
      "NumberOfPhaseEncodingSteps": 82,
      "PercentPhaseFieldOfView": 100.0,
      "PercentSampling": 100.0,
      "PerformedProcedureStepStartTime": "121040.272000",
      "PhotometricInterpretation": "MONOCHROME2",
      "PixelBandwidth": 3050.0,
      "PixelRepresentation": 0,
      "PixelSpacing": [2.6829268932343, 2.6829268932343],
      "ProtocolName": "func_run-02_task-social_acq-ap-mb8",
      "RepetitionTime": 460.0,
      "Rows": 656,
      "SAR": 0.08286122944032,
      "SamplesPerPixel": 1,
      "ScanOptions": "FS",
      "ScanningSequence": "EP",
      "SequenceName": "epfid2d1_82",
      "SequenceVariant": [
        "SK",
        "SS"
],
      "SeriesDescription": "func_run-02_task-social_acq-ap-mb8",
      "SeriesNumber": 14,
      "SeriesTime": "125853.512000",
      "SliceLocation": -84.285898307058,
      "SliceThickness": 2.7000000476837,
      "SmallestImagePixelValue": 0,
      "SoftwareVersions": "syngo MR E11",
      "SpacingBetweenSlices": 2.6999999967841,
      "SpecificCharacterSet": "ISO_IR 100",
      "StudyID": "1",
      "StudyTime": "121040.187000",
      "TransmitCoilName": "Body",
      "VariableFlipAngleFlag": "N",
      "WindowCenterWidthExplanation": "Algo1",
      "dBdt": 0.0},
    "slices": {}
  },
  "time": {
    "samples": {
      "AcquisitionNumber": [1, 2, 3, 4, 5, 6, 7, 8, 9, 10, 11, 12, 13, 14, 15, 16, 17, 18, 19, 20, 21, 22, 23, 24, 25, 26, 27, 28, 29, 30, 31, 32, 33, 34, 35, 36, 37, 38, 39, 40, 41, 42, 43, 44, 45, 46, 47, 48, 49, 50, 51, 52, 53, 54, 55, 56, 57, 58, 59, 60, 61, 62, 63, 64, 65, 66, 67, 68, 69, 70, 71, 72, 73, 74, 75, 76, 77, 78, 79, 80, 81, 82, 83, 84, 85, 86, 87, 88, 89, 90, 91, 92, 93, 94, 95, 96, 97, 98, 99, 100, 101, 102, 103, 104, 105, 106, 107, 108, 109, 110, 111, 112, 113, 114, 115, 116, 117, 118, 119, 120, 121, 122, 123, 124, 125, 126, 127, 128, 129, 130, 131, 132, 133, 134, 135, 136, 137, 138, 139, 140, 141, 142, 143, 144, 145, 146, 147, 148, 149, 150, 151, 152, 153, 154, 155, 156, 157, 158, 159, 160, 161, 162, 163, 164, 165, 166, 167, 168, 169, 170, 171, 172, 173, 174, 175, 176, 177, 178, 179, 180, 181, 182, 183, 184, 185, 186, 187, 188, 189, 190, 191, 192, 193, 194, 195, 196, 197, 198, 199, 200, 201, 202, 203, 204, 205, 206, 207, 208, 209, 210, 211, 212, 213, 214, 215, 216, 217, 218, 219, 220, 221, 222, 223, 224, 225, 226, 227, 228, 229, 230, 231, 232, 233, 234, 235, 236, 237, 238, 239, 240, 241, 242, 243, 244, 245, 246, 247, 248, 249, 250, 251, 252, 253, 254, 255, 256, 257, 258, 259, 260, 261, 262, 263, 264, 265, 266, 267, 268, 269, 270, 271, 272, 273, 274, 275, 276, 277, 278, 279, 280, 281, 282, 283, 284, 285, 286, 287, 288, 289, 290, 291, 292, 293, 294, 295, 296, 297, 298, 299, 300, 301, 302, 303, 304, 305, 306, 307, 308, 309, 310, 311, 312, 313, 314, 315, 316, 317, 318, 319, 320, 321, 322, 323, 324, 325, 326, 327, 328, 329, 330, 331, 332, 333, 334, 335, 336, 337, 338, 339, 340, 341, 342, 343, 344, 345, 346, 347, 348, 349, 350, 351, 352, 353, 354, 355, 356, 357, 358, 359, 360, 361, 362, 363, 364, 365, 366, 367, 368, 369, 370, 371, 372, 373, 374, 375, 376, 377, 378, 379, 380, 381, 382, 383, 384, 385, 386, 387, 388, 389, 390, 391, 392, 393, 394, 395, 396, 397, 398, 399, 400, 401, 402, 403, 404, 405, 406, 407, 408, 409, 410, 411, 412, 413, 414, 415, 416, 417, 418, 419, 420, 421, 422, 423, 424, 425, 426, 427, 428, 429, 430, 431, 432, 433, 434, 435, 436, 437, 438, 439, 440, 441, 442, 443, 444, 445, 446, 447, 448, 449, 450, 451, 452, 453, 454, 455, 456, 457, 458, 459, 460, 461, 462, 463, 464, 465, 466, 467, 468, 469, 470, 471, 472, 473, 474, 475, 476, 477, 478, 479, 480, 481, 482, 483, 484, 485, 486, 487, 488, 489, 490, 491, 492, 493, 494, 495, 496, 497, 498, 499, 500, 501, 502, 503, 504, 505, 506, 507, 508, 509, 510, 511, 512, 513, 514, 515, 516, 517, 518, 519, 520, 521, 522, 523, 524, 525, 526, 527, 528, 529, 530, 531, 532, 533, 534, 535, 536, 537, 538, 539, 540, 541, 542, 543, 544, 545, 546, 547, 548, 549, 550, 551, 552, 553, 554, 555, 556, 557, 558, 559, 560, 561, 562, 563, 564, 565, 566, 567, 568, 569, 570, 571, 572, 573, 574, 575, 576, 577, 578, 579, 580, 581, 582, 583, 584, 585, 586, 587, 588, 589, 590, 591, 592, 593, 594, 595, 596, 597, 598, 599, 600, 601, 602, 603, 604, 605, 606, 607, 608, 609, 610, 611, 612, 613, 614, 615, 616, 617, 618, 619, 620, 621, 622, 623, 624, 625, 626, 627, 628, 629, 630, 631, 632, 633, 634, 635, 636, 637, 638, 639, 640, 641, 642, 643, 644, 645, 646, 647, 648, 649, 650, 651, 652, 653, 654, 655, 656, 657, 658, 659, 660, 661, 662, 663, 664, 665, 666, 667, 668, 669, 670, 671, 672, 673, 674, 675, 676, 677, 678, 679, 680, 681, 682, 683, 684, 685, 686, 687, 688, 689, 690, 691, 692, 693, 694, 695, 696, 697, 698, 699, 700, 701, 702, 703, 704, 705, 706, 707, 708, 709, 710, 711, 712, 713, 714, 715, 716, 717, 718, 719, 720, 721, 722, 723, 724, 725, 726, 727, 728, 729, 730, 731, 732, 733, 734, 735, 736, 737, 738, 739, 740, 741, 742, 743, 744, 745, 746, 747, 748, 749, 750, 751, 752, 753, 754, 755, 756, 757, 758, 759, 760, 761, 762, 763, 764, 765, 766, 767, 768, 769, 770, 771, 772, 773, 774, 775, 776, 777, 778, 779, 780, 781, 782, 783, 784, 785, 786, 787, 788, 789, 790, 791, 792, 793, 794, 795, 796, 797, 798, 799, 800, 801, 802, 803, 804, 805, 806, 807, 808, 809, 810, 811, 812, 813, 814, 815, 816, 817, 818, 819, 820, 821, 822, 823, 824, 825, 826, 827, 828, 829, 830, 831, 832, 833, 834, 835, 836, 837, 838, 839, 840, 841, 842, 843, 844, 845, 846, 847, 848, 849, 850, 851, 852, 853, 854, 855, 856, 857, 858, 859, 860, 861, 862, 863, 864, 865, 866, 867, 868, 869, 870, 871, 872],
      "AcquisitionTime": ["125833.602500", "125834.062500", "125834.522500", "125834.982500", "125835.442500", "125835.902500", "125836.362500", "125836.822500", "125837.282500", "125837.742500", "125838.202500", "125838.662500", "125839.122500", "125839.582500", "125840.042500", "125840.502500", "125840.962500", "125841.422500", "125841.882500", "125842.342500", "125842.802500", "125843.262500", "125843.722500", "125844.182500", "125844.642500", "125845.102500", "125845.562500", "125846.022500", "125846.482500", "125846.942500", "125847.402500", "125847.862500", "125848.322500", "125848.782500", "125849.242500", "125849.702500", "125850.162500", "125850.622500", "125851.082500", "125851.542500", "125852.002500", "125852.462500", "125852.922500", "125853.382500", "125853.842500", "125854.302500", "125854.762500", "125855.222500", "125855.682500", "125856.142500", "125856.602500", "125857.062500", "125857.522500", "125857.982500", "125858.442500", "125858.902500", "125859.362500", "125859.822500", "125900.282500", "125900.742500", "125901.202500", "125901.662500", "125902.122500", "125902.582500", "125903.042500", "125903.502500", "125903.962500", "125904.422500", "125904.882500", "125905.342500", "125905.802500", "125906.262500", "125906.722500", "125907.182500", "125907.642500", "125908.102500", "125908.562500", "125909.022500", "125909.482500", "125909.942500", "125910.402500", "125910.862500", "125911.322500", "125911.782500", "125912.242500", "125912.702500", "125913.162500", "125913.622500", "125914.082500", "125914.542500", "125915.002500", "125915.462500", "125915.922500", "125916.382500", "125916.842500", "125917.302500", "125917.762500", "125918.222500", "125918.682500", "125919.142500", "125919.602500", "125920.062500", "125920.522500", "125920.982500", "125921.442500", "125921.902500", "125922.362500", "125922.822500", "125923.282500", "125923.742500", "125924.202500", "125924.662500", "125925.122500", "125925.582500", "125926.042500", "125926.502500", "125926.962500", "125927.422500", "125927.882500", "125928.342500", "125928.802500", "125929.262500", "125929.722500", "125930.182500", "125930.642500", "125931.102500", "125931.562500", "125932.022500", "125932.482500", "125932.942500", "125933.402500", "125933.862500", "125934.322500", "125934.782500", "125935.242500", "125935.702500", "125936.162500", "125936.622500", "125937.082500", "125937.542500", "125938.002500", "125938.462500", "125938.922500", "125939.382500", "125939.842500", "125940.302500", "125940.762500", "125941.222500", "125941.682500", "125942.142500", "125942.602500", "125943.062500", "125943.522500", "125943.982500", "125944.442500", "125944.902500", "125945.362500", "125945.822500", "125946.282500", "125946.742500", "125947.202500", "125947.662500", "125948.122500", "125948.582500", "125949.042500", "125949.502500", "125949.962500", "125950.422500", "125950.882500", "125951.342500", "125951.802500", "125952.262500", "125952.722500", "125953.182500", "125953.642500", "125954.102500", "125954.562500", "125955.022500", "125955.482500", "125955.942500", "125956.402500", "125956.862500", "125957.322500", "125957.782500", "125958.242500", "125958.702500", "125959.162500", "125959.622500", "130000.082500", "130000.542500", "130001.002500", "130001.462500", "130001.922500", "130002.382500", "130002.842500", "130003.302500", "130003.762500", "130004.222500", "130004.682500", "130005.142500", "130005.602500", "130006.062500", "130006.522500", "130006.982500", "130007.442500", "130007.902500", "130008.362500", "130008.822500", "130009.282500", "130009.742500", "130010.202500", "130010.662500", "130011.122500", "130011.582500", "130012.042500", "130012.502500", "130012.962500", "130013.422500", "130013.882500", "130014.342500", "130014.802500", "130015.262500", "130015.722500", "130016.182500", "130016.642500", "130017.102500", "130017.562500", "130018.022500", "130018.482500", "130018.942500", "130019.402500", "130019.862500", "130020.322500", "130020.782500", "130021.242500", "130021.702500", "130022.162500", "130022.622500", "130023.082500", "130023.542500", "130024.002500", "130024.462500", "130024.922500", "130025.382500", "130025.842500", "130026.302500", "130026.762500", "130027.222500", "130027.682500", "130028.142500", "130028.602500", "130029.062500", "130029.522500", "130029.982500", "130030.442500", "130030.902500", "130031.362500", "130031.822500", "130032.282500", "130032.742500", "130033.202500", "130033.662500", "130034.122500", "130034.582500", "130035.042500", "130035.502500", "130035.962500", "130036.422500", "130036.882500", "130037.342500", "130037.802500", "130038.262500", "130038.722500", "130039.182500", "130039.642500", "130040.102500", "130040.562500", "130041.022500", "130041.482500", "130041.942500", "130042.402500", "130042.862500", "130043.322500", "130043.782500", "130044.242500", "130044.702500", "130045.162500", "130045.622500", "130046.082500", "130046.542500", "130047.002500", "130047.462500", "130047.922500", "130048.382500", "130048.842500", "130049.302500", "130049.762500", "130050.222500", "130050.682500", "130051.142500", "130051.602500", "130052.062500", "130052.522500", "130052.982500", "130053.442500", "130053.902500", "130054.362500", "130054.822500", "130055.282500", "130055.742500", "130056.202500", "130056.662500", "130057.122500", "130057.582500", "130058.042500", "130058.502500", "130058.962500", "130059.422500", "130059.882500", "130100.342500", "130100.802500", "130101.262500", "130101.722500", "130102.182500", "130102.642500", "130103.102500", "130103.562500", "130104.022500", "130104.482500", "130104.942500", "130105.402500", "130105.862500", "130106.322500", "130106.782500", "130107.242500", "130107.702500", "130108.162500", "130108.622500", "130109.082500", "130109.542500", "130110.002500", "130110.462500", "130110.922500", "130111.382500", "130111.842500", "130112.302500", "130112.762500", "130113.222500", "130113.682500", "130114.142500", "130114.602500", "130115.062500", "130115.522500", "130115.982500", "130116.442500", "130116.902500", "130117.362500", "130117.822500", "130118.282500", "130118.742500", "130119.202500", "130119.662500", "130120.122500", "130120.582500", "130121.042500", "130121.502500", "130121.962500", "130122.422500", "130122.882500", "130123.342500", "130123.802500", "130124.262500", "130124.722500", "130125.182500", "130125.642500", "130126.102500", "130126.562500", "130127.022500", "130127.482500", "130127.942500", "130128.402500", "130128.862500", "130129.322500", "130129.782500", "130130.242500", "130130.702500", "130131.162500", "130131.622500", "130132.082500", "130132.542500", "130133.002500", "130133.462500", "130133.922500", "130134.382500", "130134.842500", "130135.302500", "130135.762500", "130136.222500", "130136.682500", "130137.142500", "130137.602500", "130138.062500", "130138.522500", "130138.982500", "130139.442500", "130139.902500", "130140.362500", "130140.822500", "130141.282500", "130141.742500", "130142.202500", "130142.662500", "130143.122500", "130143.582500", "130144.042500", "130144.502500", "130144.962500", "130145.422500", "130145.882500", "130146.342500", "130146.802500", "130147.262500", "130147.722500", "130148.182500", "130148.642500", "130149.102500", "130149.562500", "130150.022500", "130150.482500", "130150.942500", "130151.402500", "130151.862500", "130152.322500", "130152.782500", "130153.242500", "130153.702500", "130154.162500", "130154.622500", "130155.082500", "130155.542500", "130156.002500", "130156.462500", "130156.922500", "130157.382500", "130157.842500", "130158.302500", "130158.762500", "130159.222500", "130159.682500", "130200.142500", "130200.602500", "130201.062500", "130201.522500", "130201.982500", "130202.442500", "130202.902500", "130203.362500", "130203.822500", "130204.282500", "130204.742500", "130205.202500", "130205.662500", "130206.122500", "130206.582500", "130207.042500", "130207.502500", "130207.962500", "130208.422500", "130208.882500", "130209.342500", "130209.802500", "130210.262500", "130210.722500", "130211.182500", "130211.642500", "130212.102500", "130212.562500", "130213.022500", "130213.482500", "130213.942500", "130214.402500", "130214.862500", "130215.322500", "130215.782500", "130216.242500", "130216.702500", "130217.162500", "130217.622500", "130218.082500", "130218.542500", "130219.002500", "130219.462500", "130219.922500", "130220.382500", "130220.842500", "130221.302500", "130221.762500", "130222.222500", "130222.682500", "130223.142500", "130223.602500", "130224.062500", "130224.522500", "130224.982500", "130225.442500", "130225.902500", "130226.362500", "130226.822500", "130227.282500", "130227.742500", "130228.202500", "130228.662500", "130229.122500", "130229.582500", "130230.042500", "130230.502500", "130230.962500", "130231.422500", "130231.882500", "130232.342500", "130232.802500", "130233.262500", "130233.722500", "130234.182500", "130234.642500", "130235.102500", "130235.562500", "130236.022500", "130236.482500", "130236.942500", "130237.402500", "130237.862500", "130238.322500", "130238.782500", "130239.242500", "130239.702500", "130240.162500", "130240.622500", "130241.082500", "130241.542500", "130242.002500", "130242.462500", "130242.922500", "130243.382500", "130243.842500", "130244.302500", "130244.762500", "130245.222500", "130245.682500", "130246.142500", "130246.602500", "130247.062500", "130247.522500", "130247.982500", "130248.442500", "130248.902500", "130249.362500", "130249.822500", "130250.282500", "130250.742500", "130251.202500", "130251.662500", "130252.122500", "130252.582500", "130253.042500", "130253.502500", "130253.962500", "130254.422500", "130254.882500", "130255.342500", "130255.802500", "130256.262500", "130256.722500", "130257.182500", "130257.642500", "130258.102500", "130258.562500", "130259.022500", "130259.482500", "130259.942500", "130300.402500", "130300.862500", "130301.322500", "130301.782500", "130302.242500", "130302.702500", "130303.162500", "130303.622500", "130304.082500", "130304.542500", "130305.002500", "130305.462500", "130305.922500", "130306.382500", "130306.842500", "130307.302500", "130307.762500", "130308.222500", "130308.682500", "130309.142500", "130309.602500", "130310.062500", "130310.522500", "130310.982500", "130311.442500", "130311.902500", "130312.362500", "130312.822500", "130313.282500", "130313.742500", "130314.202500", "130314.662500", "130315.122500", "130315.582500", "130316.042500", "130316.502500", "130316.962500", "130317.422500", "130317.882500", "130318.342500", "130318.802500", "130319.262500", "130319.722500", "130320.182500", "130320.642500", "130321.102500", "130321.562500", "130322.022500", "130322.482500", "130322.942500", "130323.402500", "130323.862500", "130324.322500", "130324.782500", "130325.242500", "130325.702500", "130326.162500", "130326.622500", "130327.082500", "130327.542500", "130328.002500", "130328.462500", "130328.922500", "130329.382500", "130329.842500", "130330.302500", "130330.762500", "130331.222500", "130331.682500", "130332.142500", "130332.602500", "130333.062500", "130333.522500", "130333.982500", "130334.442500", "130334.902500", "130335.362500", "130335.822500", "130336.282500", "130336.742500", "130337.202500", "130337.662500", "130338.122500", "130338.582500", "130339.042500", "130339.502500", "130339.962500", "130340.422500", "130340.882500", "130341.342500", "130341.802500", "130342.262500", "130342.722500", "130343.182500", "130343.642500", "130344.102500", "130344.562500", "130345.022500", "130345.482500", "130345.942500", "130346.402500", "130346.862500", "130347.322500", "130347.782500", "130348.242500", "130348.702500", "130349.162500", "130349.622500", "130350.082500", "130350.542500", "130351.002500", "130351.462500", "130351.922500", "130352.382500", "130352.842500", "130353.302500", "130353.762500", "130354.222500", "130354.682500", "130355.142500", "130355.602500", "130356.062500", "130356.522500", "130356.982500", "130357.442500", "130357.902500", "130358.362500", "130358.822500", "130359.282500", "130359.742500", "130400.202500", "130400.662500", "130401.122500", "130401.582500", "130402.042500", "130402.502500", "130402.962500", "130403.422500", "130403.882500", "130404.342500", "130404.802500", "130405.262500", "130405.722500", "130406.182500", "130406.642500", "130407.102500", "130407.562500", "130408.022500", "130408.482500", "130408.942500", "130409.402500", "130409.862500", "130410.322500", "130410.782500", "130411.242500", "130411.702500", "130412.162500", "130412.622500", "130413.082500", "130413.542500", "130414.002500", "130414.462500", "130414.922500", "130415.382500", "130415.842500", "130416.302500", "130416.762500", "130417.222500", "130417.682500", "130418.142500", "130418.602500", "130419.062500", "130419.522500", "130419.982500", "130420.442500", "130420.902500", "130421.362500", "130421.822500", "130422.282500", "130422.742500", "130423.202500", "130423.662500", "130424.122500", "130424.582500", "130425.042500", "130425.502500", "130425.962500", "130426.422500", "130426.882500", "130427.342500", "130427.802500", "130428.262500", "130428.722500", "130429.182500", "130429.642500", "130430.102500", "130430.562500", "130431.022500", "130431.482500", "130431.942500", "130432.402500", "130432.862500", "130433.322500", "130433.782500", "130434.242500", "130434.702500", "130435.162500", "130435.622500", "130436.082500", "130436.542500", "130437.002500", "130437.462500", "130437.922500", "130438.382500", "130438.842500", "130439.302500", "130439.762500", "130440.222500", "130440.682500", "130441.142500", "130441.602500", "130442.062500", "130442.522500", "130442.982500", "130443.442500", "130443.902500", "130444.362500", "130444.822500", "130445.282500", "130445.742500", "130446.202500", "130446.662500", "130447.122500", "130447.582500", "130448.042500", "130448.502500", "130448.962500", "130449.422500", "130449.882500", "130450.342500", "130450.802500", "130451.262500", "130451.722500", "130452.182500", "130452.642500", "130453.102500", "130453.562500", "130454.022500", "130454.482500", "130454.942500", "130455.402500", "130455.862500", "130456.322500", "130456.782500", "130457.242500", "130457.702500", "130458.162500", "130458.622500", "130459.082500", "130459.542500", "130500.002500", "130500.462500", "130500.922500", "130501.382500", "130501.842500", "130502.302500", "130502.762500", "130503.222500", "130503.682500", "130504.142500", "130504.602500", "130505.062500", "130505.522500", "130505.982500", "130506.442500", "130506.902500", "130507.362500", "130507.822500", "130508.282500", "130508.742500", "130509.202500", "130509.662500", "130510.122500", "130510.582500", "130511.042500", "130511.502500", "130511.962500", "130512.422500", "130512.882500", "130513.342500", "130513.802500", "130514.262500"],
