{
  "AcquisitionMatrixPE": 82,
  "AcquisitionNumber": 1,
  "AcquisitionTime": "09:29:51.472500",
  "BandwidthPerPixelPhaseEncode": 24.888,
  "BaseResolution": 82,
  "BodyPartExamined": "BRAIN",
  "ConsistencyInfo": "N4_VE11E_LATEST_20181129",
  "ConversionSoftware": "dcm2niix",
  "ConversionSoftwareVersion": "v1.0.20201102",
  "DerivedVendorReportedEchoSpacing": 0.00049,
  "DeviceSerialNumber": "66112",
  "DwellTime": 2e-06,
  "EchoTime": 0.0272,
  "EchoTrainLength": 82,
  "EffectiveEchoSpacing": 0.00049,
  "FlipAngle": 44,
  "ImageComments": "Unaliased MB8/PE3",
  "ImageOrientationPatientDICOM": [0.998007, 0.0631031, 0.001013, -0.0626144, 0.988013, 0.141103],
  "ImageType": [
    "ORIGINAL",
    "PRIMARY",
    "M",
    "MB",
    "ND",
    "NORM",
    "MOSAIC"
],
  "ImagingFrequency": 123.252,
  "InPlanePhaseEncodingDirectionDICOM": "COL",
  "InstitutionAddress": "Maynard 3,Hanover,NH,US,03755",
  "InstitutionName": "Dartmouth College - PBS",
  "InstitutionalDepartmentName": "Department",
  "MRAcquisitionType": "2D",
  "MagneticFieldStrength": 3,
  "Manufacturer": "Siemens",
  "ManufacturersModelName": "Prisma",
  "Modality": "MR",
  "MultibandAccelerationFactor": 8,
  "PartialFourier": 1,
  "PatientPosition": "HFS",
  "PercentPhaseFOV": 100,
  "PercentSampling": 100,
  "PhaseEncodingDirection": "j-",
  "PhaseEncodingSteps": 82,
  "PhaseResolution": 1,
  "PixelBandwidth": 3050,
  "ProcedureStepDescription": "Wager_Wager^1076_spacetop",
  "ProtocolName": "func_run-05_task-social_acq-ap-mb8",
  "PulseSequenceDetails": "%CustomerSeq%\\cmrr_mbep2d_bold",
  "ReceiveCoilActiveElements": "HEA;HEP",
  "ReceiveCoilName": "Head_32",
  "ReconMatrixPE": 82,
  "RepetitionTime": 0.46,
  "SAR": 0.0884947,
  "ScanOptions": "FS",
  "ScanningSequence": "EP",
  "SequenceName": "epfid2d1_82",
  "SequenceVariant": "SK\\SS",
  "SeriesDescription": "func_run-05_task-social_acq-ap-mb8",
  "SeriesNumber": 22,
  "ShimSetting": [4168, -7857, -7356, 453, 90, -325, -186, 61],
  "SliceThickness": 2.7,
  "SliceTiming": [0, 0.25, 0.0625, 0.315, 0.125, 0.3775, 0.1875, 0, 0.25, 0.0625, 0.315, 0.125, 0.3775, 0.1875, 0, 0.25, 0.0625, 0.315, 0.125, 0.3775, 0.1875, 0, 0.25, 0.0625, 0.315, 0.125, 0.3775, 0.1875, 0, 0.25, 0.0625, 0.315, 0.125, 0.3775, 0.1875, 0, 0.25, 0.0625, 0.315, 0.125, 0.3775, 0.1875, 0, 0.25, 0.0625, 0.315, 0.125, 0.3775, 0.1875, 0, 0.25, 0.0625, 0.315, 0.125, 0.3775, 0.1875],
  "SoftwareVersions": "syngo MR E11",
  "SpacingBetweenSlices": 2.7,
  "StationName": "AWP66112",
  "TaskName": "social",
  "TotalReadoutTime": 0.03969,
  "TxRefAmp": 253.993,
  "WipMemBlock": "6b1f7675-89b0-4183-8d42-4af3712f59fc||Sequence: R016 ve11e/master r/434b28f1; Aug  7 2019 18:53:46 by eja",
  "dcmmeta_affine": [
    [-2.6775784492492676, -0.16798987984657288, -0.021338554099202156, 120.30944061279297],
    [-0.16930092871189117, 2.650766372680664, 0.38038939237594604, -86.44331359863281],
    [0.0027177943848073483, -0.37856853008270264, 2.672985076904297, -63.95380401611328],
    [0.0, 0.0, 0.0, 1.0]
],
  "dcmmeta_reorient_transform": [
    [0.0, -1.0, 0.0, 81.0],
    [1.0, 0.0, 0.0, 0.0],
    [0.0, 0.0, 1.0, 0.0],
    [0.0, 0.0, 0.0, 1.0]
],
  "dcmmeta_shape": [82, 82, 56, 872],
  "dcmmeta_slice_dim": 2,
  "dcmmeta_version": 0.6,
  "global": {
    "const": {
      "AccessionNumber": "A003862",
      "AcquisitionMatrix": [82, 0, 0, 82],
      "AngioFlag": "N",
      "BitsAllocated": 16,
      "BitsStored": 16,
      "BodyPartExamined": "BRAIN",
      "Columns": 656,
      "EchoNumbers": 1,
      "EchoTime": 27.2,
      "EchoTrainLength": 82,
      "FlipAngle": 44.0,
      "HighBit": 15,
      "ImageOrientationPatient": [0.998006500965, 0.0631030733849, 0.00101299604533, -0.0626144070182, 0.98801287040267, 0.14110281341079],
      "ImagePositionPatient": [-826.95418796036, -937.62805154112, -204.04703035436],
      "ImageType": [
        "ORIGINAL",
        "PRIMARY",
        "M",
        "MB",
        "ND",
        "NORM",
        "MOSAIC"
],
      "ImagedNucleus": "1H",
      "ImagingFrequency": 123.252265,
      "InPlanePhaseEncodingDirection": "COL",
      "MRAcquisitionType": "2D",
      "MagneticFieldStrength": 3.0,
      "Manufacturer": "SIEMENS",
      "ManufacturerModelName": "Prisma",
      "Modality": "MR",
      "NumberOfAverages": 1.0,
      "NumberOfPhaseEncodingSteps": 82,
      "PercentPhaseFieldOfView": 100.0,
      "PercentSampling": 100.0,
      "PerformedProcedureStepStartTime": "080509.608000",
      "PhotometricInterpretation": "MONOCHROME2",
      "PixelBandwidth": 3050.0,
      "PixelRepresentation": 0,
      "PixelSpacing": [2.6829268932343, 2.6829268932343],
      "ProtocolName": "func_run-05_task-social_acq-ap-mb8",
      "RepetitionTime": 460.0,
      "Rows": 656,
      "SAR": 0.08849470588348,
      "SamplesPerPixel": 1,
      "ScanOptions": "FS",
      "ScanningSequence": "EP",
      "SequenceName": "epfid2d1_82",
      "SequenceVariant": [
        "SK",
        "SS"
],
      "SeriesDescription": "func_run-05_task-social_acq-ap-mb8",
      "SeriesNumber": 22,
      "SeriesTime": "092955.171000",
      "SliceLocation": -76.443297080964,
      "SliceThickness": 2.7000000476837,
      "SmallestImagePixelValue": 0,
      "SoftwareVersions": "syngo MR E11",
      "SpacingBetweenSlices": 2.7000000451434,
      "SpecificCharacterSet": "ISO_IR 100",
      "StudyID": "1",
      "StudyTime": "080509.464000",
      "TransmitCoilName": "Body",
      "VariableFlipAngleFlag": "N",
      "WindowCenterWidthExplanation": "Algo1"
    },
    "slices": {}
  },
  "time": {
    "samples": {
      "AcquisitionNumber": [1, 2, 3, 4, 5, 6, 7, 8, 9, 10, 11, 12, 13, 14, 15, 16, 17, 18, 19, 20, 21, 22, 23, 24, 25, 26, 27, 28, 29, 30, 31, 32, 33, 34, 35, 36, 37, 38, 39, 40, 41, 42, 43, 44, 45, 46, 47, 48, 49, 50, 51, 52, 53, 54, 55, 56, 57, 58, 59, 60, 61, 62, 63, 64, 65, 66, 67, 68, 69, 70, 71, 72, 73, 74, 75, 76, 77, 78, 79, 80, 81, 82, 83, 84, 85, 86, 87, 88, 89, 90, 91, 92, 93, 94, 95, 96, 97, 98, 99, 100, 101, 102, 103, 104, 105, 106, 107, 108, 109, 110, 111, 112, 113, 114, 115, 116, 117, 118, 119, 120, 121, 122, 123, 124, 125, 126, 127, 128, 129, 130, 131, 132, 133, 134, 135, 136, 137, 138, 139, 140, 141, 142, 143, 144, 145, 146, 147, 148, 149, 150, 151, 152, 153, 154, 155, 156, 157, 158, 159, 160, 161, 162, 163, 164, 165, 166, 167, 168, 169, 170, 171, 172, 173, 174, 175, 176, 177, 178, 179, 180, 181, 182, 183, 184, 185, 186, 187, 188, 189, 190, 191, 192, 193, 194, 195, 196, 197, 198, 199, 200, 201, 202, 203, 204, 205, 206, 207, 208, 209, 210, 211, 212, 213, 214, 215, 216, 217, 218, 219, 220, 221, 222, 223, 224, 225, 226, 227, 228, 229, 230, 231, 232, 233, 234, 235, 236, 237, 238, 239, 240, 241, 242, 243, 244, 245, 246, 247, 248, 249, 250, 251, 252, 253, 254, 255, 256, 257, 258, 259, 260, 261, 262, 263, 264, 265, 266, 267, 268, 269, 270, 271, 272, 273, 274, 275, 276, 277, 278, 279, 280, 281, 282, 283, 284, 285, 286, 287, 288, 289, 290, 291, 292, 293, 294, 295, 296, 297, 298, 299, 300, 301, 302, 303, 304, 305, 306, 307, 308, 309, 310, 311, 312, 313, 314, 315, 316, 317, 318, 319, 320, 321, 322, 323, 324, 325, 326, 327, 328, 329, 330, 331, 332, 333, 334, 335, 336, 337, 338, 339, 340, 341, 342, 343, 344, 345, 346, 347, 348, 349, 350, 351, 352, 353, 354, 355, 356, 357, 358, 359, 360, 361, 362, 363, 364, 365, 366, 367, 368, 369, 370, 371, 372, 373, 374, 375, 376, 377, 378, 379, 380, 381, 382, 383, 384, 385, 386, 387, 388, 389, 390, 391, 392, 393, 394, 395, 396, 397, 398, 399, 400, 401, 402, 403, 404, 405, 406, 407, 408, 409, 410, 411, 412, 413, 414, 415, 416, 417, 418, 419, 420, 421, 422, 423, 424, 425, 426, 427, 428, 429, 430, 431, 432, 433, 434, 435, 436, 437, 438, 439, 440, 441, 442, 443, 444, 445, 446, 447, 448, 449, 450, 451, 452, 453, 454, 455, 456, 457, 458, 459, 460, 461, 462, 463, 464, 465, 466, 467, 468, 469, 470, 471, 472, 473, 474, 475, 476, 477, 478, 479, 480, 481, 482, 483, 484, 485, 486, 487, 488, 489, 490, 491, 492, 493, 494, 495, 496, 497, 498, 499, 500, 501, 502, 503, 504, 505, 506, 507, 508, 509, 510, 511, 512, 513, 514, 515, 516, 517, 518, 519, 520, 521, 522, 523, 524, 525, 526, 527, 528, 529, 530, 531, 532, 533, 534, 535, 536, 537, 538, 539, 540, 541, 542, 543, 544, 545, 546, 547, 548, 549, 550, 551, 552, 553, 554, 555, 556, 557, 558, 559, 560, 561, 562, 563, 564, 565, 566, 567, 568, 569, 570, 571, 572, 573, 574, 575, 576, 577, 578, 579, 580, 581, 582, 583, 584, 585, 586, 587, 588, 589, 590, 591, 592, 593, 594, 595, 596, 597, 598, 599, 600, 601, 602, 603, 604, 605, 606, 607, 608, 609, 610, 611, 612, 613, 614, 615, 616, 617, 618, 619, 620, 621, 622, 623, 624, 625, 626, 627, 628, 629, 630, 631, 632, 633, 634, 635, 636, 637, 638, 639, 640, 641, 642, 643, 644, 645, 646, 647, 648, 649, 650, 651, 652, 653, 654, 655, 656, 657, 658, 659, 660, 661, 662, 663, 664, 665, 666, 667, 668, 669, 670, 671, 672, 673, 674, 675, 676, 677, 678, 679, 680, 681, 682, 683, 684, 685, 686, 687, 688, 689, 690, 691, 692, 693, 694, 695, 696, 697, 698, 699, 700, 701, 702, 703, 704, 705, 706, 707, 708, 709, 710, 711, 712, 713, 714, 715, 716, 717, 718, 719, 720, 721, 722, 723, 724, 725, 726, 727, 728, 729, 730, 731, 732, 733, 734, 735, 736, 737, 738, 739, 740, 741, 742, 743, 744, 745, 746, 747, 748, 749, 750, 751, 752, 753, 754, 755, 756, 757, 758, 759, 760, 761, 762, 763, 764, 765, 766, 767, 768, 769, 770, 771, 772, 773, 774, 775, 776, 777, 778, 779, 780, 781, 782, 783, 784, 785, 786, 787, 788, 789, 790, 791, 792, 793, 794, 795, 796, 797, 798, 799, 800, 801, 802, 803, 804, 805, 806, 807, 808, 809, 810, 811, 812, 813, 814, 815, 816, 817, 818, 819, 820, 821, 822, 823, 824, 825, 826, 827, 828, 829, 830, 831, 832, 833, 834, 835, 836, 837, 838, 839, 840, 841, 842, 843, 844, 845, 846, 847, 848, 849, 850, 851, 852, 853, 854, 855, 856, 857, 858, 859, 860, 861, 862, 863, 864, 865, 866, 867, 868, 869, 870, 871, 872],
      "AcquisitionTime": ["092951.472500", "092951.932500", "092952.392500", "092952.852500", "092953.312500", "092953.772500", "092954.232500", "092954.692500", "092955.152500", "092955.612500", "092956.072500", "092956.532500", "092956.992500", "092957.452500", "092957.912500", "092958.372500", "092958.832500", "092959.292500", "092959.752500", "093000.212500", "093000.672500", "093001.132500", "093001.592500", "093002.052500", "093002.512500", "093002.972500", "093003.432500", "093003.892500", "093004.352500", "093004.812500", "093005.272500", "093005.732500", "093006.192500", "093006.652500", "093007.112500", "093007.572500", "093008.032500", "093008.492500", "093008.952500", "093009.412500", "093009.872500", "093010.332500", "093010.792500", "093011.252500", "093011.712500", "093012.172500", "093012.632500", "093013.092500", "093013.552500", "093014.012500", "093014.472500", "093014.932500", "093015.392500", "093015.852500", "093016.312500", "093016.772500", "093017.232500", "093017.692500", "093018.152500", "093018.612500", "093019.072500", "093019.532500", "093019.992500", "093020.452500", "093020.912500", "093021.372500", "093021.832500", "093022.292500", "093022.752500", "093023.212500", "093023.672500", "093024.132500", "093024.592500", "093025.052500", "093025.512500", "093025.972500", "093026.432500", "093026.892500", "093027.352500", "093027.812500", "093028.272500", "093028.732500", "093029.192500", "093029.652500", "093030.112500", "093030.572500", "093031.032500", "093031.492500", "093031.952500", "093032.412500", "093032.872500", "093033.332500", "093033.792500", "093034.252500", "093034.712500", "093035.172500", "093035.632500", "093036.092500", "093036.552500", "093037.012500", "093037.472500", "093037.932500", "093038.392500", "093038.852500", "093039.312500", "093039.772500", "093040.232500", "093040.692500", "093041.152500", "093041.612500", "093042.072500", "093042.532500", "093042.992500", "093043.452500", "093043.912500", "093044.372500", "093044.832500", "093045.292500", "093045.752500", "093046.212500", "093046.672500", "093047.132500", "093047.592500", "093048.052500", "093048.512500", "093048.972500", "093049.432500", "093049.892500", "093050.352500", "093050.812500", "093051.272500", "093051.732500", "093052.192500", "093052.652500", "093053.112500", "093053.572500", "093054.032500", "093054.492500", "093054.952500", "093055.412500", "093055.872500", "093056.332500", "093056.792500", "093057.252500", "093057.712500", "093058.172500", "093058.632500", "093059.092500", "093059.552500", "093100.012500", "093100.472500", "093100.932500", "093101.392500", "093101.852500", "093102.312500", "093102.772500", "093103.232500", "093103.692500", "093104.152500", "093104.612500", "093105.072500", "093105.532500", "093105.992500", "093106.452500", "093106.912500", "093107.372500", "093107.832500", "093108.292500", "093108.752500", "093109.212500", "093109.672500", "093110.132500", "093110.592500", "093111.052500", "093111.512500", "093111.972500", "093112.432500", "093112.892500", "093113.352500", "093113.812500", "093114.272500", "093114.732500", "093115.192500", "093115.652500", "093116.112500", "093116.572500", "093117.032500", "093117.492500", "093117.952500", "093118.412500", "093118.872500", "093119.332500", "093119.792500", "093120.252500", "093120.712500", "093121.172500", "093121.632500", "093122.092500", "093122.552500", "093123.012500", "093123.472500", "093123.932500", "093124.392500", "093124.852500", "093125.312500", "093125.772500", "093126.232500", "093126.692500", "093127.152500", "093127.612500", "093128.072500", "093128.532500", "093128.992500", "093129.452500", "093129.912500", "093130.372500", "093130.832500", "093131.292500", "093131.752500", "093132.212500", "093132.672500", "093133.132500", "093133.592500", "093134.052500", "093134.512500", "093134.972500", "093135.432500", "093135.892500", "093136.352500", "093136.812500", "093137.272500", "093137.732500", "093138.192500", "093138.652500", "093139.112500", "093139.572500", "093140.032500", "093140.492500", "093140.952500", "093141.412500", "093141.872500", "093142.332500", "093142.792500", "093143.252500", "093143.712500", "093144.172500", "093144.632500", "093145.092500", "093145.552500", "093146.012500", "093146.472500", "093146.932500", "093147.392500", "093147.852500", "093148.312500", "093148.772500", "093149.232500", "093149.692500", "093150.152500", "093150.612500", "093151.072500", "093151.532500", "093151.992500", "093152.452500", "093152.912500", "093153.372500", "093153.832500", "093154.292500", "093154.752500", "093155.212500", "093155.672500", "093156.132500", "093156.592500", "093157.052500", "093157.512500", "093157.972500", "093158.432500", "093158.892500", "093159.352500", "093159.812500", "093200.272500", "093200.732500", "093201.192500", "093201.652500", "093202.112500", "093202.572500", "093203.032500", "093203.492500", "093203.952500", "093204.412500", "093204.872500", "093205.332500", "093205.792500", "093206.252500", "093206.712500", "093207.172500", "093207.632500", "093208.092500", "093208.552500", "093209.012500", "093209.472500", "093209.932500", "093210.392500", "093210.852500", "093211.312500", "093211.772500", "093212.232500", "093212.692500", "093213.152500", "093213.612500", "093214.072500", "093214.532500", "093214.992500", "093215.452500", "093215.912500", "093216.372500", "093216.832500", "093217.292500", "093217.752500", "093218.212500", "093218.672500", "093219.132500", "093219.592500", "093220.052500", "093220.512500", "093220.972500", "093221.432500", "093221.892500", "093222.352500", "093222.812500", "093223.272500", "093223.732500", "093224.192500", "093224.652500", "093225.112500", "093225.572500", "093226.032500", "093226.492500", "093226.952500", "093227.412500", "093227.872500", "093228.332500", "093228.792500", "093229.252500", "093229.712500", "093230.172500", "093230.632500", "093231.092500", "093231.552500", "093232.012500", "093232.472500", "093232.932500", "093233.392500", "093233.852500", "093234.312500", "093234.772500", "093235.232500", "093235.692500", "093236.152500", "093236.612500", "093237.072500", "093237.532500", "093237.992500", "093238.452500", "093238.912500", "093239.372500", "093239.832500", "093240.292500", "093240.752500", "093241.212500", "093241.672500", "093242.132500", "093242.592500", "093243.052500", "093243.512500", "093243.972500", "093244.432500", "093244.892500", "093245.352500", "093245.812500", "093246.272500", "093246.732500", "093247.192500", "093247.652500", "093248.112500", "093248.572500", "093249.032500", "093249.492500", "093249.952500", "093250.412500", "093250.872500", "093251.332500", "093251.792500", "093252.252500", "093252.712500", "093253.172500", "093253.632500", "093254.092500", "093254.552500", "093255.012500", "093255.472500", "093255.932500", "093256.392500", "093256.852500", "093257.312500", "093257.772500", "093258.232500", "093258.692500", "093259.152500", "093259.612500", "093300.072500", "093300.532500", "093300.992500", "093301.452500", "093301.912500", "093302.372500", "093302.832500", "093303.292500", "093303.752500", "093304.212500", "093304.672500", "093305.132500", "093305.592500", "093306.052500", "093306.512500", "093306.972500", "093307.432500", "093307.892500", "093308.352500", "093308.812500", "093309.272500", "093309.732500", "093310.192500", "093310.652500", "093311.112500", "093311.572500", "093312.032500", "093312.492500", "093312.952500", "093313.412500", "093313.872500", "093314.332500", "093314.792500", "093315.252500", "093315.712500", "093316.172500", "093316.632500", "093317.092500", "093317.552500", "093318.012500", "093318.472500", "093318.932500", "093319.392500", "093319.852500", "093320.312500", "093320.772500", "093321.232500", "093321.692500", "093322.152500", "093322.612500", "093323.072500", "093323.532500", "093323.992500", "093324.452500", "093324.912500", "093325.372500", "093325.832500", "093326.292500", "093326.752500", "093327.212500", "093327.672500", "093328.132500", "093328.592500", "093329.052500", "093329.512500", "093329.972500", "093330.432500", "093330.892500", "093331.352500", "093331.812500", "093332.272500", "093332.732500", "093333.192500", "093333.652500", "093334.112500", "093334.572500", "093335.032500", "093335.492500", "093335.952500", "093336.412500", "093336.872500", "093337.332500", "093337.792500", "093338.252500", "093338.712500", "093339.172500", "093339.632500", "093340.092500", "093340.552500", "093341.012500", "093341.472500", "093341.932500", "093342.392500", "093342.852500", "093343.312500", "093343.772500", "093344.232500", "093344.692500", "093345.152500", "093345.612500", "093346.072500", "093346.532500", "093346.992500", "093347.452500", "093347.912500", "093348.372500", "093348.832500", "093349.292500", "093349.752500", "093350.212500", "093350.672500", "093351.132500", "093351.592500", "093352.052500", "093352.512500", "093352.972500", "093353.432500", "093353.892500", "093354.352500", "093354.812500", "093355.272500", "093355.732500", "093356.192500", "093356.652500", "093357.112500", "093357.572500", "093358.032500", "093358.492500", "093358.952500", "093359.412500", "093359.872500", "093400.332500", "093400.792500", "093401.252500", "093401.712500", "093402.172500", "093402.632500", "093403.092500", "093403.552500", "093404.012500", "093404.472500", "093404.932500", "093405.392500", "093405.852500", "093406.312500", "093406.772500", "093407.232500", "093407.692500", "093408.152500", "093408.612500", "093409.072500", "093409.532500", "093409.992500", "093410.452500", "093410.912500", "093411.372500", "093411.832500", "093412.292500", "093412.752500", "093413.212500", "093413.672500", "093414.132500", "093414.592500", "093415.052500", "093415.512500", "093415.972500", "093416.432500", "093416.892500", "093417.352500", "093417.812500", "093418.272500", "093418.732500", "093419.192500", "093419.652500", "093420.112500", "093420.572500", "093421.032500", "093421.492500", "093421.952500", "093422.412500", "093422.872500", "093423.332500", "093423.792500", "093424.252500", "093424.712500", "093425.172500", "093425.632500", "093426.092500", "093426.552500", "093427.012500", "093427.472500", "093427.932500", "093428.392500", "093428.852500", "093429.312500", "093429.772500", "093430.232500", "093430.692500", "093431.152500", "093431.612500", "093432.072500", "093432.532500", "093432.992500", "093433.452500", "093433.912500", "093434.372500", "093434.832500", "093435.292500", "093435.752500", "093436.212500", "093436.672500", "093437.132500", "093437.592500", "093438.052500", "093438.512500", "093438.972500", "093439.432500", "093439.892500", "093440.352500", "093440.812500", "093441.272500", "093441.732500", "093442.192500", "093442.652500", "093443.112500", "093443.572500", "093444.032500", "093444.492500", "093444.952500", "093445.412500", "093445.872500", "093446.332500", "093446.792500", "093447.252500", "093447.712500", "093448.172500", "093448.632500", "093449.092500", "093449.552500", "093450.012500", "093450.472500", "093450.932500", "093451.392500", "093451.852500", "093452.312500", "093452.772500", "093453.232500", "093453.692500", "093454.152500", "093454.612500", "093455.072500", "093455.532500", "093455.992500", "093456.452500", "093456.912500", "093457.372500", "093457.832500", "093458.292500", "093458.752500", "093459.212500", "093459.672500", "093500.132500", "093500.592500", "093501.052500", "093501.512500", "093501.972500", "093502.432500", "093502.892500", "093503.352500", "093503.812500", "093504.272500", "093504.732500", "093505.192500", "093505.652500", "093506.112500", "093506.572500", "093507.032500", "093507.492500", "093507.952500", "093508.412500", "093508.872500", "093509.332500", "093509.792500", "093510.252500", "093510.712500", "093511.172500", "093511.632500", "093512.092500", "093512.552500", "093513.012500", "093513.472500", "093513.932500", "093514.392500", "093514.852500", "093515.312500", "093515.772500", "093516.232500", "093516.692500", "093517.152500", "093517.612500", "093518.072500", "093518.532500", "093518.992500", "093519.452500", "093519.912500", "093520.372500", "093520.832500", "093521.292500", "093521.752500", "093522.212500", "093522.672500", "093523.132500", "093523.592500", "093524.052500", "093524.512500", "093524.972500", "093525.432500", "093525.892500", "093526.352500", "093526.812500", "093527.272500", "093527.732500", "093528.192500", "093528.652500", "093529.112500", "093529.572500", "093530.032500", "093530.492500", "093530.952500", "093531.412500", "093531.872500", "093532.332500", "093532.792500", "093533.252500", "093533.712500", "093534.172500", "093534.632500", "093535.092500", "093535.552500", "093536.012500", "093536.472500", "093536.932500", "093537.392500", "093537.852500", "093538.312500", "093538.772500", "093539.232500", "093539.692500", "093540.152500", "093540.612500", "093541.072500", "093541.532500", "093541.992500", "093542.452500", "093542.912500", "093543.372500", "093543.832500", "093544.292500", "093544.752500", "093545.212500", "093545.672500", "093546.132500", "093546.592500", "093547.052500", "093547.512500", "093547.972500", "093548.432500", "093548.892500", "093549.352500", "093549.812500", "093550.272500", "093550.732500", "093551.192500", "093551.652500", "093552.112500", "093552.572500", "093553.032500", "093553.492500", "093553.952500", "093554.412500", "093554.872500", "093555.332500", "093555.792500", "093556.252500", "093556.712500", "093557.172500", "093557.632500", "093558.092500", "093558.552500", "093559.012500", "093559.472500", "093559.932500", "093600.392500", "093600.852500", "093601.312500", "093601.772500", "093602.232500", "093602.692500", "093603.152500", "093603.612500", "093604.072500", "093604.532500", "093604.992500", "093605.452500", "093605.912500", "093606.372500", "093606.832500", "093607.292500", "093607.752500", "093608.212500", "093608.672500", "093609.132500", "093609.592500", "093610.052500", "093610.512500", "093610.972500", "093611.432500", "093611.892500", "093612.352500", "093612.812500", "093613.272500", "093613.732500", "093614.192500", "093614.652500", "093615.112500", "093615.572500", "093616.032500", "093616.492500", "093616.952500", "093617.412500", "093617.872500", "093618.332500", "093618.792500", "093619.252500", "093619.712500", "093620.172500", "093620.632500", "093621.092500", "093621.552500", "093622.012500", "093622.472500", "093622.932500", "093623.392500", "093623.852500", "093624.312500", "093624.772500", "093625.232500", "093625.692500", "093626.152500", "093626.612500", "093627.072500", "093627.532500", "093627.992500", "093628.452500", "093628.912500", "093629.372500", "093629.832500", "093630.292500", "093630.752500", "093631.212500", "093631.672500", "093632.132500"],
