{
  "AcquisitionMatrixPE": 82,
  "AcquisitionNumber": 1,
  "AcquisitionTime": "08:57:12.607500",
  "BandwidthPerPixelPhaseEncode": 24.888,
  "BaseResolution": 82,
  "BodyPartExamined": "BRAIN",
  "ConsistencyInfo": "N4_VE11E_LATEST_20181129",
  "ConversionSoftware": "dcm2niix",
  "ConversionSoftwareVersion": "v1.0.20201102",
  "DerivedVendorReportedEchoSpacing": 0.00049,
  "DeviceSerialNumber": "66112",
  "DwellTime": 2e-06,
  "EchoTime": 0.0272,
  "EchoTrainLength": 82,
  "EffectiveEchoSpacing": 0.00049,
  "FlipAngle": 44,
  "ImageComments": "Unaliased MB8/PE3",
  "ImageOrientationPatientDICOM": [0.998007, 0.0631031, 0.001013, -0.0626144, 0.988013, 0.141103],
  "ImageType": [
    "ORIGINAL",
    "PRIMARY",
    "M",
    "MB",
    "ND",
    "NORM",
    "MOSAIC"
],
  "ImagingFrequency": 123.252,
  "InPlanePhaseEncodingDirectionDICOM": "COL",
  "InstitutionAddress": "Maynard 3,Hanover,NH,US,03755",
  "InstitutionName": "Dartmouth College - PBS",
  "InstitutionalDepartmentName": "Department",
  "MRAcquisitionType": "2D",
  "MagneticFieldStrength": 3,
  "Manufacturer": "Siemens",
  "ManufacturersModelName": "Prisma",
  "Modality": "MR",
  "MultibandAccelerationFactor": 8,
  "PartialFourier": 1,
  "PatientPosition": "HFS",
  "PercentPhaseFOV": 100,
  "PercentSampling": 100,
  "PhaseEncodingDirection": "j-",
  "PhaseEncodingSteps": 82,
  "PhaseResolution": 1,
  "PixelBandwidth": 3050,
  "ProcedureStepDescription": "Wager_Wager^1076_spacetop",
  "ProtocolName": "func_run-01_task-social_acq-ap-mb8",
  "PulseSequenceDetails": "%CustomerSeq%\\cmrr_mbep2d_bold",
  "ReceiveCoilActiveElements": "HEA;HEP",
  "ReceiveCoilName": "Head_32",
  "ReconMatrixPE": 82,
  "RepetitionTime": 0.46,
  "SAR": 0.0884947,
  "ScanOptions": "FS",
  "ScanningSequence": "EP",
  "SequenceName": "epfid2d1_82",
  "SequenceVariant": "SK\\SS",
  "SeriesDescription": "func_run-01_task-social_acq-ap-mb8",
  "SeriesNumber": 14,
  "ShimSetting": [4168, -7857, -7356, 453, 90, -325, -186, 61],
  "SliceThickness": 2.7,
  "SliceTiming": [0, 0.25, 0.0625, 0.3125, 0.125, 0.375, 0.1875, 0, 0.25, 0.0625, 0.3125, 0.125, 0.375, 0.1875, 0, 0.25, 0.0625, 0.3125, 0.125, 0.375, 0.1875, 0, 0.25, 0.0625, 0.3125, 0.125, 0.375, 0.1875, 0, 0.25, 0.0625, 0.3125, 0.125, 0.375, 0.1875, 0, 0.25, 0.0625, 0.3125, 0.125, 0.375, 0.1875, 0, 0.25, 0.0625, 0.3125, 0.125, 0.375, 0.1875, 0, 0.25, 0.0625, 0.3125, 0.125, 0.375, 0.1875],
  "SoftwareVersions": "syngo MR E11",
  "SpacingBetweenSlices": 2.7,
  "StationName": "AWP66112",
  "TaskName": "social",
  "TotalReadoutTime": 0.03969,
  "TxRefAmp": 253.993,
  "WipMemBlock": "e219b066-2ac6-44fc-bc04-f4238d8b3c9c||Sequence: R016 ve11e/master r/434b28f1; Aug  7 2019 18:53:46 by eja",
  "dcmmeta_affine": [
    [-2.6775784492492676, -0.16798987984657288, -0.021338554099202156, 120.30944061279297],
    [-0.16930092871189117, 2.650766372680664, 0.38038939237594604, -86.44331359863281],
    [0.0027177943848073483, -0.37856853008270264, 2.672985076904297, -63.95380401611328],
    [0.0, 0.0, 0.0, 1.0]
],
  "dcmmeta_reorient_transform": [
    [0.0, -1.0, 0.0, 81.0],
    [1.0, 0.0, 0.0, 0.0],
    [0.0, 0.0, 1.0, 0.0],
    [0.0, 0.0, 0.0, 1.0]
],
  "dcmmeta_shape": [82, 82, 56, 872],
  "dcmmeta_slice_dim": 2,
  "dcmmeta_version": 0.6,
  "global": {
    "const": {
      "AccessionNumber": "A003862",
      "AcquisitionMatrix": [82, 0, 0, 82],
      "AngioFlag": "N",
      "BitsAllocated": 16,
      "BitsStored": 16,
      "BodyPartExamined": "BRAIN",
      "Columns": 656,
      "EchoNumbers": 1,
      "EchoTime": 27.2,
      "EchoTrainLength": 82,
      "FlipAngle": 44.0,
      "HighBit": 15,
      "ImageOrientationPatient": [0.998006500965, 0.0631030733849, 0.00101299604533, -0.0626144070182, 0.98801287040267, 0.14110281341079],
      "ImagePositionPatient": [-826.95418796036, -937.62805154112, -204.04703035436],
      "ImageType": [
        "ORIGINAL",
        "PRIMARY",
        "M",
        "MB",
        "ND",
        "NORM",
        "MOSAIC"
],
      "ImagedNucleus": "1H",
      "ImagingFrequency": 123.252269,
      "InPlanePhaseEncodingDirection": "COL",
      "MRAcquisitionType": "2D",
      "MagneticFieldStrength": 3.0,
      "Manufacturer": "SIEMENS",
      "ManufacturerModelName": "Prisma",
      "Modality": "MR",
      "NumberOfAverages": 1.0,
      "NumberOfPhaseEncodingSteps": 82,
      "PercentPhaseFieldOfView": 100.0,
      "PercentSampling": 100.0,
      "PerformedProcedureStepStartTime": "080509.608000",
      "PhotometricInterpretation": "MONOCHROME2",
      "PixelBandwidth": 3050.0,
      "PixelRepresentation": 0,
      "PixelSpacing": [2.6829268932343, 2.6829268932343],
      "ProtocolName": "func_run-01_task-social_acq-ap-mb8",
      "RepetitionTime": 460.0,
      "Rows": 656,
      "SAR": 0.08849470588348,
      "SamplesPerPixel": 1,
      "ScanOptions": "FS",
      "ScanningSequence": "EP",
      "SequenceName": "epfid2d1_82",
      "SequenceVariant": [
        "SK",
        "SS"
],
      "SeriesDescription": "func_run-01_task-social_acq-ap-mb8",
      "SeriesNumber": 14,
      "SeriesTime": "085735.396000",
      "SliceLocation": -76.443297080964,
      "SliceThickness": 2.7000000476837,
      "SmallestImagePixelValue": 0,
      "SoftwareVersions": "syngo MR E11",
      "SpacingBetweenSlices": 2.7000000451434,
      "SpecificCharacterSet": "ISO_IR 100",
      "StudyID": "1",
      "StudyTime": "080509.464000",
      "TransmitCoilName": "Body",
      "VariableFlipAngleFlag": "N",
      "WindowCenterWidthExplanation": "Algo1"
    },
    "slices": {}
  },
  "time": {
    "samples": {
      "AcquisitionNumber": [1, 2, 3, 4, 5, 6, 7, 8, 9, 10, 11, 12, 13, 14, 15, 16, 17, 18, 19, 20, 21, 22, 23, 24, 25, 26, 27, 28, 29, 30, 31, 32, 33, 34, 35, 36, 37, 38, 39, 40, 41, 42, 43, 44, 45, 46, 47, 48, 49, 50, 51, 52, 53, 54, 55, 56, 57, 58, 59, 60, 61, 62, 63, 64, 65, 66, 67, 68, 69, 70, 71, 72, 73, 74, 75, 76, 77, 78, 79, 80, 81, 82, 83, 84, 85, 86, 87, 88, 89, 90, 91, 92, 93, 94, 95, 96, 97, 98, 99, 100, 101, 102, 103, 104, 105, 106, 107, 108, 109, 110, 111, 112, 113, 114, 115, 116, 117, 118, 119, 120, 121, 122, 123, 124, 125, 126, 127, 128, 129, 130, 131, 132, 133, 134, 135, 136, 137, 138, 139, 140, 141, 142, 143, 144, 145, 146, 147, 148, 149, 150, 151, 152, 153, 154, 155, 156, 157, 158, 159, 160, 161, 162, 163, 164, 165, 166, 167, 168, 169, 170, 171, 172, 173, 174, 175, 176, 177, 178, 179, 180, 181, 182, 183, 184, 185, 186, 187, 188, 189, 190, 191, 192, 193, 194, 195, 196, 197, 198, 199, 200, 201, 202, 203, 204, 205, 206, 207, 208, 209, 210, 211, 212, 213, 214, 215, 216, 217, 218, 219, 220, 221, 222, 223, 224, 225, 226, 227, 228, 229, 230, 231, 232, 233, 234, 235, 236, 237, 238, 239, 240, 241, 242, 243, 244, 245, 246, 247, 248, 249, 250, 251, 252, 253, 254, 255, 256, 257, 258, 259, 260, 261, 262, 263, 264, 265, 266, 267, 268, 269, 270, 271, 272, 273, 274, 275, 276, 277, 278, 279, 280, 281, 282, 283, 284, 285, 286, 287, 288, 289, 290, 291, 292, 293, 294, 295, 296, 297, 298, 299, 300, 301, 302, 303, 304, 305, 306, 307, 308, 309, 310, 311, 312, 313, 314, 315, 316, 317, 318, 319, 320, 321, 322, 323, 324, 325, 326, 327, 328, 329, 330, 331, 332, 333, 334, 335, 336, 337, 338, 339, 340, 341, 342, 343, 344, 345, 346, 347, 348, 349, 350, 351, 352, 353, 354, 355, 356, 357, 358, 359, 360, 361, 362, 363, 364, 365, 366, 367, 368, 369, 370, 371, 372, 373, 374, 375, 376, 377, 378, 379, 380, 381, 382, 383, 384, 385, 386, 387, 388, 389, 390, 391, 392, 393, 394, 395, 396, 397, 398, 399, 400, 401, 402, 403, 404, 405, 406, 407, 408, 409, 410, 411, 412, 413, 414, 415, 416, 417, 418, 419, 420, 421, 422, 423, 424, 425, 426, 427, 428, 429, 430, 431, 432, 433, 434, 435, 436, 437, 438, 439, 440, 441, 442, 443, 444, 445, 446, 447, 448, 449, 450, 451, 452, 453, 454, 455, 456, 457, 458, 459, 460, 461, 462, 463, 464, 465, 466, 467, 468, 469, 470, 471, 472, 473, 474, 475, 476, 477, 478, 479, 480, 481, 482, 483, 484, 485, 486, 487, 488, 489, 490, 491, 492, 493, 494, 495, 496, 497, 498, 499, 500, 501, 502, 503, 504, 505, 506, 507, 508, 509, 510, 511, 512, 513, 514, 515, 516, 517, 518, 519, 520, 521, 522, 523, 524, 525, 526, 527, 528, 529, 530, 531, 532, 533, 534, 535, 536, 537, 538, 539, 540, 541, 542, 543, 544, 545, 546, 547, 548, 549, 550, 551, 552, 553, 554, 555, 556, 557, 558, 559, 560, 561, 562, 563, 564, 565, 566, 567, 568, 569, 570, 571, 572, 573, 574, 575, 576, 577, 578, 579, 580, 581, 582, 583, 584, 585, 586, 587, 588, 589, 590, 591, 592, 593, 594, 595, 596, 597, 598, 599, 600, 601, 602, 603, 604, 605, 606, 607, 608, 609, 610, 611, 612, 613, 614, 615, 616, 617, 618, 619, 620, 621, 622, 623, 624, 625, 626, 627, 628, 629, 630, 631, 632, 633, 634, 635, 636, 637, 638, 639, 640, 641, 642, 643, 644, 645, 646, 647, 648, 649, 650, 651, 652, 653, 654, 655, 656, 657, 658, 659, 660, 661, 662, 663, 664, 665, 666, 667, 668, 669, 670, 671, 672, 673, 674, 675, 676, 677, 678, 679, 680, 681, 682, 683, 684, 685, 686, 687, 688, 689, 690, 691, 692, 693, 694, 695, 696, 697, 698, 699, 700, 701, 702, 703, 704, 705, 706, 707, 708, 709, 710, 711, 712, 713, 714, 715, 716, 717, 718, 719, 720, 721, 722, 723, 724, 725, 726, 727, 728, 729, 730, 731, 732, 733, 734, 735, 736, 737, 738, 739, 740, 741, 742, 743, 744, 745, 746, 747, 748, 749, 750, 751, 752, 753, 754, 755, 756, 757, 758, 759, 760, 761, 762, 763, 764, 765, 766, 767, 768, 769, 770, 771, 772, 773, 774, 775, 776, 777, 778, 779, 780, 781, 782, 783, 784, 785, 786, 787, 788, 789, 790, 791, 792, 793, 794, 795, 796, 797, 798, 799, 800, 801, 802, 803, 804, 805, 806, 807, 808, 809, 810, 811, 812, 813, 814, 815, 816, 817, 818, 819, 820, 821, 822, 823, 824, 825, 826, 827, 828, 829, 830, 831, 832, 833, 834, 835, 836, 837, 838, 839, 840, 841, 842, 843, 844, 845, 846, 847, 848, 849, 850, 851, 852, 853, 854, 855, 856, 857, 858, 859, 860, 861, 862, 863, 864, 865, 866, 867, 868, 869, 870, 871, 872],
      "AcquisitionTime": ["085712.607500", "085713.067500", "085713.527500", "085713.987500", "085714.447500", "085714.907500", "085715.367500", "085715.827500", "085716.287500", "085716.747500", "085717.207500", "085717.667500", "085718.127500", "085718.587500", "085719.047500", "085719.507500", "085719.967500", "085720.427500", "085720.887500", "085721.347500", "085721.807500", "085722.267500", "085722.727500", "085723.187500", "085723.647500", "085724.107500", "085724.567500", "085725.027500", "085725.487500", "085725.947500", "085726.407500", "085726.867500", "085727.327500", "085727.787500", "085728.247500", "085728.707500", "085729.167500", "085729.627500", "085730.087500", "085730.547500", "085731.007500", "085731.467500", "085731.927500", "085732.387500", "085732.847500", "085733.307500", "085733.767500", "085734.227500", "085734.687500", "085735.147500", "085735.607500", "085736.067500", "085736.527500", "085736.987500", "085737.447500", "085737.907500", "085738.367500", "085738.827500", "085739.287500", "085739.747500", "085740.207500", "085740.667500", "085741.127500", "085741.587500", "085742.047500", "085742.507500", "085742.967500", "085743.427500", "085743.887500", "085744.347500", "085744.807500", "085745.267500", "085745.727500", "085746.187500", "085746.647500", "085747.107500", "085747.567500", "085748.027500", "085748.487500", "085748.947500", "085749.407500", "085749.867500", "085750.327500", "085750.787500", "085751.247500", "085751.707500", "085752.167500", "085752.627500", "085753.087500", "085753.547500", "085754.007500", "085754.467500", "085754.927500", "085755.387500", "085755.847500", "085756.307500", "085756.767500", "085757.227500", "085757.687500", "085758.147500", "085758.607500", "085759.067500", "085759.527500", "085759.987500", "085800.447500", "085800.907500", "085801.367500", "085801.827500", "085802.287500", "085802.747500", "085803.207500", "085803.667500", "085804.127500", "085804.587500", "085805.047500", "085805.507500", "085805.967500", "085806.427500", "085806.887500", "085807.347500", "085807.807500", "085808.267500", "085808.727500", "085809.187500", "085809.647500", "085810.107500", "085810.567500", "085811.027500", "085811.487500", "085811.947500", "085812.407500", "085812.867500", "085813.327500", "085813.787500", "085814.247500", "085814.707500", "085815.167500", "085815.627500", "085816.087500", "085816.547500", "085817.007500", "085817.467500", "085817.927500", "085818.387500", "085818.847500", "085819.307500", "085819.767500", "085820.227500", "085820.687500", "085821.147500", "085821.607500", "085822.067500", "085822.527500", "085822.987500", "085823.447500", "085823.907500", "085824.367500", "085824.827500", "085825.287500", "085825.747500", "085826.207500", "085826.667500", "085827.127500", "085827.587500", "085828.047500", "085828.507500", "085828.967500", "085829.427500", "085829.887500", "085830.347500", "085830.807500", "085831.267500", "085831.727500", "085832.187500", "085832.647500", "085833.107500", "085833.567500", "085834.027500", "085834.487500", "085834.947500", "085835.407500", "085835.867500", "085836.327500", "085836.787500", "085837.247500", "085837.707500", "085838.167500", "085838.627500", "085839.087500", "085839.547500", "085840.007500", "085840.467500", "085840.927500", "085841.387500", "085841.847500", "085842.307500", "085842.767500", "085843.227500", "085843.687500", "085844.147500", "085844.607500", "085845.067500", "085845.527500", "085845.987500", "085846.447500", "085846.907500", "085847.367500", "085847.827500", "085848.287500", "085848.747500", "085849.207500", "085849.667500", "085850.127500", "085850.587500", "085851.047500", "085851.507500", "085851.967500", "085852.427500", "085852.887500", "085853.347500", "085853.807500", "085854.267500", "085854.727500", "085855.187500", "085855.647500", "085856.107500", "085856.567500", "085857.027500", "085857.487500", "085857.947500", "085858.407500", "085858.867500", "085859.327500", "085859.787500", "085900.247500", "085900.707500", "085901.167500", "085901.627500", "085902.087500", "085902.547500", "085903.007500", "085903.467500", "085903.927500", "085904.387500", "085904.847500", "085905.307500", "085905.767500", "085906.227500", "085906.687500", "085907.147500", "085907.607500", "085908.067500", "085908.527500", "085908.987500", "085909.447500", "085909.907500", "085910.367500", "085910.827500", "085911.287500", "085911.747500", "085912.207500", "085912.667500", "085913.127500", "085913.587500", "085914.047500", "085914.507500", "085914.967500", "085915.427500", "085915.887500", "085916.347500", "085916.807500", "085917.267500", "085917.727500", "085918.187500", "085918.647500", "085919.107500", "085919.567500", "085920.027500", "085920.487500", "085920.947500", "085921.407500", "085921.867500", "085922.327500", "085922.787500", "085923.247500", "085923.707500", "085924.167500", "085924.627500", "085925.087500", "085925.547500", "085926.007500", "085926.467500", "085926.927500", "085927.387500", "085927.847500", "085928.307500", "085928.767500", "085929.227500", "085929.687500", "085930.147500", "085930.607500", "085931.067500", "085931.527500", "085931.987500", "085932.447500", "085932.907500", "085933.367500", "085933.827500", "085934.287500", "085934.747500", "085935.207500", "085935.667500", "085936.127500", "085936.587500", "085937.047500", "085937.507500", "085937.967500", "085938.427500", "085938.887500", "085939.347500", "085939.807500", "085940.267500", "085940.727500", "085941.187500", "085941.647500", "085942.107500", "085942.567500", "085943.027500", "085943.487500", "085943.947500", "085944.407500", "085944.867500", "085945.327500", "085945.787500", "085946.247500", "085946.707500", "085947.167500", "085947.627500", "085948.087500", "085948.547500", "085949.007500", "085949.467500", "085949.927500", "085950.387500", "085950.847500", "085951.307500", "085951.767500", "085952.227500", "085952.687500", "085953.147500", "085953.607500", "085954.067500", "085954.527500", "085954.987500", "085955.447500", "085955.907500", "085956.367500", "085956.827500", "085957.287500", "085957.747500", "085958.207500", "085958.667500", "085959.127500", "085959.587500", "090000.047500", "090000.507500", "090000.967500", "090001.427500", "090001.887500", "090002.347500", "090002.807500", "090003.267500", "090003.727500", "090004.187500", "090004.647500", "090005.107500", "090005.567500", "090006.027500", "090006.487500", "090006.947500", "090007.407500", "090007.867500", "090008.327500", "090008.787500", "090009.247500", "090009.707500", "090010.167500", "090010.627500", "090011.087500", "090011.547500", "090012.007500", "090012.467500", "090012.927500", "090013.387500", "090013.847500", "090014.307500", "090014.767500", "090015.227500", "090015.687500", "090016.147500", "090016.607500", "090017.067500", "090017.527500", "090017.987500", "090018.447500", "090018.907500", "090019.367500", "090019.827500", "090020.287500", "090020.747500", "090021.207500", "090021.667500", "090022.127500", "090022.587500", "090023.047500", "090023.507500", "090023.967500", "090024.427500", "090024.887500", "090025.347500", "090025.807500", "090026.267500", "090026.727500", "090027.187500", "090027.647500", "090028.107500", "090028.567500", "090029.027500", "090029.487500", "090029.947500", "090030.407500", "090030.867500", "090031.327500", "090031.787500", "090032.247500", "090032.707500", "090033.167500", "090033.627500", "090034.087500", "090034.547500", "090035.007500", "090035.467500", "090035.927500", "090036.387500", "090036.847500", "090037.307500", "090037.767500", "090038.227500", "090038.687500", "090039.147500", "090039.607500", "090040.067500", "090040.527500", "090040.987500", "090041.447500", "090041.907500", "090042.367500", "090042.827500", "090043.287500", "090043.747500", "090044.207500", "090044.667500", "090045.127500", "090045.587500", "090046.047500", "090046.507500", "090046.967500", "090047.427500", "090047.887500", "090048.347500", "090048.807500", "090049.267500", "090049.727500", "090050.187500", "090050.647500", "090051.107500", "090051.567500", "090052.027500", "090052.487500", "090052.947500", "090053.407500", "090053.867500", "090054.327500", "090054.787500", "090055.247500", "090055.707500", "090056.167500", "090056.627500", "090057.087500", "090057.547500", "090058.007500", "090058.467500", "090058.927500", "090059.387500", "090059.847500", "090100.307500", "090100.767500", "090101.227500", "090101.687500", "090102.147500", "090102.607500", "090103.067500", "090103.527500", "090103.987500", "090104.447500", "090104.907500", "090105.367500", "090105.827500", "090106.287500", "090106.747500", "090107.207500", "090107.667500", "090108.127500", "090108.587500", "090109.047500", "090109.507500", "090109.967500", "090110.427500", "090110.887500", "090111.347500", "090111.807500", "090112.267500", "090112.727500", "090113.187500", "090113.647500", "090114.107500", "090114.567500", "090115.027500", "090115.487500", "090115.947500", "090116.407500", "090116.867500", "090117.327500", "090117.787500", "090118.247500", "090118.707500", "090119.167500", "090119.627500", "090120.087500", "090120.547500", "090121.007500", "090121.467500", "090121.927500", "090122.387500", "090122.847500", "090123.307500", "090123.767500", "090124.227500", "090124.687500", "090125.147500", "090125.607500", "090126.067500", "090126.527500", "090126.987500", "090127.447500", "090127.907500", "090128.367500", "090128.827500", "090129.287500", "090129.747500", "090130.207500", "090130.667500", "090131.127500", "090131.587500", "090132.047500", "090132.507500", "090132.967500", "090133.427500", "090133.887500", "090134.347500", "090134.807500", "090135.267500", "090135.727500", "090136.187500", "090136.647500", "090137.107500", "090137.567500", "090138.027500", "090138.487500", "090138.947500", "090139.407500", "090139.867500", "090140.327500", "090140.787500", "090141.247500", "090141.707500", "090142.167500", "090142.627500", "090143.087500", "090143.547500", "090144.007500", "090144.467500", "090144.927500", "090145.387500", "090145.847500", "090146.307500", "090146.767500", "090147.227500", "090147.687500", "090148.147500", "090148.607500", "090149.067500", "090149.527500", "090149.987500", "090150.447500", "090150.907500", "090151.367500", "090151.827500", "090152.287500", "090152.747500", "090153.207500", "090153.667500", "090154.127500", "090154.587500", "090155.047500", "090155.507500", "090155.967500", "090156.427500", "090156.887500", "090157.347500", "090157.807500", "090158.267500", "090158.727500", "090159.187500", "090159.647500", "090200.107500", "090200.567500", "090201.027500", "090201.487500", "090201.947500", "090202.407500", "090202.867500", "090203.327500", "090203.787500", "090204.247500", "090204.707500", "090205.167500", "090205.627500", "090206.087500", "090206.547500", "090207.007500", "090207.467500", "090207.927500", "090208.387500", "090208.847500", "090209.307500", "090209.767500", "090210.227500", "090210.687500", "090211.147500", "090211.607500", "090212.067500", "090212.527500", "090212.987500", "090213.447500", "090213.907500", "090214.367500", "090214.827500", "090215.287500", "090215.747500", "090216.207500", "090216.667500", "090217.127500", "090217.587500", "090218.047500", "090218.507500", "090218.967500", "090219.427500", "090219.887500", "090220.347500", "090220.807500", "090221.267500", "090221.727500", "090222.187500", "090222.647500", "090223.107500", "090223.567500", "090224.027500", "090224.487500", "090224.947500", "090225.407500", "090225.867500", "090226.327500", "090226.787500", "090227.247500", "090227.707500", "090228.167500", "090228.627500", "090229.087500", "090229.547500", "090230.007500", "090230.467500", "090230.927500", "090231.387500", "090231.847500", "090232.307500", "090232.767500", "090233.227500", "090233.687500", "090234.147500", "090234.607500", "090235.067500", "090235.527500", "090235.987500", "090236.447500", "090236.907500", "090237.367500", "090237.827500", "090238.287500", "090238.747500", "090239.207500", "090239.667500", "090240.127500", "090240.587500", "090241.047500", "090241.507500", "090241.967500", "090242.427500", "090242.887500", "090243.347500", "090243.807500", "090244.267500", "090244.727500", "090245.187500", "090245.647500", "090246.107500", "090246.567500", "090247.027500", "090247.487500", "090247.947500", "090248.407500", "090248.867500", "090249.327500", "090249.787500", "090250.247500", "090250.707500", "090251.167500", "090251.627500", "090252.087500", "090252.547500", "090253.007500", "090253.467500", "090253.927500", "090254.387500", "090254.847500", "090255.307500", "090255.767500", "090256.227500", "090256.687500", "090257.147500", "090257.607500", "090258.067500", "090258.527500", "090258.987500", "090259.447500", "090259.907500", "090300.367500", "090300.827500", "090301.287500", "090301.747500", "090302.207500", "090302.667500", "090303.127500", "090303.587500", "090304.047500", "090304.507500", "090304.967500", "090305.427500", "090305.887500", "090306.347500", "090306.807500", "090307.267500", "090307.727500", "090308.187500", "090308.647500", "090309.107500", "090309.567500", "090310.027500", "090310.487500", "090310.947500", "090311.407500", "090311.867500", "090312.327500", "090312.787500", "090313.247500", "090313.707500", "090314.167500", "090314.627500", "090315.087500", "090315.547500", "090316.007500", "090316.467500", "090316.927500", "090317.387500", "090317.847500", "090318.307500", "090318.767500", "090319.227500", "090319.687500", "090320.147500", "090320.607500", "090321.067500", "090321.527500", "090321.987500", "090322.447500", "090322.907500", "090323.367500", "090323.827500", "090324.287500", "090324.747500", "090325.207500", "090325.667500", "090326.127500", "090326.587500", "090327.047500", "090327.507500", "090327.967500", "090328.427500", "090328.887500", "090329.347500", "090329.807500", "090330.267500", "090330.727500", "090331.187500", "090331.647500", "090332.107500", "090332.567500", "090333.027500", "090333.487500", "090333.947500", "090334.407500", "090334.867500", "090335.327500", "090335.787500", "090336.247500", "090336.707500", "090337.167500", "090337.627500", "090338.087500", "090338.547500", "090339.007500", "090339.467500", "090339.927500", "090340.387500", "090340.847500", "090341.307500", "090341.767500", "090342.227500", "090342.687500", "090343.147500", "090343.607500", "090344.067500", "090344.527500", "090344.987500", "090345.447500", "090345.907500", "090346.367500", "090346.827500", "090347.287500", "090347.747500", "090348.207500", "090348.667500", "090349.127500", "090349.587500", "090350.047500", "090350.507500", "090350.967500", "090351.427500", "090351.887500", "090352.347500", "090352.807500", "090353.267500"],
