{
  "AcquisitionMatrixPE": 82,
  "AcquisitionNumber": 1,
  "AcquisitionTime": "09:13:18.660000",
  "BandwidthPerPixelPhaseEncode": 24.888,
  "BaseResolution": 82,
  "BodyPartExamined": "BRAIN",
  "ConsistencyInfo": "N4_VE11E_LATEST_20181129",
  "ConversionSoftware": "dcm2niix",
  "ConversionSoftwareVersion": "v1.0.20201102",
  "DerivedVendorReportedEchoSpacing": 0.00049,
  "DeviceSerialNumber": "66112",
  "DwellTime": 2e-06,
  "EchoTime": 0.0272,
  "EchoTrainLength": 82,
  "EffectiveEchoSpacing": 0.00049,
  "FlipAngle": 44,
  "ImageComments": "Unaliased MB8/PE3",
  "ImageOrientationPatientDICOM": [0.998007, 0.0631031, 0.001013, -0.0626144, 0.988013, 0.141103],
  "ImageType": [
    "ORIGINAL",
    "PRIMARY",
    "M",
    "MB",
    "ND",
    "NORM",
    "MOSAIC"
],
  "ImagingFrequency": 123.252,
  "InPlanePhaseEncodingDirectionDICOM": "COL",
  "InstitutionAddress": "Maynard 3,Hanover,NH,US,03755",
  "InstitutionName": "Dartmouth College - PBS",
  "InstitutionalDepartmentName": "Department",
  "MRAcquisitionType": "2D",
  "MagneticFieldStrength": 3,
  "Manufacturer": "Siemens",
  "ManufacturersModelName": "Prisma",
  "Modality": "MR",
  "MultibandAccelerationFactor": 8,
  "PartialFourier": 1,
  "PatientPosition": "HFS",
  "PercentPhaseFOV": 100,
  "PercentSampling": 100,
  "PhaseEncodingDirection": "j-",
  "PhaseEncodingSteps": 82,
  "PhaseResolution": 1,
  "PixelBandwidth": 3050,
  "ProcedureStepDescription": "Wager_Wager^1076_spacetop",
  "ProtocolName": "func_run-03_task-social_acq-ap-mb8",
  "PulseSequenceDetails": "%CustomerSeq%\\cmrr_mbep2d_bold",
  "ReceiveCoilActiveElements": "HEA;HEP",
  "ReceiveCoilName": "Head_32",
  "ReconMatrixPE": 82,
  "RepetitionTime": 0.46,
  "SAR": 0.0884947,
  "ScanOptions": "FS",
  "ScanningSequence": "EP",
  "SequenceName": "epfid2d1_82",
  "SequenceVariant": "SK\\SS",
  "SeriesDescription": "func_run-03_task-social_acq-ap-mb8",
  "SeriesNumber": 18,
  "ShimSetting": [4168, -7857, -7356, 453, 90, -325, -186, 61],
  "SliceThickness": 2.7,
  "SliceTiming": [0, 0.2525, 0.0625, 0.315, 0.1275, 0.3775, 0.19, 0, 0.2525, 0.0625, 0.315, 0.1275, 0.3775, 0.19, 0, 0.2525, 0.0625, 0.315, 0.1275, 0.3775, 0.19, 0, 0.2525, 0.0625, 0.315, 0.1275, 0.3775, 0.19, 0, 0.2525, 0.0625, 0.315, 0.1275, 0.3775, 0.19, 0, 0.2525, 0.0625, 0.315, 0.1275, 0.3775, 0.19, 0, 0.2525, 0.0625, 0.315, 0.1275, 0.3775, 0.19, 0, 0.2525, 0.0625, 0.315, 0.1275, 0.3775, 0.19],
  "SoftwareVersions": "syngo MR E11",
  "SpacingBetweenSlices": 2.7,
  "StationName": "AWP66112",
  "TaskName": "social",
  "TotalReadoutTime": 0.03969,
  "TxRefAmp": 253.993,
  "WipMemBlock": "072b030c-3510-4685-a6a0-cbcdff8e5bd1||Sequence: R016 ve11e/master r/434b28f1; Aug  7 2019 18:53:46 by eja",
  "dcmmeta_affine": [
    [-2.6775784492492676, -0.16798987984657288, -0.021338554099202156, 120.30944061279297],
    [-0.16930092871189117, 2.650766372680664, 0.38038939237594604, -86.44331359863281],
    [0.0027177943848073483, -0.37856853008270264, 2.672985076904297, -63.95380401611328],
    [0.0, 0.0, 0.0, 1.0]
],
  "dcmmeta_reorient_transform": [
    [0.0, -1.0, 0.0, 81.0],
    [1.0, 0.0, 0.0, 0.0],
    [0.0, 0.0, 1.0, 0.0],
    [0.0, 0.0, 0.0, 1.0]
],
  "dcmmeta_shape": [82, 82, 56, 872],
  "dcmmeta_slice_dim": 2,
  "dcmmeta_version": 0.6,
  "global": {
    "const": {
      "AccessionNumber": "A003862",
      "AcquisitionMatrix": [82, 0, 0, 82],
      "AngioFlag": "N",
      "BitsAllocated": 16,
      "BitsStored": 16,
      "BodyPartExamined": "BRAIN",
      "Columns": 656,
      "EchoNumbers": 1,
      "EchoTime": 27.2,
      "EchoTrainLength": 82,
      "FlipAngle": 44.0,
      "HighBit": 15,
      "ImageOrientationPatient": [0.998006500965, 0.0631030733849, 0.00101299604533, -0.0626144070182, 0.98801287040267, 0.14110281341079],
      "ImagePositionPatient": [-826.95418796036, -937.62805154112, -204.04703035436],
      "ImageType": [
        "ORIGINAL",
        "PRIMARY",
        "M",
        "MB",
        "ND",
        "NORM",
        "MOSAIC"
],
      "ImagedNucleus": "1H",
      "ImagingFrequency": 123.252264,
      "InPlanePhaseEncodingDirection": "COL",
      "MRAcquisitionType": "2D",
      "MagneticFieldStrength": 3.0,
      "Manufacturer": "SIEMENS",
      "ManufacturerModelName": "Prisma",
      "Modality": "MR",
      "NumberOfAverages": 1.0,
      "NumberOfPhaseEncodingSteps": 82,
      "PercentPhaseFieldOfView": 100.0,
      "PercentSampling": 100.0,
      "PerformedProcedureStepStartTime": "080509.608000",
      "PhotometricInterpretation": "MONOCHROME2",
      "PixelBandwidth": 3050.0,
      "PixelRepresentation": 0,
      "PixelSpacing": [2.6829268932343, 2.6829268932343],
      "ProtocolName": "func_run-03_task-social_acq-ap-mb8",
      "RepetitionTime": 460.0,
      "Rows": 656,
      "SAR": 0.08849470588348,
      "SamplesPerPixel": 1,
      "ScanOptions": "FS",
      "ScanningSequence": "EP",
      "SequenceName": "epfid2d1_82",
      "SequenceVariant": [
        "SK",
        "SS"
],
      "SeriesDescription": "func_run-03_task-social_acq-ap-mb8",
      "SeriesNumber": 18,
      "SeriesTime": "091335.259000",
      "SliceLocation": -76.443297080964,
      "SliceThickness": 2.7000000476837,
      "SmallestImagePixelValue": 0,
      "SoftwareVersions": "syngo MR E11",
      "SpacingBetweenSlices": 2.7000000451434,
      "SpecificCharacterSet": "ISO_IR 100",
      "StudyID": "1",
      "StudyTime": "080509.464000",
      "TransmitCoilName": "Body",
      "VariableFlipAngleFlag": "N",
      "WindowCenterWidthExplanation": "Algo1"
    },
    "slices": {}
  },
  "time": {
    "samples": {
      "AcquisitionNumber": [1, 2, 3, 4, 5, 6, 7, 8, 9, 10, 11, 12, 13, 14, 15, 16, 17, 18, 19, 20, 21, 22, 23, 24, 25, 26, 27, 28, 29, 30, 31, 32, 33, 34, 35, 36, 37, 38, 39, 40, 41, 42, 43, 44, 45, 46, 47, 48, 49, 50, 51, 52, 53, 54, 55, 56, 57, 58, 59, 60, 61, 62, 63, 64, 65, 66, 67, 68, 69, 70, 71, 72, 73, 74, 75, 76, 77, 78, 79, 80, 81, 82, 83, 84, 85, 86, 87, 88, 89, 90, 91, 92, 93, 94, 95, 96, 97, 98, 99, 100, 101, 102, 103, 104, 105, 106, 107, 108, 109, 110, 111, 112, 113, 114, 115, 116, 117, 118, 119, 120, 121, 122, 123, 124, 125, 126, 127, 128, 129, 130, 131, 132, 133, 134, 135, 136, 137, 138, 139, 140, 141, 142, 143, 144, 145, 146, 147, 148, 149, 150, 151, 152, 153, 154, 155, 156, 157, 158, 159, 160, 161, 162, 163, 164, 165, 166, 167, 168, 169, 170, 171, 172, 173, 174, 175, 176, 177, 178, 179, 180, 181, 182, 183, 184, 185, 186, 187, 188, 189, 190, 191, 192, 193, 194, 195, 196, 197, 198, 199, 200, 201, 202, 203, 204, 205, 206, 207, 208, 209, 210, 211, 212, 213, 214, 215, 216, 217, 218, 219, 220, 221, 222, 223, 224, 225, 226, 227, 228, 229, 230, 231, 232, 233, 234, 235, 236, 237, 238, 239, 240, 241, 242, 243, 244, 245, 246, 247, 248, 249, 250, 251, 252, 253, 254, 255, 256, 257, 258, 259, 260, 261, 262, 263, 264, 265, 266, 267, 268, 269, 270, 271, 272, 273, 274, 275, 276, 277, 278, 279, 280, 281, 282, 283, 284, 285, 286, 287, 288, 289, 290, 291, 292, 293, 294, 295, 296, 297, 298, 299, 300, 301, 302, 303, 304, 305, 306, 307, 308, 309, 310, 311, 312, 313, 314, 315, 316, 317, 318, 319, 320, 321, 322, 323, 324, 325, 326, 327, 328, 329, 330, 331, 332, 333, 334, 335, 336, 337, 338, 339, 340, 341, 342, 343, 344, 345, 346, 347, 348, 349, 350, 351, 352, 353, 354, 355, 356, 357, 358, 359, 360, 361, 362, 363, 364, 365, 366, 367, 368, 369, 370, 371, 372, 373, 374, 375, 376, 377, 378, 379, 380, 381, 382, 383, 384, 385, 386, 387, 388, 389, 390, 391, 392, 393, 394, 395, 396, 397, 398, 399, 400, 401, 402, 403, 404, 405, 406, 407, 408, 409, 410, 411, 412, 413, 414, 415, 416, 417, 418, 419, 420, 421, 422, 423, 424, 425, 426, 427, 428, 429, 430, 431, 432, 433, 434, 435, 436, 437, 438, 439, 440, 441, 442, 443, 444, 445, 446, 447, 448, 449, 450, 451, 452, 453, 454, 455, 456, 457, 458, 459, 460, 461, 462, 463, 464, 465, 466, 467, 468, 469, 470, 471, 472, 473, 474, 475, 476, 477, 478, 479, 480, 481, 482, 483, 484, 485, 486, 487, 488, 489, 490, 491, 492, 493, 494, 495, 496, 497, 498, 499, 500, 501, 502, 503, 504, 505, 506, 507, 508, 509, 510, 511, 512, 513, 514, 515, 516, 517, 518, 519, 520, 521, 522, 523, 524, 525, 526, 527, 528, 529, 530, 531, 532, 533, 534, 535, 536, 537, 538, 539, 540, 541, 542, 543, 544, 545, 546, 547, 548, 549, 550, 551, 552, 553, 554, 555, 556, 557, 558, 559, 560, 561, 562, 563, 564, 565, 566, 567, 568, 569, 570, 571, 572, 573, 574, 575, 576, 577, 578, 579, 580, 581, 582, 583, 584, 585, 586, 587, 588, 589, 590, 591, 592, 593, 594, 595, 596, 597, 598, 599, 600, 601, 602, 603, 604, 605, 606, 607, 608, 609, 610, 611, 612, 613, 614, 615, 616, 617, 618, 619, 620, 621, 622, 623, 624, 625, 626, 627, 628, 629, 630, 631, 632, 633, 634, 635, 636, 637, 638, 639, 640, 641, 642, 643, 644, 645, 646, 647, 648, 649, 650, 651, 652, 653, 654, 655, 656, 657, 658, 659, 660, 661, 662, 663, 664, 665, 666, 667, 668, 669, 670, 671, 672, 673, 674, 675, 676, 677, 678, 679, 680, 681, 682, 683, 684, 685, 686, 687, 688, 689, 690, 691, 692, 693, 694, 695, 696, 697, 698, 699, 700, 701, 702, 703, 704, 705, 706, 707, 708, 709, 710, 711, 712, 713, 714, 715, 716, 717, 718, 719, 720, 721, 722, 723, 724, 725, 726, 727, 728, 729, 730, 731, 732, 733, 734, 735, 736, 737, 738, 739, 740, 741, 742, 743, 744, 745, 746, 747, 748, 749, 750, 751, 752, 753, 754, 755, 756, 757, 758, 759, 760, 761, 762, 763, 764, 765, 766, 767, 768, 769, 770, 771, 772, 773, 774, 775, 776, 777, 778, 779, 780, 781, 782, 783, 784, 785, 786, 787, 788, 789, 790, 791, 792, 793, 794, 795, 796, 797, 798, 799, 800, 801, 802, 803, 804, 805, 806, 807, 808, 809, 810, 811, 812, 813, 814, 815, 816, 817, 818, 819, 820, 821, 822, 823, 824, 825, 826, 827, 828, 829, 830, 831, 832, 833, 834, 835, 836, 837, 838, 839, 840, 841, 842, 843, 844, 845, 846, 847, 848, 849, 850, 851, 852, 853, 854, 855, 856, 857, 858, 859, 860, 861, 862, 863, 864, 865, 866, 867, 868, 869, 870, 871, 872],
      "AcquisitionTime": ["091318.660000", "091319.120000", "091319.580000", "091320.040000", "091320.500000", "091320.960000", "091321.420000", "091321.880000", "091322.340000", "091322.800000", "091323.260000", "091323.720000", "091324.180000", "091324.640000", "091325.100000", "091325.560000", "091326.020000", "091326.480000", "091326.940000", "091327.400000", "091327.860000", "091328.320000", "091328.780000", "091329.240000", "091329.700000", "091330.160000", "091330.620000", "091331.080000", "091331.540000", "091332.000000", "091332.460000", "091332.920000", "091333.380000", "091333.840000", "091334.300000", "091334.760000", "091335.220000", "091335.680000", "091336.140000", "091336.600000", "091337.060000", "091337.520000", "091337.980000", "091338.440000", "091338.900000", "091339.360000", "091339.820000", "091340.280000", "091340.740000", "091341.200000", "091341.660000", "091342.120000", "091342.580000", "091343.040000", "091343.500000", "091343.960000", "091344.420000", "091344.880000", "091345.340000", "091345.800000", "091346.260000", "091346.720000", "091347.180000", "091347.640000", "091348.100000", "091348.560000", "091349.020000", "091349.480000", "091349.940000", "091350.400000", "091350.860000", "091351.320000", "091351.780000", "091352.240000", "091352.700000", "091353.160000", "091353.620000", "091354.080000", "091354.540000", "091355.000000", "091355.460000", "091355.920000", "091356.380000", "091356.840000", "091357.300000", "091357.760000", "091358.220000", "091358.680000", "091359.140000", "091359.600000", "091400.060000", "091400.520000", "091400.980000", "091401.440000", "091401.900000", "091402.360000", "091402.820000", "091403.280000", "091403.740000", "091404.200000", "091404.660000", "091405.120000", "091405.580000", "091406.040000", "091406.500000", "091406.960000", "091407.420000", "091407.880000", "091408.340000", "091408.800000", "091409.260000", "091409.720000", "091410.180000", "091410.640000", "091411.100000", "091411.560000", "091412.020000", "091412.480000", "091412.940000", "091413.400000", "091413.860000", "091414.320000", "091414.780000", "091415.240000", "091415.700000", "091416.160000", "091416.620000", "091417.080000", "091417.540000", "091418.000000", "091418.460000", "091418.920000", "091419.380000", "091419.840000", "091420.300000", "091420.760000", "091421.220000", "091421.680000", "091422.140000", "091422.600000", "091423.060000", "091423.520000", "091423.980000", "091424.440000", "091424.900000", "091425.360000", "091425.820000", "091426.280000", "091426.740000", "091427.200000", "091427.660000", "091428.120000", "091428.580000", "091429.040000", "091429.500000", "091429.960000", "091430.420000", "091430.880000", "091431.340000", "091431.800000", "091432.260000", "091432.720000", "091433.180000", "091433.640000", "091434.100000", "091434.560000", "091435.020000", "091435.480000", "091435.940000", "091436.400000", "091436.860000", "091437.320000", "091437.780000", "091438.240000", "091438.700000", "091439.160000", "091439.620000", "091440.080000", "091440.540000", "091441.000000", "091441.460000", "091441.920000", "091442.380000", "091442.840000", "091443.300000", "091443.760000", "091444.220000", "091444.680000", "091445.140000", "091445.600000", "091446.060000", "091446.520000", "091446.980000", "091447.440000", "091447.900000", "091448.360000", "091448.820000", "091449.280000", "091449.740000", "091450.200000", "091450.660000", "091451.120000", "091451.580000", "091452.040000", "091452.500000", "091452.960000", "091453.420000", "091453.880000", "091454.340000", "091454.800000", "091455.260000", "091455.720000", "091456.180000", "091456.640000", "091457.100000", "091457.560000", "091458.020000", "091458.480000", "091458.940000", "091459.400000", "091459.860000", "091500.320000", "091500.780000", "091501.240000", "091501.700000", "091502.160000", "091502.620000", "091503.080000", "091503.540000", "091504.000000", "091504.460000", "091504.920000", "091505.380000", "091505.840000", "091506.300000", "091506.760000", "091507.220000", "091507.680000", "091508.140000", "091508.600000", "091509.060000", "091509.520000", "091509.980000", "091510.440000", "091510.900000", "091511.360000", "091511.820000", "091512.280000", "091512.740000", "091513.200000", "091513.660000", "091514.120000", "091514.580000", "091515.040000", "091515.500000", "091515.960000", "091516.420000", "091516.880000", "091517.340000", "091517.800000", "091518.260000", "091518.720000", "091519.180000", "091519.640000", "091520.100000", "091520.560000", "091521.020000", "091521.480000", "091521.940000", "091522.400000", "091522.860000", "091523.320000", "091523.780000", "091524.240000", "091524.700000", "091525.160000", "091525.620000", "091526.080000", "091526.540000", "091527.000000", "091527.460000", "091527.920000", "091528.380000", "091528.840000", "091529.300000", "091529.760000", "091530.220000", "091530.680000", "091531.140000", "091531.600000", "091532.060000", "091532.520000", "091532.980000", "091533.440000", "091533.900000", "091534.360000", "091534.820000", "091535.280000", "091535.740000", "091536.200000", "091536.660000", "091537.120000", "091537.580000", "091538.040000", "091538.500000", "091538.960000", "091539.420000", "091539.880000", "091540.340000", "091540.800000", "091541.260000", "091541.720000", "091542.180000", "091542.640000", "091543.100000", "091543.560000", "091544.020000", "091544.480000", "091544.940000", "091545.400000", "091545.860000", "091546.320000", "091546.780000", "091547.240000", "091547.700000", "091548.160000", "091548.620000", "091549.080000", "091549.540000", "091550.000000", "091550.460000", "091550.920000", "091551.380000", "091551.840000", "091552.300000", "091552.760000", "091553.220000", "091553.680000", "091554.140000", "091554.600000", "091555.060000", "091555.520000", "091555.980000", "091556.440000", "091556.900000", "091557.360000", "091557.820000", "091558.280000", "091558.740000", "091559.200000", "091559.660000", "091600.120000", "091600.580000", "091601.040000", "091601.500000", "091601.960000", "091602.420000", "091602.880000", "091603.340000", "091603.800000", "091604.260000", "091604.720000", "091605.180000", "091605.640000", "091606.100000", "091606.560000", "091607.020000", "091607.480000", "091607.940000", "091608.400000", "091608.860000", "091609.320000", "091609.780000", "091610.240000", "091610.700000", "091611.160000", "091611.620000", "091612.080000", "091612.540000", "091613.000000", "091613.460000", "091613.920000", "091614.380000", "091614.840000", "091615.300000", "091615.760000", "091616.220000", "091616.680000", "091617.140000", "091617.600000", "091618.060000", "091618.520000", "091618.980000", "091619.440000", "091619.900000", "091620.360000", "091620.820000", "091621.280000", "091621.740000", "091622.200000", "091622.660000", "091623.120000", "091623.580000", "091624.040000", "091624.500000", "091624.960000", "091625.420000", "091625.880000", "091626.340000", "091626.800000", "091627.260000", "091627.720000", "091628.180000", "091628.640000", "091629.100000", "091629.560000", "091630.020000", "091630.480000", "091630.940000", "091631.400000", "091631.860000", "091632.320000", "091632.780000", "091633.240000", "091633.700000", "091634.160000", "091634.620000", "091635.080000", "091635.540000", "091636.000000", "091636.460000", "091636.920000", "091637.380000", "091637.840000", "091638.300000", "091638.760000", "091639.220000", "091639.680000", "091640.140000", "091640.600000", "091641.060000", "091641.520000", "091641.980000", "091642.440000", "091642.900000", "091643.360000", "091643.820000", "091644.280000", "091644.740000", "091645.200000", "091645.660000", "091646.120000", "091646.580000", "091647.040000", "091647.500000", "091647.960000", "091648.420000", "091648.880000", "091649.340000", "091649.800000", "091650.260000", "091650.720000", "091651.180000", "091651.640000", "091652.100000", "091652.560000", "091653.020000", "091653.480000", "091653.940000", "091654.400000", "091654.860000", "091655.320000", "091655.780000", "091656.240000", "091656.700000", "091657.160000", "091657.620000", "091658.080000", "091658.540000", "091659.000000", "091659.460000", "091659.920000", "091700.380000", "091700.840000", "091701.300000", "091701.760000", "091702.220000", "091702.680000", "091703.140000", "091703.600000", "091704.060000", "091704.520000", "091704.980000", "091705.440000", "091705.900000", "091706.360000", "091706.820000", "091707.280000", "091707.740000", "091708.200000", "091708.660000", "091709.120000", "091709.580000", "091710.040000", "091710.500000", "091710.960000", "091711.420000", "091711.880000", "091712.340000", "091712.800000", "091713.260000", "091713.720000", "091714.180000", "091714.640000", "091715.100000", "091715.560000", "091716.020000", "091716.480000", "091716.940000", "091717.400000", "091717.860000", "091718.320000", "091718.780000", "091719.240000", "091719.700000", "091720.160000", "091720.620000", "091721.080000", "091721.540000", "091722.000000", "091722.460000", "091722.920000", "091723.380000", "091723.840000", "091724.300000", "091724.760000", "091725.220000", "091725.680000", "091726.140000", "091726.600000", "091727.060000", "091727.520000", "091727.980000", "091728.440000", "091728.900000", "091729.360000", "091729.820000", "091730.280000", "091730.740000", "091731.200000", "091731.660000", "091732.120000", "091732.580000", "091733.040000", "091733.500000", "091733.960000", "091734.420000", "091734.880000", "091735.340000", "091735.800000", "091736.260000", "091736.720000", "091737.180000", "091737.640000", "091738.100000", "091738.560000", "091739.020000", "091739.480000", "091739.940000", "091740.400000", "091740.860000", "091741.320000", "091741.780000", "091742.240000", "091742.700000", "091743.160000", "091743.620000", "091744.080000", "091744.540000", "091745.000000", "091745.460000", "091745.920000", "091746.380000", "091746.840000", "091747.300000", "091747.760000", "091748.220000", "091748.680000", "091749.140000", "091749.600000", "091750.060000", "091750.520000", "091750.980000", "091751.440000", "091751.900000", "091752.360000", "091752.820000", "091753.280000", "091753.740000", "091754.200000", "091754.660000", "091755.120000", "091755.580000", "091756.040000", "091756.500000", "091756.960000", "091757.420000", "091757.880000", "091758.340000", "091758.800000", "091759.260000", "091759.720000", "091800.180000", "091800.640000", "091801.100000", "091801.560000", "091802.020000", "091802.480000", "091802.940000", "091803.400000", "091803.860000", "091804.320000", "091804.780000", "091805.240000", "091805.700000", "091806.160000", "091806.620000", "091807.080000", "091807.540000", "091808.000000", "091808.460000", "091808.920000", "091809.380000", "091809.840000", "091810.300000", "091810.760000", "091811.220000", "091811.680000", "091812.140000", "091812.600000", "091813.060000", "091813.520000", "091813.980000", "091814.440000", "091814.900000", "091815.360000", "091815.820000", "091816.280000", "091816.740000", "091817.200000", "091817.660000", "091818.120000", "091818.580000", "091819.040000", "091819.500000", "091819.960000", "091820.420000", "091820.880000", "091821.340000", "091821.800000", "091822.260000", "091822.720000", "091823.180000", "091823.640000", "091824.100000", "091824.560000", "091825.020000", "091825.480000", "091825.940000", "091826.400000", "091826.860000", "091827.320000", "091827.780000", "091828.240000", "091828.700000", "091829.160000", "091829.620000", "091830.080000", "091830.540000", "091831.000000", "091831.460000", "091831.920000", "091832.380000", "091832.840000", "091833.300000", "091833.760000", "091834.220000", "091834.680000", "091835.140000", "091835.600000", "091836.060000", "091836.520000", "091836.980000", "091837.440000", "091837.900000", "091838.360000", "091838.820000", "091839.280000", "091839.740000", "091840.200000", "091840.660000", "091841.120000", "091841.580000", "091842.040000", "091842.500000", "091842.960000", "091843.420000", "091843.880000", "091844.340000", "091844.800000", "091845.260000", "091845.720000", "091846.180000", "091846.640000", "091847.100000", "091847.560000", "091848.020000", "091848.480000", "091848.940000", "091849.400000", "091849.860000", "091850.320000", "091850.780000", "091851.240000", "091851.700000", "091852.160000", "091852.620000", "091853.080000", "091853.540000", "091854.000000", "091854.460000", "091854.920000", "091855.380000", "091855.840000", "091856.300000", "091856.760000", "091857.220000", "091857.680000", "091858.140000", "091858.600000", "091859.060000", "091859.520000", "091859.980000", "091900.440000", "091900.900000", "091901.360000", "091901.820000", "091902.280000", "091902.740000", "091903.200000", "091903.660000", "091904.120000", "091904.580000", "091905.040000", "091905.500000", "091905.960000", "091906.420000", "091906.880000", "091907.340000", "091907.800000", "091908.260000", "091908.720000", "091909.180000", "091909.640000", "091910.100000", "091910.560000", "091911.020000", "091911.480000", "091911.940000", "091912.400000", "091912.860000", "091913.320000", "091913.780000", "091914.240000", "091914.700000", "091915.160000", "091915.620000", "091916.080000", "091916.540000", "091917.000000", "091917.460000", "091917.920000", "091918.380000", "091918.840000", "091919.300000", "091919.760000", "091920.220000", "091920.680000", "091921.140000", "091921.600000", "091922.060000", "091922.520000", "091922.980000", "091923.440000", "091923.900000", "091924.360000", "091924.820000", "091925.280000", "091925.740000", "091926.200000", "091926.660000", "091927.120000", "091927.580000", "091928.040000", "091928.500000", "091928.960000", "091929.420000", "091929.880000", "091930.340000", "091930.800000", "091931.260000", "091931.720000", "091932.180000", "091932.640000", "091933.100000", "091933.560000", "091934.020000", "091934.480000", "091934.940000", "091935.400000", "091935.860000", "091936.320000", "091936.780000", "091937.240000", "091937.700000", "091938.160000", "091938.620000", "091939.080000", "091939.540000", "091940.000000", "091940.460000", "091940.920000", "091941.380000", "091941.840000", "091942.300000", "091942.760000", "091943.220000", "091943.680000", "091944.140000", "091944.600000", "091945.060000", "091945.520000", "091945.980000", "091946.440000", "091946.900000", "091947.360000", "091947.820000", "091948.280000", "091948.740000", "091949.200000", "091949.660000", "091950.120000", "091950.580000", "091951.040000", "091951.500000", "091951.960000", "091952.420000", "091952.880000", "091953.340000", "091953.800000", "091954.260000", "091954.720000", "091955.180000", "091955.640000", "091956.100000", "091956.560000", "091957.020000", "091957.480000", "091957.940000", "091958.400000", "091958.860000", "091959.320000"],
