{
  "AcquisitionMatrixPE": 82,
  "AcquisitionNumber": 1,
  "AcquisitionTime": "09:37:1.822500",
  "BandwidthPerPixelPhaseEncode": 24.888,
  "BaseResolution": 82,
  "BodyPartExamined": "BRAIN",
  "ConsistencyInfo": "N4_VE11E_LATEST_20181129",
  "ConversionSoftware": "dcm2niix",
  "ConversionSoftwareVersion": "v1.0.20201102",
  "DerivedVendorReportedEchoSpacing": 0.00049,
  "DeviceSerialNumber": "66112",
  "DwellTime": 2e-06,
  "EchoTime": 0.0272,
  "EchoTrainLength": 82,
  "EffectiveEchoSpacing": 0.00049,
  "FlipAngle": 44,
  "ImageComments": "Unaliased MB8/PE3",
  "ImageOrientationPatientDICOM": [0.998007, 0.0631031, 0.001013, -0.0626144, 0.988013, 0.141103],
  "ImageType": [
    "ORIGINAL",
    "PRIMARY",
    "M",
    "MB",
    "ND",
    "NORM",
    "MOSAIC"
],
  "ImagingFrequency": 123.252,
  "InPlanePhaseEncodingDirectionDICOM": "COL",
  "InstitutionAddress": "Maynard 3,Hanover,NH,US,03755",
  "InstitutionName": "Dartmouth College - PBS",
  "InstitutionalDepartmentName": "Department",
  "MRAcquisitionType": "2D",
  "MagneticFieldStrength": 3,
  "Manufacturer": "Siemens",
  "ManufacturersModelName": "Prisma",
  "Modality": "MR",
  "MultibandAccelerationFactor": 8,
  "PartialFourier": 1,
  "PatientPosition": "HFS",
  "PercentPhaseFOV": 100,
  "PercentSampling": 100,
  "PhaseEncodingDirection": "j-",
  "PhaseEncodingSteps": 82,
  "PhaseResolution": 1,
  "PixelBandwidth": 3050,
  "ProcedureStepDescription": "Wager_Wager^1076_spacetop",
  "ProtocolName": "func_run-06_task-social_acq-ap-mb8",
  "PulseSequenceDetails": "%CustomerSeq%\\cmrr_mbep2d_bold",
  "ReceiveCoilActiveElements": "HEA;HEP",
  "ReceiveCoilName": "Head_32",
  "ReconMatrixPE": 82,
  "RepetitionTime": 0.46,
  "SAR": 0.0884947,
  "ScanOptions": "FS",
  "ScanningSequence": "EP",
  "SequenceName": "epfid2d1_82",
  "SequenceVariant": "SK\\SS",
  "SeriesDescription": "func_run-06_task-social_acq-ap-mb8",
  "SeriesNumber": 24,
  "ShimSetting": [4168, -7857, -7356, 453, 90, -325, -186, 61],
  "SliceThickness": 2.7,
  "SliceTiming": [0, 0.2525, 0.0625, 0.315, 0.125, 0.3775, 0.1875, 0, 0.2525, 0.0625, 0.315, 0.125, 0.3775, 0.1875, 0, 0.2525, 0.0625, 0.315, 0.125, 0.3775, 0.1875, 0, 0.2525, 0.0625, 0.315, 0.125, 0.3775, 0.1875, 0, 0.2525, 0.0625, 0.315, 0.125, 0.3775, 0.1875, 0, 0.2525, 0.0625, 0.315, 0.125, 0.3775, 0.1875, 0, 0.2525, 0.0625, 0.315, 0.125, 0.3775, 0.1875, 0, 0.2525, 0.0625, 0.315, 0.125, 0.3775, 0.1875],
  "SoftwareVersions": "syngo MR E11",
  "SpacingBetweenSlices": 2.7,
  "StationName": "AWP66112",
  "TaskName": "social",
  "TotalReadoutTime": 0.03969,
  "TxRefAmp": 253.993,
  "WipMemBlock": "c69bd968-718f-47cb-874a-854bb213f8e9||Sequence: R016 ve11e/master r/434b28f1; Aug  7 2019 18:53:46 by eja",
  "dcmmeta_affine": [
    [-2.6775784492492676, -0.16798987984657288, -0.021338554099202156, 120.30944061279297],
    [-0.16930092871189117, 2.650766372680664, 0.38038939237594604, -86.44331359863281],
    [0.0027177943848073483, -0.37856853008270264, 2.672985076904297, -63.95380401611328],
    [0.0, 0.0, 0.0, 1.0]
],
  "dcmmeta_reorient_transform": [
    [0.0, -1.0, 0.0, 81.0],
    [1.0, 0.0, 0.0, 0.0],
    [0.0, 0.0, 1.0, 0.0],
    [0.0, 0.0, 0.0, 1.0]
],
  "dcmmeta_shape": [82, 82, 56, 872],
  "dcmmeta_slice_dim": 2,
  "dcmmeta_version": 0.6,
  "global": {
    "const": {
      "AccessionNumber": "A003862",
      "AcquisitionMatrix": [82, 0, 0, 82],
      "AngioFlag": "N",
      "BitsAllocated": 16,
      "BitsStored": 16,
      "BodyPartExamined": "BRAIN",
      "Columns": 656,
      "EchoNumbers": 1,
      "EchoTime": 27.2,
      "EchoTrainLength": 82,
      "FlipAngle": 44.0,
      "HighBit": 15,
      "ImageOrientationPatient": [0.998006500965, 0.0631030733849, 0.00101299604533, -0.0626144070182, 0.98801287040267, 0.14110281341079],
      "ImagePositionPatient": [-826.95418796036, -937.62805154112, -204.04703035436],
      "ImageType": [
        "ORIGINAL",
        "PRIMARY",
        "M",
        "MB",
        "ND",
        "NORM",
        "MOSAIC"
],
      "ImagedNucleus": "1H",
      "ImagingFrequency": 123.252266,
      "InPlanePhaseEncodingDirection": "COL",
      "MRAcquisitionType": "2D",
      "MagneticFieldStrength": 3.0,
      "Manufacturer": "SIEMENS",
      "ManufacturerModelName": "Prisma",
      "Modality": "MR",
      "NumberOfAverages": 1.0,
      "NumberOfPhaseEncodingSteps": 82,
      "PercentPhaseFieldOfView": 100.0,
      "PercentSampling": 100.0,
      "PerformedProcedureStepStartTime": "080509.608000",
      "PhotometricInterpretation": "MONOCHROME2",
      "PixelBandwidth": 3050.0,
      "PixelRepresentation": 0,
      "PixelSpacing": [2.6829268932343, 2.6829268932343],
      "ProtocolName": "func_run-06_task-social_acq-ap-mb8",
      "RepetitionTime": 460.0,
      "Rows": 656,
      "SAR": 0.08849470588348,
      "SamplesPerPixel": 1,
      "ScanOptions": "FS",
      "ScanningSequence": "EP",
      "SequenceName": "epfid2d1_82",
      "SequenceVariant": [
        "SK",
        "SS"
],
      "SeriesDescription": "func_run-06_task-social_acq-ap-mb8",
      "SeriesNumber": 24,
      "SeriesTime": "093715.257000",
      "SliceLocation": -76.443297080964,
      "SliceThickness": 2.7000000476837,
      "SmallestImagePixelValue": 0,
      "SoftwareVersions": "syngo MR E11",
      "SpacingBetweenSlices": 2.7000000451434,
      "SpecificCharacterSet": "ISO_IR 100",
      "StudyID": "1",
      "StudyTime": "080509.464000",
      "TransmitCoilName": "Body",
      "VariableFlipAngleFlag": "N",
      "WindowCenterWidthExplanation": "Algo1"
    },
    "slices": {}
  },
  "time": {
    "samples": {
      "AcquisitionNumber": [1, 2, 3, 4, 5, 6, 7, 8, 9, 10, 11, 12, 13, 14, 15, 16, 17, 18, 19, 20, 21, 22, 23, 24, 25, 26, 27, 28, 29, 30, 31, 32, 33, 34, 35, 36, 37, 38, 39, 40, 41, 42, 43, 44, 45, 46, 47, 48, 49, 50, 51, 52, 53, 54, 55, 56, 57, 58, 59, 60, 61, 62, 63, 64, 65, 66, 67, 68, 69, 70, 71, 72, 73, 74, 75, 76, 77, 78, 79, 80, 81, 82, 83, 84, 85, 86, 87, 88, 89, 90, 91, 92, 93, 94, 95, 96, 97, 98, 99, 100, 101, 102, 103, 104, 105, 106, 107, 108, 109, 110, 111, 112, 113, 114, 115, 116, 117, 118, 119, 120, 121, 122, 123, 124, 125, 126, 127, 128, 129, 130, 131, 132, 133, 134, 135, 136, 137, 138, 139, 140, 141, 142, 143, 144, 145, 146, 147, 148, 149, 150, 151, 152, 153, 154, 155, 156, 157, 158, 159, 160, 161, 162, 163, 164, 165, 166, 167, 168, 169, 170, 171, 172, 173, 174, 175, 176, 177, 178, 179, 180, 181, 182, 183, 184, 185, 186, 187, 188, 189, 190, 191, 192, 193, 194, 195, 196, 197, 198, 199, 200, 201, 202, 203, 204, 205, 206, 207, 208, 209, 210, 211, 212, 213, 214, 215, 216, 217, 218, 219, 220, 221, 222, 223, 224, 225, 226, 227, 228, 229, 230, 231, 232, 233, 234, 235, 236, 237, 238, 239, 240, 241, 242, 243, 244, 245, 246, 247, 248, 249, 250, 251, 252, 253, 254, 255, 256, 257, 258, 259, 260, 261, 262, 263, 264, 265, 266, 267, 268, 269, 270, 271, 272, 273, 274, 275, 276, 277, 278, 279, 280, 281, 282, 283, 284, 285, 286, 287, 288, 289, 290, 291, 292, 293, 294, 295, 296, 297, 298, 299, 300, 301, 302, 303, 304, 305, 306, 307, 308, 309, 310, 311, 312, 313, 314, 315, 316, 317, 318, 319, 320, 321, 322, 323, 324, 325, 326, 327, 328, 329, 330, 331, 332, 333, 334, 335, 336, 337, 338, 339, 340, 341, 342, 343, 344, 345, 346, 347, 348, 349, 350, 351, 352, 353, 354, 355, 356, 357, 358, 359, 360, 361, 362, 363, 364, 365, 366, 367, 368, 369, 370, 371, 372, 373, 374, 375, 376, 377, 378, 379, 380, 381, 382, 383, 384, 385, 386, 387, 388, 389, 390, 391, 392, 393, 394, 395, 396, 397, 398, 399, 400, 401, 402, 403, 404, 405, 406, 407, 408, 409, 410, 411, 412, 413, 414, 415, 416, 417, 418, 419, 420, 421, 422, 423, 424, 425, 426, 427, 428, 429, 430, 431, 432, 433, 434, 435, 436, 437, 438, 439, 440, 441, 442, 443, 444, 445, 446, 447, 448, 449, 450, 451, 452, 453, 454, 455, 456, 457, 458, 459, 460, 461, 462, 463, 464, 465, 466, 467, 468, 469, 470, 471, 472, 473, 474, 475, 476, 477, 478, 479, 480, 481, 482, 483, 484, 485, 486, 487, 488, 489, 490, 491, 492, 493, 494, 495, 496, 497, 498, 499, 500, 501, 502, 503, 504, 505, 506, 507, 508, 509, 510, 511, 512, 513, 514, 515, 516, 517, 518, 519, 520, 521, 522, 523, 524, 525, 526, 527, 528, 529, 530, 531, 532, 533, 534, 535, 536, 537, 538, 539, 540, 541, 542, 543, 544, 545, 546, 547, 548, 549, 550, 551, 552, 553, 554, 555, 556, 557, 558, 559, 560, 561, 562, 563, 564, 565, 566, 567, 568, 569, 570, 571, 572, 573, 574, 575, 576, 577, 578, 579, 580, 581, 582, 583, 584, 585, 586, 587, 588, 589, 590, 591, 592, 593, 594, 595, 596, 597, 598, 599, 600, 601, 602, 603, 604, 605, 606, 607, 608, 609, 610, 611, 612, 613, 614, 615, 616, 617, 618, 619, 620, 621, 622, 623, 624, 625, 626, 627, 628, 629, 630, 631, 632, 633, 634, 635, 636, 637, 638, 639, 640, 641, 642, 643, 644, 645, 646, 647, 648, 649, 650, 651, 652, 653, 654, 655, 656, 657, 658, 659, 660, 661, 662, 663, 664, 665, 666, 667, 668, 669, 670, 671, 672, 673, 674, 675, 676, 677, 678, 679, 680, 681, 682, 683, 684, 685, 686, 687, 688, 689, 690, 691, 692, 693, 694, 695, 696, 697, 698, 699, 700, 701, 702, 703, 704, 705, 706, 707, 708, 709, 710, 711, 712, 713, 714, 715, 716, 717, 718, 719, 720, 721, 722, 723, 724, 725, 726, 727, 728, 729, 730, 731, 732, 733, 734, 735, 736, 737, 738, 739, 740, 741, 742, 743, 744, 745, 746, 747, 748, 749, 750, 751, 752, 753, 754, 755, 756, 757, 758, 759, 760, 761, 762, 763, 764, 765, 766, 767, 768, 769, 770, 771, 772, 773, 774, 775, 776, 777, 778, 779, 780, 781, 782, 783, 784, 785, 786, 787, 788, 789, 790, 791, 792, 793, 794, 795, 796, 797, 798, 799, 800, 801, 802, 803, 804, 805, 806, 807, 808, 809, 810, 811, 812, 813, 814, 815, 816, 817, 818, 819, 820, 821, 822, 823, 824, 825, 826, 827, 828, 829, 830, 831, 832, 833, 834, 835, 836, 837, 838, 839, 840, 841, 842, 843, 844, 845, 846, 847, 848, 849, 850, 851, 852, 853, 854, 855, 856, 857, 858, 859, 860, 861, 862, 863, 864, 865, 866, 867, 868, 869, 870, 871, 872],
      "AcquisitionTime": ["093701.822500", "093702.282500", "093702.742500", "093703.202500", "093703.662500", "093704.122500", "093704.582500", "093705.042500", "093705.502500", "093705.962500", "093706.422500", "093706.882500", "093707.342500", "093707.802500", "093708.262500", "093708.722500", "093709.182500", "093709.642500", "093710.102500", "093710.562500", "093711.022500", "093711.482500", "093711.942500", "093712.402500", "093712.862500", "093713.322500", "093713.782500", "093714.242500", "093714.702500", "093715.162500", "093715.622500", "093716.082500", "093716.542500", "093717.002500", "093717.462500", "093717.922500", "093718.382500", "093718.842500", "093719.302500", "093719.762500", "093720.222500", "093720.682500", "093721.142500", "093721.602500", "093722.062500", "093722.522500", "093722.982500", "093723.442500", "093723.902500", "093724.362500", "093724.822500", "093725.282500", "093725.742500", "093726.202500", "093726.662500", "093727.122500", "093727.582500", "093728.042500", "093728.502500", "093728.962500", "093729.422500", "093729.882500", "093730.342500", "093730.802500", "093731.262500", "093731.722500", "093732.182500", "093732.642500", "093733.102500", "093733.562500", "093734.022500", "093734.482500", "093734.942500", "093735.402500", "093735.862500", "093736.322500", "093736.782500", "093737.242500", "093737.702500", "093738.162500", "093738.622500", "093739.082500", "093739.542500", "093740.002500", "093740.462500", "093740.922500", "093741.382500", "093741.842500", "093742.302500", "093742.762500", "093743.222500", "093743.682500", "093744.142500", "093744.602500", "093745.062500", "093745.522500", "093745.982500", "093746.442500", "093746.902500", "093747.362500", "093747.822500", "093748.282500", "093748.742500", "093749.202500", "093749.662500", "093750.122500", "093750.582500", "093751.042500", "093751.502500", "093751.962500", "093752.422500", "093752.882500", "093753.342500", "093753.802500", "093754.262500", "093754.722500", "093755.182500", "093755.642500", "093756.102500", "093756.562500", "093757.022500", "093757.482500", "093757.942500", "093758.402500", "093758.862500", "093759.322500", "093759.782500", "093800.242500", "093800.702500", "093801.162500", "093801.622500", "093802.082500", "093802.542500", "093803.002500", "093803.462500", "093803.922500", "093804.382500", "093804.842500", "093805.302500", "093805.762500", "093806.222500", "093806.682500", "093807.142500", "093807.602500", "093808.062500", "093808.522500", "093808.982500", "093809.442500", "093809.902500", "093810.362500", "093810.822500", "093811.282500", "093811.742500", "093812.202500", "093812.662500", "093813.122500", "093813.582500", "093814.042500", "093814.502500", "093814.962500", "093815.422500", "093815.882500", "093816.342500", "093816.802500", "093817.262500", "093817.722500", "093818.182500", "093818.642500", "093819.102500", "093819.562500", "093820.022500", "093820.482500", "093820.942500", "093821.402500", "093821.862500", "093822.322500", "093822.782500", "093823.242500", "093823.702500", "093824.162500", "093824.622500", "093825.082500", "093825.542500", "093826.002500", "093826.462500", "093826.922500", "093827.382500", "093827.842500", "093828.302500", "093828.762500", "093829.222500", "093829.682500", "093830.142500", "093830.602500", "093831.062500", "093831.522500", "093831.982500", "093832.442500", "093832.902500", "093833.362500", "093833.822500", "093834.282500", "093834.742500", "093835.202500", "093835.662500", "093836.122500", "093836.582500", "093837.042500", "093837.502500", "093837.962500", "093838.422500", "093838.882500", "093839.342500", "093839.802500", "093840.262500", "093840.722500", "093841.182500", "093841.642500", "093842.102500", "093842.562500", "093843.022500", "093843.482500", "093843.942500", "093844.402500", "093844.862500", "093845.322500", "093845.782500", "093846.242500", "093846.702500", "093847.162500", "093847.622500", "093848.082500", "093848.542500", "093849.002500", "093849.462500", "093849.922500", "093850.382500", "093850.842500", "093851.302500", "093851.762500", "093852.222500", "093852.682500", "093853.142500", "093853.602500", "093854.062500", "093854.522500", "093854.982500", "093855.442500", "093855.902500", "093856.362500", "093856.822500", "093857.282500", "093857.742500", "093858.202500", "093858.662500", "093859.122500", "093859.582500", "093900.042500", "093900.502500", "093900.962500", "093901.422500", "093901.882500", "093902.342500", "093902.802500", "093903.262500", "093903.722500", "093904.182500", "093904.642500", "093905.102500", "093905.562500", "093906.022500", "093906.482500", "093906.942500", "093907.402500", "093907.862500", "093908.322500", "093908.782500", "093909.242500", "093909.702500", "093910.162500", "093910.622500", "093911.082500", "093911.542500", "093912.002500", "093912.462500", "093912.922500", "093913.382500", "093913.842500", "093914.302500", "093914.762500", "093915.222500", "093915.682500", "093916.142500", "093916.602500", "093917.062500", "093917.522500", "093917.982500", "093918.442500", "093918.902500", "093919.362500", "093919.822500", "093920.282500", "093920.742500", "093921.202500", "093921.662500", "093922.122500", "093922.582500", "093923.042500", "093923.502500", "093923.962500", "093924.422500", "093924.882500", "093925.342500", "093925.802500", "093926.262500", "093926.722500", "093927.182500", "093927.642500", "093928.102500", "093928.562500", "093929.022500", "093929.482500", "093929.942500", "093930.402500", "093930.862500", "093931.322500", "093931.782500", "093932.242500", "093932.702500", "093933.162500", "093933.622500", "093934.082500", "093934.542500", "093935.002500", "093935.462500", "093935.922500", "093936.382500", "093936.842500", "093937.302500", "093937.762500", "093938.222500", "093938.682500", "093939.142500", "093939.602500", "093940.062500", "093940.522500", "093940.982500", "093941.442500", "093941.902500", "093942.362500", "093942.822500", "093943.282500", "093943.742500", "093944.202500", "093944.662500", "093945.122500", "093945.582500", "093946.042500", "093946.502500", "093946.962500", "093947.422500", "093947.882500", "093948.342500", "093948.802500", "093949.262500", "093949.722500", "093950.182500", "093950.642500", "093951.102500", "093951.562500", "093952.022500", "093952.482500", "093952.942500", "093953.402500", "093953.862500", "093954.322500", "093954.782500", "093955.242500", "093955.702500", "093956.162500", "093956.622500", "093957.082500", "093957.542500", "093958.002500", "093958.462500", "093958.922500", "093959.382500", "093959.842500", "094000.302500", "094000.762500", "094001.222500", "094001.682500", "094002.142500", "094002.602500", "094003.062500", "094003.522500", "094003.982500", "094004.442500", "094004.902500", "094005.362500", "094005.822500", "094006.282500", "094006.742500", "094007.202500", "094007.662500", "094008.122500", "094008.582500", "094009.042500", "094009.502500", "094009.962500", "094010.422500", "094010.882500", "094011.342500", "094011.802500", "094012.262500", "094012.722500", "094013.182500", "094013.642500", "094014.102500", "094014.562500", "094015.022500", "094015.482500", "094015.942500", "094016.402500", "094016.862500", "094017.322500", "094017.782500", "094018.242500", "094018.702500", "094019.162500", "094019.622500", "094020.082500", "094020.542500", "094021.002500", "094021.462500", "094021.922500", "094022.382500", "094022.842500", "094023.302500", "094023.762500", "094024.222500", "094024.682500", "094025.142500", "094025.602500", "094026.062500", "094026.522500", "094026.982500", "094027.442500", "094027.902500", "094028.362500", "094028.822500", "094029.282500", "094029.742500", "094030.202500", "094030.662500", "094031.122500", "094031.582500", "094032.042500", "094032.502500", "094032.962500", "094033.422500", "094033.882500", "094034.342500", "094034.802500", "094035.262500", "094035.722500", "094036.182500", "094036.642500", "094037.102500", "094037.562500", "094038.022500", "094038.482500", "094038.942500", "094039.402500", "094039.862500", "094040.322500", "094040.782500", "094041.242500", "094041.702500", "094042.162500", "094042.622500", "094043.082500", "094043.542500", "094044.002500", "094044.462500", "094044.922500", "094045.382500", "094045.842500", "094046.302500", "094046.762500", "094047.222500", "094047.682500", "094048.142500", "094048.602500", "094049.062500", "094049.522500", "094049.982500", "094050.442500", "094050.902500", "094051.362500", "094051.822500", "094052.282500", "094052.742500", "094053.202500", "094053.662500", "094054.122500", "094054.582500", "094055.042500", "094055.502500", "094055.962500", "094056.422500", "094056.882500", "094057.342500", "094057.802500", "094058.262500", "094058.722500", "094059.182500", "094059.642500", "094100.102500", "094100.562500", "094101.022500", "094101.482500", "094101.942500", "094102.402500", "094102.862500", "094103.322500", "094103.782500", "094104.242500", "094104.702500", "094105.162500", "094105.622500", "094106.082500", "094106.542500", "094107.002500", "094107.462500", "094107.922500", "094108.382500", "094108.842500", "094109.302500", "094109.762500", "094110.222500", "094110.682500", "094111.142500", "094111.602500", "094112.062500", "094112.522500", "094112.982500", "094113.442500", "094113.902500", "094114.362500", "094114.822500", "094115.282500", "094115.742500", "094116.202500", "094116.662500", "094117.122500", "094117.582500", "094118.042500", "094118.502500", "094118.962500", "094119.422500", "094119.882500", "094120.342500", "094120.802500", "094121.262500", "094121.722500", "094122.182500", "094122.642500", "094123.102500", "094123.562500", "094124.022500", "094124.482500", "094124.942500", "094125.402500", "094125.862500", "094126.322500", "094126.782500", "094127.242500", "094127.702500", "094128.162500", "094128.622500", "094129.082500", "094129.542500", "094130.002500", "094130.462500", "094130.922500", "094131.382500", "094131.842500", "094132.302500", "094132.762500", "094133.222500", "094133.682500", "094134.142500", "094134.602500", "094135.062500", "094135.522500", "094135.982500", "094136.442500", "094136.902500", "094137.362500", "094137.822500", "094138.282500", "094138.742500", "094139.202500", "094139.662500", "094140.122500", "094140.582500", "094141.042500", "094141.502500", "094141.962500", "094142.422500", "094142.882500", "094143.342500", "094143.802500", "094144.262500", "094144.722500", "094145.182500", "094145.642500", "094146.102500", "094146.562500", "094147.022500", "094147.482500", "094147.942500", "094148.402500", "094148.862500", "094149.322500", "094149.782500", "094150.242500", "094150.702500", "094151.162500", "094151.622500", "094152.082500", "094152.542500", "094153.002500", "094153.462500", "094153.922500", "094154.382500", "094154.842500", "094155.302500", "094155.762500", "094156.222500", "094156.682500", "094157.142500", "094157.602500", "094158.062500", "094158.522500", "094158.982500", "094159.442500", "094159.902500", "094200.362500", "094200.822500", "094201.282500", "094201.742500", "094202.202500", "094202.662500", "094203.122500", "094203.582500", "094204.042500", "094204.502500", "094204.962500", "094205.422500", "094205.882500", "094206.342500", "094206.802500", "094207.262500", "094207.722500", "094208.182500", "094208.642500", "094209.102500", "094209.562500", "094210.022500", "094210.482500", "094210.942500", "094211.402500", "094211.862500", "094212.322500", "094212.782500", "094213.242500", "094213.702500", "094214.162500", "094214.622500", "094215.082500", "094215.542500", "094216.002500", "094216.462500", "094216.922500", "094217.382500", "094217.842500", "094218.302500", "094218.762500", "094219.222500", "094219.682500", "094220.142500", "094220.602500", "094221.062500", "094221.522500", "094221.982500", "094222.442500", "094222.902500", "094223.362500", "094223.822500", "094224.282500", "094224.742500", "094225.202500", "094225.662500", "094226.122500", "094226.582500", "094227.042500", "094227.502500", "094227.962500", "094228.422500", "094228.882500", "094229.342500", "094229.802500", "094230.262500", "094230.722500", "094231.182500", "094231.642500", "094232.102500", "094232.562500", "094233.022500", "094233.482500", "094233.942500", "094234.402500", "094234.862500", "094235.322500", "094235.782500", "094236.242500", "094236.702500", "094237.162500", "094237.622500", "094238.082500", "094238.542500", "094239.002500", "094239.462500", "094239.922500", "094240.382500", "094240.842500", "094241.302500", "094241.762500", "094242.222500", "094242.682500", "094243.142500", "094243.602500", "094244.062500", "094244.522500", "094244.982500", "094245.442500", "094245.902500", "094246.362500", "094246.822500", "094247.282500", "094247.742500", "094248.202500", "094248.662500", "094249.122500", "094249.582500", "094250.042500", "094250.502500", "094250.962500", "094251.422500", "094251.882500", "094252.342500", "094252.802500", "094253.262500", "094253.722500", "094254.182500", "094254.642500", "094255.102500", "094255.562500", "094256.022500", "094256.482500", "094256.942500", "094257.402500", "094257.862500", "094258.322500", "094258.782500", "094259.242500", "094259.702500", "094300.162500", "094300.622500", "094301.082500", "094301.542500", "094302.002500", "094302.462500", "094302.922500", "094303.382500", "094303.842500", "094304.302500", "094304.762500", "094305.222500", "094305.682500", "094306.142500", "094306.602500", "094307.062500", "094307.522500", "094307.982500", "094308.442500", "094308.902500", "094309.362500", "094309.822500", "094310.282500", "094310.742500", "094311.202500", "094311.662500", "094312.122500", "094312.582500", "094313.042500", "094313.502500", "094313.962500", "094314.422500", "094314.882500", "094315.342500", "094315.802500", "094316.262500", "094316.722500", "094317.182500", "094317.642500", "094318.102500", "094318.562500", "094319.022500", "094319.482500", "094319.942500", "094320.402500", "094320.862500", "094321.322500", "094321.782500", "094322.242500", "094322.702500", "094323.162500", "094323.622500", "094324.082500", "094324.542500", "094325.002500", "094325.462500", "094325.922500", "094326.382500", "094326.842500", "094327.302500", "094327.762500", "094328.222500", "094328.682500", "094329.142500", "094329.602500", "094330.062500", "094330.522500", "094330.982500", "094331.442500", "094331.902500", "094332.362500", "094332.822500", "094333.282500", "094333.742500", "094334.202500", "094334.662500", "094335.122500", "094335.582500", "094336.042500", "094336.502500", "094336.962500", "094337.422500", "094337.882500", "094338.342500", "094338.802500", "094339.262500", "094339.722500", "094340.182500", "094340.642500", "094341.102500", "094341.562500", "094342.022500", "094342.482500"],
