{
  "AcquisitionMatrixPE": 82,
  "AcquisitionNumber": 1,
  "AcquisitionTime": "18:15:13.432500",
  "BandwidthPerPixelPhaseEncode": 24.888,
  "BaseResolution": 82,
  "BodyPartExamined": "BRAIN",
  "ConsistencyInfo": "N4_VE11E_LATEST_20181129",
  "ConversionSoftware": "dcm2niix",
  "ConversionSoftwareVersion": "v1.0.20201102",
  "DerivedVendorReportedEchoSpacing": 0.00049,
  "DeviceSerialNumber": "66112",
  "DwellTime": 2e-06,
  "EchoTime": 0.0272,
  "EchoTrainLength": 82,
  "EffectiveEchoSpacing": 0.00049,
  "FlipAngle": 44,
  "ImageComments": "Unaliased MB8/PE3",
  "ImageOrientationPatientDICOM": [0.995597, -0.0856267, 0.0381367, 0.0811533, 0.991, 0.10646],
  "ImageType": [
    "ORIGINAL",
    "PRIMARY",
    "M",
    "MB",
    "ND",
    "NORM",
    "MOSAIC"
],
  "ImagingFrequency": 123.259,
  "InPlanePhaseEncodingDirectionDICOM": "COL",
  "InstitutionAddress": "Maynard 3,Hanover,NH,US,03755",
  "InstitutionName": "Dartmouth College - PBS",
  "InstitutionalDepartmentName": "Department",
  "MRAcquisitionType": "2D",
  "MagneticFieldStrength": 3,
  "Manufacturer": "Siemens",
  "ManufacturersModelName": "Prisma",
  "Modality": "MR",
  "MultibandAccelerationFactor": 8,
  "PartialFourier": 1,
  "PatientPosition": "HFS",
  "PercentPhaseFOV": 100,
  "PercentSampling": 100,
  "PhaseEncodingDirection": "j-",
  "PhaseEncodingSteps": 82,
  "PhaseResolution": 1,
  "PixelBandwidth": 3050,
  "ProcedureStepDescription": "Wager_Wager^1076_spacetop",
  "ProtocolName": "func_run-06_task-social_acq-ap-mb8",
  "PulseSequenceDetails": "%CustomerSeq%\\cmrr_mbep2d_bold",
  "ReceiveCoilActiveElements": "HEA;HEP",
  "ReceiveCoilName": "Head_32",
  "ReconMatrixPE": 82,
  "RepetitionTime": 0.46,
  "SAR": 0.0837076,
  "ScanOptions": "FS",
  "ScanningSequence": "EP",
  "SequenceName": "epfid2d1_82",
  "SequenceVariant": "SK\\SS",
  "SeriesDescription": "func_run-06_task-social_acq-ap-mb8",
  "SeriesNumber": 22,
  "ShimSetting": [4229, -7769, -7244, 317, -100, -25, -50, 74],
  "SliceThickness": 2.7,
  "SliceTiming": [0, 0.2525, 0.0625, 0.315, 0.125, 0.3775, 0.19, 0, 0.2525, 0.0625, 0.315, 0.125, 0.3775, 0.19, 0, 0.2525, 0.0625, 0.315, 0.125, 0.3775, 0.19, 0, 0.2525, 0.0625, 0.315, 0.125, 0.3775, 0.19, 0, 0.2525, 0.0625, 0.315, 0.125, 0.3775, 0.19, 0, 0.2525, 0.0625, 0.315, 0.125, 0.3775, 0.19, 0, 0.2525, 0.0625, 0.315, 0.125, 0.3775, 0.19, 0, 0.2525, 0.0625, 0.315, 0.125, 0.3775, 0.19],
  "SoftwareVersions": "syngo MR E11",
  "SpacingBetweenSlices": 2.7,
  "StationName": "AWP66112",
  "TaskName": "social",
  "TotalReadoutTime": 0.03969,
  "TxRefAmp": 226.948,
  "WipMemBlock": "24cf47e1-0883-4cd4-bb6e-821ade9e5654||Sequence: R016 ve11e/master r/434b28f1; Aug  7 2019 18:53:46 by eja",
  "dcmmeta_affine": [
    [-2.671114444732666, 0.2177283763885498, 0.12665516138076782, 98.30856323242188],
    [0.22973017394542694, 2.6587796211242676, 0.2778204381465912, -107.38504791259766],
    [0.10231807082891464, -0.2856246829032898, 2.682680368423462, -69.29043579101562],
    [0.0, 0.0, 0.0, 1.0]
],
  "dcmmeta_reorient_transform": [
    [0.0, -1.0, 0.0, 81.0],
    [1.0, 0.0, 0.0, 0.0],
    [0.0, 0.0, 1.0, 0.0],
    [0.0, 0.0, 0.0, 1.0]
],
  "dcmmeta_shape": [82, 82, 56, 872],
  "dcmmeta_slice_dim": 2,
  "dcmmeta_version": 0.6,
  "global": {
    "const": {
      "AccessionNumber": "A004773",
      "AcquisitionMatrix": [82, 0, 0, 82],
      "AngioFlag": "N",
      "BitsAllocated": 16,
      "BitsStored": 16,
      "BodyPartExamined": "BRAIN",
      "Columns": 656,
      "EchoNumbers": 1,
      "EchoTime": 27.2,
      "EchoTrainLength": 82,
      "FlipAngle": 44.0,
      "HighBit": 15,
      "ImageOrientationPatient": [0.99559713618189, -0.0856267012295, 0.0381367337742, 0.08115330066169, 0.99099969100344, 0.10646010625014],
      "ImagePositionPatient": [-945.04241592842, -805.11332651934, -203.76560799737],
      "ImageType": [
        "ORIGINAL",
        "PRIMARY",
        "M",
        "MB",
        "ND",
        "NORM",
        "MOSAIC"
],
      "ImagedNucleus": "1H",
      "ImagingFrequency": 123.259115,
      "InPlanePhaseEncodingDirection": "COL",
      "MRAcquisitionType": "2D",
      "MagneticFieldStrength": 3.0,
      "Manufacturer": "SIEMENS",
      "ManufacturerModelName": "Prisma",
      "Modality": "MR",
      "NumberOfAverages": 1.0,
      "NumberOfPhaseEncodingSteps": 82,
      "PercentPhaseFieldOfView": 100.0,
      "PercentSampling": 100.0,
      "PerformedProcedureStepStartTime": "165759.345000",
      "PhotometricInterpretation": "MONOCHROME2",
      "PixelBandwidth": 3050.0,
      "PixelRepresentation": 0,
      "PixelSpacing": [2.6829268932343, 2.6829268932343],
      "ProtocolName": "func_run-06_task-social_acq-ap-mb8",
      "RepetitionTime": 460.0,
      "Rows": 656,
      "SAR": 0.08370756223612,
      "SamplesPerPixel": 1,
      "ScanOptions": "FS",
      "ScanningSequence": "EP",
      "SequenceName": "epfid2d1_82",
      "SequenceVariant": [
        "SK",
        "SS"
],
      "SeriesDescription": "func_run-06_task-social_acq-ap-mb8",
      "SeriesNumber": 22,
      "SeriesTime": "181539.717000",
      "SliceLocation": -75.283918182665,
      "SliceThickness": 2.7000000476837,
      "SmallestImagePixelValue": 0,
      "SoftwareVersions": "syngo MR E11",
      "SpacingBetweenSlices": 2.7000000124068,
      "SpecificCharacterSet": "ISO_IR 100",
      "StudyID": "1",
      "StudyTime": "165759.278000",
      "TransmitCoilName": "Body",
      "VariableFlipAngleFlag": "N",
      "WindowCenterWidthExplanation": "Algo1"
    },
    "slices": {}
  },
  "time": {
    "samples": {
      "AcquisitionNumber": [1, 2, 3, 4, 5, 6, 7, 8, 9, 10, 11, 12, 13, 14, 15, 16, 17, 18, 19, 20, 21, 22, 23, 24, 25, 26, 27, 28, 29, 30, 31, 32, 33, 34, 35, 36, 37, 38, 39, 40, 41, 42, 43, 44, 45, 46, 47, 48, 49, 50, 51, 52, 53, 54, 55, 56, 57, 58, 59, 60, 61, 62, 63, 64, 65, 66, 67, 68, 69, 70, 71, 72, 73, 74, 75, 76, 77, 78, 79, 80, 81, 82, 83, 84, 85, 86, 87, 88, 89, 90, 91, 92, 93, 94, 95, 96, 97, 98, 99, 100, 101, 102, 103, 104, 105, 106, 107, 108, 109, 110, 111, 112, 113, 114, 115, 116, 117, 118, 119, 120, 121, 122, 123, 124, 125, 126, 127, 128, 129, 130, 131, 132, 133, 134, 135, 136, 137, 138, 139, 140, 141, 142, 143, 144, 145, 146, 147, 148, 149, 150, 151, 152, 153, 154, 155, 156, 157, 158, 159, 160, 161, 162, 163, 164, 165, 166, 167, 168, 169, 170, 171, 172, 173, 174, 175, 176, 177, 178, 179, 180, 181, 182, 183, 184, 185, 186, 187, 188, 189, 190, 191, 192, 193, 194, 195, 196, 197, 198, 199, 200, 201, 202, 203, 204, 205, 206, 207, 208, 209, 210, 211, 212, 213, 214, 215, 216, 217, 218, 219, 220, 221, 222, 223, 224, 225, 226, 227, 228, 229, 230, 231, 232, 233, 234, 235, 236, 237, 238, 239, 240, 241, 242, 243, 244, 245, 246, 247, 248, 249, 250, 251, 252, 253, 254, 255, 256, 257, 258, 259, 260, 261, 262, 263, 264, 265, 266, 267, 268, 269, 270, 271, 272, 273, 274, 275, 276, 277, 278, 279, 280, 281, 282, 283, 284, 285, 286, 287, 288, 289, 290, 291, 292, 293, 294, 295, 296, 297, 298, 299, 300, 301, 302, 303, 304, 305, 306, 307, 308, 309, 310, 311, 312, 313, 314, 315, 316, 317, 318, 319, 320, 321, 322, 323, 324, 325, 326, 327, 328, 329, 330, 331, 332, 333, 334, 335, 336, 337, 338, 339, 340, 341, 342, 343, 344, 345, 346, 347, 348, 349, 350, 351, 352, 353, 354, 355, 356, 357, 358, 359, 360, 361, 362, 363, 364, 365, 366, 367, 368, 369, 370, 371, 372, 373, 374, 375, 376, 377, 378, 379, 380, 381, 382, 383, 384, 385, 386, 387, 388, 389, 390, 391, 392, 393, 394, 395, 396, 397, 398, 399, 400, 401, 402, 403, 404, 405, 406, 407, 408, 409, 410, 411, 412, 413, 414, 415, 416, 417, 418, 419, 420, 421, 422, 423, 424, 425, 426, 427, 428, 429, 430, 431, 432, 433, 434, 435, 436, 437, 438, 439, 440, 441, 442, 443, 444, 445, 446, 447, 448, 449, 450, 451, 452, 453, 454, 455, 456, 457, 458, 459, 460, 461, 462, 463, 464, 465, 466, 467, 468, 469, 470, 471, 472, 473, 474, 475, 476, 477, 478, 479, 480, 481, 482, 483, 484, 485, 486, 487, 488, 489, 490, 491, 492, 493, 494, 495, 496, 497, 498, 499, 500, 501, 502, 503, 504, 505, 506, 507, 508, 509, 510, 511, 512, 513, 514, 515, 516, 517, 518, 519, 520, 521, 522, 523, 524, 525, 526, 527, 528, 529, 530, 531, 532, 533, 534, 535, 536, 537, 538, 539, 540, 541, 542, 543, 544, 545, 546, 547, 548, 549, 550, 551, 552, 553, 554, 555, 556, 557, 558, 559, 560, 561, 562, 563, 564, 565, 566, 567, 568, 569, 570, 571, 572, 573, 574, 575, 576, 577, 578, 579, 580, 581, 582, 583, 584, 585, 586, 587, 588, 589, 590, 591, 592, 593, 594, 595, 596, 597, 598, 599, 600, 601, 602, 603, 604, 605, 606, 607, 608, 609, 610, 611, 612, 613, 614, 615, 616, 617, 618, 619, 620, 621, 622, 623, 624, 625, 626, 627, 628, 629, 630, 631, 632, 633, 634, 635, 636, 637, 638, 639, 640, 641, 642, 643, 644, 645, 646, 647, 648, 649, 650, 651, 652, 653, 654, 655, 656, 657, 658, 659, 660, 661, 662, 663, 664, 665, 666, 667, 668, 669, 670, 671, 672, 673, 674, 675, 676, 677, 678, 679, 680, 681, 682, 683, 684, 685, 686, 687, 688, 689, 690, 691, 692, 693, 694, 695, 696, 697, 698, 699, 700, 701, 702, 703, 704, 705, 706, 707, 708, 709, 710, 711, 712, 713, 714, 715, 716, 717, 718, 719, 720, 721, 722, 723, 724, 725, 726, 727, 728, 729, 730, 731, 732, 733, 734, 735, 736, 737, 738, 739, 740, 741, 742, 743, 744, 745, 746, 747, 748, 749, 750, 751, 752, 753, 754, 755, 756, 757, 758, 759, 760, 761, 762, 763, 764, 765, 766, 767, 768, 769, 770, 771, 772, 773, 774, 775, 776, 777, 778, 779, 780, 781, 782, 783, 784, 785, 786, 787, 788, 789, 790, 791, 792, 793, 794, 795, 796, 797, 798, 799, 800, 801, 802, 803, 804, 805, 806, 807, 808, 809, 810, 811, 812, 813, 814, 815, 816, 817, 818, 819, 820, 821, 822, 823, 824, 825, 826, 827, 828, 829, 830, 831, 832, 833, 834, 835, 836, 837, 838, 839, 840, 841, 842, 843, 844, 845, 846, 847, 848, 849, 850, 851, 852, 853, 854, 855, 856, 857, 858, 859, 860, 861, 862, 863, 864, 865, 866, 867, 868, 869, 870, 871, 872],
      "AcquisitionTime": ["181513.432500", "181513.892500", "181514.352500", "181514.812500", "181515.272500", "181515.732500", "181516.192500", "181516.652500", "181517.112500", "181517.572500", "181518.032500", "181518.492500", "181518.952500", "181519.412500", "181519.872500", "181520.332500", "181520.792500", "181521.252500", "181521.712500", "181522.172500", "181522.632500", "181523.092500", "181523.552500", "181524.012500", "181524.472500", "181524.932500", "181525.392500", "181525.852500", "181526.312500", "181526.772500", "181527.232500", "181527.692500", "181528.152500", "181528.612500", "181529.072500", "181529.532500", "181529.992500", "181530.452500", "181530.912500", "181531.372500", "181531.832500", "181532.292500", "181532.752500", "181533.212500", "181533.672500", "181534.132500", "181534.592500", "181535.052500", "181535.512500", "181535.972500", "181536.432500", "181536.892500", "181537.352500", "181537.812500", "181538.272500", "181538.732500", "181539.192500", "181539.652500", "181540.112500", "181540.572500", "181541.032500", "181541.492500", "181541.952500", "181542.412500", "181542.872500", "181543.332500", "181543.792500", "181544.252500", "181544.712500", "181545.172500", "181545.632500", "181546.092500", "181546.552500", "181547.012500", "181547.472500", "181547.932500", "181548.392500", "181548.852500", "181549.312500", "181549.772500", "181550.232500", "181550.692500", "181551.152500", "181551.612500", "181552.072500", "181552.532500", "181552.992500", "181553.452500", "181553.912500", "181554.372500", "181554.832500", "181555.292500", "181555.752500", "181556.212500", "181556.672500", "181557.132500", "181557.592500", "181558.052500", "181558.512500", "181558.972500", "181559.432500", "181559.892500", "181600.352500", "181600.812500", "181601.272500", "181601.732500", "181602.192500", "181602.652500", "181603.112500", "181603.572500", "181604.032500", "181604.492500", "181604.952500", "181605.412500", "181605.872500", "181606.332500", "181606.792500", "181607.252500", "181607.712500", "181608.172500", "181608.632500", "181609.092500", "181609.552500", "181610.012500", "181610.472500", "181610.932500", "181611.392500", "181611.852500", "181612.312500", "181612.772500", "181613.232500", "181613.692500", "181614.152500", "181614.612500", "181615.072500", "181615.532500", "181615.992500", "181616.452500", "181616.912500", "181617.372500", "181617.832500", "181618.292500", "181618.752500", "181619.212500", "181619.672500", "181620.132500", "181620.592500", "181621.052500", "181621.512500", "181621.972500", "181622.432500", "181622.892500", "181623.352500", "181623.812500", "181624.272500", "181624.732500", "181625.192500", "181625.652500", "181626.112500", "181626.572500", "181627.032500", "181627.492500", "181627.952500", "181628.412500", "181628.872500", "181629.332500", "181629.792500", "181630.252500", "181630.712500", "181631.172500", "181631.632500", "181632.092500", "181632.552500", "181633.012500", "181633.472500", "181633.932500", "181634.392500", "181634.852500", "181635.312500", "181635.772500", "181636.232500", "181636.692500", "181637.152500", "181637.612500", "181638.072500", "181638.532500", "181638.992500", "181639.452500", "181639.912500", "181640.372500", "181640.832500", "181641.292500", "181641.752500", "181642.212500", "181642.672500", "181643.132500", "181643.592500", "181644.052500", "181644.512500", "181644.972500", "181645.432500", "181645.892500", "181646.352500", "181646.812500", "181647.272500", "181647.732500", "181648.192500", "181648.652500", "181649.112500", "181649.572500", "181650.032500", "181650.492500", "181650.952500", "181651.412500", "181651.872500", "181652.332500", "181652.792500", "181653.252500", "181653.712500", "181654.172500", "181654.632500", "181655.092500", "181655.552500", "181656.012500", "181656.472500", "181656.932500", "181657.392500", "181657.852500", "181658.312500", "181658.772500", "181659.232500", "181659.692500", "181700.152500", "181700.612500", "181701.072500", "181701.532500", "181701.992500", "181702.452500", "181702.912500", "181703.372500", "181703.832500", "181704.292500", "181704.752500", "181705.212500", "181705.672500", "181706.132500", "181706.592500", "181707.052500", "181707.512500", "181707.972500", "181708.432500", "181708.892500", "181709.352500", "181709.812500", "181710.272500", "181710.732500", "181711.192500", "181711.652500", "181712.112500", "181712.572500", "181713.032500", "181713.492500", "181713.952500", "181714.412500", "181714.872500", "181715.332500", "181715.792500", "181716.252500", "181716.712500", "181717.172500", "181717.632500", "181718.092500", "181718.552500", "181719.012500", "181719.472500", "181719.932500", "181720.392500", "181720.852500", "181721.312500", "181721.772500", "181722.232500", "181722.692500", "181723.152500", "181723.612500", "181724.072500", "181724.532500", "181724.992500", "181725.452500", "181725.912500", "181726.372500", "181726.832500", "181727.292500", "181727.752500", "181728.212500", "181728.672500", "181729.132500", "181729.592500", "181730.052500", "181730.512500", "181730.972500", "181731.432500", "181731.892500", "181732.352500", "181732.812500", "181733.272500", "181733.732500", "181734.192500", "181734.652500", "181735.112500", "181735.572500", "181736.032500", "181736.492500", "181736.952500", "181737.412500", "181737.872500", "181738.332500", "181738.792500", "181739.252500", "181739.712500", "181740.172500", "181740.632500", "181741.092500", "181741.552500", "181742.012500", "181742.472500", "181742.932500", "181743.392500", "181743.852500", "181744.312500", "181744.772500", "181745.232500", "181745.692500", "181746.152500", "181746.612500", "181747.072500", "181747.532500", "181747.992500", "181748.452500", "181748.912500", "181749.372500", "181749.832500", "181750.292500", "181750.752500", "181751.212500", "181751.672500", "181752.132500", "181752.592500", "181753.052500", "181753.512500", "181753.972500", "181754.432500", "181754.892500", "181755.352500", "181755.812500", "181756.272500", "181756.732500", "181757.192500", "181757.652500", "181758.112500", "181758.572500", "181759.032500", "181759.492500", "181759.952500", "181800.412500", "181800.872500", "181801.332500", "181801.792500", "181802.252500", "181802.712500", "181803.172500", "181803.632500", "181804.092500", "181804.552500", "181805.012500", "181805.472500", "181805.932500", "181806.392500", "181806.852500", "181807.312500", "181807.772500", "181808.232500", "181808.692500", "181809.152500", "181809.612500", "181810.072500", "181810.532500", "181810.992500", "181811.452500", "181811.912500", "181812.372500", "181812.832500", "181813.292500", "181813.752500", "181814.212500", "181814.672500", "181815.132500", "181815.592500", "181816.052500", "181816.512500", "181816.972500", "181817.432500", "181817.892500", "181818.352500", "181818.812500", "181819.272500", "181819.732500", "181820.192500", "181820.652500", "181821.112500", "181821.572500", "181822.032500", "181822.492500", "181822.952500", "181823.412500", "181823.872500", "181824.332500", "181824.792500", "181825.252500", "181825.712500", "181826.172500", "181826.632500", "181827.092500", "181827.552500", "181828.012500", "181828.472500", "181828.932500", "181829.392500", "181829.852500", "181830.312500", "181830.772500", "181831.232500", "181831.692500", "181832.152500", "181832.612500", "181833.072500", "181833.532500", "181833.992500", "181834.452500", "181834.912500", "181835.372500", "181835.832500", "181836.292500", "181836.752500", "181837.212500", "181837.672500", "181838.132500", "181838.592500", "181839.052500", "181839.512500", "181839.972500", "181840.432500", "181840.892500", "181841.352500", "181841.812500", "181842.272500", "181842.732500", "181843.192500", "181843.652500", "181844.112500", "181844.572500", "181845.032500", "181845.492500", "181845.952500", "181846.412500", "181846.872500", "181847.332500", "181847.792500", "181848.252500", "181848.712500", "181849.172500", "181849.632500", "181850.092500", "181850.552500", "181851.012500", "181851.472500", "181851.932500", "181852.392500", "181852.852500", "181853.312500", "181853.772500", "181854.232500", "181854.692500", "181855.152500", "181855.612500", "181856.072500", "181856.532500", "181856.992500", "181857.452500", "181857.912500", "181858.372500", "181858.832500", "181859.292500", "181859.752500", "181900.212500", "181900.672500", "181901.132500", "181901.592500", "181902.052500", "181902.512500", "181902.972500", "181903.432500", "181903.892500", "181904.352500", "181904.812500", "181905.272500", "181905.732500", "181906.192500", "181906.652500", "181907.112500", "181907.572500", "181908.032500", "181908.492500", "181908.952500", "181909.412500", "181909.872500", "181910.332500", "181910.792500", "181911.252500", "181911.712500", "181912.172500", "181912.632500", "181913.092500", "181913.552500", "181914.012500", "181914.472500", "181914.932500", "181915.392500", "181915.852500", "181916.312500", "181916.772500", "181917.232500", "181917.692500", "181918.152500", "181918.612500", "181919.072500", "181919.532500", "181919.992500", "181920.452500", "181920.912500", "181921.372500", "181921.832500", "181922.292500", "181922.752500", "181923.212500", "181923.672500", "181924.132500", "181924.592500", "181925.052500", "181925.512500", "181925.972500", "181926.432500", "181926.892500", "181927.352500", "181927.812500", "181928.272500", "181928.732500", "181929.192500", "181929.652500", "181930.112500", "181930.572500", "181931.032500", "181931.492500", "181931.952500", "181932.412500", "181932.872500", "181933.332500", "181933.792500", "181934.252500", "181934.712500", "181935.172500", "181935.632500", "181936.092500", "181936.552500", "181937.012500", "181937.472500", "181937.932500", "181938.392500", "181938.852500", "181939.312500", "181939.772500", "181940.232500", "181940.692500", "181941.152500", "181941.612500", "181942.072500", "181942.532500", "181942.992500", "181943.452500", "181943.912500", "181944.372500", "181944.832500", "181945.292500", "181945.752500", "181946.212500", "181946.672500", "181947.132500", "181947.592500", "181948.052500", "181948.512500", "181948.972500", "181949.432500", "181949.892500", "181950.352500", "181950.812500", "181951.272500", "181951.732500", "181952.192500", "181952.652500", "181953.112500", "181953.572500", "181954.032500", "181954.492500", "181954.952500", "181955.412500", "181955.872500", "181956.332500", "181956.792500", "181957.252500", "181957.712500", "181958.172500", "181958.632500", "181959.092500", "181959.552500", "182000.012500", "182000.472500", "182000.932500", "182001.392500", "182001.852500", "182002.312500", "182002.772500", "182003.232500", "182003.692500", "182004.152500", "182004.612500", "182005.072500", "182005.532500", "182005.992500", "182006.452500", "182006.912500", "182007.372500", "182007.832500", "182008.292500", "182008.752500", "182009.212500", "182009.672500", "182010.132500", "182010.592500", "182011.052500", "182011.512500", "182011.972500", "182012.432500", "182012.892500", "182013.352500", "182013.812500", "182014.272500", "182014.732500", "182015.192500", "182015.652500", "182016.112500", "182016.572500", "182017.032500", "182017.492500", "182017.952500", "182018.412500", "182018.872500", "182019.332500", "182019.792500", "182020.252500", "182020.712500", "182021.172500", "182021.632500", "182022.092500", "182022.552500", "182023.012500", "182023.472500", "182023.932500", "182024.392500", "182024.852500", "182025.312500", "182025.772500", "182026.232500", "182026.692500", "182027.152500", "182027.612500", "182028.072500", "182028.532500", "182028.992500", "182029.452500", "182029.912500", "182030.372500", "182030.832500", "182031.292500", "182031.752500", "182032.212500", "182032.672500", "182033.132500", "182033.592500", "182034.052500", "182034.512500", "182034.972500", "182035.432500", "182035.892500", "182036.352500", "182036.812500", "182037.272500", "182037.732500", "182038.192500", "182038.652500", "182039.112500", "182039.572500", "182040.032500", "182040.492500", "182040.952500", "182041.412500", "182041.872500", "182042.332500", "182042.792500", "182043.252500", "182043.712500", "182044.172500", "182044.632500", "182045.092500", "182045.552500", "182046.012500", "182046.472500", "182046.932500", "182047.392500", "182047.852500", "182048.312500", "182048.772500", "182049.232500", "182049.692500", "182050.152500", "182050.612500", "182051.072500", "182051.532500", "182051.992500", "182052.452500", "182052.912500", "182053.372500", "182053.832500", "182054.292500", "182054.752500", "182055.212500", "182055.672500", "182056.132500", "182056.592500", "182057.052500", "182057.512500", "182057.972500", "182058.432500", "182058.892500", "182059.352500", "182059.812500", "182100.272500", "182100.732500", "182101.192500", "182101.652500", "182102.112500", "182102.572500", "182103.032500", "182103.492500", "182103.952500", "182104.412500", "182104.872500", "182105.332500", "182105.792500", "182106.252500", "182106.712500", "182107.172500", "182107.632500", "182108.092500", "182108.552500", "182109.012500", "182109.472500", "182109.932500", "182110.392500", "182110.852500", "182111.312500", "182111.772500", "182112.232500", "182112.692500", "182113.152500", "182113.612500", "182114.072500", "182114.532500", "182114.992500", "182115.452500", "182115.912500", "182116.372500", "182116.832500", "182117.292500", "182117.752500", "182118.212500", "182118.672500", "182119.132500", "182119.592500", "182120.052500", "182120.512500", "182120.972500", "182121.432500", "182121.892500", "182122.352500", "182122.812500", "182123.272500", "182123.732500", "182124.192500", "182124.652500", "182125.112500", "182125.572500", "182126.032500", "182126.492500", "182126.952500", "182127.412500", "182127.872500", "182128.332500", "182128.792500", "182129.252500", "182129.712500", "182130.172500", "182130.632500", "182131.092500", "182131.552500", "182132.012500", "182132.472500", "182132.932500", "182133.392500", "182133.852500", "182134.312500", "182134.772500", "182135.232500", "182135.692500", "182136.152500", "182136.612500", "182137.072500", "182137.532500", "182137.992500", "182138.452500", "182138.912500", "182139.372500", "182139.832500", "182140.292500", "182140.752500", "182141.212500", "182141.672500", "182142.132500", "182142.592500", "182143.052500", "182143.512500", "182143.972500", "182144.432500", "182144.892500", "182145.352500", "182145.812500", "182146.272500", "182146.732500", "182147.192500", "182147.652500", "182148.112500", "182148.572500", "182149.032500", "182149.492500", "182149.952500", "182150.412500", "182150.872500", "182151.332500", "182151.792500", "182152.252500", "182152.712500", "182153.172500", "182153.632500", "182154.092500"],
