{
  "AcquisitionMatrixPE": 82,
  "AcquisitionNumber": 1,
  "AcquisitionTime": "18:00:31.217500",
  "BandwidthPerPixelPhaseEncode": 24.888,
  "BaseResolution": 82,
  "BodyPartExamined": "BRAIN",
  "ConsistencyInfo": "N4_VE11E_LATEST_20181129",
  "ConversionSoftware": "dcm2niix",
  "ConversionSoftwareVersion": "v1.0.20201102",
  "DerivedVendorReportedEchoSpacing": 0.00049,
  "DeviceSerialNumber": "66112",
  "DwellTime": 2e-06,
  "EchoTime": 0.0272,
  "EchoTrainLength": 82,
  "EffectiveEchoSpacing": 0.00049,
  "FlipAngle": 44,
  "ImageComments": "Unaliased MB8/PE3",
  "ImageOrientationPatientDICOM": [0.995597, -0.0856267, 0.0381367, 0.0811533, 0.991, 0.10646],
  "ImageType": [
    "ORIGINAL",
    "PRIMARY",
    "M",
    "MB",
    "ND",
    "NORM",
    "MOSAIC"
],
  "ImagingFrequency": 123.259,
  "InPlanePhaseEncodingDirectionDICOM": "COL",
  "InstitutionAddress": "Maynard 3,Hanover,NH,US,03755",
  "InstitutionName": "Dartmouth College - PBS",
  "InstitutionalDepartmentName": "Department",
  "MRAcquisitionType": "2D",
  "MagneticFieldStrength": 3,
  "Manufacturer": "Siemens",
  "ManufacturersModelName": "Prisma",
  "Modality": "MR",
  "MultibandAccelerationFactor": 8,
  "PartialFourier": 1,
  "PatientPosition": "HFS",
  "PercentPhaseFOV": 100,
  "PercentSampling": 100,
  "PhaseEncodingDirection": "j-",
  "PhaseEncodingSteps": 82,
  "PhaseResolution": 1,
  "PixelBandwidth": 3050,
  "ProcedureStepDescription": "Wager_Wager^1076_spacetop",
  "ProtocolName": "func_run-04_task-social_acq-ap-mb8",
  "PulseSequenceDetails": "%CustomerSeq%\\cmrr_mbep2d_bold",
  "ReceiveCoilActiveElements": "HEA;HEP",
  "ReceiveCoilName": "Head_32",
  "ReconMatrixPE": 82,
  "RepetitionTime": 0.46,
  "SAR": 0.0837076,
  "ScanOptions": "FS",
  "ScanningSequence": "EP",
  "SequenceName": "epfid2d1_82",
  "SequenceVariant": "SK\\SS",
  "SeriesDescription": "func_run-04_task-social_acq-ap-mb8",
  "SeriesNumber": 18,
  "ShimSetting": [4229, -7769, -7244, 317, -100, -25, -50, 74],
  "SliceThickness": 2.7,
  "SliceTiming": [0, 0.2525, 0.0625, 0.315, 0.125, 0.3775, 0.1875, 0, 0.2525, 0.0625, 0.315, 0.125, 0.3775, 0.1875, 0, 0.2525, 0.0625, 0.315, 0.125, 0.3775, 0.1875, 0, 0.2525, 0.0625, 0.315, 0.125, 0.3775, 0.1875, 0, 0.2525, 0.0625, 0.315, 0.125, 0.3775, 0.1875, 0, 0.2525, 0.0625, 0.315, 0.125, 0.3775, 0.1875, 0, 0.2525, 0.0625, 0.315, 0.125, 0.3775, 0.1875, 0, 0.2525, 0.0625, 0.315, 0.125, 0.3775, 0.1875],
  "SoftwareVersions": "syngo MR E11",
  "SpacingBetweenSlices": 2.7,
  "StationName": "AWP66112",
  "TaskName": "social",
  "TotalReadoutTime": 0.03969,
  "TxRefAmp": 226.948,
  "WipMemBlock": "00c15498-b694-4b66-9da7-424e65763084||Sequence: R016 ve11e/master r/434b28f1; Aug  7 2019 18:53:46 by eja",
  "dcmmeta_affine": [
    [-2.671114444732666, 0.2177283763885498, 0.12665516138076782, 98.30856323242188],
    [0.22973017394542694, 2.6587796211242676, 0.2778204381465912, -107.38504791259766],
    [0.10231807082891464, -0.2856246829032898, 2.682680368423462, -69.29043579101562],
    [0.0, 0.0, 0.0, 1.0]
],
  "dcmmeta_reorient_transform": [
    [0.0, -1.0, 0.0, 81.0],
    [1.0, 0.0, 0.0, 0.0],
    [0.0, 0.0, 1.0, 0.0],
    [0.0, 0.0, 0.0, 1.0]
],
  "dcmmeta_shape": [82, 82, 56, 872],
  "dcmmeta_slice_dim": 2,
  "dcmmeta_version": 0.6,
  "global": {
    "const": {
      "AccessionNumber": "A004773",
      "AcquisitionMatrix": [82, 0, 0, 82],
      "AngioFlag": "N",
      "BitsAllocated": 16,
      "BitsStored": 16,
      "BodyPartExamined": "BRAIN",
      "Columns": 656,
      "EchoNumbers": 1,
      "EchoTime": 27.2,
      "EchoTrainLength": 82,
      "FlipAngle": 44.0,
      "HighBit": 15,
      "ImageOrientationPatient": [0.99559713618189, -0.0856267012295, 0.0381367337742, 0.08115330066169, 0.99099969100344, 0.10646010625014],
      "ImagePositionPatient": [-945.04241592842, -805.11332651934, -203.76560799737],
      "ImageType": [
        "ORIGINAL",
        "PRIMARY",
        "M",
        "MB",
        "ND",
        "NORM",
        "MOSAIC"
],
      "ImagedNucleus": "1H",
      "ImagingFrequency": 123.25911,
      "InPlanePhaseEncodingDirection": "COL",
      "MRAcquisitionType": "2D",
      "MagneticFieldStrength": 3.0,
      "Manufacturer": "SIEMENS",
      "ManufacturerModelName": "Prisma",
      "Modality": "MR",
      "NumberOfAverages": 1.0,
      "NumberOfPhaseEncodingSteps": 82,
      "PercentPhaseFieldOfView": 100.0,
      "PercentSampling": 100.0,
      "PerformedProcedureStepStartTime": "165759.345000",
      "PhotometricInterpretation": "MONOCHROME2",
      "PixelBandwidth": 3050.0,
      "PixelRepresentation": 0,
      "PixelSpacing": [2.6829268932343, 2.6829268932343],
      "ProtocolName": "func_run-04_task-social_acq-ap-mb8",
      "RepetitionTime": 460.0,
      "Rows": 656,
      "SAR": 0.08370756223612,
      "SamplesPerPixel": 1,
      "ScanOptions": "FS",
      "ScanningSequence": "EP",
      "SequenceName": "epfid2d1_82",
      "SequenceVariant": [
        "SK",
        "SS"
],
      "SeriesDescription": "func_run-04_task-social_acq-ap-mb8",
      "SeriesNumber": 18,
      "SeriesTime": "180049.066000",
      "SliceLocation": -75.283918182665,
      "SliceThickness": 2.7000000476837,
      "SmallestImagePixelValue": 0,
      "SoftwareVersions": "syngo MR E11",
      "SpacingBetweenSlices": 2.7000000124068,
      "SpecificCharacterSet": "ISO_IR 100",
      "StudyID": "1",
      "StudyTime": "165759.278000",
      "TransmitCoilName": "Body",
      "VariableFlipAngleFlag": "N",
      "WindowCenterWidthExplanation": "Algo1"
    },
    "slices": {}
  },
  "time": {
    "samples": {
      "AcquisitionNumber": [1, 2, 3, 4, 5, 6, 7, 8, 9, 10, 11, 12, 13, 14, 15, 16, 17, 18, 19, 20, 21, 22, 23, 24, 25, 26, 27, 28, 29, 30, 31, 32, 33, 34, 35, 36, 37, 38, 39, 40, 41, 42, 43, 44, 45, 46, 47, 48, 49, 50, 51, 52, 53, 54, 55, 56, 57, 58, 59, 60, 61, 62, 63, 64, 65, 66, 67, 68, 69, 70, 71, 72, 73, 74, 75, 76, 77, 78, 79, 80, 81, 82, 83, 84, 85, 86, 87, 88, 89, 90, 91, 92, 93, 94, 95, 96, 97, 98, 99, 100, 101, 102, 103, 104, 105, 106, 107, 108, 109, 110, 111, 112, 113, 114, 115, 116, 117, 118, 119, 120, 121, 122, 123, 124, 125, 126, 127, 128, 129, 130, 131, 132, 133, 134, 135, 136, 137, 138, 139, 140, 141, 142, 143, 144, 145, 146, 147, 148, 149, 150, 151, 152, 153, 154, 155, 156, 157, 158, 159, 160, 161, 162, 163, 164, 165, 166, 167, 168, 169, 170, 171, 172, 173, 174, 175, 176, 177, 178, 179, 180, 181, 182, 183, 184, 185, 186, 187, 188, 189, 190, 191, 192, 193, 194, 195, 196, 197, 198, 199, 200, 201, 202, 203, 204, 205, 206, 207, 208, 209, 210, 211, 212, 213, 214, 215, 216, 217, 218, 219, 220, 221, 222, 223, 224, 225, 226, 227, 228, 229, 230, 231, 232, 233, 234, 235, 236, 237, 238, 239, 240, 241, 242, 243, 244, 245, 246, 247, 248, 249, 250, 251, 252, 253, 254, 255, 256, 257, 258, 259, 260, 261, 262, 263, 264, 265, 266, 267, 268, 269, 270, 271, 272, 273, 274, 275, 276, 277, 278, 279, 280, 281, 282, 283, 284, 285, 286, 287, 288, 289, 290, 291, 292, 293, 294, 295, 296, 297, 298, 299, 300, 301, 302, 303, 304, 305, 306, 307, 308, 309, 310, 311, 312, 313, 314, 315, 316, 317, 318, 319, 320, 321, 322, 323, 324, 325, 326, 327, 328, 329, 330, 331, 332, 333, 334, 335, 336, 337, 338, 339, 340, 341, 342, 343, 344, 345, 346, 347, 348, 349, 350, 351, 352, 353, 354, 355, 356, 357, 358, 359, 360, 361, 362, 363, 364, 365, 366, 367, 368, 369, 370, 371, 372, 373, 374, 375, 376, 377, 378, 379, 380, 381, 382, 383, 384, 385, 386, 387, 388, 389, 390, 391, 392, 393, 394, 395, 396, 397, 398, 399, 400, 401, 402, 403, 404, 405, 406, 407, 408, 409, 410, 411, 412, 413, 414, 415, 416, 417, 418, 419, 420, 421, 422, 423, 424, 425, 426, 427, 428, 429, 430, 431, 432, 433, 434, 435, 436, 437, 438, 439, 440, 441, 442, 443, 444, 445, 446, 447, 448, 449, 450, 451, 452, 453, 454, 455, 456, 457, 458, 459, 460, 461, 462, 463, 464, 465, 466, 467, 468, 469, 470, 471, 472, 473, 474, 475, 476, 477, 478, 479, 480, 481, 482, 483, 484, 485, 486, 487, 488, 489, 490, 491, 492, 493, 494, 495, 496, 497, 498, 499, 500, 501, 502, 503, 504, 505, 506, 507, 508, 509, 510, 511, 512, 513, 514, 515, 516, 517, 518, 519, 520, 521, 522, 523, 524, 525, 526, 527, 528, 529, 530, 531, 532, 533, 534, 535, 536, 537, 538, 539, 540, 541, 542, 543, 544, 545, 546, 547, 548, 549, 550, 551, 552, 553, 554, 555, 556, 557, 558, 559, 560, 561, 562, 563, 564, 565, 566, 567, 568, 569, 570, 571, 572, 573, 574, 575, 576, 577, 578, 579, 580, 581, 582, 583, 584, 585, 586, 587, 588, 589, 590, 591, 592, 593, 594, 595, 596, 597, 598, 599, 600, 601, 602, 603, 604, 605, 606, 607, 608, 609, 610, 611, 612, 613, 614, 615, 616, 617, 618, 619, 620, 621, 622, 623, 624, 625, 626, 627, 628, 629, 630, 631, 632, 633, 634, 635, 636, 637, 638, 639, 640, 641, 642, 643, 644, 645, 646, 647, 648, 649, 650, 651, 652, 653, 654, 655, 656, 657, 658, 659, 660, 661, 662, 663, 664, 665, 666, 667, 668, 669, 670, 671, 672, 673, 674, 675, 676, 677, 678, 679, 680, 681, 682, 683, 684, 685, 686, 687, 688, 689, 690, 691, 692, 693, 694, 695, 696, 697, 698, 699, 700, 701, 702, 703, 704, 705, 706, 707, 708, 709, 710, 711, 712, 713, 714, 715, 716, 717, 718, 719, 720, 721, 722, 723, 724, 725, 726, 727, 728, 729, 730, 731, 732, 733, 734, 735, 736, 737, 738, 739, 740, 741, 742, 743, 744, 745, 746, 747, 748, 749, 750, 751, 752, 753, 754, 755, 756, 757, 758, 759, 760, 761, 762, 763, 764, 765, 766, 767, 768, 769, 770, 771, 772, 773, 774, 775, 776, 777, 778, 779, 780, 781, 782, 783, 784, 785, 786, 787, 788, 789, 790, 791, 792, 793, 794, 795, 796, 797, 798, 799, 800, 801, 802, 803, 804, 805, 806, 807, 808, 809, 810, 811, 812, 813, 814, 815, 816, 817, 818, 819, 820, 821, 822, 823, 824, 825, 826, 827, 828, 829, 830, 831, 832, 833, 834, 835, 836, 837, 838, 839, 840, 841, 842, 843, 844, 845, 846, 847, 848, 849, 850, 851, 852, 853, 854, 855, 856, 857, 858, 859, 860, 861, 862, 863, 864, 865, 866, 867, 868, 869, 870, 871, 872],
      "AcquisitionTime": ["180031.217500", "180031.677500", "180032.137500", "180032.597500", "180033.057500", "180033.517500", "180033.977500", "180034.437500", "180034.897500", "180035.357500", "180035.817500", "180036.277500", "180036.737500", "180037.197500", "180037.657500", "180038.117500", "180038.577500", "180039.037500", "180039.497500", "180039.957500", "180040.417500", "180040.877500", "180041.337500", "180041.797500", "180042.257500", "180042.717500", "180043.177500", "180043.637500", "180044.097500", "180044.557500", "180045.017500", "180045.477500", "180045.937500", "180046.397500", "180046.857500", "180047.317500", "180047.777500", "180048.237500", "180048.697500", "180049.157500", "180049.617500", "180050.077500", "180050.537500", "180050.997500", "180051.457500", "180051.917500", "180052.377500", "180052.837500", "180053.297500", "180053.757500", "180054.217500", "180054.677500", "180055.137500", "180055.597500", "180056.057500", "180056.517500", "180056.977500", "180057.437500", "180057.897500", "180058.357500", "180058.817500", "180059.277500", "180059.737500", "180100.197500", "180100.657500", "180101.117500", "180101.577500", "180102.037500", "180102.497500", "180102.957500", "180103.417500", "180103.877500", "180104.337500", "180104.797500", "180105.257500", "180105.717500", "180106.177500", "180106.637500", "180107.097500", "180107.557500", "180108.017500", "180108.477500", "180108.937500", "180109.397500", "180109.857500", "180110.317500", "180110.777500", "180111.237500", "180111.697500", "180112.157500", "180112.617500", "180113.077500", "180113.537500", "180113.997500", "180114.457500", "180114.917500", "180115.377500", "180115.837500", "180116.297500", "180116.757500", "180117.217500", "180117.677500", "180118.137500", "180118.597500", "180119.057500", "180119.517500", "180119.977500", "180120.437500", "180120.897500", "180121.357500", "180121.817500", "180122.277500", "180122.737500", "180123.197500", "180123.657500", "180124.117500", "180124.577500", "180125.037500", "180125.497500", "180125.957500", "180126.417500", "180126.877500", "180127.337500", "180127.797500", "180128.257500", "180128.717500", "180129.177500", "180129.637500", "180130.097500", "180130.557500", "180131.017500", "180131.477500", "180131.937500", "180132.397500", "180132.857500", "180133.317500", "180133.777500", "180134.237500", "180134.697500", "180135.157500", "180135.617500", "180136.077500", "180136.537500", "180136.997500", "180137.457500", "180137.917500", "180138.377500", "180138.837500", "180139.297500", "180139.757500", "180140.217500", "180140.677500", "180141.137500", "180141.597500", "180142.057500", "180142.517500", "180142.977500", "180143.437500", "180143.897500", "180144.357500", "180144.817500", "180145.277500", "180145.737500", "180146.197500", "180146.657500", "180147.117500", "180147.577500", "180148.037500", "180148.497500", "180148.957500", "180149.417500", "180149.877500", "180150.337500", "180150.797500", "180151.257500", "180151.717500", "180152.177500", "180152.637500", "180153.097500", "180153.557500", "180154.017500", "180154.477500", "180154.937500", "180155.397500", "180155.857500", "180156.317500", "180156.777500", "180157.237500", "180157.697500", "180158.157500", "180158.617500", "180159.077500", "180159.537500", "180159.997500", "180200.457500", "180200.917500", "180201.377500", "180201.837500", "180202.297500", "180202.757500", "180203.217500", "180203.677500", "180204.137500", "180204.597500", "180205.057500", "180205.517500", "180205.977500", "180206.437500", "180206.897500", "180207.357500", "180207.817500", "180208.277500", "180208.737500", "180209.197500", "180209.657500", "180210.117500", "180210.577500", "180211.037500", "180211.497500", "180211.957500", "180212.417500", "180212.877500", "180213.337500", "180213.797500", "180214.257500", "180214.717500", "180215.177500", "180215.637500", "180216.097500", "180216.557500", "180217.017500", "180217.477500", "180217.937500", "180218.397500", "180218.857500", "180219.317500", "180219.777500", "180220.237500", "180220.697500", "180221.157500", "180221.617500", "180222.077500", "180222.537500", "180222.997500", "180223.457500", "180223.917500", "180224.377500", "180224.837500", "180225.297500", "180225.757500", "180226.217500", "180226.677500", "180227.137500", "180227.597500", "180228.057500", "180228.517500", "180228.977500", "180229.437500", "180229.897500", "180230.357500", "180230.817500", "180231.277500", "180231.737500", "180232.197500", "180232.657500", "180233.117500", "180233.577500", "180234.037500", "180234.497500", "180234.957500", "180235.417500", "180235.877500", "180236.337500", "180236.797500", "180237.257500", "180237.717500", "180238.177500", "180238.637500", "180239.097500", "180239.557500", "180240.017500", "180240.477500", "180240.937500", "180241.397500", "180241.857500", "180242.317500", "180242.777500", "180243.237500", "180243.697500", "180244.157500", "180244.617500", "180245.077500", "180245.537500", "180245.997500", "180246.457500", "180246.917500", "180247.377500", "180247.837500", "180248.297500", "180248.757500", "180249.217500", "180249.677500", "180250.137500", "180250.597500", "180251.057500", "180251.517500", "180251.977500", "180252.437500", "180252.897500", "180253.357500", "180253.817500", "180254.277500", "180254.737500", "180255.197500", "180255.657500", "180256.117500", "180256.577500", "180257.037500", "180257.497500", "180257.957500", "180258.417500", "180258.877500", "180259.337500", "180259.797500", "180300.257500", "180300.717500", "180301.177500", "180301.637500", "180302.097500", "180302.557500", "180303.017500", "180303.477500", "180303.937500", "180304.397500", "180304.857500", "180305.317500", "180305.777500", "180306.237500", "180306.697500", "180307.157500", "180307.617500", "180308.077500", "180308.537500", "180308.997500", "180309.457500", "180309.917500", "180310.377500", "180310.837500", "180311.297500", "180311.757500", "180312.217500", "180312.677500", "180313.137500", "180313.597500", "180314.057500", "180314.517500", "180314.977500", "180315.437500", "180315.897500", "180316.357500", "180316.817500", "180317.277500", "180317.737500", "180318.197500", "180318.657500", "180319.117500", "180319.577500", "180320.037500", "180320.497500", "180320.957500", "180321.417500", "180321.877500", "180322.337500", "180322.797500", "180323.257500", "180323.717500", "180324.177500", "180324.637500", "180325.097500", "180325.557500", "180326.017500", "180326.477500", "180326.937500", "180327.397500", "180327.857500", "180328.317500", "180328.777500", "180329.237500", "180329.697500", "180330.157500", "180330.617500", "180331.077500", "180331.537500", "180331.997500", "180332.457500", "180332.917500", "180333.377500", "180333.837500", "180334.297500", "180334.757500", "180335.217500", "180335.677500", "180336.137500", "180336.597500", "180337.057500", "180337.517500", "180337.977500", "180338.437500", "180338.897500", "180339.357500", "180339.817500", "180340.277500", "180340.737500", "180341.197500", "180341.657500", "180342.117500", "180342.577500", "180343.037500", "180343.497500", "180343.957500", "180344.417500", "180344.877500", "180345.337500", "180345.797500", "180346.257500", "180346.717500", "180347.177500", "180347.637500", "180348.097500", "180348.557500", "180349.017500", "180349.477500", "180349.937500", "180350.397500", "180350.857500", "180351.317500", "180351.777500", "180352.237500", "180352.697500", "180353.157500", "180353.617500", "180354.077500", "180354.537500", "180354.997500", "180355.457500", "180355.917500", "180356.377500", "180356.837500", "180357.297500", "180357.757500", "180358.217500", "180358.677500", "180359.137500", "180359.597500", "180400.057500", "180400.517500", "180400.977500", "180401.437500", "180401.897500", "180402.357500", "180402.817500", "180403.277500", "180403.737500", "180404.197500", "180404.657500", "180405.117500", "180405.577500", "180406.037500", "180406.497500", "180406.957500", "180407.417500", "180407.877500", "180408.337500", "180408.797500", "180409.257500", "180409.717500", "180410.177500", "180410.637500", "180411.097500", "180411.557500", "180412.017500", "180412.477500", "180412.937500", "180413.397500", "180413.857500", "180414.317500", "180414.777500", "180415.237500", "180415.697500", "180416.157500", "180416.617500", "180417.077500", "180417.537500", "180417.997500", "180418.457500", "180418.917500", "180419.377500", "180419.837500", "180420.297500", "180420.757500", "180421.217500", "180421.677500", "180422.137500", "180422.597500", "180423.057500", "180423.517500", "180423.977500", "180424.437500", "180424.897500", "180425.357500", "180425.817500", "180426.277500", "180426.737500", "180427.197500", "180427.657500", "180428.117500", "180428.577500", "180429.037500", "180429.497500", "180429.957500", "180430.417500", "180430.877500", "180431.337500", "180431.797500", "180432.257500", "180432.717500", "180433.177500", "180433.637500", "180434.097500", "180434.557500", "180435.017500", "180435.477500", "180435.937500", "180436.397500", "180436.857500", "180437.317500", "180437.777500", "180438.237500", "180438.697500", "180439.157500", "180439.617500", "180440.077500", "180440.537500", "180440.997500", "180441.457500", "180441.917500", "180442.377500", "180442.837500", "180443.297500", "180443.757500", "180444.217500", "180444.677500", "180445.137500", "180445.597500", "180446.057500", "180446.517500", "180446.977500", "180447.437500", "180447.897500", "180448.357500", "180448.817500", "180449.277500", "180449.737500", "180450.197500", "180450.657500", "180451.117500", "180451.577500", "180452.037500", "180452.497500", "180452.957500", "180453.417500", "180453.877500", "180454.337500", "180454.797500", "180455.257500", "180455.717500", "180456.177500", "180456.637500", "180457.097500", "180457.557500", "180458.017500", "180458.477500", "180458.937500", "180459.397500", "180459.857500", "180500.317500", "180500.777500", "180501.237500", "180501.697500", "180502.157500", "180502.617500", "180503.077500", "180503.537500", "180503.997500", "180504.457500", "180504.917500", "180505.377500", "180505.837500", "180506.297500", "180506.757500", "180507.217500", "180507.677500", "180508.137500", "180508.597500", "180509.057500", "180509.517500", "180509.977500", "180510.437500", "180510.897500", "180511.357500", "180511.817500", "180512.277500", "180512.737500", "180513.197500", "180513.657500", "180514.117500", "180514.577500", "180515.037500", "180515.497500", "180515.957500", "180516.417500", "180516.877500", "180517.337500", "180517.797500", "180518.257500", "180518.717500", "180519.177500", "180519.637500", "180520.097500", "180520.557500", "180521.017500", "180521.477500", "180521.937500", "180522.397500", "180522.857500", "180523.317500", "180523.777500", "180524.237500", "180524.697500", "180525.157500", "180525.617500", "180526.077500", "180526.537500", "180526.997500", "180527.457500", "180527.917500", "180528.377500", "180528.837500", "180529.297500", "180529.757500", "180530.217500", "180530.677500", "180531.137500", "180531.597500", "180532.057500", "180532.517500", "180532.977500", "180533.437500", "180533.897500", "180534.357500", "180534.817500", "180535.277500", "180535.737500", "180536.197500", "180536.657500", "180537.117500", "180537.577500", "180538.037500", "180538.497500", "180538.957500", "180539.417500", "180539.877500", "180540.337500", "180540.797500", "180541.257500", "180541.717500", "180542.177500", "180542.637500", "180543.097500", "180543.557500", "180544.017500", "180544.477500", "180544.937500", "180545.397500", "180545.857500", "180546.317500", "180546.777500", "180547.237500", "180547.697500", "180548.157500", "180548.617500", "180549.077500", "180549.537500", "180549.997500", "180550.457500", "180550.917500", "180551.377500", "180551.837500", "180552.297500", "180552.757500", "180553.217500", "180553.677500", "180554.137500", "180554.597500", "180555.057500", "180555.517500", "180555.977500", "180556.437500", "180556.897500", "180557.357500", "180557.817500", "180558.277500", "180558.737500", "180559.197500", "180559.657500", "180600.117500", "180600.577500", "180601.037500", "180601.497500", "180601.957500", "180602.417500", "180602.877500", "180603.337500", "180603.797500", "180604.257500", "180604.717500", "180605.177500", "180605.637500", "180606.097500", "180606.557500", "180607.017500", "180607.477500", "180607.937500", "180608.397500", "180608.857500", "180609.317500", "180609.777500", "180610.237500", "180610.697500", "180611.157500", "180611.617500", "180612.077500", "180612.537500", "180612.997500", "180613.457500", "180613.917500", "180614.377500", "180614.837500", "180615.297500", "180615.757500", "180616.217500", "180616.677500", "180617.137500", "180617.597500", "180618.057500", "180618.517500", "180618.977500", "180619.437500", "180619.897500", "180620.357500", "180620.817500", "180621.277500", "180621.737500", "180622.197500", "180622.657500", "180623.117500", "180623.577500", "180624.037500", "180624.497500", "180624.957500", "180625.417500", "180625.877500", "180626.337500", "180626.797500", "180627.257500", "180627.717500", "180628.177500", "180628.637500", "180629.097500", "180629.557500", "180630.017500", "180630.477500", "180630.937500", "180631.397500", "180631.857500", "180632.317500", "180632.777500", "180633.237500", "180633.697500", "180634.157500", "180634.617500", "180635.077500", "180635.537500", "180635.997500", "180636.457500", "180636.917500", "180637.377500", "180637.837500", "180638.297500", "180638.757500", "180639.217500", "180639.677500", "180640.137500", "180640.597500", "180641.057500", "180641.517500", "180641.977500", "180642.437500", "180642.897500", "180643.357500", "180643.817500", "180644.277500", "180644.737500", "180645.197500", "180645.657500", "180646.117500", "180646.577500", "180647.037500", "180647.497500", "180647.957500", "180648.417500", "180648.877500", "180649.337500", "180649.797500", "180650.257500", "180650.717500", "180651.177500", "180651.637500", "180652.097500", "180652.557500", "180653.017500", "180653.477500", "180653.937500", "180654.397500", "180654.857500", "180655.317500", "180655.777500", "180656.237500", "180656.697500", "180657.157500", "180657.617500", "180658.077500", "180658.537500", "180658.997500", "180659.457500", "180659.917500", "180700.377500", "180700.837500", "180701.297500", "180701.757500", "180702.217500", "180702.677500", "180703.137500", "180703.597500", "180704.057500", "180704.517500", "180704.977500", "180705.437500", "180705.897500", "180706.357500", "180706.817500", "180707.277500", "180707.737500", "180708.197500", "180708.657500", "180709.117500", "180709.577500", "180710.037500", "180710.497500", "180710.957500", "180711.417500", "180711.877500"],
