{
  "AcquisitionMatrixPE": 82,
  "AcquisitionNumber": 1,
  "AcquisitionTime": "18:49:31.160000",
  "BandwidthPerPixelPhaseEncode": 24.888,
  "BaseResolution": 82,
  "BodyPartExamined": "BRAIN",
  "ConsistencyInfo": "N4_VE11E_LATEST_20181129",
  "ConversionSoftware": "dcm2niix",
  "ConversionSoftwareVersion": "v1.0.20201102",
  "DerivedVendorReportedEchoSpacing": 0.00049,
  "DeviceSerialNumber": "66112",
  "DwellTime": 2e-06,
  "EchoTime": 0.0272,
  "EchoTrainLength": 82,
  "EffectiveEchoSpacing": 0.00049,
  "FlipAngle": 44,
  "ImageComments": "Unaliased MB8/PE3",
  "ImageOrientationPatientDICOM": [0.995947, -0.0742457, 0.0507618, 0.0668491, 0.988661, 0.134464],
  "ImageType": [
    "ORIGINAL",
    "PRIMARY",
    "M",
    "MB",
    "ND",
    "NORM",
    "MOSAIC"
],
  "ImagingFrequency": 123.259,
  "InPlanePhaseEncodingDirectionDICOM": "COL",
  "InstitutionAddress": "Maynard 3,Hanover,NH,US,03755",
  "InstitutionName": "Dartmouth College - PBS",
  "InstitutionalDepartmentName": "Department",
  "MRAcquisitionType": "2D",
  "MagneticFieldStrength": 3,
  "Manufacturer": "Siemens",
  "ManufacturersModelName": "Prisma",
  "Modality": "MR",
  "MultibandAccelerationFactor": 8,
  "PartialFourier": 1,
  "PatientPosition": "HFS",
  "PercentPhaseFOV": 100,
  "PercentSampling": 100,
  "PhaseEncodingDirection": "j-",
  "PhaseEncodingSteps": 82,
  "PhaseResolution": 1,
  "PixelBandwidth": 3050,
  "ProcedureStepDescription": "Wager_Wager^1076_spacetop",
  "ProtocolName": "func_run-03_task-alignvideo_acq-ap-mb8",
  "PulseSequenceDetails": "%CustomerSeq%\\cmrr_mbep2d_bold",
  "ReceiveCoilActiveElements": "HEA;HEP",
  "ReceiveCoilName": "Head_32",
  "ReconMatrixPE": 82,
  "RepetitionTime": 0.46,
  "SAR": 0.0837814,
  "ScanOptions": "FS",
  "ScanningSequence": "EP",
  "SequenceName": "epfid2d1_82",
  "SequenceVariant": "SK\\SS",
  "SeriesDescription": "func_run-03_task-alignvideo_acq-ap-mb8",
  "SeriesNumber": 35,
  "ShimSetting": [4229, -7768, -7246, 309, -100, -23, -48, 75],
  "SliceThickness": 2.7,
  "SliceTiming": [0, 0.2525, 0.0625, 0.315, 0.1275, 0.3775, 0.19, 0, 0.2525, 0.0625, 0.315, 0.1275, 0.3775, 0.19, 0, 0.2525, 0.0625, 0.315, 0.1275, 0.3775, 0.19, 0, 0.2525, 0.0625, 0.315, 0.1275, 0.3775, 0.19, 0, 0.2525, 0.0625, 0.315, 0.1275, 0.3775, 0.19, 0, 0.2525, 0.0625, 0.315, 0.1275, 0.3775, 0.19, 0, 0.2525, 0.0625, 0.315, 0.1275, 0.3775, 0.19, 0, 0.2525, 0.0625, 0.315, 0.1275, 0.3775, 0.19],
  "SoftwareVersions": "syngo MR E11",
  "SpacingBetweenSlices": 2.7,
  "StationName": "AWP66112",
  "TaskName": "alignvideo",
  "TotalReadoutTime": 0.03969,
  "TxRefAmp": 226.948,
  "WipMemBlock": "dd35e3a3-74e4-4aca-9c32-ade29a084010||Sequence: R016 ve11e/master r/434b28f1; Aug  7 2019 18:53:46 by eja",
  "dcmmeta_affine": [
    [-2.672053575515747, 0.17935122549533844, 0.16245774924755096, 98.93941497802734],
    [0.19919568300247192, 2.6525051593780518, 0.35241934657096863, -108.1888198852539],
    [0.13619007170200348, -0.36075711250305176, 2.671967029571533, -66.9495620727539],
    [0.0, 0.0, 0.0, 1.0]
],
  "dcmmeta_reorient_transform": [
    [0.0, -1.0, 0.0, 81.0],
    [1.0, 0.0, 0.0, 0.0],
    [0.0, 0.0, 1.0, 0.0],
    [0.0, 0.0, 0.0, 1.0]
],
  "dcmmeta_shape": [82, 82, 56, 1016],
  "dcmmeta_slice_dim": 2,
  "dcmmeta_version": 0.6,
  "global": {
    "const": {
      "AccessionNumber": "A004773",
      "AcquisitionMatrix": [82, 0, 0, 82],
      "AngioFlag": "N",
      "BitsAllocated": 16,
      "BitsStored": 16,
      "BodyPartExamined": "BRAIN",
      "Columns": 656,
      "EchoNumbers": 1,
      "EchoTime": 27.2,
      "EchoTrainLength": 82,
      "FlipAngle": 44.0,
      "HighBit": 15,
      "ImageOrientationPatient": [0.99594720033071, -0.0742456621983, 0.05076175527062, 0.0668490895314, 0.98866102844466, 0.13446401029109],
      "ImagePositionPatient": [-931.82002823577, -810.76395639896, -238.79472860589],
      "ImageType": [
        "ORIGINAL",
        "PRIMARY",
        "M",
        "MB",
        "ND",
        "NORM",
        "MOSAIC"
],
      "ImagedNucleus": "1H",
      "ImagingFrequency": 123.259121,
      "InPlanePhaseEncodingDirection": "COL",
      "MRAcquisitionType": "2D",
      "MagneticFieldStrength": 3.0,
      "Manufacturer": "SIEMENS",
      "ManufacturerModelName": "Prisma",
      "Modality": "MR",
      "NumberOfAverages": 1.0,
      "NumberOfPhaseEncodingSteps": 82,
      "PercentPhaseFieldOfView": 100.0,
      "PercentSampling": 100.0,
      "PerformedProcedureStepStartTime": "165759.345000",
      "PhotometricInterpretation": "MONOCHROME2",
      "PixelBandwidth": 3050.0,
      "PixelRepresentation": 0,
      "PixelSpacing": [2.6829268932343, 2.6829268932343],
      "ProtocolName": "func_run-03_task-alignvideo_acq-ap-mb8",
      "RepetitionTime": 460.0,
      "Rows": 656,
      "SAR": 0.08378136515587,
      "SamplesPerPixel": 1,
      "ScanOptions": "FS",
      "ScanningSequence": "EP",
      "SequenceName": "epfid2d1_82",
      "SequenceVariant": [
        "SK",
        "SS"
],
      "SeriesDescription": "func_run-03_task-alignvideo_acq-ap-mb8",
      "SeriesNumber": 35,
      "SeriesTime": "184949.063000",
      "SliceLocation": -74.422731707198,
      "SliceThickness": 2.7000000476837,
      "SmallestImagePixelValue": 0,
      "SoftwareVersions": "syngo MR E11",
      "SpacingBetweenSlices": 2.7000000221148,
      "SpecificCharacterSet": "ISO_IR 100",
      "StudyID": "1",
      "StudyTime": "165759.278000",
      "TransmitCoilName": "Body",
      "VariableFlipAngleFlag": "N",
      "WindowCenterWidthExplanation": "Algo1"
    },
    "slices": {}
  },
  "time": {
    "samples": {
      "AcquisitionNumber": [1, 2, 3, 4, 5, 6, 7, 8, 9, 10, 11, 12, 13, 14, 15, 16, 17, 18, 19, 20, 21, 22, 23, 24, 25, 26, 27, 28, 29, 30, 31, 32, 33, 34, 35, 36, 37, 38, 39, 40, 41, 42, 43, 44, 45, 46, 47, 48, 49, 50, 51, 52, 53, 54, 55, 56, 57, 58, 59, 60, 61, 62, 63, 64, 65, 66, 67, 68, 69, 70, 71, 72, 73, 74, 75, 76, 77, 78, 79, 80, 81, 82, 83, 84, 85, 86, 87, 88, 89, 90, 91, 92, 93, 94, 95, 96, 97, 98, 99, 100, 101, 102, 103, 104, 105, 106, 107, 108, 109, 110, 111, 112, 113, 114, 115, 116, 117, 118, 119, 120, 121, 122, 123, 124, 125, 126, 127, 128, 129, 130, 131, 132, 133, 134, 135, 136, 137, 138, 139, 140, 141, 142, 143, 144, 145, 146, 147, 148, 149, 150, 151, 152, 153, 154, 155, 156, 157, 158, 159, 160, 161, 162, 163, 164, 165, 166, 167, 168, 169, 170, 171, 172, 173, 174, 175, 176, 177, 178, 179, 180, 181, 182, 183, 184, 185, 186, 187, 188, 189, 190, 191, 192, 193, 194, 195, 196, 197, 198, 199, 200, 201, 202, 203, 204, 205, 206, 207, 208, 209, 210, 211, 212, 213, 214, 215, 216, 217, 218, 219, 220, 221, 222, 223, 224, 225, 226, 227, 228, 229, 230, 231, 232, 233, 234, 235, 236, 237, 238, 239, 240, 241, 242, 243, 244, 245, 246, 247, 248, 249, 250, 251, 252, 253, 254, 255, 256, 257, 258, 259, 260, 261, 262, 263, 264, 265, 266, 267, 268, 269, 270, 271, 272, 273, 274, 275, 276, 277, 278, 279, 280, 281, 282, 283, 284, 285, 286, 287, 288, 289, 290, 291, 292, 293, 294, 295, 296, 297, 298, 299, 300, 301, 302, 303, 304, 305, 306, 307, 308, 309, 310, 311, 312, 313, 314, 315, 316, 317, 318, 319, 320, 321, 322, 323, 324, 325, 326, 327, 328, 329, 330, 331, 332, 333, 334, 335, 336, 337, 338, 339, 340, 341, 342, 343, 344, 345, 346, 347, 348, 349, 350, 351, 352, 353, 354, 355, 356, 357, 358, 359, 360, 361, 362, 363, 364, 365, 366, 367, 368, 369, 370, 371, 372, 373, 374, 375, 376, 377, 378, 379, 380, 381, 382, 383, 384, 385, 386, 387, 388, 389, 390, 391, 392, 393, 394, 395, 396, 397, 398, 399, 400, 401, 402, 403, 404, 405, 406, 407, 408, 409, 410, 411, 412, 413, 414, 415, 416, 417, 418, 419, 420, 421, 422, 423, 424, 425, 426, 427, 428, 429, 430, 431, 432, 433, 434, 435, 436, 437, 438, 439, 440, 441, 442, 443, 444, 445, 446, 447, 448, 449, 450, 451, 452, 453, 454, 455, 456, 457, 458, 459, 460, 461, 462, 463, 464, 465, 466, 467, 468, 469, 470, 471, 472, 473, 474, 475, 476, 477, 478, 479, 480, 481, 482, 483, 484, 485, 486, 487, 488, 489, 490, 491, 492, 493, 494, 495, 496, 497, 498, 499, 500, 501, 502, 503, 504, 505, 506, 507, 508, 509, 510, 511, 512, 513, 514, 515, 516, 517, 518, 519, 520, 521, 522, 523, 524, 525, 526, 527, 528, 529, 530, 531, 532, 533, 534, 535, 536, 537, 538, 539, 540, 541, 542, 543, 544, 545, 546, 547, 548, 549, 550, 551, 552, 553, 554, 555, 556, 557, 558, 559, 560, 561, 562, 563, 564, 565, 566, 567, 568, 569, 570, 571, 572, 573, 574, 575, 576, 577, 578, 579, 580, 581, 582, 583, 584, 585, 586, 587, 588, 589, 590, 591, 592, 593, 594, 595, 596, 597, 598, 599, 600, 601, 602, 603, 604, 605, 606, 607, 608, 609, 610, 611, 612, 613, 614, 615, 616, 617, 618, 619, 620, 621, 622, 623, 624, 625, 626, 627, 628, 629, 630, 631, 632, 633, 634, 635, 636, 637, 638, 639, 640, 641, 642, 643, 644, 645, 646, 647, 648, 649, 650, 651, 652, 653, 654, 655, 656, 657, 658, 659, 660, 661, 662, 663, 664, 665, 666, 667, 668, 669, 670, 671, 672, 673, 674, 675, 676, 677, 678, 679, 680, 681, 682, 683, 684, 685, 686, 687, 688, 689, 690, 691, 692, 693, 694, 695, 696, 697, 698, 699, 700, 701, 702, 703, 704, 705, 706, 707, 708, 709, 710, 711, 712, 713, 714, 715, 716, 717, 718, 719, 720, 721, 722, 723, 724, 725, 726, 727, 728, 729, 730, 731, 732, 733, 734, 735, 736, 737, 738, 739, 740, 741, 742, 743, 744, 745, 746, 747, 748, 749, 750, 751, 752, 753, 754, 755, 756, 757, 758, 759, 760, 761, 762, 763, 764, 765, 766, 767, 768, 769, 770, 771, 772, 773, 774, 775, 776, 777, 778, 779, 780, 781, 782, 783, 784, 785, 786, 787, 788, 789, 790, 791, 792, 793, 794, 795, 796, 797, 798, 799, 800, 801, 802, 803, 804, 805, 806, 807, 808, 809, 810, 811, 812, 813, 814, 815, 816, 817, 818, 819, 820, 821, 822, 823, 824, 825, 826, 827, 828, 829, 830, 831, 832, 833, 834, 835, 836, 837, 838, 839, 840, 841, 842, 843, 844, 845, 846, 847, 848, 849, 850, 851, 852, 853, 854, 855, 856, 857, 858, 859, 860, 861, 862, 863, 864, 865, 866, 867, 868, 869, 870, 871, 872, 873, 874, 875, 876, 877, 878, 879, 880, 881, 882, 883, 884, 885, 886, 887, 888, 889, 890, 891, 892, 893, 894, 895, 896, 897, 898, 899, 900, 901, 902, 903, 904, 905, 906, 907, 908, 909, 910, 911, 912, 913, 914, 915, 916, 917, 918, 919, 920, 921, 922, 923, 924, 925, 926, 927, 928, 929, 930, 931, 932, 933, 934, 935, 936, 937, 938, 939, 940, 941, 942, 943, 944, 945, 946, 947, 948, 949, 950, 951, 952, 953, 954, 955, 956, 957, 958, 959, 960, 961, 962, 963, 964, 965, 966, 967, 968, 969, 970, 971, 972, 973, 974, 975, 976, 977, 978, 979, 980, 981, 982, 983, 984, 985, 986, 987, 988, 989, 990, 991, 992, 993, 994, 995, 996, 997, 998, 999, 1000, 1001, 1002, 1003, 1004, 1005, 1006, 1007, 1008, 1009, 1010, 1011, 1012, 1013, 1014, 1015, 1016],
      "AcquisitionTime": ["184931.160000", "184931.620000", "184932.080000", "184932.540000", "184933.000000", "184933.460000", "184933.920000", "184934.380000", "184934.840000", "184935.300000", "184935.760000", "184936.220000", "184936.680000", "184937.140000", "184937.600000", "184938.060000", "184938.520000", "184938.980000", "184939.440000", "184939.900000", "184940.360000", "184940.820000", "184941.280000", "184941.740000", "184942.200000", "184942.660000", "184943.120000", "184943.580000", "184944.040000", "184944.500000", "184944.960000", "184945.420000", "184945.880000", "184946.340000", "184946.800000", "184947.260000", "184947.720000", "184948.180000", "184948.640000", "184949.100000", "184949.560000", "184950.020000", "184950.480000", "184950.940000", "184951.400000", "184951.860000", "184952.320000", "184952.780000", "184953.240000", "184953.700000", "184954.160000", "184954.620000", "184955.080000", "184955.540000", "184956.000000", "184956.460000", "184956.920000", "184957.380000", "184957.840000", "184958.300000", "184958.760000", "184959.220000", "184959.680000", "185000.140000", "185000.600000", "185001.060000", "185001.520000", "185001.980000", "185002.440000", "185002.900000", "185003.360000", "185003.820000", "185004.280000", "185004.740000", "185005.200000", "185005.660000", "185006.120000", "185006.580000", "185007.040000", "185007.500000", "185007.960000", "185008.420000", "185008.880000", "185009.340000", "185009.800000", "185010.260000", "185010.720000", "185011.180000", "185011.640000", "185012.100000", "185012.560000", "185013.020000", "185013.480000", "185013.940000", "185014.400000", "185014.860000", "185015.320000", "185015.780000", "185016.240000", "185016.700000", "185017.160000", "185017.620000", "185018.080000", "185018.540000", "185019.000000", "185019.460000", "185019.920000", "185020.380000", "185020.840000", "185021.300000", "185021.760000", "185022.220000", "185022.680000", "185023.140000", "185023.600000", "185024.060000", "185024.520000", "185024.980000", "185025.440000", "185025.900000", "185026.360000", "185026.820000", "185027.280000", "185027.740000", "185028.200000", "185028.660000", "185029.120000", "185029.580000", "185030.040000", "185030.500000", "185030.960000", "185031.420000", "185031.880000", "185032.340000", "185032.800000", "185033.260000", "185033.720000", "185034.180000", "185034.640000", "185035.100000", "185035.560000", "185036.020000", "185036.480000", "185036.940000", "185037.400000", "185037.860000", "185038.320000", "185038.780000", "185039.240000", "185039.700000", "185040.160000", "185040.620000", "185041.080000", "185041.540000", "185042.000000", "185042.460000", "185042.920000", "185043.380000", "185043.840000", "185044.300000", "185044.760000", "185045.220000", "185045.680000", "185046.140000", "185046.600000", "185047.060000", "185047.520000", "185047.980000", "185048.440000", "185048.900000", "185049.360000", "185049.820000", "185050.280000", "185050.740000", "185051.200000", "185051.660000", "185052.120000", "185052.580000", "185053.040000", "185053.500000", "185053.960000", "185054.420000", "185054.880000", "185055.340000", "185055.800000", "185056.260000", "185056.720000", "185057.180000", "185057.640000", "185058.100000", "185058.560000", "185059.020000", "185059.480000", "185059.940000", "185100.400000", "185100.860000", "185101.320000", "185101.780000", "185102.240000", "185102.700000", "185103.160000", "185103.620000", "185104.080000", "185104.540000", "185105.000000", "185105.460000", "185105.920000", "185106.380000", "185106.840000", "185107.300000", "185107.760000", "185108.220000", "185108.680000", "185109.140000", "185109.600000", "185110.060000", "185110.520000", "185110.980000", "185111.440000", "185111.900000", "185112.360000", "185112.820000", "185113.280000", "185113.740000", "185114.200000", "185114.660000", "185115.120000", "185115.580000", "185116.040000", "185116.500000", "185116.960000", "185117.420000", "185117.880000", "185118.340000", "185118.800000", "185119.260000", "185119.720000", "185120.180000", "185120.640000", "185121.100000", "185121.560000", "185122.020000", "185122.480000", "185122.940000", "185123.400000", "185123.860000", "185124.320000", "185124.780000", "185125.240000", "185125.700000", "185126.160000", "185126.620000", "185127.080000", "185127.540000", "185128.000000", "185128.460000", "185128.920000", "185129.380000", "185129.840000", "185130.300000", "185130.760000", "185131.220000", "185131.680000", "185132.140000", "185132.600000", "185133.060000", "185133.520000", "185133.980000", "185134.440000", "185134.900000", "185135.360000", "185135.820000", "185136.280000", "185136.740000", "185137.200000", "185137.660000", "185138.120000", "185138.580000", "185139.040000", "185139.500000", "185139.960000", "185140.420000", "185140.880000", "185141.340000", "185141.800000", "185142.260000", "185142.720000", "185143.180000", "185143.640000", "185144.100000", "185144.560000", "185145.020000", "185145.480000", "185145.940000", "185146.400000", "185146.860000", "185147.320000", "185147.780000", "185148.240000", "185148.700000", "185149.160000", "185149.620000", "185150.080000", "185150.540000", "185151.000000", "185151.460000", "185151.920000", "185152.380000", "185152.840000", "185153.300000", "185153.760000", "185154.220000", "185154.680000", "185155.140000", "185155.600000", "185156.060000", "185156.520000", "185156.980000", "185157.440000", "185157.900000", "185158.360000", "185158.820000", "185159.280000", "185159.740000", "185200.200000", "185200.660000", "185201.120000", "185201.580000", "185202.040000", "185202.500000", "185202.960000", "185203.420000", "185203.880000", "185204.340000", "185204.800000", "185205.260000", "185205.720000", "185206.180000", "185206.640000", "185207.100000", "185207.560000", "185208.020000", "185208.480000", "185208.940000", "185209.400000", "185209.860000", "185210.320000", "185210.780000", "185211.240000", "185211.700000", "185212.160000", "185212.620000", "185213.080000", "185213.540000", "185214.000000", "185214.460000", "185214.920000", "185215.380000", "185215.840000", "185216.300000", "185216.760000", "185217.220000", "185217.680000", "185218.140000", "185218.600000", "185219.060000", "185219.520000", "185219.980000", "185220.440000", "185220.900000", "185221.360000", "185221.820000", "185222.280000", "185222.740000", "185223.200000", "185223.660000", "185224.120000", "185224.580000", "185225.040000", "185225.500000", "185225.960000", "185226.420000", "185226.880000", "185227.340000", "185227.800000", "185228.260000", "185228.720000", "185229.180000", "185229.640000", "185230.100000", "185230.560000", "185231.020000", "185231.480000", "185231.940000", "185232.400000", "185232.860000", "185233.320000", "185233.780000", "185234.240000", "185234.700000", "185235.160000", "185235.620000", "185236.080000", "185236.540000", "185237.000000", "185237.460000", "185237.920000", "185238.380000", "185238.840000", "185239.300000", "185239.760000", "185240.220000", "185240.680000", "185241.140000", "185241.600000", "185242.060000", "185242.520000", "185242.980000", "185243.440000", "185243.900000", "185244.360000", "185244.820000", "185245.280000", "185245.740000", "185246.200000", "185246.660000", "185247.120000", "185247.580000", "185248.040000", "185248.500000", "185248.960000", "185249.420000", "185249.880000", "185250.340000", "185250.800000", "185251.260000", "185251.720000", "185252.180000", "185252.640000", "185253.100000", "185253.560000", "185254.020000", "185254.480000", "185254.940000", "185255.400000", "185255.860000", "185256.320000", "185256.780000", "185257.240000", "185257.700000", "185258.160000", "185258.620000", "185259.080000", "185259.540000", "185300.000000", "185300.460000", "185300.920000", "185301.380000", "185301.840000", "185302.300000", "185302.760000", "185303.220000", "185303.680000", "185304.140000", "185304.600000", "185305.060000", "185305.520000", "185305.980000", "185306.440000", "185306.900000", "185307.360000", "185307.820000", "185308.280000", "185308.740000", "185309.200000", "185309.660000", "185310.120000", "185310.580000", "185311.040000", "185311.500000", "185311.960000", "185312.420000", "185312.880000", "185313.340000", "185313.800000", "185314.260000", "185314.720000", "185315.180000", "185315.640000", "185316.100000", "185316.560000", "185317.020000", "185317.480000", "185317.940000", "185318.400000", "185318.860000", "185319.320000", "185319.780000", "185320.240000", "185320.700000", "185321.160000", "185321.620000", "185322.080000", "185322.540000", "185323.000000", "185323.460000", "185323.920000", "185324.380000", "185324.840000", "185325.300000", "185325.760000", "185326.220000", "185326.680000", "185327.140000", "185327.600000", "185328.060000", "185328.520000", "185328.980000", "185329.440000", "185329.900000", "185330.360000", "185330.820000", "185331.280000", "185331.740000", "185332.200000", "185332.660000", "185333.120000", "185333.580000", "185334.040000", "185334.500000", "185334.960000", "185335.420000", "185335.880000", "185336.340000", "185336.800000", "185337.260000", "185337.720000", "185338.180000", "185338.640000", "185339.100000", "185339.560000", "185340.020000", "185340.480000", "185340.940000", "185341.400000", "185341.860000", "185342.320000", "185342.780000", "185343.240000", "185343.700000", "185344.160000", "185344.620000", "185345.080000", "185345.540000", "185346.000000", "185346.460000", "185346.920000", "185347.380000", "185347.840000", "185348.300000", "185348.760000", "185349.220000", "185349.680000", "185350.140000", "185350.600000", "185351.060000", "185351.520000", "185351.980000", "185352.440000", "185352.900000", "185353.360000", "185353.820000", "185354.280000", "185354.740000", "185355.200000", "185355.660000", "185356.120000", "185356.580000", "185357.040000", "185357.500000", "185357.960000", "185358.420000", "185358.880000", "185359.340000", "185359.800000", "185400.260000", "185400.720000", "185401.180000", "185401.640000", "185402.100000", "185402.560000", "185403.020000", "185403.480000", "185403.940000", "185404.400000", "185404.860000", "185405.320000", "185405.780000", "185406.240000", "185406.700000", "185407.160000", "185407.620000", "185408.080000", "185408.540000", "185409.000000", "185409.460000", "185409.920000", "185410.380000", "185410.840000", "185411.300000", "185411.760000", "185412.220000", "185412.680000", "185413.140000", "185413.600000", "185414.060000", "185414.520000", "185414.980000", "185415.440000", "185415.900000", "185416.360000", "185416.820000", "185417.280000", "185417.740000", "185418.200000", "185418.660000", "185419.120000", "185419.580000", "185420.040000", "185420.500000", "185420.960000", "185421.420000", "185421.880000", "185422.340000", "185422.800000", "185423.260000", "185423.720000", "185424.180000", "185424.640000", "185425.100000", "185425.560000", "185426.020000", "185426.480000", "185426.940000", "185427.400000", "185427.860000", "185428.320000", "185428.780000", "185429.240000", "185429.700000", "185430.160000", "185430.620000", "185431.080000", "185431.540000", "185432.000000", "185432.460000", "185432.920000", "185433.380000", "185433.840000", "185434.300000", "185434.760000", "185435.220000", "185435.680000", "185436.140000", "185436.600000", "185437.060000", "185437.520000", "185437.980000", "185438.440000", "185438.900000", "185439.360000", "185439.820000", "185440.280000", "185440.740000", "185441.200000", "185441.660000", "185442.120000", "185442.580000", "185443.040000", "185443.500000", "185443.960000", "185444.420000", "185444.880000", "185445.340000", "185445.800000", "185446.260000", "185446.720000", "185447.180000", "185447.640000", "185448.100000", "185448.560000", "185449.020000", "185449.480000", "185449.940000", "185450.400000", "185450.860000", "185451.320000", "185451.780000", "185452.240000", "185452.700000", "185453.160000", "185453.620000", "185454.080000", "185454.540000", "185455.000000", "185455.460000", "185455.920000", "185456.380000", "185456.840000", "185457.300000", "185457.760000", "185458.220000", "185458.680000", "185459.140000", "185459.600000", "185500.060000", "185500.520000", "185500.980000", "185501.440000", "185501.900000", "185502.360000", "185502.820000", "185503.280000", "185503.740000", "185504.200000", "185504.660000", "185505.120000", "185505.580000", "185506.040000", "185506.500000", "185506.960000", "185507.420000", "185507.880000", "185508.340000", "185508.800000", "185509.260000", "185509.720000", "185510.180000", "185510.640000", "185511.100000", "185511.560000", "185512.020000", "185512.480000", "185512.940000", "185513.400000", "185513.860000", "185514.320000", "185514.780000", "185515.240000", "185515.700000", "185516.160000", "185516.620000", "185517.080000", "185517.540000", "185518.000000", "185518.460000", "185518.920000", "185519.380000", "185519.840000", "185520.300000", "185520.760000", "185521.220000", "185521.680000", "185522.140000", "185522.600000", "185523.060000", "185523.520000", "185523.980000", "185524.440000", "185524.900000", "185525.360000", "185525.820000", "185526.280000", "185526.740000", "185527.200000", "185527.660000", "185528.120000", "185528.580000", "185529.040000", "185529.500000", "185529.960000", "185530.420000", "185530.880000", "185531.340000", "185531.800000", "185532.260000", "185532.720000", "185533.180000", "185533.640000", "185534.100000", "185534.560000", "185535.020000", "185535.480000", "185535.940000", "185536.400000", "185536.860000", "185537.320000", "185537.780000", "185538.240000", "185538.700000", "185539.160000", "185539.620000", "185540.080000", "185540.540000", "185541.000000", "185541.460000", "185541.920000", "185542.380000", "185542.840000", "185543.300000", "185543.760000", "185544.220000", "185544.680000", "185545.140000", "185545.600000", "185546.060000", "185546.520000", "185546.980000", "185547.440000", "185547.900000", "185548.360000", "185548.820000", "185549.280000", "185549.740000", "185550.200000", "185550.660000", "185551.120000", "185551.580000", "185552.040000", "185552.500000", "185552.960000", "185553.420000", "185553.880000", "185554.340000", "185554.800000", "185555.260000", "185555.720000", "185556.180000", "185556.640000", "185557.100000", "185557.560000", "185558.020000", "185558.480000", "185558.940000", "185559.400000", "185559.860000", "185600.320000", "185600.780000", "185601.240000", "185601.700000", "185602.160000", "185602.620000", "185603.080000", "185603.540000", "185604.000000", "185604.460000", "185604.920000", "185605.380000", "185605.840000", "185606.300000", "185606.760000", "185607.220000", "185607.680000", "185608.140000", "185608.600000", "185609.060000", "185609.520000", "185609.980000", "185610.440000", "185610.900000", "185611.360000", "185611.820000", "185612.280000", "185612.740000", "185613.200000", "185613.660000", "185614.120000", "185614.580000", "185615.040000", "185615.500000", "185615.960000", "185616.420000", "185616.880000", "185617.340000", "185617.800000", "185618.260000", "185618.720000", "185619.180000", "185619.640000", "185620.100000", "185620.560000", "185621.020000", "185621.480000", "185621.940000", "185622.400000", "185622.860000", "185623.320000", "185623.780000", "185624.240000", "185624.700000", "185625.160000", "185625.620000", "185626.080000", "185626.540000", "185627.000000", "185627.460000", "185627.920000", "185628.380000", "185628.840000", "185629.300000", "185629.760000", "185630.220000", "185630.680000", "185631.140000", "185631.600000", "185632.060000", "185632.520000", "185632.980000", "185633.440000", "185633.900000", "185634.360000", "185634.820000", "185635.280000", "185635.740000", "185636.200000", "185636.660000", "185637.120000", "185637.580000", "185638.040000", "185638.500000", "185638.960000", "185639.420000", "185639.880000", "185640.340000", "185640.800000", "185641.260000", "185641.720000", "185642.180000", "185642.640000", "185643.100000", "185643.560000", "185644.020000", "185644.480000", "185644.940000", "185645.400000", "185645.860000", "185646.320000", "185646.780000", "185647.240000", "185647.700000", "185648.160000", "185648.620000", "185649.080000", "185649.540000", "185650.000000", "185650.460000", "185650.920000", "185651.380000", "185651.840000", "185652.300000", "185652.760000", "185653.220000", "185653.680000", "185654.140000", "185654.600000", "185655.060000", "185655.520000", "185655.980000", "185656.440000", "185656.900000", "185657.360000", "185657.820000", "185658.280000", "185658.740000", "185659.200000", "185659.660000", "185700.120000", "185700.580000", "185701.040000", "185701.500000", "185701.960000", "185702.420000", "185702.880000", "185703.340000", "185703.800000", "185704.260000", "185704.720000", "185705.180000", "185705.640000", "185706.100000", "185706.560000", "185707.020000", "185707.480000", "185707.940000", "185708.400000", "185708.860000", "185709.320000", "185709.780000", "185710.240000", "185710.700000", "185711.160000", "185711.620000", "185712.080000", "185712.540000", "185713.000000", "185713.460000", "185713.920000", "185714.380000", "185714.840000", "185715.300000", "185715.760000", "185716.220000", "185716.680000", "185717.140000", "185717.600000", "185718.060000"],
