{
  "AcquisitionMatrixPE": 82,
  "AcquisitionNumber": 1,
  "AcquisitionTime": "19:32:44.995000",
  "BandwidthPerPixelPhaseEncode": 24.888,
  "BaseResolution": 82,
  "BodyPartExamined": "BRAIN",
  "ConsistencyInfo": "N4_VE11E_LATEST_20181129",
  "ConversionSoftware": "dcm2niix",
  "ConversionSoftwareVersion": "v1.0.20201102",
  "DerivedVendorReportedEchoSpacing": 0.00049,
  "DeviceSerialNumber": "66112",
  "DwellTime": 2e-06,
  "EchoTime": 0.0272,
  "EchoTrainLength": 82,
  "EffectiveEchoSpacing": 0.00049,
  "FlipAngle": 44,
  "ImageComments": "Unaliased MB8/PE3",
  "ImageOrientationPatientDICOM": [0.994993, -0.0952855, 0.0301695, 0.0900262, 0.985535, 0.143583],
  "ImageType": [
    "ORIGINAL",
    "PRIMARY",
    "M",
    "MB",
    "ND",
    "NORM",
    "MOSAIC"
],
  "ImagingFrequency": 123.259,
  "InPlanePhaseEncodingDirectionDICOM": "COL",
  "InstitutionAddress": "Maynard 3,Hanover,NH,US,03755",
  "InstitutionName": "Dartmouth College - PBS",
  "InstitutionalDepartmentName": "Department",
  "MRAcquisitionType": "2D",
  "MagneticFieldStrength": 3,
  "Manufacturer": "Siemens",
  "ManufacturersModelName": "Prisma",
  "Modality": "MR",
  "MultibandAccelerationFactor": 8,
  "PartialFourier": 1,
  "PatientPosition": "HFS",
  "PercentPhaseFOV": 100,
  "PercentSampling": 100,
  "PhaseEncodingDirection": "j-",
  "PhaseEncodingSteps": 82,
  "PhaseResolution": 1,
  "PixelBandwidth": 3050,
  "ProcedureStepDescription": "Wager_Wager^1076_spacetop",
  "ProtocolName": "func_run-04_task-social_acq-ap-mb8",
  "PulseSequenceDetails": "%CustomerSeq%\\cmrr_mbep2d_bold",
  "ReceiveCoilActiveElements": "HEA;HEP",
  "ReceiveCoilName": "Head_32",
  "ReconMatrixPE": 82,
  "RepetitionTime": 0.46,
  "SAR": 0.0950832,
  "ScanOptions": "FS",
  "ScanningSequence": "EP",
  "SequenceName": "epfid2d1_82",
  "SequenceVariant": "SK\\SS",
  "SeriesDescription": "func_run-04_task-social_acq-ap-mb8",
  "SeriesNumber": 18,
  "ShimSetting": [4227, -7778, -7251, 357, -119, -59, -25, 84],
  "SliceThickness": 2.7,
  "SliceTiming": [0, 0.2525, 0.0625, 0.315, 0.125, 0.3775, 0.1875, 0, 0.2525, 0.0625, 0.315, 0.125, 0.3775, 0.1875, 0, 0.2525, 0.0625, 0.315, 0.125, 0.3775, 0.1875, 0, 0.2525, 0.0625, 0.315, 0.125, 0.3775, 0.1875, 0, 0.2525, 0.0625, 0.315, 0.125, 0.3775, 0.1875, 0, 0.2525, 0.0625, 0.315, 0.125, 0.3775, 0.1875, 0, 0.2525, 0.0625, 0.315, 0.125, 0.3775, 0.1875, 0, 0.2525, 0.0625, 0.315, 0.125, 0.3775, 0.1875],
  "SoftwareVersions": "syngo MR E11",
  "SpacingBetweenSlices": 2.7,
  "StationName": "AWP66112",
  "TaskName": "social",
  "TotalReadoutTime": 0.03969,
  "TxRefAmp": 237.749,
  "WipMemBlock": "eb2c5bb5-9eb7-4493-9a1c-8d8cfc85fce8||Sequence: R016 ve11e/master r/434b28f1; Aug  7 2019 18:53:46 by eja",
  "dcmmeta_affine": [
    [-2.669492721557617, 0.24153366684913635, 0.11721916496753693, 97.43207550048828],
    [0.25564414262771606, 2.644118070602417, 0.378400593996048, -119.04134368896484],
    [0.0809425413608551, -0.3852236866950989, 2.670781135559082, -58.6703987121582],
    [0.0, 0.0, 0.0, 1.0]
],
  "dcmmeta_reorient_transform": [
    [0.0, -1.0, 0.0, 81.0],
    [1.0, 0.0, 0.0, 0.0],
    [0.0, 0.0, 1.0, 0.0],
    [0.0, 0.0, 0.0, 1.0]
],
  "dcmmeta_shape": [82, 82, 56, 872],
  "dcmmeta_slice_dim": 2,
  "dcmmeta_version": 0.6,
  "global": {
    "const": {
      "AccessionNumber": "A004463",
      "AcquisitionMatrix": [82, 0, 0, 82],
      "AngioFlag": "N",
      "BitsAllocated": 16,
      "BitsStored": 16,
      "BodyPartExamined": "BRAIN",
      "Columns": 656,
      "EchoNumbers": 1,
      "EchoTime": 27.2,
      "EchoTrainLength": 82,
      "FlipAngle": 44.0,
      "HighBit": 15,
      "ImageOrientationPatient": [0.99499269673429, -0.0952855458229, 0.03016949125628, 0.09002618483139, 0.98553493098953, 0.1435833759325],
      "ImagePositionPatient": [-952.46086318611, -780.6242689323, -223.66323081213],
      "ImageType": [
        "ORIGINAL",
        "PRIMARY",
        "M",
        "MB",
        "ND",
        "NORM",
        "MOSAIC"
],
      "ImagedNucleus": "1H",
      "ImagingFrequency": 123.259109,
      "InPlanePhaseEncodingDirection": "COL",
      "MRAcquisitionType": "2D",
      "MagneticFieldStrength": 3.0,
      "Manufacturer": "SIEMENS",
      "ManufacturerModelName": "Prisma",
      "Modality": "MR",
      "NumberOfAverages": 1.0,
      "NumberOfPhaseEncodingSteps": 82,
      "PercentPhaseFieldOfView": 100.0,
      "PercentSampling": 100.0,
      "PerformedProcedureStepStartTime": "182427.489000",
      "PhotometricInterpretation": "MONOCHROME2",
      "PixelBandwidth": 3050.0,
      "PixelRepresentation": 0,
      "PixelSpacing": [2.6829268932343, 2.6829268932343],
      "ProtocolName": "func_run-04_task-social_acq-ap-mb8",
      "RepetitionTime": 460.0,
      "Rows": 656,
      "SAR": 0.09508318509558,
      "SamplesPerPixel": 1,
      "ScanOptions": "FS",
      "ScanningSequence": "EP",
      "SequenceName": "epfid2d1_82",
      "SequenceVariant": [
        "SK",
        "SS"
],
      "SeriesDescription": "func_run-04_task-social_acq-ap-mb8",
      "SeriesNumber": 18,
      "SeriesTime": "193313.824000",
      "SliceLocation": -70.488968353922,
      "SliceThickness": 2.7000000476837,
      "SmallestImagePixelValue": 0,
      "SoftwareVersions": "syngo MR E11",
      "SpacingBetweenSlices": 2.6999999375259,
      "SpecificCharacterSet": "ISO_IR 100",
      "StudyID": "2",
      "StudyTime": "182427.441000",
      "TransmitCoilName": "Body",
      "VariableFlipAngleFlag": "N",
      "WindowCenterWidthExplanation": "Algo1"
    },
    "slices": {}
  },
  "time": {
    "samples": {
      "AcquisitionNumber": [1, 2, 3, 4, 5, 6, 7, 8, 9, 10, 11, 12, 13, 14, 15, 16, 17, 18, 19, 20, 21, 22, 23, 24, 25, 26, 27, 28, 29, 30, 31, 32, 33, 34, 35, 36, 37, 38, 39, 40, 41, 42, 43, 44, 45, 46, 47, 48, 49, 50, 51, 52, 53, 54, 55, 56, 57, 58, 59, 60, 61, 62, 63, 64, 65, 66, 67, 68, 69, 70, 71, 72, 73, 74, 75, 76, 77, 78, 79, 80, 81, 82, 83, 84, 85, 86, 87, 88, 89, 90, 91, 92, 93, 94, 95, 96, 97, 98, 99, 100, 101, 102, 103, 104, 105, 106, 107, 108, 109, 110, 111, 112, 113, 114, 115, 116, 117, 118, 119, 120, 121, 122, 123, 124, 125, 126, 127, 128, 129, 130, 131, 132, 133, 134, 135, 136, 137, 138, 139, 140, 141, 142, 143, 144, 145, 146, 147, 148, 149, 150, 151, 152, 153, 154, 155, 156, 157, 158, 159, 160, 161, 162, 163, 164, 165, 166, 167, 168, 169, 170, 171, 172, 173, 174, 175, 176, 177, 178, 179, 180, 181, 182, 183, 184, 185, 186, 187, 188, 189, 190, 191, 192, 193, 194, 195, 196, 197, 198, 199, 200, 201, 202, 203, 204, 205, 206, 207, 208, 209, 210, 211, 212, 213, 214, 215, 216, 217, 218, 219, 220, 221, 222, 223, 224, 225, 226, 227, 228, 229, 230, 231, 232, 233, 234, 235, 236, 237, 238, 239, 240, 241, 242, 243, 244, 245, 246, 247, 248, 249, 250, 251, 252, 253, 254, 255, 256, 257, 258, 259, 260, 261, 262, 263, 264, 265, 266, 267, 268, 269, 270, 271, 272, 273, 274, 275, 276, 277, 278, 279, 280, 281, 282, 283, 284, 285, 286, 287, 288, 289, 290, 291, 292, 293, 294, 295, 296, 297, 298, 299, 300, 301, 302, 303, 304, 305, 306, 307, 308, 309, 310, 311, 312, 313, 314, 315, 316, 317, 318, 319, 320, 321, 322, 323, 324, 325, 326, 327, 328, 329, 330, 331, 332, 333, 334, 335, 336, 337, 338, 339, 340, 341, 342, 343, 344, 345, 346, 347, 348, 349, 350, 351, 352, 353, 354, 355, 356, 357, 358, 359, 360, 361, 362, 363, 364, 365, 366, 367, 368, 369, 370, 371, 372, 373, 374, 375, 376, 377, 378, 379, 380, 381, 382, 383, 384, 385, 386, 387, 388, 389, 390, 391, 392, 393, 394, 395, 396, 397, 398, 399, 400, 401, 402, 403, 404, 405, 406, 407, 408, 409, 410, 411, 412, 413, 414, 415, 416, 417, 418, 419, 420, 421, 422, 423, 424, 425, 426, 427, 428, 429, 430, 431, 432, 433, 434, 435, 436, 437, 438, 439, 440, 441, 442, 443, 444, 445, 446, 447, 448, 449, 450, 451, 452, 453, 454, 455, 456, 457, 458, 459, 460, 461, 462, 463, 464, 465, 466, 467, 468, 469, 470, 471, 472, 473, 474, 475, 476, 477, 478, 479, 480, 481, 482, 483, 484, 485, 486, 487, 488, 489, 490, 491, 492, 493, 494, 495, 496, 497, 498, 499, 500, 501, 502, 503, 504, 505, 506, 507, 508, 509, 510, 511, 512, 513, 514, 515, 516, 517, 518, 519, 520, 521, 522, 523, 524, 525, 526, 527, 528, 529, 530, 531, 532, 533, 534, 535, 536, 537, 538, 539, 540, 541, 542, 543, 544, 545, 546, 547, 548, 549, 550, 551, 552, 553, 554, 555, 556, 557, 558, 559, 560, 561, 562, 563, 564, 565, 566, 567, 568, 569, 570, 571, 572, 573, 574, 575, 576, 577, 578, 579, 580, 581, 582, 583, 584, 585, 586, 587, 588, 589, 590, 591, 592, 593, 594, 595, 596, 597, 598, 599, 600, 601, 602, 603, 604, 605, 606, 607, 608, 609, 610, 611, 612, 613, 614, 615, 616, 617, 618, 619, 620, 621, 622, 623, 624, 625, 626, 627, 628, 629, 630, 631, 632, 633, 634, 635, 636, 637, 638, 639, 640, 641, 642, 643, 644, 645, 646, 647, 648, 649, 650, 651, 652, 653, 654, 655, 656, 657, 658, 659, 660, 661, 662, 663, 664, 665, 666, 667, 668, 669, 670, 671, 672, 673, 674, 675, 676, 677, 678, 679, 680, 681, 682, 683, 684, 685, 686, 687, 688, 689, 690, 691, 692, 693, 694, 695, 696, 697, 698, 699, 700, 701, 702, 703, 704, 705, 706, 707, 708, 709, 710, 711, 712, 713, 714, 715, 716, 717, 718, 719, 720, 721, 722, 723, 724, 725, 726, 727, 728, 729, 730, 731, 732, 733, 734, 735, 736, 737, 738, 739, 740, 741, 742, 743, 744, 745, 746, 747, 748, 749, 750, 751, 752, 753, 754, 755, 756, 757, 758, 759, 760, 761, 762, 763, 764, 765, 766, 767, 768, 769, 770, 771, 772, 773, 774, 775, 776, 777, 778, 779, 780, 781, 782, 783, 784, 785, 786, 787, 788, 789, 790, 791, 792, 793, 794, 795, 796, 797, 798, 799, 800, 801, 802, 803, 804, 805, 806, 807, 808, 809, 810, 811, 812, 813, 814, 815, 816, 817, 818, 819, 820, 821, 822, 823, 824, 825, 826, 827, 828, 829, 830, 831, 832, 833, 834, 835, 836, 837, 838, 839, 840, 841, 842, 843, 844, 845, 846, 847, 848, 849, 850, 851, 852, 853, 854, 855, 856, 857, 858, 859, 860, 861, 862, 863, 864, 865, 866, 867, 868, 869, 870, 871, 872],
      "AcquisitionTime": ["193244.995000", "193245.455000", "193245.915000", "193246.375000", "193246.835000", "193247.295000", "193247.755000", "193248.215000", "193248.675000", "193249.135000", "193249.595000", "193250.055000", "193250.515000", "193250.975000", "193251.435000", "193251.895000", "193252.355000", "193252.815000", "193253.275000", "193253.735000", "193254.195000", "193254.655000", "193255.115000", "193255.575000", "193256.035000", "193256.495000", "193256.955000", "193257.415000", "193257.875000", "193258.335000", "193258.795000", "193259.255000", "193259.715000", "193300.175000", "193300.635000", "193301.095000", "193301.555000", "193302.015000", "193302.475000", "193302.935000", "193303.395000", "193303.855000", "193304.315000", "193304.775000", "193305.235000", "193305.695000", "193306.155000", "193306.615000", "193307.075000", "193307.535000", "193307.995000", "193308.455000", "193308.915000", "193309.375000", "193309.835000", "193310.295000", "193310.755000", "193311.215000", "193311.675000", "193312.135000", "193312.595000", "193313.055000", "193313.515000", "193313.975000", "193314.435000", "193314.895000", "193315.355000", "193315.815000", "193316.275000", "193316.735000", "193317.195000", "193317.655000", "193318.115000", "193318.575000", "193319.035000", "193319.495000", "193319.955000", "193320.415000", "193320.875000", "193321.335000", "193321.795000", "193322.255000", "193322.715000", "193323.175000", "193323.635000", "193324.095000", "193324.555000", "193325.015000", "193325.475000", "193325.935000", "193326.395000", "193326.855000", "193327.315000", "193327.775000", "193328.235000", "193328.695000", "193329.155000", "193329.615000", "193330.075000", "193330.535000", "193330.995000", "193331.455000", "193331.915000", "193332.375000", "193332.835000", "193333.295000", "193333.755000", "193334.215000", "193334.675000", "193335.135000", "193335.595000", "193336.055000", "193336.515000", "193336.975000", "193337.435000", "193337.895000", "193338.355000", "193338.815000", "193339.275000", "193339.735000", "193340.195000", "193340.655000", "193341.115000", "193341.575000", "193342.035000", "193342.495000", "193342.955000", "193343.415000", "193343.875000", "193344.335000", "193344.795000", "193345.255000", "193345.715000", "193346.175000", "193346.635000", "193347.095000", "193347.555000", "193348.015000", "193348.475000", "193348.935000", "193349.395000", "193349.855000", "193350.315000", "193350.775000", "193351.235000", "193351.695000", "193352.155000", "193352.615000", "193353.075000", "193353.535000", "193353.995000", "193354.455000", "193354.915000", "193355.375000", "193355.835000", "193356.295000", "193356.755000", "193357.215000", "193357.675000", "193358.135000", "193358.595000", "193359.055000", "193359.515000", "193359.975000", "193400.435000", "193400.895000", "193401.355000", "193401.815000", "193402.275000", "193402.735000", "193403.195000", "193403.655000", "193404.115000", "193404.575000", "193405.035000", "193405.495000", "193405.955000", "193406.415000", "193406.875000", "193407.335000", "193407.795000", "193408.255000", "193408.715000", "193409.175000", "193409.635000", "193410.095000", "193410.555000", "193411.015000", "193411.475000", "193411.935000", "193412.395000", "193412.855000", "193413.315000", "193413.775000", "193414.235000", "193414.695000", "193415.155000", "193415.615000", "193416.075000", "193416.535000", "193416.995000", "193417.455000", "193417.915000", "193418.375000", "193418.835000", "193419.295000", "193419.755000", "193420.215000", "193420.675000", "193421.135000", "193421.595000", "193422.055000", "193422.515000", "193422.975000", "193423.435000", "193423.895000", "193424.355000", "193424.815000", "193425.275000", "193425.735000", "193426.195000", "193426.655000", "193427.115000", "193427.575000", "193428.035000", "193428.495000", "193428.955000", "193429.415000", "193429.875000", "193430.335000", "193430.795000", "193431.255000", "193431.715000", "193432.175000", "193432.635000", "193433.095000", "193433.555000", "193434.015000", "193434.475000", "193434.935000", "193435.395000", "193435.855000", "193436.315000", "193436.775000", "193437.235000", "193437.695000", "193438.155000", "193438.615000", "193439.075000", "193439.535000", "193439.995000", "193440.455000", "193440.915000", "193441.375000", "193441.835000", "193442.295000", "193442.755000", "193443.215000", "193443.675000", "193444.135000", "193444.595000", "193445.055000", "193445.515000", "193445.975000", "193446.435000", "193446.895000", "193447.355000", "193447.815000", "193448.275000", "193448.735000", "193449.195000", "193449.655000", "193450.115000", "193450.575000", "193451.035000", "193451.495000", "193451.955000", "193452.415000", "193452.875000", "193453.335000", "193453.795000", "193454.255000", "193454.715000", "193455.175000", "193455.635000", "193456.095000", "193456.555000", "193457.015000", "193457.475000", "193457.935000", "193458.395000", "193458.855000", "193459.315000", "193459.775000", "193500.235000", "193500.695000", "193501.155000", "193501.615000", "193502.075000", "193502.535000", "193502.995000", "193503.455000", "193503.915000", "193504.375000", "193504.835000", "193505.295000", "193505.755000", "193506.215000", "193506.675000", "193507.135000", "193507.595000", "193508.055000", "193508.515000", "193508.975000", "193509.435000", "193509.895000", "193510.355000", "193510.815000", "193511.275000", "193511.735000", "193512.195000", "193512.655000", "193513.115000", "193513.575000", "193514.035000", "193514.495000", "193514.955000", "193515.415000", "193515.875000", "193516.335000", "193516.795000", "193517.255000", "193517.715000", "193518.175000", "193518.635000", "193519.095000", "193519.555000", "193520.015000", "193520.475000", "193520.935000", "193521.395000", "193521.855000", "193522.315000", "193522.775000", "193523.235000", "193523.695000", "193524.155000", "193524.615000", "193525.075000", "193525.535000", "193525.995000", "193526.455000", "193526.915000", "193527.375000", "193527.835000", "193528.295000", "193528.755000", "193529.215000", "193529.675000", "193530.135000", "193530.595000", "193531.055000", "193531.515000", "193531.975000", "193532.435000", "193532.895000", "193533.355000", "193533.815000", "193534.275000", "193534.735000", "193535.195000", "193535.655000", "193536.115000", "193536.575000", "193537.035000", "193537.495000", "193537.955000", "193538.415000", "193538.875000", "193539.335000", "193539.795000", "193540.255000", "193540.715000", "193541.175000", "193541.635000", "193542.095000", "193542.555000", "193543.015000", "193543.475000", "193543.935000", "193544.395000", "193544.855000", "193545.315000", "193545.775000", "193546.235000", "193546.695000", "193547.155000", "193547.615000", "193548.075000", "193548.535000", "193548.995000", "193549.455000", "193549.915000", "193550.375000", "193550.835000", "193551.295000", "193551.755000", "193552.215000", "193552.675000", "193553.135000", "193553.595000", "193554.055000", "193554.515000", "193554.975000", "193555.435000", "193555.895000", "193556.355000", "193556.815000", "193557.275000", "193557.735000", "193558.195000", "193558.655000", "193559.115000", "193559.575000", "193600.035000", "193600.495000", "193600.955000", "193601.415000", "193601.875000", "193602.335000", "193602.795000", "193603.255000", "193603.715000", "193604.175000", "193604.635000", "193605.095000", "193605.555000", "193606.015000", "193606.475000", "193606.935000", "193607.395000", "193607.855000", "193608.315000", "193608.775000", "193609.235000", "193609.695000", "193610.155000", "193610.615000", "193611.075000", "193611.535000", "193611.995000", "193612.455000", "193612.915000", "193613.375000", "193613.835000", "193614.295000", "193614.755000", "193615.215000", "193615.675000", "193616.135000", "193616.595000", "193617.055000", "193617.515000", "193617.975000", "193618.435000", "193618.895000", "193619.355000", "193619.815000", "193620.275000", "193620.735000", "193621.195000", "193621.655000", "193622.115000", "193622.575000", "193623.035000", "193623.495000", "193623.955000", "193624.415000", "193624.875000", "193625.335000", "193625.795000", "193626.255000", "193626.715000", "193627.175000", "193627.635000", "193628.095000", "193628.555000", "193629.015000", "193629.475000", "193629.935000", "193630.395000", "193630.855000", "193631.315000", "193631.775000", "193632.235000", "193632.695000", "193633.155000", "193633.615000", "193634.075000", "193634.535000", "193634.995000", "193635.455000", "193635.915000", "193636.375000", "193636.835000", "193637.295000", "193637.755000", "193638.215000", "193638.675000", "193639.135000", "193639.595000", "193640.055000", "193640.515000", "193640.975000", "193641.435000", "193641.895000", "193642.355000", "193642.815000", "193643.275000", "193643.735000", "193644.195000", "193644.655000", "193645.115000", "193645.575000", "193646.035000", "193646.495000", "193646.955000", "193647.415000", "193647.875000", "193648.335000", "193648.795000", "193649.255000", "193649.715000", "193650.175000", "193650.635000", "193651.095000", "193651.555000", "193652.015000", "193652.475000", "193652.935000", "193653.395000", "193653.855000", "193654.315000", "193654.775000", "193655.235000", "193655.695000", "193656.155000", "193656.615000", "193657.075000", "193657.535000", "193657.995000", "193658.455000", "193658.915000", "193659.375000", "193659.835000", "193700.295000", "193700.755000", "193701.215000", "193701.675000", "193702.135000", "193702.595000", "193703.055000", "193703.515000", "193703.975000", "193704.435000", "193704.895000", "193705.355000", "193705.815000", "193706.275000", "193706.735000", "193707.195000", "193707.655000", "193708.115000", "193708.575000", "193709.035000", "193709.495000", "193709.955000", "193710.415000", "193710.875000", "193711.335000", "193711.795000", "193712.255000", "193712.715000", "193713.175000", "193713.635000", "193714.095000", "193714.555000", "193715.015000", "193715.475000", "193715.935000", "193716.395000", "193716.855000", "193717.315000", "193717.775000", "193718.235000", "193718.695000", "193719.155000", "193719.615000", "193720.075000", "193720.535000", "193720.995000", "193721.455000", "193721.915000", "193722.375000", "193722.835000", "193723.295000", "193723.755000", "193724.215000", "193724.675000", "193725.135000", "193725.595000", "193726.055000", "193726.515000", "193726.975000", "193727.435000", "193727.895000", "193728.355000", "193728.815000", "193729.275000", "193729.735000", "193730.195000", "193730.655000", "193731.115000", "193731.575000", "193732.035000", "193732.495000", "193732.955000", "193733.415000", "193733.875000", "193734.335000", "193734.795000", "193735.255000", "193735.715000", "193736.175000", "193736.635000", "193737.095000", "193737.555000", "193738.015000", "193738.475000", "193738.935000", "193739.395000", "193739.855000", "193740.315000", "193740.775000", "193741.235000", "193741.695000", "193742.155000", "193742.615000", "193743.075000", "193743.535000", "193743.995000", "193744.455000", "193744.915000", "193745.375000", "193745.835000", "193746.295000", "193746.755000", "193747.215000", "193747.675000", "193748.135000", "193748.595000", "193749.055000", "193749.515000", "193749.975000", "193750.435000", "193750.895000", "193751.355000", "193751.815000", "193752.275000", "193752.735000", "193753.195000", "193753.655000", "193754.115000", "193754.575000", "193755.035000", "193755.495000", "193755.955000", "193756.415000", "193756.875000", "193757.335000", "193757.795000", "193758.255000", "193758.715000", "193759.175000", "193759.635000", "193800.095000", "193800.555000", "193801.015000", "193801.475000", "193801.935000", "193802.395000", "193802.855000", "193803.315000", "193803.775000", "193804.235000", "193804.695000", "193805.155000", "193805.615000", "193806.075000", "193806.535000", "193806.995000", "193807.455000", "193807.915000", "193808.375000", "193808.835000", "193809.295000", "193809.755000", "193810.215000", "193810.675000", "193811.135000", "193811.595000", "193812.055000", "193812.515000", "193812.975000", "193813.435000", "193813.895000", "193814.355000", "193814.815000", "193815.275000", "193815.735000", "193816.195000", "193816.655000", "193817.115000", "193817.575000", "193818.035000", "193818.495000", "193818.955000", "193819.415000", "193819.875000", "193820.335000", "193820.795000", "193821.255000", "193821.715000", "193822.175000", "193822.635000", "193823.095000", "193823.555000", "193824.015000", "193824.475000", "193824.935000", "193825.395000", "193825.855000", "193826.315000", "193826.775000", "193827.235000", "193827.695000", "193828.155000", "193828.615000", "193829.075000", "193829.535000", "193829.995000", "193830.455000", "193830.915000", "193831.375000", "193831.835000", "193832.295000", "193832.755000", "193833.215000", "193833.675000", "193834.135000", "193834.595000", "193835.055000", "193835.515000", "193835.975000", "193836.435000", "193836.895000", "193837.355000", "193837.815000", "193838.275000", "193838.735000", "193839.195000", "193839.655000", "193840.115000", "193840.575000", "193841.035000", "193841.495000", "193841.955000", "193842.415000", "193842.875000", "193843.335000", "193843.795000", "193844.255000", "193844.715000", "193845.175000", "193845.635000", "193846.095000", "193846.555000", "193847.015000", "193847.475000", "193847.935000", "193848.395000", "193848.855000", "193849.315000", "193849.775000", "193850.235000", "193850.695000", "193851.155000", "193851.615000", "193852.075000", "193852.535000", "193852.995000", "193853.455000", "193853.915000", "193854.375000", "193854.835000", "193855.295000", "193855.755000", "193856.215000", "193856.675000", "193857.135000", "193857.595000", "193858.055000", "193858.515000", "193858.975000", "193859.435000", "193859.895000", "193900.355000", "193900.815000", "193901.275000", "193901.735000", "193902.195000", "193902.655000", "193903.115000", "193903.575000", "193904.035000", "193904.495000", "193904.955000", "193905.415000", "193905.875000", "193906.335000", "193906.795000", "193907.255000", "193907.715000", "193908.175000", "193908.635000", "193909.095000", "193909.555000", "193910.015000", "193910.475000", "193910.935000", "193911.395000", "193911.855000", "193912.315000", "193912.775000", "193913.235000", "193913.695000", "193914.155000", "193914.615000", "193915.075000", "193915.535000", "193915.995000", "193916.455000", "193916.915000", "193917.375000", "193917.835000", "193918.295000", "193918.755000", "193919.215000", "193919.675000", "193920.135000", "193920.595000", "193921.055000", "193921.515000", "193921.975000", "193922.435000", "193922.895000", "193923.355000", "193923.815000", "193924.275000", "193924.735000", "193925.195000", "193925.655000"],
