{
  "AcquisitionMatrixPE": 82,
  "AcquisitionNumber": 1,
  "AcquisitionTime": "19:48:14.092500",
  "BandwidthPerPixelPhaseEncode": 24.888,
  "BaseResolution": 82,
  "BodyPartExamined": "BRAIN",
  "ConsistencyInfo": "N4_VE11E_LATEST_20181129",
  "ConversionSoftware": "dcm2niix",
  "ConversionSoftwareVersion": "v1.0.20201102",
  "DerivedVendorReportedEchoSpacing": 0.00049,
  "DeviceSerialNumber": "66112",
  "DwellTime": 2e-06,
  "EchoTime": 0.0272,
  "EchoTrainLength": 82,
  "EffectiveEchoSpacing": 0.00049,
  "FlipAngle": 44,
  "ImageComments": "Unaliased MB8/PE3",
  "ImageOrientationPatientDICOM": [0.994993, -0.0952855, 0.0301695, 0.0900262, 0.985535, 0.143583],
  "ImageType": [
    "ORIGINAL",
    "PRIMARY",
    "M",
    "MB",
    "ND",
    "NORM",
    "MOSAIC"
],
  "ImagingFrequency": 123.259,
  "InPlanePhaseEncodingDirectionDICOM": "COL",
  "InstitutionAddress": "Maynard 3,Hanover,NH,US,03755",
  "InstitutionName": "Dartmouth College - PBS",
  "InstitutionalDepartmentName": "Department",
  "MRAcquisitionType": "2D",
  "MagneticFieldStrength": 3,
  "Manufacturer": "Siemens",
  "ManufacturersModelName": "Prisma",
  "Modality": "MR",
  "MultibandAccelerationFactor": 8,
  "PartialFourier": 1,
  "PatientPosition": "HFS",
  "PercentPhaseFOV": 100,
  "PercentSampling": 100,
  "PhaseEncodingDirection": "j-",
  "PhaseEncodingSteps": 82,
  "PhaseResolution": 1,
  "PixelBandwidth": 3050,
  "ProcedureStepDescription": "Wager_Wager^1076_spacetop",
  "ProtocolName": "func_run-06_task-social_acq-ap-mb8",
  "PulseSequenceDetails": "%CustomerSeq%\\cmrr_mbep2d_bold",
  "ReceiveCoilActiveElements": "HEA;HEP",
  "ReceiveCoilName": "Head_32",
  "ReconMatrixPE": 82,
  "RepetitionTime": 0.46,
  "SAR": 0.0950832,
  "ScanOptions": "FS",
  "ScanningSequence": "EP",
  "SequenceName": "epfid2d1_82",
  "SequenceVariant": "SK\\SS",
  "SeriesDescription": "func_run-06_task-social_acq-ap-mb8",
  "SeriesNumber": 22,
  "ShimSetting": [4227, -7778, -7251, 357, -119, -59, -25, 84],
  "SliceThickness": 2.7,
  "SliceTiming": [0, 0.2525, 0.0625, 0.315, 0.125, 0.3775, 0.1875, 0, 0.2525, 0.0625, 0.315, 0.125, 0.3775, 0.1875, 0, 0.2525, 0.0625, 0.315, 0.125, 0.3775, 0.1875, 0, 0.2525, 0.0625, 0.315, 0.125, 0.3775, 0.1875, 0, 0.2525, 0.0625, 0.315, 0.125, 0.3775, 0.1875, 0, 0.2525, 0.0625, 0.315, 0.125, 0.3775, 0.1875, 0, 0.2525, 0.0625, 0.315, 0.125, 0.3775, 0.1875, 0, 0.2525, 0.0625, 0.315, 0.125, 0.3775, 0.1875],
  "SoftwareVersions": "syngo MR E11",
  "SpacingBetweenSlices": 2.7,
  "StationName": "AWP66112",
  "TaskName": "social",
  "TotalReadoutTime": 0.03969,
  "TxRefAmp": 237.749,
  "WipMemBlock": "937119da-e444-4b7d-aef2-932886882e4f||Sequence: R016 ve11e/master r/434b28f1; Aug  7 2019 18:53:46 by eja",
  "dcmmeta_affine": [
    [-2.669492721557617, 0.24153366684913635, 0.11721916496753693, 97.43207550048828],
    [0.25564414262771606, 2.644118070602417, 0.378400593996048, -119.04134368896484],
    [0.0809425413608551, -0.3852236866950989, 2.670781135559082, -58.6703987121582],
    [0.0, 0.0, 0.0, 1.0]
],
  "dcmmeta_reorient_transform": [
    [0.0, -1.0, 0.0, 81.0],
    [1.0, 0.0, 0.0, 0.0],
    [0.0, 0.0, 1.0, 0.0],
    [0.0, 0.0, 0.0, 1.0]
],
  "dcmmeta_shape": [82, 82, 56, 872],
  "dcmmeta_slice_dim": 2,
  "dcmmeta_version": 0.6,
  "global": {
    "const": {
      "AccessionNumber": "A004463",
      "AcquisitionMatrix": [82, 0, 0, 82],
      "AngioFlag": "N",
      "BitsAllocated": 16,
      "BitsStored": 16,
      "BodyPartExamined": "BRAIN",
      "Columns": 656,
      "EchoNumbers": 1,
      "EchoTime": 27.2,
      "EchoTrainLength": 82,
      "FlipAngle": 44.0,
      "HighBit": 15,
      "ImageOrientationPatient": [0.99499269673429, -0.0952855458229, 0.03016949125628, 0.09002618483139, 0.98553493098953, 0.1435833759325],
      "ImagePositionPatient": [-952.46086318611, -780.6242689323, -223.66323081213],
      "ImageType": [
        "ORIGINAL",
        "PRIMARY",
        "M",
        "MB",
        "ND",
        "NORM",
        "MOSAIC"
],
      "ImagedNucleus": "1H",
      "ImagingFrequency": 123.259114,
      "InPlanePhaseEncodingDirection": "COL",
      "MRAcquisitionType": "2D",
      "MagneticFieldStrength": 3.0,
      "Manufacturer": "SIEMENS",
      "ManufacturerModelName": "Prisma",
      "Modality": "MR",
      "NumberOfAverages": 1.0,
      "NumberOfPhaseEncodingSteps": 82,
      "PercentPhaseFieldOfView": 100.0,
      "PercentSampling": 100.0,
      "PerformedProcedureStepStartTime": "182427.489000",
      "PhotometricInterpretation": "MONOCHROME2",
      "PixelBandwidth": 3050.0,
      "PixelRepresentation": 0,
      "PixelSpacing": [2.6829268932343, 2.6829268932343],
      "ProtocolName": "func_run-06_task-social_acq-ap-mb8",
      "RepetitionTime": 460.0,
      "Rows": 656,
      "SAR": 0.09508318509558,
      "SamplesPerPixel": 1,
      "ScanOptions": "FS",
      "ScanningSequence": "EP",
      "SequenceName": "epfid2d1_82",
      "SequenceVariant": [
        "SK",
        "SS"
],
      "SeriesDescription": "func_run-06_task-social_acq-ap-mb8",
      "SeriesNumber": 22,
      "SeriesTime": "194834.003000",
      "SliceLocation": -70.488968353922,
      "SliceThickness": 2.7000000476837,
      "SmallestImagePixelValue": 0,
      "SoftwareVersions": "syngo MR E11",
      "SpacingBetweenSlices": 2.6999999375259,
      "SpecificCharacterSet": "ISO_IR 100",
      "StudyID": "2",
      "StudyTime": "182427.441000",
      "TransmitCoilName": "Body",
      "VariableFlipAngleFlag": "N",
      "WindowCenterWidthExplanation": "Algo1"
    },
    "slices": {}
  },
  "time": {
    "samples": {
      "AcquisitionNumber": [1, 2, 3, 4, 5, 6, 7, 8, 9, 10, 11, 12, 13, 14, 15, 16, 17, 18, 19, 20, 21, 22, 23, 24, 25, 26, 27, 28, 29, 30, 31, 32, 33, 34, 35, 36, 37, 38, 39, 40, 41, 42, 43, 44, 45, 46, 47, 48, 49, 50, 51, 52, 53, 54, 55, 56, 57, 58, 59, 60, 61, 62, 63, 64, 65, 66, 67, 68, 69, 70, 71, 72, 73, 74, 75, 76, 77, 78, 79, 80, 81, 82, 83, 84, 85, 86, 87, 88, 89, 90, 91, 92, 93, 94, 95, 96, 97, 98, 99, 100, 101, 102, 103, 104, 105, 106, 107, 108, 109, 110, 111, 112, 113, 114, 115, 116, 117, 118, 119, 120, 121, 122, 123, 124, 125, 126, 127, 128, 129, 130, 131, 132, 133, 134, 135, 136, 137, 138, 139, 140, 141, 142, 143, 144, 145, 146, 147, 148, 149, 150, 151, 152, 153, 154, 155, 156, 157, 158, 159, 160, 161, 162, 163, 164, 165, 166, 167, 168, 169, 170, 171, 172, 173, 174, 175, 176, 177, 178, 179, 180, 181, 182, 183, 184, 185, 186, 187, 188, 189, 190, 191, 192, 193, 194, 195, 196, 197, 198, 199, 200, 201, 202, 203, 204, 205, 206, 207, 208, 209, 210, 211, 212, 213, 214, 215, 216, 217, 218, 219, 220, 221, 222, 223, 224, 225, 226, 227, 228, 229, 230, 231, 232, 233, 234, 235, 236, 237, 238, 239, 240, 241, 242, 243, 244, 245, 246, 247, 248, 249, 250, 251, 252, 253, 254, 255, 256, 257, 258, 259, 260, 261, 262, 263, 264, 265, 266, 267, 268, 269, 270, 271, 272, 273, 274, 275, 276, 277, 278, 279, 280, 281, 282, 283, 284, 285, 286, 287, 288, 289, 290, 291, 292, 293, 294, 295, 296, 297, 298, 299, 300, 301, 302, 303, 304, 305, 306, 307, 308, 309, 310, 311, 312, 313, 314, 315, 316, 317, 318, 319, 320, 321, 322, 323, 324, 325, 326, 327, 328, 329, 330, 331, 332, 333, 334, 335, 336, 337, 338, 339, 340, 341, 342, 343, 344, 345, 346, 347, 348, 349, 350, 351, 352, 353, 354, 355, 356, 357, 358, 359, 360, 361, 362, 363, 364, 365, 366, 367, 368, 369, 370, 371, 372, 373, 374, 375, 376, 377, 378, 379, 380, 381, 382, 383, 384, 385, 386, 387, 388, 389, 390, 391, 392, 393, 394, 395, 396, 397, 398, 399, 400, 401, 402, 403, 404, 405, 406, 407, 408, 409, 410, 411, 412, 413, 414, 415, 416, 417, 418, 419, 420, 421, 422, 423, 424, 425, 426, 427, 428, 429, 430, 431, 432, 433, 434, 435, 436, 437, 438, 439, 440, 441, 442, 443, 444, 445, 446, 447, 448, 449, 450, 451, 452, 453, 454, 455, 456, 457, 458, 459, 460, 461, 462, 463, 464, 465, 466, 467, 468, 469, 470, 471, 472, 473, 474, 475, 476, 477, 478, 479, 480, 481, 482, 483, 484, 485, 486, 487, 488, 489, 490, 491, 492, 493, 494, 495, 496, 497, 498, 499, 500, 501, 502, 503, 504, 505, 506, 507, 508, 509, 510, 511, 512, 513, 514, 515, 516, 517, 518, 519, 520, 521, 522, 523, 524, 525, 526, 527, 528, 529, 530, 531, 532, 533, 534, 535, 536, 537, 538, 539, 540, 541, 542, 543, 544, 545, 546, 547, 548, 549, 550, 551, 552, 553, 554, 555, 556, 557, 558, 559, 560, 561, 562, 563, 564, 565, 566, 567, 568, 569, 570, 571, 572, 573, 574, 575, 576, 577, 578, 579, 580, 581, 582, 583, 584, 585, 586, 587, 588, 589, 590, 591, 592, 593, 594, 595, 596, 597, 598, 599, 600, 601, 602, 603, 604, 605, 606, 607, 608, 609, 610, 611, 612, 613, 614, 615, 616, 617, 618, 619, 620, 621, 622, 623, 624, 625, 626, 627, 628, 629, 630, 631, 632, 633, 634, 635, 636, 637, 638, 639, 640, 641, 642, 643, 644, 645, 646, 647, 648, 649, 650, 651, 652, 653, 654, 655, 656, 657, 658, 659, 660, 661, 662, 663, 664, 665, 666, 667, 668, 669, 670, 671, 672, 673, 674, 675, 676, 677, 678, 679, 680, 681, 682, 683, 684, 685, 686, 687, 688, 689, 690, 691, 692, 693, 694, 695, 696, 697, 698, 699, 700, 701, 702, 703, 704, 705, 706, 707, 708, 709, 710, 711, 712, 713, 714, 715, 716, 717, 718, 719, 720, 721, 722, 723, 724, 725, 726, 727, 728, 729, 730, 731, 732, 733, 734, 735, 736, 737, 738, 739, 740, 741, 742, 743, 744, 745, 746, 747, 748, 749, 750, 751, 752, 753, 754, 755, 756, 757, 758, 759, 760, 761, 762, 763, 764, 765, 766, 767, 768, 769, 770, 771, 772, 773, 774, 775, 776, 777, 778, 779, 780, 781, 782, 783, 784, 785, 786, 787, 788, 789, 790, 791, 792, 793, 794, 795, 796, 797, 798, 799, 800, 801, 802, 803, 804, 805, 806, 807, 808, 809, 810, 811, 812, 813, 814, 815, 816, 817, 818, 819, 820, 821, 822, 823, 824, 825, 826, 827, 828, 829, 830, 831, 832, 833, 834, 835, 836, 837, 838, 839, 840, 841, 842, 843, 844, 845, 846, 847, 848, 849, 850, 851, 852, 853, 854, 855, 856, 857, 858, 859, 860, 861, 862, 863, 864, 865, 866, 867, 868, 869, 870, 871, 872],
      "AcquisitionTime": ["194814.092500", "194814.552500", "194815.012500", "194815.472500", "194815.932500", "194816.392500", "194816.852500", "194817.312500", "194817.772500", "194818.232500", "194818.692500", "194819.152500", "194819.612500", "194820.072500", "194820.532500", "194820.992500", "194821.452500", "194821.912500", "194822.372500", "194822.832500", "194823.292500", "194823.752500", "194824.212500", "194824.672500", "194825.132500", "194825.592500", "194826.052500", "194826.512500", "194826.972500", "194827.432500", "194827.892500", "194828.352500", "194828.812500", "194829.272500", "194829.732500", "194830.192500", "194830.652500", "194831.112500", "194831.572500", "194832.032500", "194832.492500", "194832.952500", "194833.412500", "194833.872500", "194834.332500", "194834.792500", "194835.252500", "194835.712500", "194836.172500", "194836.632500", "194837.092500", "194837.552500", "194838.012500", "194838.472500", "194838.932500", "194839.392500", "194839.852500", "194840.312500", "194840.772500", "194841.232500", "194841.692500", "194842.152500", "194842.612500", "194843.072500", "194843.532500", "194843.992500", "194844.452500", "194844.912500", "194845.372500", "194845.832500", "194846.292500", "194846.752500", "194847.212500", "194847.672500", "194848.132500", "194848.592500", "194849.052500", "194849.512500", "194849.972500", "194850.432500", "194850.892500", "194851.352500", "194851.812500", "194852.272500", "194852.732500", "194853.192500", "194853.652500", "194854.112500", "194854.572500", "194855.032500", "194855.492500", "194855.952500", "194856.412500", "194856.872500", "194857.332500", "194857.792500", "194858.252500", "194858.712500", "194859.172500", "194859.632500", "194900.092500", "194900.552500", "194901.012500", "194901.472500", "194901.932500", "194902.392500", "194902.852500", "194903.312500", "194903.772500", "194904.232500", "194904.692500", "194905.152500", "194905.612500", "194906.072500", "194906.532500", "194906.992500", "194907.452500", "194907.912500", "194908.372500", "194908.832500", "194909.292500", "194909.752500", "194910.212500", "194910.672500", "194911.132500", "194911.592500", "194912.052500", "194912.512500", "194912.972500", "194913.432500", "194913.892500", "194914.352500", "194914.812500", "194915.272500", "194915.732500", "194916.192500", "194916.652500", "194917.112500", "194917.572500", "194918.032500", "194918.492500", "194918.952500", "194919.412500", "194919.872500", "194920.332500", "194920.792500", "194921.252500", "194921.712500", "194922.172500", "194922.632500", "194923.092500", "194923.552500", "194924.012500", "194924.472500", "194924.932500", "194925.392500", "194925.852500", "194926.312500", "194926.772500", "194927.232500", "194927.692500", "194928.152500", "194928.612500", "194929.072500", "194929.532500", "194929.992500", "194930.452500", "194930.912500", "194931.372500", "194931.832500", "194932.292500", "194932.752500", "194933.212500", "194933.672500", "194934.132500", "194934.592500", "194935.052500", "194935.512500", "194935.972500", "194936.432500", "194936.892500", "194937.352500", "194937.812500", "194938.272500", "194938.732500", "194939.192500", "194939.652500", "194940.112500", "194940.572500", "194941.032500", "194941.492500", "194941.952500", "194942.412500", "194942.872500", "194943.332500", "194943.792500", "194944.252500", "194944.712500", "194945.172500", "194945.632500", "194946.092500", "194946.552500", "194947.012500", "194947.472500", "194947.932500", "194948.392500", "194948.852500", "194949.312500", "194949.772500", "194950.232500", "194950.692500", "194951.152500", "194951.612500", "194952.072500", "194952.532500", "194952.992500", "194953.452500", "194953.912500", "194954.372500", "194954.832500", "194955.292500", "194955.752500", "194956.212500", "194956.672500", "194957.132500", "194957.592500", "194958.052500", "194958.512500", "194958.972500", "194959.432500", "194959.892500", "195000.352500", "195000.812500", "195001.272500", "195001.732500", "195002.192500", "195002.652500", "195003.112500", "195003.572500", "195004.032500", "195004.492500", "195004.952500", "195005.412500", "195005.872500", "195006.332500", "195006.792500", "195007.252500", "195007.712500", "195008.172500", "195008.632500", "195009.092500", "195009.552500", "195010.012500", "195010.472500", "195010.932500", "195011.392500", "195011.852500", "195012.312500", "195012.772500", "195013.232500", "195013.692500", "195014.152500", "195014.612500", "195015.072500", "195015.532500", "195015.992500", "195016.452500", "195016.912500", "195017.372500", "195017.832500", "195018.292500", "195018.752500", "195019.212500", "195019.672500", "195020.132500", "195020.592500", "195021.052500", "195021.512500", "195021.972500", "195022.432500", "195022.892500", "195023.352500", "195023.812500", "195024.272500", "195024.732500", "195025.192500", "195025.652500", "195026.112500", "195026.572500", "195027.032500", "195027.492500", "195027.952500", "195028.412500", "195028.872500", "195029.332500", "195029.792500", "195030.252500", "195030.712500", "195031.172500", "195031.632500", "195032.092500", "195032.552500", "195033.012500", "195033.472500", "195033.932500", "195034.392500", "195034.852500", "195035.312500", "195035.772500", "195036.232500", "195036.692500", "195037.152500", "195037.612500", "195038.072500", "195038.532500", "195038.992500", "195039.452500", "195039.912500", "195040.372500", "195040.832500", "195041.292500", "195041.752500", "195042.212500", "195042.672500", "195043.132500", "195043.592500", "195044.052500", "195044.512500", "195044.972500", "195045.432500", "195045.892500", "195046.352500", "195046.812500", "195047.272500", "195047.732500", "195048.192500", "195048.652500", "195049.112500", "195049.572500", "195050.032500", "195050.492500", "195050.952500", "195051.412500", "195051.872500", "195052.332500", "195052.792500", "195053.252500", "195053.712500", "195054.172500", "195054.632500", "195055.092500", "195055.552500", "195056.012500", "195056.472500", "195056.932500", "195057.392500", "195057.852500", "195058.312500", "195058.772500", "195059.232500", "195059.692500", "195100.152500", "195100.612500", "195101.072500", "195101.532500", "195101.992500", "195102.452500", "195102.912500", "195103.372500", "195103.832500", "195104.292500", "195104.752500", "195105.212500", "195105.672500", "195106.132500", "195106.592500", "195107.052500", "195107.512500", "195107.972500", "195108.432500", "195108.892500", "195109.352500", "195109.812500", "195110.272500", "195110.732500", "195111.192500", "195111.652500", "195112.112500", "195112.572500", "195113.032500", "195113.492500", "195113.952500", "195114.412500", "195114.872500", "195115.332500", "195115.792500", "195116.252500", "195116.712500", "195117.172500", "195117.632500", "195118.092500", "195118.552500", "195119.012500", "195119.472500", "195119.932500", "195120.392500", "195120.852500", "195121.312500", "195121.772500", "195122.232500", "195122.692500", "195123.152500", "195123.612500", "195124.072500", "195124.532500", "195124.992500", "195125.452500", "195125.912500", "195126.372500", "195126.832500", "195127.292500", "195127.752500", "195128.212500", "195128.672500", "195129.132500", "195129.592500", "195130.052500", "195130.512500", "195130.972500", "195131.432500", "195131.892500", "195132.352500", "195132.812500", "195133.272500", "195133.732500", "195134.192500", "195134.652500", "195135.112500", "195135.572500", "195136.032500", "195136.492500", "195136.952500", "195137.412500", "195137.872500", "195138.332500", "195138.792500", "195139.252500", "195139.712500", "195140.172500", "195140.632500", "195141.092500", "195141.552500", "195142.012500", "195142.472500", "195142.932500", "195143.392500", "195143.852500", "195144.312500", "195144.772500", "195145.232500", "195145.692500", "195146.152500", "195146.612500", "195147.072500", "195147.532500", "195147.992500", "195148.452500", "195148.912500", "195149.372500", "195149.832500", "195150.292500", "195150.752500", "195151.212500", "195151.672500", "195152.132500", "195152.592500", "195153.052500", "195153.512500", "195153.972500", "195154.432500", "195154.892500", "195155.352500", "195155.812500", "195156.272500", "195156.732500", "195157.192500", "195157.652500", "195158.112500", "195158.572500", "195159.032500", "195159.492500", "195159.952500", "195200.412500", "195200.872500", "195201.332500", "195201.792500", "195202.252500", "195202.712500", "195203.172500", "195203.632500", "195204.092500", "195204.552500", "195205.012500", "195205.472500", "195205.932500", "195206.392500", "195206.852500", "195207.312500", "195207.772500", "195208.232500", "195208.692500", "195209.152500", "195209.612500", "195210.072500", "195210.532500", "195210.992500", "195211.452500", "195211.912500", "195212.372500", "195212.832500", "195213.292500", "195213.752500", "195214.212500", "195214.672500", "195215.132500", "195215.592500", "195216.052500", "195216.512500", "195216.972500", "195217.432500", "195217.892500", "195218.352500", "195218.812500", "195219.272500", "195219.732500", "195220.192500", "195220.652500", "195221.112500", "195221.572500", "195222.032500", "195222.492500", "195222.952500", "195223.412500", "195223.872500", "195224.332500", "195224.792500", "195225.252500", "195225.712500", "195226.172500", "195226.632500", "195227.092500", "195227.552500", "195228.012500", "195228.472500", "195228.932500", "195229.392500", "195229.852500", "195230.312500", "195230.772500", "195231.232500", "195231.692500", "195232.152500", "195232.612500", "195233.072500", "195233.532500", "195233.992500", "195234.452500", "195234.912500", "195235.372500", "195235.832500", "195236.292500", "195236.752500", "195237.212500", "195237.672500", "195238.132500", "195238.592500", "195239.052500", "195239.512500", "195239.972500", "195240.432500", "195240.892500", "195241.352500", "195241.812500", "195242.272500", "195242.732500", "195243.192500", "195243.652500", "195244.112500", "195244.572500", "195245.032500", "195245.492500", "195245.952500", "195246.412500", "195246.872500", "195247.332500", "195247.792500", "195248.252500", "195248.712500", "195249.172500", "195249.632500", "195250.092500", "195250.552500", "195251.012500", "195251.472500", "195251.932500", "195252.392500", "195252.852500", "195253.312500", "195253.772500", "195254.232500", "195254.692500", "195255.152500", "195255.612500", "195256.072500", "195256.532500", "195256.992500", "195257.452500", "195257.912500", "195258.372500", "195258.832500", "195259.292500", "195259.752500", "195300.212500", "195300.672500", "195301.132500", "195301.592500", "195302.052500", "195302.512500", "195302.972500", "195303.432500", "195303.892500", "195304.352500", "195304.812500", "195305.272500", "195305.732500", "195306.192500", "195306.652500", "195307.112500", "195307.572500", "195308.032500", "195308.492500", "195308.952500", "195309.412500", "195309.872500", "195310.332500", "195310.792500", "195311.252500", "195311.712500", "195312.172500", "195312.632500", "195313.092500", "195313.552500", "195314.012500", "195314.472500", "195314.932500", "195315.392500", "195315.852500", "195316.312500", "195316.772500", "195317.232500", "195317.692500", "195318.152500", "195318.612500", "195319.072500", "195319.532500", "195319.992500", "195320.452500", "195320.912500", "195321.372500", "195321.832500", "195322.292500", "195322.752500", "195323.212500", "195323.672500", "195324.132500", "195324.592500", "195325.052500", "195325.512500", "195325.972500", "195326.432500", "195326.892500", "195327.352500", "195327.812500", "195328.272500", "195328.732500", "195329.192500", "195329.652500", "195330.112500", "195330.572500", "195331.032500", "195331.492500", "195331.952500", "195332.412500", "195332.872500", "195333.332500", "195333.792500", "195334.252500", "195334.712500", "195335.172500", "195335.632500", "195336.092500", "195336.552500", "195337.012500", "195337.472500", "195337.932500", "195338.392500", "195338.852500", "195339.312500", "195339.772500", "195340.232500", "195340.692500", "195341.152500", "195341.612500", "195342.072500", "195342.532500", "195342.992500", "195343.452500", "195343.912500", "195344.372500", "195344.832500", "195345.292500", "195345.752500", "195346.212500", "195346.672500", "195347.132500", "195347.592500", "195348.052500", "195348.512500", "195348.972500", "195349.432500", "195349.892500", "195350.352500", "195350.812500", "195351.272500", "195351.732500", "195352.192500", "195352.652500", "195353.112500", "195353.572500", "195354.032500", "195354.492500", "195354.952500", "195355.412500", "195355.872500", "195356.332500", "195356.792500", "195357.252500", "195357.712500", "195358.172500", "195358.632500", "195359.092500", "195359.552500", "195400.012500", "195400.472500", "195400.932500", "195401.392500", "195401.852500", "195402.312500", "195402.772500", "195403.232500", "195403.692500", "195404.152500", "195404.612500", "195405.072500", "195405.532500", "195405.992500", "195406.452500", "195406.912500", "195407.372500", "195407.832500", "195408.292500", "195408.752500", "195409.212500", "195409.672500", "195410.132500", "195410.592500", "195411.052500", "195411.512500", "195411.972500", "195412.432500", "195412.892500", "195413.352500", "195413.812500", "195414.272500", "195414.732500", "195415.192500", "195415.652500", "195416.112500", "195416.572500", "195417.032500", "195417.492500", "195417.952500", "195418.412500", "195418.872500", "195419.332500", "195419.792500", "195420.252500", "195420.712500", "195421.172500", "195421.632500", "195422.092500", "195422.552500", "195423.012500", "195423.472500", "195423.932500", "195424.392500", "195424.852500", "195425.312500", "195425.772500", "195426.232500", "195426.692500", "195427.152500", "195427.612500", "195428.072500", "195428.532500", "195428.992500", "195429.452500", "195429.912500", "195430.372500", "195430.832500", "195431.292500", "195431.752500", "195432.212500", "195432.672500", "195433.132500", "195433.592500", "195434.052500", "195434.512500", "195434.972500", "195435.432500", "195435.892500", "195436.352500", "195436.812500", "195437.272500", "195437.732500", "195438.192500", "195438.652500", "195439.112500", "195439.572500", "195440.032500", "195440.492500", "195440.952500", "195441.412500", "195441.872500", "195442.332500", "195442.792500", "195443.252500", "195443.712500", "195444.172500", "195444.632500", "195445.092500", "195445.552500", "195446.012500", "195446.472500", "195446.932500", "195447.392500", "195447.852500", "195448.312500", "195448.772500", "195449.232500", "195449.692500", "195450.152500", "195450.612500", "195451.072500", "195451.532500", "195451.992500", "195452.452500", "195452.912500", "195453.372500", "195453.832500", "195454.292500", "195454.752500"],
