{
  "AcquisitionMatrixPE": 82,
  "AcquisitionNumber": 1,
  "AcquisitionTime": "19:11:30.880000",
  "BandwidthPerPixelPhaseEncode": 24.888,
  "BaseResolution": 82,
  "BodyPartExamined": "BRAIN",
  "ConsistencyInfo": "N4_VE11E_LATEST_20181129",
  "ConversionSoftware": "dcm2niix",
  "ConversionSoftwareVersion": "v1.0.20201102",
  "DerivedVendorReportedEchoSpacing": 0.00049,
  "DeviceSerialNumber": "66112",
  "DwellTime": 2e-06,
  "EchoTime": 0.0272,
  "EchoTrainLength": 82,
  "EffectiveEchoSpacing": 0.00049,
  "FlipAngle": 44,
  "ImageComments": "Unaliased MB8/PE3",
  "ImageOrientationPatientDICOM": [0.994993, -0.0952855, 0.0301695, 0.0900262, 0.985535, 0.143583],
  "ImageType": [
    "ORIGINAL",
    "PRIMARY",
    "M",
    "MB",
    "ND",
    "NORM",
    "MOSAIC"
],
  "ImagingFrequency": 123.259,
  "InPlanePhaseEncodingDirectionDICOM": "COL",
  "InstitutionAddress": "Maynard 3,Hanover,NH,US,03755",
  "InstitutionName": "Dartmouth College - PBS",
  "InstitutionalDepartmentName": "Department",
  "MRAcquisitionType": "2D",
  "MagneticFieldStrength": 3,
  "Manufacturer": "Siemens",
  "ManufacturersModelName": "Prisma",
  "Modality": "MR",
  "MultibandAccelerationFactor": 8,
  "PartialFourier": 1,
  "PatientPosition": "HFS",
  "PercentPhaseFOV": 100,
  "PercentSampling": 100,
  "PhaseEncodingDirection": "j-",
  "PhaseEncodingSteps": 82,
  "PhaseResolution": 1,
  "PixelBandwidth": 3050,
  "ProcedureStepDescription": "Wager_Wager^1076_spacetop",
  "ProtocolName": "func_run-01_task-social_acq-ap-mb8",
  "PulseSequenceDetails": "%CustomerSeq%\\cmrr_mbep2d_bold",
  "ReceiveCoilActiveElements": "HEA;HEP",
  "ReceiveCoilName": "Head_32",
  "ReconMatrixPE": 82,
  "RepetitionTime": 0.46,
  "SAR": 0.0950832,
  "ScanOptions": "FS",
  "ScanningSequence": "EP",
  "SequenceName": "epfid2d1_82",
  "SequenceVariant": "SK\\SS",
  "SeriesDescription": "func_run-01_task-social_acq-ap-mb8",
  "SeriesNumber": 12,
  "ShimSetting": [4227, -7778, -7251, 357, -119, -59, -25, 84],
  "SliceThickness": 2.7,
  "SliceTiming": [0, 0.25, 0.0625, 0.3125, 0.125, 0.375, 0.1875, 0, 0.25, 0.0625, 0.3125, 0.125, 0.375, 0.1875, 0, 0.25, 0.0625, 0.3125, 0.125, 0.375, 0.1875, 0, 0.25, 0.0625, 0.3125, 0.125, 0.375, 0.1875, 0, 0.25, 0.0625, 0.3125, 0.125, 0.375, 0.1875, 0, 0.25, 0.0625, 0.3125, 0.125, 0.375, 0.1875, 0, 0.25, 0.0625, 0.3125, 0.125, 0.375, 0.1875, 0, 0.25, 0.0625, 0.3125, 0.125, 0.375, 0.1875],
  "SoftwareVersions": "syngo MR E11",
  "SpacingBetweenSlices": 2.7,
  "StationName": "AWP66112",
  "TaskName": "social",
  "TotalReadoutTime": 0.03969,
  "TxRefAmp": 237.749,
  "WipMemBlock": "5abf1ec7-6a26-471f-969b-a2f286844aad||Sequence: R016 ve11e/master r/434b28f1; Aug  7 2019 18:53:46 by eja",
  "dcmmeta_affine": [
    [-2.669492721557617, 0.24153366684913635, 0.11721916496753693, 97.43207550048828],
    [0.25564414262771606, 2.644118070602417, 0.378400593996048, -119.04134368896484],
    [0.0809425413608551, -0.3852236866950989, 2.670781135559082, -58.6703987121582],
    [0.0, 0.0, 0.0, 1.0]
],
  "dcmmeta_reorient_transform": [
    [0.0, -1.0, 0.0, 81.0],
    [1.0, 0.0, 0.0, 0.0],
    [0.0, 0.0, 1.0, 0.0],
    [0.0, 0.0, 0.0, 1.0]
],
  "dcmmeta_shape": [82, 82, 56, 872],
  "dcmmeta_slice_dim": 2,
  "dcmmeta_version": 0.6,
  "global": {
    "const": {
      "AccessionNumber": "A004463",
      "AcquisitionMatrix": [82, 0, 0, 82],
      "AngioFlag": "N",
      "BitsAllocated": 16,
      "BitsStored": 16,
      "BodyPartExamined": "BRAIN",
      "Columns": 656,
      "EchoNumbers": 1,
      "EchoTime": 27.2,
      "EchoTrainLength": 82,
      "FlipAngle": 44.0,
      "HighBit": 15,
      "ImageOrientationPatient": [0.99499269673429, -0.0952855458229, 0.03016949125628, 0.09002618483139, 0.98553493098953, 0.1435833759325],
      "ImagePositionPatient": [-952.46086318611, -780.6242689323, -223.66323081213],
      "ImageType": [
        "ORIGINAL",
        "PRIMARY",
        "M",
        "MB",
        "ND",
        "NORM",
        "MOSAIC"
],
      "ImagedNucleus": "1H",
      "ImagingFrequency": 123.259094,
      "InPlanePhaseEncodingDirection": "COL",
      "MRAcquisitionType": "2D",
      "MagneticFieldStrength": 3.0,
      "Manufacturer": "SIEMENS",
      "ManufacturerModelName": "Prisma",
      "Modality": "MR",
      "NumberOfAverages": 1.0,
      "NumberOfPhaseEncodingSteps": 82,
      "PercentPhaseFieldOfView": 100.0,
      "PercentSampling": 100.0,
      "PerformedProcedureStepStartTime": "182427.489000",
      "PhotometricInterpretation": "MONOCHROME2",
      "PixelBandwidth": 3050.0,
      "PixelRepresentation": 0,
      "PixelSpacing": [2.6829268932343, 2.6829268932343],
      "ProtocolName": "func_run-01_task-social_acq-ap-mb8",
      "RepetitionTime": 460.0,
      "Rows": 656,
      "SAR": 0.09508318509558,
      "SamplesPerPixel": 1,
      "ScanOptions": "FS",
      "ScanningSequence": "EP",
      "SequenceName": "epfid2d1_82",
      "SequenceVariant": [
        "SK",
        "SS"
],
      "SeriesDescription": "func_run-01_task-social_acq-ap-mb8",
      "SeriesNumber": 12,
      "SeriesTime": "191153.831000",
      "SliceLocation": -70.488968353922,
      "SliceThickness": 2.7000000476837,
      "SmallestImagePixelValue": 0,
      "SoftwareVersions": "syngo MR E11",
      "SpacingBetweenSlices": 2.6999999375259,
      "SpecificCharacterSet": "ISO_IR 100",
      "StudyID": "2",
      "StudyTime": "182427.441000",
      "TransmitCoilName": "Body",
      "VariableFlipAngleFlag": "N",
      "WindowCenterWidthExplanation": "Algo1"
    },
    "slices": {}
  },
  "time": {
    "samples": {
      "AcquisitionNumber": [1, 2, 3, 4, 5, 6, 7, 8, 9, 10, 11, 12, 13, 14, 15, 16, 17, 18, 19, 20, 21, 22, 23, 24, 25, 26, 27, 28, 29, 30, 31, 32, 33, 34, 35, 36, 37, 38, 39, 40, 41, 42, 43, 44, 45, 46, 47, 48, 49, 50, 51, 52, 53, 54, 55, 56, 57, 58, 59, 60, 61, 62, 63, 64, 65, 66, 67, 68, 69, 70, 71, 72, 73, 74, 75, 76, 77, 78, 79, 80, 81, 82, 83, 84, 85, 86, 87, 88, 89, 90, 91, 92, 93, 94, 95, 96, 97, 98, 99, 100, 101, 102, 103, 104, 105, 106, 107, 108, 109, 110, 111, 112, 113, 114, 115, 116, 117, 118, 119, 120, 121, 122, 123, 124, 125, 126, 127, 128, 129, 130, 131, 132, 133, 134, 135, 136, 137, 138, 139, 140, 141, 142, 143, 144, 145, 146, 147, 148, 149, 150, 151, 152, 153, 154, 155, 156, 157, 158, 159, 160, 161, 162, 163, 164, 165, 166, 167, 168, 169, 170, 171, 172, 173, 174, 175, 176, 177, 178, 179, 180, 181, 182, 183, 184, 185, 186, 187, 188, 189, 190, 191, 192, 193, 194, 195, 196, 197, 198, 199, 200, 201, 202, 203, 204, 205, 206, 207, 208, 209, 210, 211, 212, 213, 214, 215, 216, 217, 218, 219, 220, 221, 222, 223, 224, 225, 226, 227, 228, 229, 230, 231, 232, 233, 234, 235, 236, 237, 238, 239, 240, 241, 242, 243, 244, 245, 246, 247, 248, 249, 250, 251, 252, 253, 254, 255, 256, 257, 258, 259, 260, 261, 262, 263, 264, 265, 266, 267, 268, 269, 270, 271, 272, 273, 274, 275, 276, 277, 278, 279, 280, 281, 282, 283, 284, 285, 286, 287, 288, 289, 290, 291, 292, 293, 294, 295, 296, 297, 298, 299, 300, 301, 302, 303, 304, 305, 306, 307, 308, 309, 310, 311, 312, 313, 314, 315, 316, 317, 318, 319, 320, 321, 322, 323, 324, 325, 326, 327, 328, 329, 330, 331, 332, 333, 334, 335, 336, 337, 338, 339, 340, 341, 342, 343, 344, 345, 346, 347, 348, 349, 350, 351, 352, 353, 354, 355, 356, 357, 358, 359, 360, 361, 362, 363, 364, 365, 366, 367, 368, 369, 370, 371, 372, 373, 374, 375, 376, 377, 378, 379, 380, 381, 382, 383, 384, 385, 386, 387, 388, 389, 390, 391, 392, 393, 394, 395, 396, 397, 398, 399, 400, 401, 402, 403, 404, 405, 406, 407, 408, 409, 410, 411, 412, 413, 414, 415, 416, 417, 418, 419, 420, 421, 422, 423, 424, 425, 426, 427, 428, 429, 430, 431, 432, 433, 434, 435, 436, 437, 438, 439, 440, 441, 442, 443, 444, 445, 446, 447, 448, 449, 450, 451, 452, 453, 454, 455, 456, 457, 458, 459, 460, 461, 462, 463, 464, 465, 466, 467, 468, 469, 470, 471, 472, 473, 474, 475, 476, 477, 478, 479, 480, 481, 482, 483, 484, 485, 486, 487, 488, 489, 490, 491, 492, 493, 494, 495, 496, 497, 498, 499, 500, 501, 502, 503, 504, 505, 506, 507, 508, 509, 510, 511, 512, 513, 514, 515, 516, 517, 518, 519, 520, 521, 522, 523, 524, 525, 526, 527, 528, 529, 530, 531, 532, 533, 534, 535, 536, 537, 538, 539, 540, 541, 542, 543, 544, 545, 546, 547, 548, 549, 550, 551, 552, 553, 554, 555, 556, 557, 558, 559, 560, 561, 562, 563, 564, 565, 566, 567, 568, 569, 570, 571, 572, 573, 574, 575, 576, 577, 578, 579, 580, 581, 582, 583, 584, 585, 586, 587, 588, 589, 590, 591, 592, 593, 594, 595, 596, 597, 598, 599, 600, 601, 602, 603, 604, 605, 606, 607, 608, 609, 610, 611, 612, 613, 614, 615, 616, 617, 618, 619, 620, 621, 622, 623, 624, 625, 626, 627, 628, 629, 630, 631, 632, 633, 634, 635, 636, 637, 638, 639, 640, 641, 642, 643, 644, 645, 646, 647, 648, 649, 650, 651, 652, 653, 654, 655, 656, 657, 658, 659, 660, 661, 662, 663, 664, 665, 666, 667, 668, 669, 670, 671, 672, 673, 674, 675, 676, 677, 678, 679, 680, 681, 682, 683, 684, 685, 686, 687, 688, 689, 690, 691, 692, 693, 694, 695, 696, 697, 698, 699, 700, 701, 702, 703, 704, 705, 706, 707, 708, 709, 710, 711, 712, 713, 714, 715, 716, 717, 718, 719, 720, 721, 722, 723, 724, 725, 726, 727, 728, 729, 730, 731, 732, 733, 734, 735, 736, 737, 738, 739, 740, 741, 742, 743, 744, 745, 746, 747, 748, 749, 750, 751, 752, 753, 754, 755, 756, 757, 758, 759, 760, 761, 762, 763, 764, 765, 766, 767, 768, 769, 770, 771, 772, 773, 774, 775, 776, 777, 778, 779, 780, 781, 782, 783, 784, 785, 786, 787, 788, 789, 790, 791, 792, 793, 794, 795, 796, 797, 798, 799, 800, 801, 802, 803, 804, 805, 806, 807, 808, 809, 810, 811, 812, 813, 814, 815, 816, 817, 818, 819, 820, 821, 822, 823, 824, 825, 826, 827, 828, 829, 830, 831, 832, 833, 834, 835, 836, 837, 838, 839, 840, 841, 842, 843, 844, 845, 846, 847, 848, 849, 850, 851, 852, 853, 854, 855, 856, 857, 858, 859, 860, 861, 862, 863, 864, 865, 866, 867, 868, 869, 870, 871, 872],
      "AcquisitionTime": ["191130.880000", "191131.340000", "191131.800000", "191132.260000", "191132.720000", "191133.180000", "191133.640000", "191134.100000", "191134.560000", "191135.020000", "191135.480000", "191135.940000", "191136.400000", "191136.860000", "191137.320000", "191137.780000", "191138.240000", "191138.700000", "191139.160000", "191139.620000", "191140.080000", "191140.540000", "191141.000000", "191141.460000", "191141.920000", "191142.380000", "191142.840000", "191143.300000", "191143.760000", "191144.220000", "191144.680000", "191145.140000", "191145.600000", "191146.060000", "191146.520000", "191146.980000", "191147.440000", "191147.900000", "191148.360000", "191148.820000", "191149.280000", "191149.740000", "191150.200000", "191150.660000", "191151.120000", "191151.580000", "191152.040000", "191152.500000", "191152.960000", "191153.420000", "191153.880000", "191154.340000", "191154.800000", "191155.260000", "191155.720000", "191156.180000", "191156.640000", "191157.100000", "191157.560000", "191158.020000", "191158.480000", "191158.940000", "191159.400000", "191159.860000", "191200.320000", "191200.780000", "191201.240000", "191201.700000", "191202.160000", "191202.620000", "191203.080000", "191203.540000", "191204.000000", "191204.460000", "191204.920000", "191205.380000", "191205.840000", "191206.300000", "191206.760000", "191207.220000", "191207.680000", "191208.140000", "191208.600000", "191209.060000", "191209.520000", "191209.980000", "191210.440000", "191210.900000", "191211.360000", "191211.820000", "191212.280000", "191212.740000", "191213.200000", "191213.660000", "191214.120000", "191214.580000", "191215.040000", "191215.500000", "191215.960000", "191216.420000", "191216.880000", "191217.340000", "191217.800000", "191218.260000", "191218.720000", "191219.180000", "191219.640000", "191220.100000", "191220.560000", "191221.020000", "191221.480000", "191221.940000", "191222.400000", "191222.860000", "191223.320000", "191223.780000", "191224.240000", "191224.700000", "191225.160000", "191225.620000", "191226.080000", "191226.540000", "191227.000000", "191227.460000", "191227.920000", "191228.380000", "191228.840000", "191229.300000", "191229.760000", "191230.220000", "191230.680000", "191231.140000", "191231.600000", "191232.060000", "191232.520000", "191232.980000", "191233.440000", "191233.900000", "191234.360000", "191234.820000", "191235.280000", "191235.740000", "191236.200000", "191236.660000", "191237.120000", "191237.580000", "191238.040000", "191238.500000", "191238.960000", "191239.420000", "191239.880000", "191240.340000", "191240.800000", "191241.260000", "191241.720000", "191242.180000", "191242.640000", "191243.100000", "191243.560000", "191244.020000", "191244.480000", "191244.940000", "191245.400000", "191245.860000", "191246.320000", "191246.780000", "191247.240000", "191247.700000", "191248.160000", "191248.620000", "191249.080000", "191249.540000", "191250.000000", "191250.460000", "191250.920000", "191251.380000", "191251.840000", "191252.300000", "191252.760000", "191253.220000", "191253.680000", "191254.140000", "191254.600000", "191255.060000", "191255.520000", "191255.980000", "191256.440000", "191256.900000", "191257.360000", "191257.820000", "191258.280000", "191258.740000", "191259.200000", "191259.660000", "191300.120000", "191300.580000", "191301.040000", "191301.500000", "191301.960000", "191302.420000", "191302.880000", "191303.340000", "191303.800000", "191304.260000", "191304.720000", "191305.180000", "191305.640000", "191306.100000", "191306.560000", "191307.020000", "191307.480000", "191307.940000", "191308.400000", "191308.860000", "191309.320000", "191309.780000", "191310.240000", "191310.700000", "191311.160000", "191311.620000", "191312.080000", "191312.540000", "191313.000000", "191313.460000", "191313.920000", "191314.380000", "191314.840000", "191315.300000", "191315.760000", "191316.220000", "191316.680000", "191317.140000", "191317.600000", "191318.060000", "191318.520000", "191318.980000", "191319.440000", "191319.900000", "191320.360000", "191320.820000", "191321.280000", "191321.740000", "191322.200000", "191322.660000", "191323.120000", "191323.580000", "191324.040000", "191324.500000", "191324.960000", "191325.420000", "191325.880000", "191326.340000", "191326.800000", "191327.260000", "191327.720000", "191328.180000", "191328.640000", "191329.100000", "191329.560000", "191330.020000", "191330.480000", "191330.940000", "191331.400000", "191331.860000", "191332.320000", "191332.780000", "191333.240000", "191333.700000", "191334.160000", "191334.620000", "191335.080000", "191335.540000", "191336.000000", "191336.460000", "191336.920000", "191337.380000", "191337.840000", "191338.300000", "191338.760000", "191339.220000", "191339.680000", "191340.140000", "191340.600000", "191341.060000", "191341.520000", "191341.980000", "191342.440000", "191342.900000", "191343.360000", "191343.820000", "191344.280000", "191344.740000", "191345.200000", "191345.660000", "191346.120000", "191346.580000", "191347.040000", "191347.500000", "191347.960000", "191348.420000", "191348.880000", "191349.340000", "191349.800000", "191350.260000", "191350.720000", "191351.180000", "191351.640000", "191352.100000", "191352.560000", "191353.020000", "191353.480000", "191353.940000", "191354.400000", "191354.860000", "191355.320000", "191355.780000", "191356.240000", "191356.700000", "191357.160000", "191357.620000", "191358.080000", "191358.540000", "191359.000000", "191359.460000", "191359.920000", "191400.380000", "191400.840000", "191401.300000", "191401.760000", "191402.220000", "191402.680000", "191403.140000", "191403.600000", "191404.060000", "191404.520000", "191404.980000", "191405.440000", "191405.900000", "191406.360000", "191406.820000", "191407.280000", "191407.740000", "191408.200000", "191408.660000", "191409.120000", "191409.580000", "191410.040000", "191410.500000", "191410.960000", "191411.420000", "191411.880000", "191412.340000", "191412.800000", "191413.260000", "191413.720000", "191414.180000", "191414.640000", "191415.100000", "191415.560000", "191416.020000", "191416.480000", "191416.940000", "191417.400000", "191417.860000", "191418.320000", "191418.780000", "191419.240000", "191419.700000", "191420.160000", "191420.620000", "191421.080000", "191421.540000", "191422.000000", "191422.460000", "191422.920000", "191423.380000", "191423.840000", "191424.300000", "191424.760000", "191425.220000", "191425.680000", "191426.140000", "191426.600000", "191427.060000", "191427.520000", "191427.980000", "191428.440000", "191428.900000", "191429.360000", "191429.820000", "191430.280000", "191430.740000", "191431.200000", "191431.660000", "191432.120000", "191432.580000", "191433.040000", "191433.500000", "191433.960000", "191434.420000", "191434.880000", "191435.340000", "191435.800000", "191436.260000", "191436.720000", "191437.180000", "191437.640000", "191438.100000", "191438.560000", "191439.020000", "191439.480000", "191439.940000", "191440.400000", "191440.860000", "191441.320000", "191441.780000", "191442.240000", "191442.700000", "191443.160000", "191443.620000", "191444.080000", "191444.540000", "191445.000000", "191445.460000", "191445.920000", "191446.380000", "191446.840000", "191447.300000", "191447.760000", "191448.220000", "191448.680000", "191449.140000", "191449.600000", "191450.060000", "191450.520000", "191450.980000", "191451.440000", "191451.900000", "191452.360000", "191452.820000", "191453.280000", "191453.740000", "191454.200000", "191454.660000", "191455.120000", "191455.580000", "191456.040000", "191456.500000", "191456.960000", "191457.420000", "191457.880000", "191458.340000", "191458.800000", "191459.260000", "191459.720000", "191500.180000", "191500.640000", "191501.100000", "191501.560000", "191502.020000", "191502.480000", "191502.940000", "191503.400000", "191503.860000", "191504.320000", "191504.780000", "191505.240000", "191505.700000", "191506.160000", "191506.620000", "191507.080000", "191507.540000", "191508.000000", "191508.460000", "191508.920000", "191509.380000", "191509.840000", "191510.300000", "191510.760000", "191511.220000", "191511.680000", "191512.140000", "191512.600000", "191513.060000", "191513.520000", "191513.980000", "191514.440000", "191514.900000", "191515.360000", "191515.820000", "191516.280000", "191516.740000", "191517.200000", "191517.660000", "191518.120000", "191518.580000", "191519.040000", "191519.500000", "191519.960000", "191520.420000", "191520.880000", "191521.340000", "191521.800000", "191522.260000", "191522.720000", "191523.180000", "191523.640000", "191524.100000", "191524.560000", "191525.020000", "191525.480000", "191525.940000", "191526.400000", "191526.860000", "191527.320000", "191527.780000", "191528.240000", "191528.700000", "191529.160000", "191529.620000", "191530.080000", "191530.540000", "191531.000000", "191531.460000", "191531.920000", "191532.380000", "191532.840000", "191533.300000", "191533.760000", "191534.220000", "191534.680000", "191535.140000", "191535.600000", "191536.060000", "191536.520000", "191536.980000", "191537.440000", "191537.900000", "191538.360000", "191538.820000", "191539.280000", "191539.740000", "191540.200000", "191540.660000", "191541.120000", "191541.580000", "191542.040000", "191542.500000", "191542.960000", "191543.420000", "191543.880000", "191544.340000", "191544.800000", "191545.260000", "191545.720000", "191546.180000", "191546.640000", "191547.100000", "191547.560000", "191548.020000", "191548.480000", "191548.940000", "191549.400000", "191549.860000", "191550.320000", "191550.780000", "191551.240000", "191551.700000", "191552.160000", "191552.620000", "191553.080000", "191553.540000", "191554.000000", "191554.460000", "191554.920000", "191555.380000", "191555.840000", "191556.300000", "191556.760000", "191557.220000", "191557.680000", "191558.140000", "191558.600000", "191559.060000", "191559.520000", "191559.980000", "191600.440000", "191600.900000", "191601.360000", "191601.820000", "191602.280000", "191602.740000", "191603.200000", "191603.660000", "191604.120000", "191604.580000", "191605.040000", "191605.500000", "191605.960000", "191606.420000", "191606.880000", "191607.340000", "191607.800000", "191608.260000", "191608.720000", "191609.180000", "191609.640000", "191610.100000", "191610.560000", "191611.020000", "191611.480000", "191611.940000", "191612.400000", "191612.860000", "191613.320000", "191613.780000", "191614.240000", "191614.700000", "191615.160000", "191615.620000", "191616.080000", "191616.540000", "191617.000000", "191617.460000", "191617.920000", "191618.380000", "191618.840000", "191619.300000", "191619.760000", "191620.220000", "191620.680000", "191621.140000", "191621.600000", "191622.060000", "191622.520000", "191622.980000", "191623.440000", "191623.900000", "191624.360000", "191624.820000", "191625.280000", "191625.740000", "191626.200000", "191626.660000", "191627.120000", "191627.580000", "191628.040000", "191628.500000", "191628.960000", "191629.420000", "191629.880000", "191630.340000", "191630.800000", "191631.260000", "191631.720000", "191632.180000", "191632.640000", "191633.100000", "191633.560000", "191634.020000", "191634.480000", "191634.940000", "191635.400000", "191635.860000", "191636.320000", "191636.780000", "191637.240000", "191637.700000", "191638.160000", "191638.620000", "191639.080000", "191639.540000", "191640.000000", "191640.460000", "191640.920000", "191641.380000", "191641.840000", "191642.300000", "191642.760000", "191643.220000", "191643.680000", "191644.140000", "191644.600000", "191645.060000", "191645.520000", "191645.980000", "191646.440000", "191646.900000", "191647.360000", "191647.820000", "191648.280000", "191648.740000", "191649.200000", "191649.660000", "191650.120000", "191650.580000", "191651.040000", "191651.500000", "191651.960000", "191652.420000", "191652.880000", "191653.340000", "191653.800000", "191654.260000", "191654.720000", "191655.180000", "191655.640000", "191656.100000", "191656.560000", "191657.020000", "191657.480000", "191657.940000", "191658.400000", "191658.860000", "191659.320000", "191659.780000", "191700.240000", "191700.700000", "191701.160000", "191701.620000", "191702.080000", "191702.540000", "191703.000000", "191703.460000", "191703.920000", "191704.380000", "191704.840000", "191705.300000", "191705.760000", "191706.220000", "191706.680000", "191707.140000", "191707.600000", "191708.060000", "191708.520000", "191708.980000", "191709.440000", "191709.900000", "191710.360000", "191710.820000", "191711.280000", "191711.740000", "191712.200000", "191712.660000", "191713.120000", "191713.580000", "191714.040000", "191714.500000", "191714.960000", "191715.420000", "191715.880000", "191716.340000", "191716.800000", "191717.260000", "191717.720000", "191718.180000", "191718.640000", "191719.100000", "191719.560000", "191720.020000", "191720.480000", "191720.940000", "191721.400000", "191721.860000", "191722.320000", "191722.780000", "191723.240000", "191723.700000", "191724.160000", "191724.620000", "191725.080000", "191725.540000", "191726.000000", "191726.460000", "191726.920000", "191727.380000", "191727.840000", "191728.300000", "191728.760000", "191729.220000", "191729.680000", "191730.140000", "191730.600000", "191731.060000", "191731.520000", "191731.980000", "191732.440000", "191732.900000", "191733.360000", "191733.820000", "191734.280000", "191734.740000", "191735.200000", "191735.660000", "191736.120000", "191736.580000", "191737.040000", "191737.500000", "191737.960000", "191738.420000", "191738.880000", "191739.340000", "191739.800000", "191740.260000", "191740.720000", "191741.180000", "191741.640000", "191742.100000", "191742.560000", "191743.020000", "191743.480000", "191743.940000", "191744.400000", "191744.860000", "191745.320000", "191745.780000", "191746.240000", "191746.700000", "191747.160000", "191747.620000", "191748.080000", "191748.540000", "191749.000000", "191749.460000", "191749.920000", "191750.380000", "191750.840000", "191751.300000", "191751.760000", "191752.220000", "191752.680000", "191753.140000", "191753.600000", "191754.060000", "191754.520000", "191754.980000", "191755.440000", "191755.900000", "191756.360000", "191756.820000", "191757.280000", "191757.740000", "191758.200000", "191758.660000", "191759.120000", "191759.580000", "191800.040000", "191800.500000", "191800.960000", "191801.420000", "191801.880000", "191802.340000", "191802.800000", "191803.260000", "191803.720000", "191804.180000", "191804.640000", "191805.100000", "191805.560000", "191806.020000", "191806.480000", "191806.940000", "191807.400000", "191807.860000", "191808.320000", "191808.780000", "191809.240000", "191809.700000", "191810.160000", "191810.620000", "191811.080000", "191811.540000"],
