{
  "AcquisitionMatrixPE": 82,
  "AcquisitionNumber": 1,
  "AcquisitionTime": "12:26:26.692500",
  "BandwidthPerPixelPhaseEncode": 24.888,
  "BaseResolution": 82,
  "BodyPartExamined": "BRAIN",
  "ConsistencyInfo": "N4_VE11C_LATEST_20160120",
  "ConversionSoftware": "dcm2niix",
  "ConversionSoftwareVersion": "v1.0.20201102",
  "DerivedVendorReportedEchoSpacing": 0.00049,
  "DeviceSerialNumber": "66112",
  "DwellTime": 2e-06,
  "EchoTime": 0.0272,
  "EchoTrainLength": 82,
  "EffectiveEchoSpacing": 0.00049,
  "FlipAngle": 44,
  "ImageComments": "Unaliased MB8/PE3",
  "ImageOrientationPatientDICOM": [0.999252, -0.00485936, 0.0383684, 0.00209279, 0.997415, 0.0718189],
  "ImageType": [
    "ORIGINAL",
    "PRIMARY",
    "M",
    "MB",
    "ND",
    "NORM",
    "MOSAIC"
],
  "ImagingFrequency": 123.252,
  "InPlanePhaseEncodingDirectionDICOM": "COL",
  "InstitutionAddress": "Maynard 3,Hanover,NH,US,03755",
  "InstitutionName": "Dartmouth College - PBS",
  "InstitutionalDepartmentName": "Department",
  "MRAcquisitionType": "2D",
  "MagneticFieldStrength": 3,
  "Manufacturer": "Siemens",
  "ManufacturersModelName": "Prisma",
  "Modality": "MR",
  "MultibandAccelerationFactor": 8,
  "PartialFourier": 1,
  "PatientPosition": "HFS",
  "PercentPhaseFOV": 100,
  "PercentSampling": 100,
  "PhaseEncodingDirection": "j-",
  "PhaseEncodingSteps": 82,
  "PhaseResolution": 1,
  "PixelBandwidth": 3050,
  "ProcedureStepDescription": "Wager_Wager^1076_spacetop",
  "ProtocolName": "func_run-01_task-social_acq-ap-mb8",
  "PulseSequenceDetails": "%CustomerSeq%\\cmrr_mbep2d_bold",
  "ReceiveCoilActiveElements": "HEA;HEP",
  "ReceiveCoilName": "Head_32",
  "ReconMatrixPE": 82,
  "RepetitionTime": 0.46,
  "SAR": 0.112631,
  "ScanOptions": "FS",
  "ScanningSequence": "EP",
  "SequenceName": "epfid2d1_82",
  "SequenceVariant": "SK\\SS",
  "SeriesDescription": "func_run-01_task-social_acq-ap-mb8",
  "SeriesNumber": 8,
  "ShimSetting": [4163, -7742, -7218, 482, -24, -26, 7, 62],
  "SliceThickness": 2.7,
  "SliceTiming": [0, 0.2525, 0.0625, 0.315, 0.1275, 0.3775, 0.19, 0, 0.2525, 0.0625, 0.315, 0.1275, 0.3775, 0.19, 0, 0.2525, 0.0625, 0.315, 0.1275, 0.3775, 0.19, 0, 0.2525, 0.0625, 0.315, 0.1275, 0.3775, 0.19, 0, 0.2525, 0.0625, 0.315, 0.1275, 0.3775, 0.19, 0, 0.2525, 0.0625, 0.315, 0.1275, 0.3775, 0.19, 0, 0.2525, 0.0625, 0.315, 0.1275, 0.3775, 0.19, 0, 0.2525, 0.0625, 0.315, 0.1275, 0.3775, 0.19],
  "SoftwareVersions": "syngo MR E11",
  "SpacingBetweenSlices": 2.7,
  "StationName": "AWP66112",
  "TaskName": "social",
  "TotalReadoutTime": 0.03969,
  "TxRefAmp": 248.321,
  "WipMemBlock": "5e01af4a-45d7-4075-b97f-742798fdce42||Sequence: R016 ve11c/master r/e634e98; Dec 19 2017 11:00:25 by eja",
  "dcmmeta_affine": [
    [-2.680919647216797, 0.00561480363830924, 0.10426926612854004, 113.12533569335938],
    [0.013037306256592274, 2.675992965698242, 0.1935490220785141, -100.76896667480469],
    [0.1029396578669548, -0.19268473982810974, 2.6910343170166016, -41.86391830444336],
    [0.0, 0.0, 0.0, 1.0]
],
  "dcmmeta_reorient_transform": [
    [0.0, -1.0, 0.0, 81.0],
    [1.0, 0.0, 0.0, 0.0],
    [0.0, 0.0, 1.0, 0.0],
    [0.0, 0.0, 0.0, 1.0]
],
  "dcmmeta_shape": [82, 82, 56, 872],
  "dcmmeta_slice_dim": 2,
  "dcmmeta_version": 0.6,
  "global": {
    "const": {
      "AccessionNumber": "A003456",
      "AcquisitionMatrix": [82, 0, 0, 82],
      "AngioFlag": "N",
      "BitsAllocated": 16,
      "BitsStored": 16,
      "BodyPartExamined": "BRAIN",
      "Columns": 656,
      "EchoNumbers": 1,
      "EchoTime": 27.2,
      "EchoTrainLength": 82,
      "FlipAngle": 44.0,
      "HighBit": 15,
      "ImageOrientationPatient": [0.99925184576282, -0.0048593594734, 0.03836841624449, 0.0020927904521, 0.99741549632502, 0.07181885489791],
      "ImagePositionPatient": [-884.61552252925, -880.25469764797, -142.3155814042],
      "ImageType": [
        "ORIGINAL",
        "PRIMARY",
        "M",
        "MB",
        "ND",
        "NORM",
        "MOSAIC"
],
      "ImagedNucleus": "1H",
      "ImagingFrequency": 123.252101,
      "InPlanePhaseEncodingDirection": "COL",
      "MRAcquisitionType": "2D",
      "MagneticFieldStrength": 3.0,
      "Manufacturer": "SIEMENS",
      "ManufacturerModelName": "Prisma",
      "Modality": "MR",
      "NumberOfAverages": 1.0,
      "NumberOfPhaseEncodingSteps": 82,
      "PercentPhaseFieldOfView": 100.0,
      "PercentSampling": 100.0,
      "PerformedProcedureStepStartTime": "114845.744000",
      "PhotometricInterpretation": "MONOCHROME2",
      "PixelBandwidth": 3050.0,
      "PixelRepresentation": 0,
      "PixelSpacing": [2.6829268932343, 2.6829268932343],
      "ProtocolName": "func_run-01_task-social_acq-ap-mb8",
      "RepetitionTime": 460.0,
      "Rows": 656,
      "SAR": 0.112631076428,
      "SamplesPerPixel": 1,
      "ScanOptions": "FS",
      "ScanningSequence": "EP",
      "SequenceName": "epfid2d1_82",
      "SequenceVariant": [
        "SK",
        "SS"
],
      "SeriesDescription": "func_run-01_task-social_acq-ap-mb8",
      "SeriesNumber": 8,
      "SeriesTime": "122655.955000",
      "SliceLocation": -44.579809302558,
      "SliceThickness": 2.7000000476837,
      "SmallestImagePixelValue": 0,
      "SoftwareVersions": "syngo MR E11",
      "SpacingBetweenSlices": 2.6999999198867,
      "SpecificCharacterSet": "ISO_IR 100",
      "StudyID": "3",
      "StudyTime": "114845.654000",
      "TransmitCoilName": "Body",
      "VariableFlipAngleFlag": "N",
      "WindowCenterWidthExplanation": "Algo1",
      "dBdt": 0.0},
    "slices": {}
  },
  "time": {
    "samples": {
      "AcquisitionNumber": [1, 2, 3, 4, 5, 6, 7, 8, 9, 10, 11, 12, 13, 14, 15, 16, 17, 18, 19, 20, 21, 22, 23, 24, 25, 26, 27, 28, 29, 30, 31, 32, 33, 34, 35, 36, 37, 38, 39, 40, 41, 42, 43, 44, 45, 46, 47, 48, 49, 50, 51, 52, 53, 54, 55, 56, 57, 58, 59, 60, 61, 62, 63, 64, 65, 66, 67, 68, 69, 70, 71, 72, 73, 74, 75, 76, 77, 78, 79, 80, 81, 82, 83, 84, 85, 86, 87, 88, 89, 90, 91, 92, 93, 94, 95, 96, 97, 98, 99, 100, 101, 102, 103, 104, 105, 106, 107, 108, 109, 110, 111, 112, 113, 114, 115, 116, 117, 118, 119, 120, 121, 122, 123, 124, 125, 126, 127, 128, 129, 130, 131, 132, 133, 134, 135, 136, 137, 138, 139, 140, 141, 142, 143, 144, 145, 146, 147, 148, 149, 150, 151, 152, 153, 154, 155, 156, 157, 158, 159, 160, 161, 162, 163, 164, 165, 166, 167, 168, 169, 170, 171, 172, 173, 174, 175, 176, 177, 178, 179, 180, 181, 182, 183, 184, 185, 186, 187, 188, 189, 190, 191, 192, 193, 194, 195, 196, 197, 198, 199, 200, 201, 202, 203, 204, 205, 206, 207, 208, 209, 210, 211, 212, 213, 214, 215, 216, 217, 218, 219, 220, 221, 222, 223, 224, 225, 226, 227, 228, 229, 230, 231, 232, 233, 234, 235, 236, 237, 238, 239, 240, 241, 242, 243, 244, 245, 246, 247, 248, 249, 250, 251, 252, 253, 254, 255, 256, 257, 258, 259, 260, 261, 262, 263, 264, 265, 266, 267, 268, 269, 270, 271, 272, 273, 274, 275, 276, 277, 278, 279, 280, 281, 282, 283, 284, 285, 286, 287, 288, 289, 290, 291, 292, 293, 294, 295, 296, 297, 298, 299, 300, 301, 302, 303, 304, 305, 306, 307, 308, 309, 310, 311, 312, 313, 314, 315, 316, 317, 318, 319, 320, 321, 322, 323, 324, 325, 326, 327, 328, 329, 330, 331, 332, 333, 334, 335, 336, 337, 338, 339, 340, 341, 342, 343, 344, 345, 346, 347, 348, 349, 350, 351, 352, 353, 354, 355, 356, 357, 358, 359, 360, 361, 362, 363, 364, 365, 366, 367, 368, 369, 370, 371, 372, 373, 374, 375, 376, 377, 378, 379, 380, 381, 382, 383, 384, 385, 386, 387, 388, 389, 390, 391, 392, 393, 394, 395, 396, 397, 398, 399, 400, 401, 402, 403, 404, 405, 406, 407, 408, 409, 410, 411, 412, 413, 414, 415, 416, 417, 418, 419, 420, 421, 422, 423, 424, 425, 426, 427, 428, 429, 430, 431, 432, 433, 434, 435, 436, 437, 438, 439, 440, 441, 442, 443, 444, 445, 446, 447, 448, 449, 450, 451, 452, 453, 454, 455, 456, 457, 458, 459, 460, 461, 462, 463, 464, 465, 466, 467, 468, 469, 470, 471, 472, 473, 474, 475, 476, 477, 478, 479, 480, 481, 482, 483, 484, 485, 486, 487, 488, 489, 490, 491, 492, 493, 494, 495, 496, 497, 498, 499, 500, 501, 502, 503, 504, 505, 506, 507, 508, 509, 510, 511, 512, 513, 514, 515, 516, 517, 518, 519, 520, 521, 522, 523, 524, 525, 526, 527, 528, 529, 530, 531, 532, 533, 534, 535, 536, 537, 538, 539, 540, 541, 542, 543, 544, 545, 546, 547, 548, 549, 550, 551, 552, 553, 554, 555, 556, 557, 558, 559, 560, 561, 562, 563, 564, 565, 566, 567, 568, 569, 570, 571, 572, 573, 574, 575, 576, 577, 578, 579, 580, 581, 582, 583, 584, 585, 586, 587, 588, 589, 590, 591, 592, 593, 594, 595, 596, 597, 598, 599, 600, 601, 602, 603, 604, 605, 606, 607, 608, 609, 610, 611, 612, 613, 614, 615, 616, 617, 618, 619, 620, 621, 622, 623, 624, 625, 626, 627, 628, 629, 630, 631, 632, 633, 634, 635, 636, 637, 638, 639, 640, 641, 642, 643, 644, 645, 646, 647, 648, 649, 650, 651, 652, 653, 654, 655, 656, 657, 658, 659, 660, 661, 662, 663, 664, 665, 666, 667, 668, 669, 670, 671, 672, 673, 674, 675, 676, 677, 678, 679, 680, 681, 682, 683, 684, 685, 686, 687, 688, 689, 690, 691, 692, 693, 694, 695, 696, 697, 698, 699, 700, 701, 702, 703, 704, 705, 706, 707, 708, 709, 710, 711, 712, 713, 714, 715, 716, 717, 718, 719, 720, 721, 722, 723, 724, 725, 726, 727, 728, 729, 730, 731, 732, 733, 734, 735, 736, 737, 738, 739, 740, 741, 742, 743, 744, 745, 746, 747, 748, 749, 750, 751, 752, 753, 754, 755, 756, 757, 758, 759, 760, 761, 762, 763, 764, 765, 766, 767, 768, 769, 770, 771, 772, 773, 774, 775, 776, 777, 778, 779, 780, 781, 782, 783, 784, 785, 786, 787, 788, 789, 790, 791, 792, 793, 794, 795, 796, 797, 798, 799, 800, 801, 802, 803, 804, 805, 806, 807, 808, 809, 810, 811, 812, 813, 814, 815, 816, 817, 818, 819, 820, 821, 822, 823, 824, 825, 826, 827, 828, 829, 830, 831, 832, 833, 834, 835, 836, 837, 838, 839, 840, 841, 842, 843, 844, 845, 846, 847, 848, 849, 850, 851, 852, 853, 854, 855, 856, 857, 858, 859, 860, 861, 862, 863, 864, 865, 866, 867, 868, 869, 870, 871, 872],
      "AcquisitionTime": ["122626.692500", "122627.152500", "122627.612500", "122628.072500", "122628.532500", "122628.992500", "122629.452500", "122629.912500", "122630.372500", "122630.832500", "122631.292500", "122631.752500", "122632.212500", "122632.672500", "122633.132500", "122633.592500", "122634.052500", "122634.512500", "122634.972500", "122635.432500", "122635.892500", "122636.352500", "122636.812500", "122637.272500", "122637.732500", "122638.192500", "122638.652500", "122639.112500", "122639.572500", "122640.032500", "122640.492500", "122640.952500", "122641.412500", "122641.872500", "122642.332500", "122642.792500", "122643.252500", "122643.712500", "122644.172500", "122644.632500", "122645.092500", "122645.552500", "122646.012500", "122646.472500", "122646.932500", "122647.392500", "122647.852500", "122648.312500", "122648.772500", "122649.232500", "122649.692500", "122650.152500", "122650.612500", "122651.072500", "122651.532500", "122651.992500", "122652.452500", "122652.912500", "122653.372500", "122653.832500", "122654.292500", "122654.752500", "122655.212500", "122655.672500", "122656.132500", "122656.592500", "122657.052500", "122657.512500", "122657.972500", "122658.432500", "122658.892500", "122659.352500", "122659.812500", "122700.272500", "122700.732500", "122701.192500", "122701.652500", "122702.112500", "122702.572500", "122703.032500", "122703.492500", "122703.952500", "122704.412500", "122704.872500", "122705.332500", "122705.792500", "122706.252500", "122706.712500", "122707.172500", "122707.632500", "122708.092500", "122708.552500", "122709.012500", "122709.472500", "122709.932500", "122710.392500", "122710.852500", "122711.312500", "122711.772500", "122712.232500", "122712.692500", "122713.152500", "122713.612500", "122714.072500", "122714.532500", "122714.992500", "122715.452500", "122715.912500", "122716.372500", "122716.832500", "122717.292500", "122717.752500", "122718.212500", "122718.672500", "122719.132500", "122719.592500", "122720.052500", "122720.512500", "122720.972500", "122721.432500", "122721.892500", "122722.352500", "122722.812500", "122723.272500", "122723.732500", "122724.192500", "122724.652500", "122725.112500", "122725.572500", "122726.032500", "122726.492500", "122726.952500", "122727.412500", "122727.872500", "122728.332500", "122728.792500", "122729.252500", "122729.712500", "122730.172500", "122730.632500", "122731.092500", "122731.552500", "122732.012500", "122732.472500", "122732.932500", "122733.392500", "122733.852500", "122734.312500", "122734.772500", "122735.232500", "122735.692500", "122736.152500", "122736.612500", "122737.072500", "122737.532500", "122737.992500", "122738.452500", "122738.912500", "122739.372500", "122739.832500", "122740.292500", "122740.752500", "122741.212500", "122741.672500", "122742.132500", "122742.592500", "122743.052500", "122743.512500", "122743.972500", "122744.432500", "122744.892500", "122745.352500", "122745.812500", "122746.272500", "122746.732500", "122747.192500", "122747.652500", "122748.112500", "122748.572500", "122749.032500", "122749.492500", "122749.952500", "122750.412500", "122750.872500", "122751.332500", "122751.792500", "122752.252500", "122752.712500", "122753.172500", "122753.632500", "122754.092500", "122754.552500", "122755.012500", "122755.472500", "122755.932500", "122756.392500", "122756.852500", "122757.312500", "122757.772500", "122758.232500", "122758.692500", "122759.152500", "122759.612500", "122800.072500", "122800.532500", "122800.992500", "122801.452500", "122801.912500", "122802.372500", "122802.832500", "122803.292500", "122803.752500", "122804.212500", "122804.672500", "122805.132500", "122805.592500", "122806.052500", "122806.512500", "122806.972500", "122807.432500", "122807.892500", "122808.352500", "122808.812500", "122809.272500", "122809.732500", "122810.192500", "122810.652500", "122811.112500", "122811.572500", "122812.032500", "122812.492500", "122812.952500", "122813.412500", "122813.872500", "122814.332500", "122814.792500", "122815.252500", "122815.712500", "122816.172500", "122816.632500", "122817.092500", "122817.552500", "122818.012500", "122818.472500", "122818.932500", "122819.392500", "122819.852500", "122820.312500", "122820.772500", "122821.232500", "122821.692500", "122822.152500", "122822.612500", "122823.072500", "122823.532500", "122823.992500", "122824.452500", "122824.912500", "122825.372500", "122825.832500", "122826.292500", "122826.752500", "122827.212500", "122827.672500", "122828.132500", "122828.592500", "122829.052500", "122829.512500", "122829.972500", "122830.432500", "122830.892500", "122831.352500", "122831.812500", "122832.272500", "122832.732500", "122833.192500", "122833.652500", "122834.112500", "122834.572500", "122835.032500", "122835.492500", "122835.952500", "122836.412500", "122836.872500", "122837.332500", "122837.792500", "122838.252500", "122838.712500", "122839.172500", "122839.632500", "122840.092500", "122840.552500", "122841.012500", "122841.472500", "122841.932500", "122842.392500", "122842.852500", "122843.312500", "122843.772500", "122844.232500", "122844.692500", "122845.152500", "122845.612500", "122846.072500", "122846.532500", "122846.992500", "122847.452500", "122847.912500", "122848.372500", "122848.832500", "122849.292500", "122849.752500", "122850.212500", "122850.672500", "122851.132500", "122851.592500", "122852.052500", "122852.512500", "122852.972500", "122853.432500", "122853.892500", "122854.352500", "122854.812500", "122855.272500", "122855.732500", "122856.192500", "122856.652500", "122857.112500", "122857.572500", "122858.032500", "122858.492500", "122858.952500", "122859.412500", "122859.872500", "122900.332500", "122900.792500", "122901.252500", "122901.712500", "122902.172500", "122902.632500", "122903.092500", "122903.552500", "122904.012500", "122904.472500", "122904.932500", "122905.392500", "122905.852500", "122906.312500", "122906.772500", "122907.232500", "122907.692500", "122908.152500", "122908.612500", "122909.072500", "122909.532500", "122909.992500", "122910.452500", "122910.912500", "122911.372500", "122911.832500", "122912.292500", "122912.752500", "122913.212500", "122913.672500", "122914.132500", "122914.592500", "122915.052500", "122915.512500", "122915.972500", "122916.432500", "122916.892500", "122917.352500", "122917.812500", "122918.272500", "122918.732500", "122919.192500", "122919.652500", "122920.112500", "122920.572500", "122921.032500", "122921.492500", "122921.952500", "122922.412500", "122922.872500", "122923.332500", "122923.792500", "122924.252500", "122924.712500", "122925.172500", "122925.632500", "122926.092500", "122926.552500", "122927.012500", "122927.472500", "122927.932500", "122928.392500", "122928.852500", "122929.312500", "122929.772500", "122930.232500", "122930.692500", "122931.152500", "122931.612500", "122932.072500", "122932.532500", "122932.992500", "122933.452500", "122933.912500", "122934.372500", "122934.832500", "122935.292500", "122935.752500", "122936.212500", "122936.672500", "122937.132500", "122937.592500", "122938.052500", "122938.512500", "122938.972500", "122939.432500", "122939.892500", "122940.352500", "122940.812500", "122941.272500", "122941.732500", "122942.192500", "122942.652500", "122943.112500", "122943.572500", "122944.032500", "122944.492500", "122944.952500", "122945.412500", "122945.872500", "122946.332500", "122946.792500", "122947.252500", "122947.712500", "122948.172500", "122948.632500", "122949.092500", "122949.552500", "122950.012500", "122950.472500", "122950.932500", "122951.392500", "122951.852500", "122952.312500", "122952.772500", "122953.232500", "122953.692500", "122954.152500", "122954.612500", "122955.072500", "122955.532500", "122955.992500", "122956.452500", "122956.912500", "122957.372500", "122957.832500", "122958.292500", "122958.752500", "122959.212500", "122959.672500", "123000.132500", "123000.592500", "123001.052500", "123001.512500", "123001.972500", "123002.432500", "123002.892500", "123003.352500", "123003.812500", "123004.272500", "123004.732500", "123005.192500", "123005.652500", "123006.112500", "123006.572500", "123007.032500", "123007.492500", "123007.952500", "123008.412500", "123008.872500", "123009.332500", "123009.792500", "123010.252500", "123010.712500", "123011.172500", "123011.632500", "123012.092500", "123012.552500", "123013.012500", "123013.472500", "123013.932500", "123014.392500", "123014.852500", "123015.312500", "123015.772500", "123016.232500", "123016.692500", "123017.152500", "123017.612500", "123018.072500", "123018.532500", "123018.992500", "123019.452500", "123019.912500", "123020.372500", "123020.832500", "123021.292500", "123021.752500", "123022.212500", "123022.672500", "123023.132500", "123023.592500", "123024.052500", "123024.512500", "123024.972500", "123025.432500", "123025.892500", "123026.352500", "123026.812500", "123027.272500", "123027.732500", "123028.192500", "123028.652500", "123029.112500", "123029.572500", "123030.032500", "123030.492500", "123030.952500", "123031.412500", "123031.872500", "123032.332500", "123032.792500", "123033.252500", "123033.712500", "123034.172500", "123034.632500", "123035.092500", "123035.552500", "123036.012500", "123036.472500", "123036.932500", "123037.392500", "123037.852500", "123038.312500", "123038.772500", "123039.232500", "123039.692500", "123040.152500", "123040.612500", "123041.072500", "123041.532500", "123041.992500", "123042.452500", "123042.912500", "123043.372500", "123043.832500", "123044.292500", "123044.752500", "123045.212500", "123045.672500", "123046.132500", "123046.592500", "123047.052500", "123047.512500", "123047.972500", "123048.432500", "123048.892500", "123049.352500", "123049.812500", "123050.272500", "123050.732500", "123051.192500", "123051.652500", "123052.112500", "123052.572500", "123053.032500", "123053.492500", "123053.952500", "123054.412500", "123054.872500", "123055.332500", "123055.792500", "123056.252500", "123056.712500", "123057.172500", "123057.632500", "123058.092500", "123058.552500", "123059.012500", "123059.472500", "123059.932500", "123100.392500", "123100.852500", "123101.312500", "123101.772500", "123102.232500", "123102.692500", "123103.152500", "123103.612500", "123104.072500", "123104.532500", "123104.992500", "123105.452500", "123105.912500", "123106.372500", "123106.832500", "123107.292500", "123107.752500", "123108.212500", "123108.672500", "123109.132500", "123109.592500", "123110.052500", "123110.512500", "123110.972500", "123111.432500", "123111.892500", "123112.352500", "123112.812500", "123113.272500", "123113.732500", "123114.192500", "123114.652500", "123115.112500", "123115.572500", "123116.032500", "123116.492500", "123116.952500", "123117.412500", "123117.872500", "123118.332500", "123118.792500", "123119.252500", "123119.712500", "123120.172500", "123120.632500", "123121.092500", "123121.552500", "123122.012500", "123122.472500", "123122.932500", "123123.392500", "123123.852500", "123124.312500", "123124.772500", "123125.232500", "123125.692500", "123126.152500", "123126.612500", "123127.072500", "123127.532500", "123127.992500", "123128.452500", "123128.912500", "123129.372500", "123129.832500", "123130.292500", "123130.752500", "123131.212500", "123131.672500", "123132.132500", "123132.592500", "123133.052500", "123133.512500", "123133.972500", "123134.432500", "123134.892500", "123135.352500", "123135.812500", "123136.272500", "123136.732500", "123137.192500", "123137.652500", "123138.112500", "123138.572500", "123139.032500", "123139.492500", "123139.952500", "123140.412500", "123140.872500", "123141.332500", "123141.792500", "123142.252500", "123142.712500", "123143.172500", "123143.632500", "123144.092500", "123144.552500", "123145.012500", "123145.472500", "123145.932500", "123146.392500", "123146.852500", "123147.312500", "123147.772500", "123148.232500", "123148.692500", "123149.152500", "123149.612500", "123150.072500", "123150.532500", "123150.992500", "123151.452500", "123151.912500", "123152.372500", "123152.832500", "123153.292500", "123153.752500", "123154.212500", "123154.672500", "123155.132500", "123155.592500", "123156.052500", "123156.512500", "123156.972500", "123157.432500", "123157.892500", "123158.352500", "123158.812500", "123159.272500", "123159.732500", "123200.192500", "123200.652500", "123201.112500", "123201.572500", "123202.032500", "123202.492500", "123202.952500", "123203.412500", "123203.872500", "123204.332500", "123204.792500", "123205.252500", "123205.712500", "123206.172500", "123206.632500", "123207.092500", "123207.552500", "123208.012500", "123208.472500", "123208.932500", "123209.392500", "123209.852500", "123210.312500", "123210.772500", "123211.232500", "123211.692500", "123212.152500", "123212.612500", "123213.072500", "123213.532500", "123213.992500", "123214.452500", "123214.912500", "123215.372500", "123215.832500", "123216.292500", "123216.752500", "123217.212500", "123217.672500", "123218.132500", "123218.592500", "123219.052500", "123219.512500", "123219.972500", "123220.432500", "123220.892500", "123221.352500", "123221.812500", "123222.272500", "123222.732500", "123223.192500", "123223.652500", "123224.112500", "123224.572500", "123225.032500", "123225.492500", "123225.952500", "123226.412500", "123226.872500", "123227.332500", "123227.792500", "123228.252500", "123228.712500", "123229.172500", "123229.632500", "123230.092500", "123230.552500", "123231.012500", "123231.472500", "123231.932500", "123232.392500", "123232.852500", "123233.312500", "123233.772500", "123234.232500", "123234.692500", "123235.152500", "123235.612500", "123236.072500", "123236.532500", "123236.992500", "123237.452500", "123237.912500", "123238.372500", "123238.832500", "123239.292500", "123239.752500", "123240.212500", "123240.672500", "123241.132500", "123241.592500", "123242.052500", "123242.512500", "123242.972500", "123243.432500", "123243.892500", "123244.352500", "123244.812500", "123245.272500", "123245.732500", "123246.192500", "123246.652500", "123247.112500", "123247.572500", "123248.032500", "123248.492500", "123248.952500", "123249.412500", "123249.872500", "123250.332500", "123250.792500", "123251.252500", "123251.712500", "123252.172500", "123252.632500", "123253.092500", "123253.552500", "123254.012500", "123254.472500", "123254.932500", "123255.392500", "123255.852500", "123256.312500", "123256.772500", "123257.232500", "123257.692500", "123258.152500", "123258.612500", "123259.072500", "123259.532500", "123259.992500", "123300.452500", "123300.912500", "123301.372500", "123301.832500", "123302.292500", "123302.752500", "123303.212500", "123303.672500", "123304.132500", "123304.592500", "123305.052500", "123305.512500", "123305.972500", "123306.432500", "123306.892500", "123307.352500"],
