{
  "AcquisitionMatrixPE": 82,
  "AcquisitionNumber": 1,
  "AcquisitionTime": "13:04:43.725000",
  "BandwidthPerPixelPhaseEncode": 24.888,
  "BaseResolution": 82,
  "BodyPartExamined": "BRAIN",
  "ConsistencyInfo": "N4_VE11C_LATEST_20160120",
  "ConversionSoftware": "dcm2niix",
  "ConversionSoftwareVersion": "v1.0.20201102",
  "DerivedVendorReportedEchoSpacing": 0.00049,
  "DeviceSerialNumber": "66112",
  "DwellTime": 2e-06,
  "EchoTime": 0.0272,
  "EchoTrainLength": 82,
  "EffectiveEchoSpacing": 0.00049,
  "FlipAngle": 44,
  "ImageComments": "Unaliased MB8/PE3",
  "ImageOrientationPatientDICOM": [0.999252, -0.00485936, 0.0383684, 0.00209279, 0.997415, 0.0718189],
  "ImageType": [
    "ORIGINAL",
    "PRIMARY",
    "M",
    "MB",
    "ND",
    "NORM",
    "MOSAIC"
],
  "ImagingFrequency": 123.252,
  "InPlanePhaseEncodingDirectionDICOM": "COL",
  "InstitutionAddress": "Maynard 3,Hanover,NH,US,03755",
  "InstitutionName": "Dartmouth College - PBS",
  "InstitutionalDepartmentName": "Department",
  "MRAcquisitionType": "2D",
  "MagneticFieldStrength": 3,
  "Manufacturer": "Siemens",
  "ManufacturersModelName": "Prisma",
  "Modality": "MR",
  "MultibandAccelerationFactor": 8,
  "PartialFourier": 1,
  "PatientPosition": "HFS",
  "PercentPhaseFOV": 100,
  "PercentSampling": 100,
  "PhaseEncodingDirection": "j-",
  "PhaseEncodingSteps": 82,
  "PhaseResolution": 1,
  "PixelBandwidth": 3050,
  "ProcedureStepDescription": "Wager_Wager^1076_spacetop",
  "ProtocolName": "func_run-06_task-social_acq-ap-mb8",
  "PulseSequenceDetails": "%CustomerSeq%\\cmrr_mbep2d_bold",
  "ReceiveCoilActiveElements": "HEA;HEP",
  "ReceiveCoilName": "Head_32",
  "ReconMatrixPE": 82,
  "RepetitionTime": 0.46,
  "SAR": 0.112631,
  "ScanOptions": "FS",
  "ScanningSequence": "EP",
  "SequenceName": "epfid2d1_82",
  "SequenceVariant": "SK\\SS",
  "SeriesDescription": "func_run-06_task-social_acq-ap-mb8",
  "SeriesNumber": 18,
  "ShimSetting": [4163, -7742, -7218, 482, -24, -26, 7, 62],
  "SliceThickness": 2.7,
  "SliceTiming": [0, 0.25, 0.0625, 0.3125, 0.125, 0.3775, 0.1875, 0, 0.25, 0.0625, 0.3125, 0.125, 0.3775, 0.1875, 0, 0.25, 0.0625, 0.3125, 0.125, 0.3775, 0.1875, 0, 0.25, 0.0625, 0.3125, 0.125, 0.3775, 0.1875, 0, 0.25, 0.0625, 0.3125, 0.125, 0.3775, 0.1875, 0, 0.25, 0.0625, 0.3125, 0.125, 0.3775, 0.1875, 0, 0.25, 0.0625, 0.3125, 0.125, 0.3775, 0.1875, 0, 0.25, 0.0625, 0.3125, 0.125, 0.3775, 0.1875],
  "SoftwareVersions": "syngo MR E11",
  "SpacingBetweenSlices": 2.7,
  "StationName": "AWP66112",
  "TaskName": "social",
  "TotalReadoutTime": 0.03969,
  "TxRefAmp": 248.321,
  "WipMemBlock": "aadd0269-2049-4f37-9ac0-3e7214d3ec2b||Sequence: R016 ve11c/master r/e634e98; Dec 19 2017 11:00:25 by eja",
  "dcmmeta_affine": [
    [-2.680919647216797, 0.00561480363830924, 0.10426926612854004, 113.12533569335938],
    [0.013037306256592274, 2.675992965698242, 0.1935490220785141, -100.76896667480469],
    [0.1029396578669548, -0.19268473982810974, 2.6910343170166016, -41.86391830444336],
    [0.0, 0.0, 0.0, 1.0]
],
  "dcmmeta_reorient_transform": [
    [0.0, -1.0, 0.0, 81.0],
    [1.0, 0.0, 0.0, 0.0],
    [0.0, 0.0, 1.0, 0.0],
    [0.0, 0.0, 0.0, 1.0]
],
  "dcmmeta_shape": [82, 82, 56, 872],
  "dcmmeta_slice_dim": 2,
  "dcmmeta_version": 0.6,
  "global": {
    "const": {
      "AccessionNumber": "A003456",
      "AcquisitionMatrix": [82, 0, 0, 82],
      "AngioFlag": "N",
      "BitsAllocated": 16,
      "BitsStored": 16,
      "BodyPartExamined": "BRAIN",
      "Columns": 656,
      "EchoNumbers": 1,
      "EchoTime": 27.2,
      "EchoTrainLength": 82,
      "FlipAngle": 44.0,
      "HighBit": 15,
      "ImageOrientationPatient": [0.99925184576282, -0.0048593594734, 0.03836841624449, 0.0020927904521, 0.99741549632502, 0.07181885489791],
      "ImagePositionPatient": [-884.61552252925, -880.25469764797, -142.3155814042],
      "ImageType": [
        "ORIGINAL",
        "PRIMARY",
        "M",
        "MB",
        "ND",
        "NORM",
        "MOSAIC"
],
      "ImagedNucleus": "1H",
      "ImagingFrequency": 123.252127,
      "InPlanePhaseEncodingDirection": "COL",
      "MRAcquisitionType": "2D",
      "MagneticFieldStrength": 3.0,
      "Manufacturer": "SIEMENS",
      "ManufacturerModelName": "Prisma",
      "Modality": "MR",
      "NumberOfAverages": 1.0,
      "NumberOfPhaseEncodingSteps": 82,
      "PercentPhaseFieldOfView": 100.0,
      "PercentSampling": 100.0,
      "PerformedProcedureStepStartTime": "114845.744000",
      "PhotometricInterpretation": "MONOCHROME2",
      "PixelBandwidth": 3050.0,
      "PixelRepresentation": 0,
      "PixelSpacing": [2.6829268932343, 2.6829268932343],
      "ProtocolName": "func_run-06_task-social_acq-ap-mb8",
      "RepetitionTime": 460.0,
      "Rows": 656,
      "SAR": 0.112631076428,
      "SamplesPerPixel": 1,
      "ScanOptions": "FS",
      "ScanningSequence": "EP",
      "SequenceName": "epfid2d1_82",
      "SequenceVariant": [
        "SK",
        "SS"
],
      "SeriesDescription": "func_run-06_task-social_acq-ap-mb8",
      "SeriesNumber": 18,
      "SeriesTime": "130455.877000",
      "SliceLocation": -44.579809302558,
      "SliceThickness": 2.7000000476837,
      "SmallestImagePixelValue": 0,
      "SoftwareVersions": "syngo MR E11",
      "SpacingBetweenSlices": 2.6999999198867,
      "SpecificCharacterSet": "ISO_IR 100",
      "StudyID": "3",
      "StudyTime": "114845.654000",
      "TransmitCoilName": "Body",
      "VariableFlipAngleFlag": "N",
      "WindowCenterWidthExplanation": "Algo1",
      "dBdt": 0.0},
    "slices": {}
  },
  "time": {
    "samples": {
      "AcquisitionNumber": [1, 2, 3, 4, 5, 6, 7, 8, 9, 10, 11, 12, 13, 14, 15, 16, 17, 18, 19, 20, 21, 22, 23, 24, 25, 26, 27, 28, 29, 30, 31, 32, 33, 34, 35, 36, 37, 38, 39, 40, 41, 42, 43, 44, 45, 46, 47, 48, 49, 50, 51, 52, 53, 54, 55, 56, 57, 58, 59, 60, 61, 62, 63, 64, 65, 66, 67, 68, 69, 70, 71, 72, 73, 74, 75, 76, 77, 78, 79, 80, 81, 82, 83, 84, 85, 86, 87, 88, 89, 90, 91, 92, 93, 94, 95, 96, 97, 98, 99, 100, 101, 102, 103, 104, 105, 106, 107, 108, 109, 110, 111, 112, 113, 114, 115, 116, 117, 118, 119, 120, 121, 122, 123, 124, 125, 126, 127, 128, 129, 130, 131, 132, 133, 134, 135, 136, 137, 138, 139, 140, 141, 142, 143, 144, 145, 146, 147, 148, 149, 150, 151, 152, 153, 154, 155, 156, 157, 158, 159, 160, 161, 162, 163, 164, 165, 166, 167, 168, 169, 170, 171, 172, 173, 174, 175, 176, 177, 178, 179, 180, 181, 182, 183, 184, 185, 186, 187, 188, 189, 190, 191, 192, 193, 194, 195, 196, 197, 198, 199, 200, 201, 202, 203, 204, 205, 206, 207, 208, 209, 210, 211, 212, 213, 214, 215, 216, 217, 218, 219, 220, 221, 222, 223, 224, 225, 226, 227, 228, 229, 230, 231, 232, 233, 234, 235, 236, 237, 238, 239, 240, 241, 242, 243, 244, 245, 246, 247, 248, 249, 250, 251, 252, 253, 254, 255, 256, 257, 258, 259, 260, 261, 262, 263, 264, 265, 266, 267, 268, 269, 270, 271, 272, 273, 274, 275, 276, 277, 278, 279, 280, 281, 282, 283, 284, 285, 286, 287, 288, 289, 290, 291, 292, 293, 294, 295, 296, 297, 298, 299, 300, 301, 302, 303, 304, 305, 306, 307, 308, 309, 310, 311, 312, 313, 314, 315, 316, 317, 318, 319, 320, 321, 322, 323, 324, 325, 326, 327, 328, 329, 330, 331, 332, 333, 334, 335, 336, 337, 338, 339, 340, 341, 342, 343, 344, 345, 346, 347, 348, 349, 350, 351, 352, 353, 354, 355, 356, 357, 358, 359, 360, 361, 362, 363, 364, 365, 366, 367, 368, 369, 370, 371, 372, 373, 374, 375, 376, 377, 378, 379, 380, 381, 382, 383, 384, 385, 386, 387, 388, 389, 390, 391, 392, 393, 394, 395, 396, 397, 398, 399, 400, 401, 402, 403, 404, 405, 406, 407, 408, 409, 410, 411, 412, 413, 414, 415, 416, 417, 418, 419, 420, 421, 422, 423, 424, 425, 426, 427, 428, 429, 430, 431, 432, 433, 434, 435, 436, 437, 438, 439, 440, 441, 442, 443, 444, 445, 446, 447, 448, 449, 450, 451, 452, 453, 454, 455, 456, 457, 458, 459, 460, 461, 462, 463, 464, 465, 466, 467, 468, 469, 470, 471, 472, 473, 474, 475, 476, 477, 478, 479, 480, 481, 482, 483, 484, 485, 486, 487, 488, 489, 490, 491, 492, 493, 494, 495, 496, 497, 498, 499, 500, 501, 502, 503, 504, 505, 506, 507, 508, 509, 510, 511, 512, 513, 514, 515, 516, 517, 518, 519, 520, 521, 522, 523, 524, 525, 526, 527, 528, 529, 530, 531, 532, 533, 534, 535, 536, 537, 538, 539, 540, 541, 542, 543, 544, 545, 546, 547, 548, 549, 550, 551, 552, 553, 554, 555, 556, 557, 558, 559, 560, 561, 562, 563, 564, 565, 566, 567, 568, 569, 570, 571, 572, 573, 574, 575, 576, 577, 578, 579, 580, 581, 582, 583, 584, 585, 586, 587, 588, 589, 590, 591, 592, 593, 594, 595, 596, 597, 598, 599, 600, 601, 602, 603, 604, 605, 606, 607, 608, 609, 610, 611, 612, 613, 614, 615, 616, 617, 618, 619, 620, 621, 622, 623, 624, 625, 626, 627, 628, 629, 630, 631, 632, 633, 634, 635, 636, 637, 638, 639, 640, 641, 642, 643, 644, 645, 646, 647, 648, 649, 650, 651, 652, 653, 654, 655, 656, 657, 658, 659, 660, 661, 662, 663, 664, 665, 666, 667, 668, 669, 670, 671, 672, 673, 674, 675, 676, 677, 678, 679, 680, 681, 682, 683, 684, 685, 686, 687, 688, 689, 690, 691, 692, 693, 694, 695, 696, 697, 698, 699, 700, 701, 702, 703, 704, 705, 706, 707, 708, 709, 710, 711, 712, 713, 714, 715, 716, 717, 718, 719, 720, 721, 722, 723, 724, 725, 726, 727, 728, 729, 730, 731, 732, 733, 734, 735, 736, 737, 738, 739, 740, 741, 742, 743, 744, 745, 746, 747, 748, 749, 750, 751, 752, 753, 754, 755, 756, 757, 758, 759, 760, 761, 762, 763, 764, 765, 766, 767, 768, 769, 770, 771, 772, 773, 774, 775, 776, 777, 778, 779, 780, 781, 782, 783, 784, 785, 786, 787, 788, 789, 790, 791, 792, 793, 794, 795, 796, 797, 798, 799, 800, 801, 802, 803, 804, 805, 806, 807, 808, 809, 810, 811, 812, 813, 814, 815, 816, 817, 818, 819, 820, 821, 822, 823, 824, 825, 826, 827, 828, 829, 830, 831, 832, 833, 834, 835, 836, 837, 838, 839, 840, 841, 842, 843, 844, 845, 846, 847, 848, 849, 850, 851, 852, 853, 854, 855, 856, 857, 858, 859, 860, 861, 862, 863, 864, 865, 866, 867, 868, 869, 870, 871, 872],
      "AcquisitionTime": ["130443.725000", "130444.185000", "130444.645000", "130445.105000", "130445.565000", "130446.025000", "130446.485000", "130446.945000", "130447.405000", "130447.865000", "130448.325000", "130448.785000", "130449.245000", "130449.705000", "130450.165000", "130450.625000", "130451.085000", "130451.545000", "130452.005000", "130452.465000", "130452.925000", "130453.385000", "130453.845000", "130454.305000", "130454.765000", "130455.225000", "130455.685000", "130456.145000", "130456.605000", "130457.065000", "130457.525000", "130457.985000", "130458.445000", "130458.905000", "130459.365000", "130459.825000", "130500.285000", "130500.745000", "130501.205000", "130501.665000", "130502.125000", "130502.585000", "130503.045000", "130503.505000", "130503.965000", "130504.425000", "130504.885000", "130505.345000", "130505.805000", "130506.265000", "130506.725000", "130507.185000", "130507.645000", "130508.105000", "130508.565000", "130509.025000", "130509.485000", "130509.945000", "130510.405000", "130510.865000", "130511.325000", "130511.785000", "130512.245000", "130512.705000", "130513.165000", "130513.625000", "130514.085000", "130514.545000", "130515.005000", "130515.465000", "130515.925000", "130516.385000", "130516.845000", "130517.305000", "130517.765000", "130518.225000", "130518.685000", "130519.145000", "130519.605000", "130520.065000", "130520.525000", "130520.985000", "130521.445000", "130521.905000", "130522.365000", "130522.825000", "130523.285000", "130523.745000", "130524.205000", "130524.665000", "130525.125000", "130525.585000", "130526.045000", "130526.505000", "130526.965000", "130527.425000", "130527.885000", "130528.345000", "130528.805000", "130529.265000", "130529.725000", "130530.185000", "130530.645000", "130531.105000", "130531.565000", "130532.025000", "130532.485000", "130532.945000", "130533.405000", "130533.865000", "130534.325000", "130534.785000", "130535.245000", "130535.705000", "130536.165000", "130536.625000", "130537.085000", "130537.545000", "130538.005000", "130538.465000", "130538.925000", "130539.385000", "130539.845000", "130540.305000", "130540.765000", "130541.225000", "130541.685000", "130542.145000", "130542.605000", "130543.065000", "130543.525000", "130543.985000", "130544.445000", "130544.905000", "130545.365000", "130545.825000", "130546.285000", "130546.745000", "130547.205000", "130547.665000", "130548.125000", "130548.585000", "130549.045000", "130549.505000", "130549.965000", "130550.425000", "130550.885000", "130551.345000", "130551.805000", "130552.265000", "130552.725000", "130553.185000", "130553.645000", "130554.105000", "130554.565000", "130555.025000", "130555.485000", "130555.945000", "130556.405000", "130556.865000", "130557.325000", "130557.785000", "130558.245000", "130558.705000", "130559.165000", "130559.625000", "130600.085000", "130600.545000", "130601.005000", "130601.465000", "130601.925000", "130602.385000", "130602.845000", "130603.305000", "130603.765000", "130604.225000", "130604.685000", "130605.145000", "130605.605000", "130606.065000", "130606.525000", "130606.985000", "130607.445000", "130607.905000", "130608.365000", "130608.825000", "130609.285000", "130609.745000", "130610.205000", "130610.665000", "130611.125000", "130611.585000", "130612.045000", "130612.505000", "130612.965000", "130613.425000", "130613.885000", "130614.345000", "130614.805000", "130615.265000", "130615.725000", "130616.185000", "130616.645000", "130617.105000", "130617.565000", "130618.025000", "130618.485000", "130618.945000", "130619.405000", "130619.865000", "130620.325000", "130620.785000", "130621.245000", "130621.705000", "130622.165000", "130622.625000", "130623.085000", "130623.545000", "130624.005000", "130624.465000", "130624.925000", "130625.385000", "130625.845000", "130626.305000", "130626.765000", "130627.225000", "130627.685000", "130628.145000", "130628.605000", "130629.065000", "130629.525000", "130629.985000", "130630.445000", "130630.905000", "130631.365000", "130631.825000", "130632.285000", "130632.745000", "130633.205000", "130633.665000", "130634.125000", "130634.585000", "130635.045000", "130635.505000", "130635.965000", "130636.425000", "130636.885000", "130637.345000", "130637.805000", "130638.265000", "130638.725000", "130639.185000", "130639.645000", "130640.105000", "130640.565000", "130641.025000", "130641.485000", "130641.945000", "130642.405000", "130642.865000", "130643.325000", "130643.785000", "130644.245000", "130644.705000", "130645.165000", "130645.625000", "130646.085000", "130646.545000", "130647.005000", "130647.465000", "130647.925000", "130648.385000", "130648.845000", "130649.305000", "130649.765000", "130650.225000", "130650.685000", "130651.145000", "130651.605000", "130652.065000", "130652.525000", "130652.985000", "130653.445000", "130653.905000", "130654.365000", "130654.825000", "130655.285000", "130655.745000", "130656.205000", "130656.665000", "130657.125000", "130657.585000", "130658.045000", "130658.505000", "130658.965000", "130659.425000", "130659.885000", "130700.345000", "130700.805000", "130701.265000", "130701.725000", "130702.185000", "130702.645000", "130703.105000", "130703.565000", "130704.025000", "130704.485000", "130704.945000", "130705.405000", "130705.865000", "130706.325000", "130706.785000", "130707.245000", "130707.705000", "130708.165000", "130708.625000", "130709.085000", "130709.545000", "130710.005000", "130710.465000", "130710.925000", "130711.385000", "130711.845000", "130712.305000", "130712.765000", "130713.225000", "130713.685000", "130714.145000", "130714.605000", "130715.065000", "130715.525000", "130715.985000", "130716.445000", "130716.905000", "130717.365000", "130717.825000", "130718.285000", "130718.745000", "130719.205000", "130719.665000", "130720.125000", "130720.585000", "130721.045000", "130721.505000", "130721.965000", "130722.425000", "130722.885000", "130723.345000", "130723.805000", "130724.265000", "130724.725000", "130725.185000", "130725.645000", "130726.105000", "130726.565000", "130727.025000", "130727.485000", "130727.945000", "130728.405000", "130728.865000", "130729.325000", "130729.785000", "130730.245000", "130730.705000", "130731.165000", "130731.625000", "130732.085000", "130732.545000", "130733.005000", "130733.465000", "130733.925000", "130734.385000", "130734.845000", "130735.305000", "130735.765000", "130736.225000", "130736.685000", "130737.145000", "130737.605000", "130738.065000", "130738.525000", "130738.985000", "130739.445000", "130739.905000", "130740.365000", "130740.825000", "130741.285000", "130741.745000", "130742.205000", "130742.665000", "130743.125000", "130743.585000", "130744.045000", "130744.505000", "130744.965000", "130745.425000", "130745.885000", "130746.345000", "130746.805000", "130747.265000", "130747.725000", "130748.185000", "130748.645000", "130749.105000", "130749.565000", "130750.025000", "130750.485000", "130750.945000", "130751.405000", "130751.865000", "130752.325000", "130752.785000", "130753.245000", "130753.705000", "130754.165000", "130754.625000", "130755.085000", "130755.545000", "130756.005000", "130756.465000", "130756.925000", "130757.385000", "130757.845000", "130758.305000", "130758.765000", "130759.225000", "130759.685000", "130800.145000", "130800.605000", "130801.065000", "130801.525000", "130801.985000", "130802.445000", "130802.905000", "130803.365000", "130803.825000", "130804.285000", "130804.745000", "130805.205000", "130805.665000", "130806.125000", "130806.585000", "130807.045000", "130807.505000", "130807.965000", "130808.425000", "130808.885000", "130809.345000", "130809.805000", "130810.265000", "130810.725000", "130811.185000", "130811.645000", "130812.105000", "130812.565000", "130813.025000", "130813.485000", "130813.945000", "130814.405000", "130814.865000", "130815.325000", "130815.785000", "130816.245000", "130816.705000", "130817.165000", "130817.625000", "130818.085000", "130818.545000", "130819.005000", "130819.465000", "130819.925000", "130820.385000", "130820.845000", "130821.305000", "130821.765000", "130822.225000", "130822.685000", "130823.145000", "130823.605000", "130824.065000", "130824.525000", "130824.985000", "130825.445000", "130825.905000", "130826.365000", "130826.825000", "130827.285000", "130827.745000", "130828.205000", "130828.665000", "130829.125000", "130829.585000", "130830.045000", "130830.505000", "130830.965000", "130831.425000", "130831.885000", "130832.345000", "130832.805000", "130833.265000", "130833.725000", "130834.185000", "130834.645000", "130835.105000", "130835.565000", "130836.025000", "130836.485000", "130836.945000", "130837.405000", "130837.865000", "130838.325000", "130838.785000", "130839.245000", "130839.705000", "130840.165000", "130840.625000", "130841.085000", "130841.545000", "130842.005000", "130842.465000", "130842.925000", "130843.385000", "130843.845000", "130844.305000", "130844.765000", "130845.225000", "130845.685000", "130846.145000", "130846.605000", "130847.065000", "130847.525000", "130847.985000", "130848.445000", "130848.905000", "130849.365000", "130849.825000", "130850.285000", "130850.745000", "130851.205000", "130851.665000", "130852.125000", "130852.585000", "130853.045000", "130853.505000", "130853.965000", "130854.425000", "130854.885000", "130855.345000", "130855.805000", "130856.265000", "130856.725000", "130857.185000", "130857.645000", "130858.105000", "130858.565000", "130859.025000", "130859.485000", "130859.945000", "130900.405000", "130900.865000", "130901.325000", "130901.785000", "130902.245000", "130902.705000", "130903.165000", "130903.625000", "130904.085000", "130904.545000", "130905.005000", "130905.465000", "130905.925000", "130906.385000", "130906.845000", "130907.305000", "130907.765000", "130908.225000", "130908.685000", "130909.145000", "130909.605000", "130910.065000", "130910.525000", "130910.985000", "130911.445000", "130911.905000", "130912.365000", "130912.825000", "130913.285000", "130913.745000", "130914.205000", "130914.665000", "130915.125000", "130915.585000", "130916.045000", "130916.505000", "130916.965000", "130917.425000", "130917.885000", "130918.345000", "130918.805000", "130919.265000", "130919.725000", "130920.185000", "130920.645000", "130921.105000", "130921.565000", "130922.025000", "130922.485000", "130922.945000", "130923.405000", "130923.865000", "130924.325000", "130924.785000", "130925.245000", "130925.705000", "130926.165000", "130926.625000", "130927.085000", "130927.545000", "130928.005000", "130928.465000", "130928.925000", "130929.385000", "130929.845000", "130930.305000", "130930.765000", "130931.225000", "130931.685000", "130932.145000", "130932.605000", "130933.065000", "130933.525000", "130933.985000", "130934.445000", "130934.905000", "130935.365000", "130935.825000", "130936.285000", "130936.745000", "130937.205000", "130937.665000", "130938.125000", "130938.585000", "130939.045000", "130939.505000", "130939.965000", "130940.425000", "130940.885000", "130941.345000", "130941.805000", "130942.265000", "130942.725000", "130943.185000", "130943.645000", "130944.105000", "130944.565000", "130945.025000", "130945.485000", "130945.945000", "130946.405000", "130946.865000", "130947.325000", "130947.785000", "130948.245000", "130948.705000", "130949.165000", "130949.625000", "130950.085000", "130950.545000", "130951.005000", "130951.465000", "130951.925000", "130952.385000", "130952.845000", "130953.305000", "130953.765000", "130954.225000", "130954.685000", "130955.145000", "130955.605000", "130956.065000", "130956.525000", "130956.985000", "130957.445000", "130957.905000", "130958.365000", "130958.825000", "130959.285000", "130959.745000", "131000.205000", "131000.665000", "131001.125000", "131001.585000", "131002.045000", "131002.505000", "131002.965000", "131003.425000", "131003.885000", "131004.345000", "131004.805000", "131005.265000", "131005.725000", "131006.185000", "131006.645000", "131007.105000", "131007.565000", "131008.025000", "131008.485000", "131008.945000", "131009.405000", "131009.865000", "131010.325000", "131010.785000", "131011.245000", "131011.705000", "131012.165000", "131012.625000", "131013.085000", "131013.545000", "131014.005000", "131014.465000", "131014.925000", "131015.385000", "131015.845000", "131016.305000", "131016.765000", "131017.225000", "131017.685000", "131018.145000", "131018.605000", "131019.065000", "131019.525000", "131019.985000", "131020.445000", "131020.905000", "131021.365000", "131021.825000", "131022.285000", "131022.745000", "131023.205000", "131023.665000", "131024.125000", "131024.585000", "131025.045000", "131025.505000", "131025.965000", "131026.425000", "131026.885000", "131027.345000", "131027.805000", "131028.265000", "131028.725000", "131029.185000", "131029.645000", "131030.105000", "131030.565000", "131031.025000", "131031.485000", "131031.945000", "131032.405000", "131032.865000", "131033.325000", "131033.785000", "131034.245000", "131034.705000", "131035.165000", "131035.625000", "131036.085000", "131036.545000", "131037.005000", "131037.465000", "131037.925000", "131038.385000", "131038.845000", "131039.305000", "131039.765000", "131040.225000", "131040.685000", "131041.145000", "131041.605000", "131042.065000", "131042.525000", "131042.985000", "131043.445000", "131043.905000", "131044.365000", "131044.825000", "131045.285000", "131045.745000", "131046.205000", "131046.665000", "131047.125000", "131047.585000", "131048.045000", "131048.505000", "131048.965000", "131049.425000", "131049.885000", "131050.345000", "131050.805000", "131051.265000", "131051.725000", "131052.185000", "131052.645000", "131053.105000", "131053.565000", "131054.025000", "131054.485000", "131054.945000", "131055.405000", "131055.865000", "131056.325000", "131056.785000", "131057.245000", "131057.705000", "131058.165000", "131058.625000", "131059.085000", "131059.545000", "131100.005000", "131100.465000", "131100.925000", "131101.385000", "131101.845000", "131102.305000", "131102.765000", "131103.225000", "131103.685000", "131104.145000", "131104.605000", "131105.065000", "131105.525000", "131105.985000", "131106.445000", "131106.905000", "131107.365000", "131107.825000", "131108.285000", "131108.745000", "131109.205000", "131109.665000", "131110.125000", "131110.585000", "131111.045000", "131111.505000", "131111.965000", "131112.425000", "131112.885000", "131113.345000", "131113.805000", "131114.265000", "131114.725000", "131115.185000", "131115.645000", "131116.105000", "131116.565000", "131117.025000", "131117.485000", "131117.945000", "131118.405000", "131118.865000", "131119.325000", "131119.785000", "131120.245000", "131120.705000", "131121.165000", "131121.625000", "131122.085000", "131122.545000", "131123.005000", "131123.465000", "131123.925000", "131124.385000"],
