{
  "AcquisitionMatrixPE": 82,
  "AcquisitionNumber": 1,
  "AcquisitionTime": "18:33:6.282500",
  "BandwidthPerPixelPhaseEncode": 24.888,
  "BaseResolution": 82,
  "BodyPartExamined": "BRAIN",
  "ConsistencyInfo": "N4_VE11E_LATEST_20181129",
  "ConversionSoftware": "dcm2niix",
  "ConversionSoftwareVersion": "v1.0.20201102",
  "DerivedVendorReportedEchoSpacing": 0.00049,
  "DeviceSerialNumber": "66112",
  "DwellTime": 2e-06,
  "EchoTime": 0.0272,
  "EchoTrainLength": 82,
  "EffectiveEchoSpacing": 0.00049,
  "FlipAngle": 44,
  "ImageComments": "Unaliased MB8/PE3",
  "ImageOrientationPatientDICOM": [0.995842, 0.0359696, 0.0836996, -0.0382564, 0.998933, 0.0258792],
  "ImageType": [
    "ORIGINAL",
    "PRIMARY",
    "M",
    "MB",
    "ND",
    "NORM",
    "MOSAIC"
],
  "ImagingFrequency": 123.252,
  "InPlanePhaseEncodingDirectionDICOM": "COL",
  "InstitutionAddress": "Maynard 3,Hanover,NH,US,03755",
  "InstitutionName": "Dartmouth College - PBS",
  "InstitutionalDepartmentName": "Department",
  "MRAcquisitionType": "2D",
  "MagneticFieldStrength": 3,
  "Manufacturer": "Siemens",
  "ManufacturersModelName": "Prisma",
  "Modality": "MR",
  "MultibandAccelerationFactor": 8,
  "PartialFourier": 1,
  "PatientPosition": "HFS",
  "PercentPhaseFOV": 100,
  "PercentSampling": 100,
  "PhaseEncodingDirection": "j-",
  "PhaseEncodingSteps": 82,
  "PhaseResolution": 1,
  "PixelBandwidth": 3050,
  "ProcedureStepDescription": "Wager_Wager^1076_spacetop",
  "ProtocolName": "func_run-01_task-social_acq-ap-mb8",
  "PulseSequenceDetails": "%CustomerSeq%\\cmrr_mbep2d_bold",
  "ReceiveCoilActiveElements": "HEA;HEP",
  "ReceiveCoilName": "Head_32",
  "ReconMatrixPE": 82,
  "RepetitionTime": 0.46,
  "SAR": 0.102993,
  "ScanOptions": "FS",
  "ScanningSequence": "EP",
  "SequenceName": "epfid2d1_82",
  "SequenceVariant": "SK\\SS",
  "SeriesDescription": "func_run-01_task-social_acq-ap-mb8",
  "SeriesNumber": 8,
  "ShimSetting": [4152, -7764, -7291, 524, -62, -107, -27, 73],
  "SliceThickness": 2.7,
  "SliceTiming": [0, 0.2525, 0.0625, 0.315, 0.125, 0.3775, 0.19, 0, 0.2525, 0.0625, 0.315, 0.125, 0.3775, 0.19, 0, 0.2525, 0.0625, 0.315, 0.125, 0.3775, 0.19, 0, 0.2525, 0.0625, 0.315, 0.125, 0.3775, 0.19, 0, 0.2525, 0.0625, 0.315, 0.125, 0.3775, 0.19, 0, 0.2525, 0.0625, 0.315, 0.125, 0.3775, 0.19, 0, 0.2525, 0.0625, 0.315, 0.125, 0.3775, 0.19, 0, 0.2525, 0.0625, 0.315, 0.125, 0.3775, 0.19],
  "SoftwareVersions": "syngo MR E11",
  "SpacingBetweenSlices": 2.7,
  "StationName": "AWP66112",
  "TaskName": "social",
  "TotalReadoutTime": 0.03969,
  "TxRefAmp": 252.715,
  "WipMemBlock": "eca4a26f-b7e8-48ab-835f-2abd8368fa10||Sequence: R016 ve11e/master r/434b28f1; Aug  7 2019 18:53:46 by eja",
  "dcmmeta_affine": [
    [-2.6717703342437744, -0.10263907164335251, 0.22323451936244965, 113.6416244506836],
    [-0.09650381654500961, 2.6800637245178223, 0.07822882384061813, -94.73924255371094],
    [0.22456000745296478, -0.06943202018737793, 2.6896183490753174, -85.09545135498047],
    [0.0, 0.0, 0.0, 1.0]
],
  "dcmmeta_reorient_transform": [
    [0.0, -1.0, 0.0, 81.0],
    [1.0, 0.0, 0.0, 0.0],
    [0.0, 0.0, 1.0, 0.0],
    [0.0, 0.0, 0.0, 1.0]
],
  "dcmmeta_shape": [82, 82, 56, 872],
  "dcmmeta_slice_dim": 2,
  "dcmmeta_version": 0.6,
  "global": {
    "const": {
      "AccessionNumber": "A003911",
      "AcquisitionMatrix": [82, 0, 0, 82],
      "AngioFlag": "N",
      "BitsAllocated": 16,
      "BitsStored": 16,
      "BodyPartExamined": "BRAIN",
      "Columns": 656,
      "EchoNumbers": 1,
      "EchoTime": 27.2,
      "EchoTrainLength": 82,
      "FlipAngle": 44.0,
      "HighBit": 15,
      "ImageOrientationPatient": [0.99584163309541, 0.03596960293677, 0.08369963834116, -0.0382563801402, 0.9989327885278, 0.02587920753495],
      "ImagePositionPatient": [-842.66852231502, -919.2207704509, -175.0951581544],
      "ImageType": [
        "ORIGINAL",
        "PRIMARY",
        "M",
        "MB",
        "ND",
        "NORM",
        "MOSAIC"
],
      "ImagedNucleus": "1H",
      "ImagingFrequency": 123.252213,
      "InPlanePhaseEncodingDirection": "COL",
      "MRAcquisitionType": "2D",
      "MagneticFieldStrength": 3.0,
      "Manufacturer": "SIEMENS",
      "ManufacturerModelName": "Prisma",
      "Modality": "MR",
      "NumberOfAverages": 1.0,
      "NumberOfPhaseEncodingSteps": 82,
      "PercentPhaseFieldOfView": 100.0,
      "PercentSampling": 100.0,
      "PerformedProcedureStepStartTime": "182139.580000",
      "PhotometricInterpretation": "MONOCHROME2",
      "PixelBandwidth": 3050.0,
      "PixelRepresentation": 0,
      "PixelSpacing": [2.6829268932343, 2.6829268932343],
      "ProtocolName": "func_run-01_task-social_acq-ap-mb8",
      "RepetitionTime": 460.0,
      "Rows": 656,
      "SAR": 0.10299343490182,
      "SamplesPerPixel": 1,
      "ScanOptions": "FS",
      "ScanningSequence": "EP",
      "SequenceName": "epfid2d1_82",
      "SequenceVariant": [
        "SK",
        "SS"
],
      "SeriesDescription": "func_run-01_task-social_acq-ap-mb8",
      "SeriesNumber": 8,
      "SeriesTime": "183334.792000",
      "SliceLocation": -78.117366468575,
      "SliceThickness": 2.7000000476837,
      "SmallestImagePixelValue": 0,
      "SoftwareVersions": "syngo MR E11",
      "SpacingBetweenSlices": 2.7000000364328,
      "SpecificCharacterSet": "ISO_IR 100",
      "StudyID": "3",
      "StudyTime": "182139.425000",
      "TransmitCoilName": "Body",
      "VariableFlipAngleFlag": "N",
      "WindowCenterWidthExplanation": "Algo1"
    },
    "slices": {}
  },
  "time": {
    "samples": {
      "AcquisitionNumber": [1, 2, 3, 4, 5, 6, 7, 8, 9, 10, 11, 12, 13, 14, 15, 16, 17, 18, 19, 20, 21, 22, 23, 24, 25, 26, 27, 28, 29, 30, 31, 32, 33, 34, 35, 36, 37, 38, 39, 40, 41, 42, 43, 44, 45, 46, 47, 48, 49, 50, 51, 52, 53, 54, 55, 56, 57, 58, 59, 60, 61, 62, 63, 64, 65, 66, 67, 68, 69, 70, 71, 72, 73, 74, 75, 76, 77, 78, 79, 80, 81, 82, 83, 84, 85, 86, 87, 88, 89, 90, 91, 92, 93, 94, 95, 96, 97, 98, 99, 100, 101, 102, 103, 104, 105, 106, 107, 108, 109, 110, 111, 112, 113, 114, 115, 116, 117, 118, 119, 120, 121, 122, 123, 124, 125, 126, 127, 128, 129, 130, 131, 132, 133, 134, 135, 136, 137, 138, 139, 140, 141, 142, 143, 144, 145, 146, 147, 148, 149, 150, 151, 152, 153, 154, 155, 156, 157, 158, 159, 160, 161, 162, 163, 164, 165, 166, 167, 168, 169, 170, 171, 172, 173, 174, 175, 176, 177, 178, 179, 180, 181, 182, 183, 184, 185, 186, 187, 188, 189, 190, 191, 192, 193, 194, 195, 196, 197, 198, 199, 200, 201, 202, 203, 204, 205, 206, 207, 208, 209, 210, 211, 212, 213, 214, 215, 216, 217, 218, 219, 220, 221, 222, 223, 224, 225, 226, 227, 228, 229, 230, 231, 232, 233, 234, 235, 236, 237, 238, 239, 240, 241, 242, 243, 244, 245, 246, 247, 248, 249, 250, 251, 252, 253, 254, 255, 256, 257, 258, 259, 260, 261, 262, 263, 264, 265, 266, 267, 268, 269, 270, 271, 272, 273, 274, 275, 276, 277, 278, 279, 280, 281, 282, 283, 284, 285, 286, 287, 288, 289, 290, 291, 292, 293, 294, 295, 296, 297, 298, 299, 300, 301, 302, 303, 304, 305, 306, 307, 308, 309, 310, 311, 312, 313, 314, 315, 316, 317, 318, 319, 320, 321, 322, 323, 324, 325, 326, 327, 328, 329, 330, 331, 332, 333, 334, 335, 336, 337, 338, 339, 340, 341, 342, 343, 344, 345, 346, 347, 348, 349, 350, 351, 352, 353, 354, 355, 356, 357, 358, 359, 360, 361, 362, 363, 364, 365, 366, 367, 368, 369, 370, 371, 372, 373, 374, 375, 376, 377, 378, 379, 380, 381, 382, 383, 384, 385, 386, 387, 388, 389, 390, 391, 392, 393, 394, 395, 396, 397, 398, 399, 400, 401, 402, 403, 404, 405, 406, 407, 408, 409, 410, 411, 412, 413, 414, 415, 416, 417, 418, 419, 420, 421, 422, 423, 424, 425, 426, 427, 428, 429, 430, 431, 432, 433, 434, 435, 436, 437, 438, 439, 440, 441, 442, 443, 444, 445, 446, 447, 448, 449, 450, 451, 452, 453, 454, 455, 456, 457, 458, 459, 460, 461, 462, 463, 464, 465, 466, 467, 468, 469, 470, 471, 472, 473, 474, 475, 476, 477, 478, 479, 480, 481, 482, 483, 484, 485, 486, 487, 488, 489, 490, 491, 492, 493, 494, 495, 496, 497, 498, 499, 500, 501, 502, 503, 504, 505, 506, 507, 508, 509, 510, 511, 512, 513, 514, 515, 516, 517, 518, 519, 520, 521, 522, 523, 524, 525, 526, 527, 528, 529, 530, 531, 532, 533, 534, 535, 536, 537, 538, 539, 540, 541, 542, 543, 544, 545, 546, 547, 548, 549, 550, 551, 552, 553, 554, 555, 556, 557, 558, 559, 560, 561, 562, 563, 564, 565, 566, 567, 568, 569, 570, 571, 572, 573, 574, 575, 576, 577, 578, 579, 580, 581, 582, 583, 584, 585, 586, 587, 588, 589, 590, 591, 592, 593, 594, 595, 596, 597, 598, 599, 600, 601, 602, 603, 604, 605, 606, 607, 608, 609, 610, 611, 612, 613, 614, 615, 616, 617, 618, 619, 620, 621, 622, 623, 624, 625, 626, 627, 628, 629, 630, 631, 632, 633, 634, 635, 636, 637, 638, 639, 640, 641, 642, 643, 644, 645, 646, 647, 648, 649, 650, 651, 652, 653, 654, 655, 656, 657, 658, 659, 660, 661, 662, 663, 664, 665, 666, 667, 668, 669, 670, 671, 672, 673, 674, 675, 676, 677, 678, 679, 680, 681, 682, 683, 684, 685, 686, 687, 688, 689, 690, 691, 692, 693, 694, 695, 696, 697, 698, 699, 700, 701, 702, 703, 704, 705, 706, 707, 708, 709, 710, 711, 712, 713, 714, 715, 716, 717, 718, 719, 720, 721, 722, 723, 724, 725, 726, 727, 728, 729, 730, 731, 732, 733, 734, 735, 736, 737, 738, 739, 740, 741, 742, 743, 744, 745, 746, 747, 748, 749, 750, 751, 752, 753, 754, 755, 756, 757, 758, 759, 760, 761, 762, 763, 764, 765, 766, 767, 768, 769, 770, 771, 772, 773, 774, 775, 776, 777, 778, 779, 780, 781, 782, 783, 784, 785, 786, 787, 788, 789, 790, 791, 792, 793, 794, 795, 796, 797, 798, 799, 800, 801, 802, 803, 804, 805, 806, 807, 808, 809, 810, 811, 812, 813, 814, 815, 816, 817, 818, 819, 820, 821, 822, 823, 824, 825, 826, 827, 828, 829, 830, 831, 832, 833, 834, 835, 836, 837, 838, 839, 840, 841, 842, 843, 844, 845, 846, 847, 848, 849, 850, 851, 852, 853, 854, 855, 856, 857, 858, 859, 860, 861, 862, 863, 864, 865, 866, 867, 868, 869, 870, 871, 872],
      "AcquisitionTime": ["183306.282500", "183306.742500", "183307.202500", "183307.662500", "183308.122500", "183308.582500", "183309.042500", "183309.502500", "183309.962500", "183310.422500", "183310.882500", "183311.342500", "183311.802500", "183312.262500", "183312.722500", "183313.182500", "183313.642500", "183314.102500", "183314.562500", "183315.022500", "183315.482500", "183315.942500", "183316.402500", "183316.862500", "183317.322500", "183317.782500", "183318.242500", "183318.702500", "183319.162500", "183319.622500", "183320.082500", "183320.542500", "183321.002500", "183321.462500", "183321.922500", "183322.382500", "183322.842500", "183323.302500", "183323.762500", "183324.222500", "183324.682500", "183325.142500", "183325.602500", "183326.062500", "183326.522500", "183326.982500", "183327.442500", "183327.902500", "183328.362500", "183328.822500", "183329.282500", "183329.742500", "183330.202500", "183330.662500", "183331.122500", "183331.582500", "183332.042500", "183332.502500", "183332.962500", "183333.422500", "183333.882500", "183334.342500", "183334.802500", "183335.262500", "183335.722500", "183336.182500", "183336.642500", "183337.102500", "183337.562500", "183338.022500", "183338.482500", "183338.942500", "183339.402500", "183339.862500", "183340.322500", "183340.782500", "183341.242500", "183341.702500", "183342.162500", "183342.622500", "183343.082500", "183343.542500", "183344.002500", "183344.462500", "183344.922500", "183345.382500", "183345.842500", "183346.302500", "183346.762500", "183347.222500", "183347.682500", "183348.142500", "183348.602500", "183349.062500", "183349.522500", "183349.982500", "183350.442500", "183350.902500", "183351.362500", "183351.822500", "183352.282500", "183352.742500", "183353.202500", "183353.662500", "183354.122500", "183354.582500", "183355.042500", "183355.502500", "183355.962500", "183356.422500", "183356.882500", "183357.342500", "183357.802500", "183358.262500", "183358.722500", "183359.182500", "183359.642500", "183400.102500", "183400.562500", "183401.022500", "183401.482500", "183401.942500", "183402.402500", "183402.862500", "183403.322500", "183403.782500", "183404.242500", "183404.702500", "183405.162500", "183405.622500", "183406.082500", "183406.542500", "183407.002500", "183407.462500", "183407.922500", "183408.382500", "183408.842500", "183409.302500", "183409.762500", "183410.222500", "183410.682500", "183411.142500", "183411.602500", "183412.062500", "183412.522500", "183412.982500", "183413.442500", "183413.902500", "183414.362500", "183414.822500", "183415.282500", "183415.742500", "183416.202500", "183416.662500", "183417.122500", "183417.582500", "183418.042500", "183418.502500", "183418.962500", "183419.422500", "183419.882500", "183420.342500", "183420.802500", "183421.262500", "183421.722500", "183422.182500", "183422.642500", "183423.102500", "183423.562500", "183424.022500", "183424.482500", "183424.942500", "183425.402500", "183425.862500", "183426.322500", "183426.782500", "183427.242500", "183427.702500", "183428.162500", "183428.622500", "183429.082500", "183429.542500", "183430.002500", "183430.462500", "183430.922500", "183431.382500", "183431.842500", "183432.302500", "183432.762500", "183433.222500", "183433.682500", "183434.142500", "183434.602500", "183435.062500", "183435.522500", "183435.982500", "183436.442500", "183436.902500", "183437.362500", "183437.822500", "183438.282500", "183438.742500", "183439.202500", "183439.662500", "183440.122500", "183440.582500", "183441.042500", "183441.502500", "183441.962500", "183442.422500", "183442.882500", "183443.342500", "183443.802500", "183444.262500", "183444.722500", "183445.182500", "183445.642500", "183446.102500", "183446.562500", "183447.022500", "183447.482500", "183447.942500", "183448.402500", "183448.862500", "183449.322500", "183449.782500", "183450.242500", "183450.702500", "183451.162500", "183451.622500", "183452.082500", "183452.542500", "183453.002500", "183453.462500", "183453.922500", "183454.382500", "183454.842500", "183455.302500", "183455.762500", "183456.222500", "183456.682500", "183457.142500", "183457.602500", "183458.062500", "183458.522500", "183458.982500", "183459.442500", "183459.902500", "183500.362500", "183500.822500", "183501.282500", "183501.742500", "183502.202500", "183502.662500", "183503.122500", "183503.582500", "183504.042500", "183504.502500", "183504.962500", "183505.422500", "183505.882500", "183506.342500", "183506.802500", "183507.262500", "183507.722500", "183508.182500", "183508.642500", "183509.102500", "183509.562500", "183510.022500", "183510.482500", "183510.942500", "183511.402500", "183511.862500", "183512.322500", "183512.782500", "183513.242500", "183513.702500", "183514.162500", "183514.622500", "183515.082500", "183515.542500", "183516.002500", "183516.462500", "183516.922500", "183517.382500", "183517.842500", "183518.302500", "183518.762500", "183519.222500", "183519.682500", "183520.142500", "183520.602500", "183521.062500", "183521.522500", "183521.982500", "183522.442500", "183522.902500", "183523.362500", "183523.822500", "183524.282500", "183524.742500", "183525.202500", "183525.662500", "183526.122500", "183526.582500", "183527.042500", "183527.502500", "183527.962500", "183528.422500", "183528.882500", "183529.342500", "183529.802500", "183530.262500", "183530.722500", "183531.182500", "183531.642500", "183532.102500", "183532.562500", "183533.022500", "183533.482500", "183533.942500", "183534.402500", "183534.862500", "183535.322500", "183535.782500", "183536.242500", "183536.702500", "183537.162500", "183537.622500", "183538.082500", "183538.542500", "183539.002500", "183539.462500", "183539.922500", "183540.382500", "183540.842500", "183541.302500", "183541.762500", "183542.222500", "183542.682500", "183543.142500", "183543.602500", "183544.062500", "183544.522500", "183544.982500", "183545.442500", "183545.902500", "183546.362500", "183546.822500", "183547.282500", "183547.742500", "183548.202500", "183548.662500", "183549.122500", "183549.582500", "183550.042500", "183550.502500", "183550.962500", "183551.422500", "183551.882500", "183552.342500", "183552.802500", "183553.262500", "183553.722500", "183554.182500", "183554.642500", "183555.102500", "183555.562500", "183556.022500", "183556.482500", "183556.942500", "183557.402500", "183557.862500", "183558.322500", "183558.782500", "183559.242500", "183559.702500", "183600.162500", "183600.622500", "183601.082500", "183601.542500", "183602.002500", "183602.462500", "183602.922500", "183603.382500", "183603.842500", "183604.302500", "183604.762500", "183605.222500", "183605.682500", "183606.142500", "183606.602500", "183607.062500", "183607.522500", "183607.982500", "183608.442500", "183608.902500", "183609.362500", "183609.822500", "183610.282500", "183610.742500", "183611.202500", "183611.662500", "183612.122500", "183612.582500", "183613.042500", "183613.502500", "183613.962500", "183614.422500", "183614.882500", "183615.342500", "183615.802500", "183616.262500", "183616.722500", "183617.182500", "183617.642500", "183618.102500", "183618.562500", "183619.022500", "183619.482500", "183619.942500", "183620.402500", "183620.862500", "183621.322500", "183621.782500", "183622.242500", "183622.702500", "183623.162500", "183623.622500", "183624.082500", "183624.542500", "183625.002500", "183625.462500", "183625.922500", "183626.382500", "183626.842500", "183627.302500", "183627.762500", "183628.222500", "183628.682500", "183629.142500", "183629.602500", "183630.062500", "183630.522500", "183630.982500", "183631.442500", "183631.902500", "183632.362500", "183632.822500", "183633.282500", "183633.742500", "183634.202500", "183634.662500", "183635.122500", "183635.582500", "183636.042500", "183636.502500", "183636.962500", "183637.422500", "183637.882500", "183638.342500", "183638.802500", "183639.262500", "183639.722500", "183640.182500", "183640.642500", "183641.102500", "183641.562500", "183642.022500", "183642.482500", "183642.942500", "183643.402500", "183643.862500", "183644.322500", "183644.782500", "183645.242500", "183645.702500", "183646.162500", "183646.622500", "183647.082500", "183647.542500", "183648.002500", "183648.462500", "183648.922500", "183649.382500", "183649.842500", "183650.302500", "183650.762500", "183651.222500", "183651.682500", "183652.142500", "183652.602500", "183653.062500", "183653.522500", "183653.982500", "183654.442500", "183654.902500", "183655.362500", "183655.822500", "183656.282500", "183656.742500", "183657.202500", "183657.662500", "183658.122500", "183658.582500", "183659.042500", "183659.502500", "183659.962500", "183700.422500", "183700.882500", "183701.342500", "183701.802500", "183702.262500", "183702.722500", "183703.182500", "183703.642500", "183704.102500", "183704.562500", "183705.022500", "183705.482500", "183705.942500", "183706.402500", "183706.862500", "183707.322500", "183707.782500", "183708.242500", "183708.702500", "183709.162500", "183709.622500", "183710.082500", "183710.542500", "183711.002500", "183711.462500", "183711.922500", "183712.382500", "183712.842500", "183713.302500", "183713.762500", "183714.222500", "183714.682500", "183715.142500", "183715.602500", "183716.062500", "183716.522500", "183716.982500", "183717.442500", "183717.902500", "183718.362500", "183718.822500", "183719.282500", "183719.742500", "183720.202500", "183720.662500", "183721.122500", "183721.582500", "183722.042500", "183722.502500", "183722.962500", "183723.422500", "183723.882500", "183724.342500", "183724.802500", "183725.262500", "183725.722500", "183726.182500", "183726.642500", "183727.102500", "183727.562500", "183728.022500", "183728.482500", "183728.942500", "183729.402500", "183729.862500", "183730.322500", "183730.782500", "183731.242500", "183731.702500", "183732.162500", "183732.622500", "183733.082500", "183733.542500", "183734.002500", "183734.462500", "183734.922500", "183735.382500", "183735.842500", "183736.302500", "183736.762500", "183737.222500", "183737.682500", "183738.142500", "183738.602500", "183739.062500", "183739.522500", "183739.982500", "183740.442500", "183740.902500", "183741.362500", "183741.822500", "183742.282500", "183742.742500", "183743.202500", "183743.662500", "183744.122500", "183744.582500", "183745.042500", "183745.502500", "183745.962500", "183746.422500", "183746.882500", "183747.342500", "183747.802500", "183748.262500", "183748.722500", "183749.182500", "183749.642500", "183750.102500", "183750.562500", "183751.022500", "183751.482500", "183751.942500", "183752.402500", "183752.862500", "183753.322500", "183753.782500", "183754.242500", "183754.702500", "183755.162500", "183755.622500", "183756.082500", "183756.542500", "183757.002500", "183757.462500", "183757.922500", "183758.382500", "183758.842500", "183759.302500", "183759.762500", "183800.222500", "183800.682500", "183801.142500", "183801.602500", "183802.062500", "183802.522500", "183802.982500", "183803.442500", "183803.902500", "183804.362500", "183804.822500", "183805.282500", "183805.742500", "183806.202500", "183806.662500", "183807.122500", "183807.582500", "183808.042500", "183808.502500", "183808.962500", "183809.422500", "183809.882500", "183810.342500", "183810.802500", "183811.262500", "183811.722500", "183812.182500", "183812.642500", "183813.102500", "183813.562500", "183814.022500", "183814.482500", "183814.942500", "183815.402500", "183815.862500", "183816.322500", "183816.782500", "183817.242500", "183817.702500", "183818.162500", "183818.622500", "183819.082500", "183819.542500", "183820.002500", "183820.462500", "183820.922500", "183821.382500", "183821.842500", "183822.302500", "183822.762500", "183823.222500", "183823.682500", "183824.142500", "183824.602500", "183825.062500", "183825.522500", "183825.982500", "183826.442500", "183826.902500", "183827.362500", "183827.822500", "183828.282500", "183828.742500", "183829.202500", "183829.662500", "183830.122500", "183830.582500", "183831.042500", "183831.502500", "183831.962500", "183832.422500", "183832.882500", "183833.342500", "183833.802500", "183834.262500", "183834.722500", "183835.182500", "183835.642500", "183836.102500", "183836.562500", "183837.022500", "183837.482500", "183837.942500", "183838.402500", "183838.862500", "183839.322500", "183839.782500", "183840.242500", "183840.702500", "183841.162500", "183841.622500", "183842.082500", "183842.542500", "183843.002500", "183843.462500", "183843.922500", "183844.382500", "183844.842500", "183845.302500", "183845.762500", "183846.222500", "183846.682500", "183847.142500", "183847.602500", "183848.062500", "183848.522500", "183848.982500", "183849.442500", "183849.902500", "183850.362500", "183850.822500", "183851.282500", "183851.742500", "183852.202500", "183852.662500", "183853.122500", "183853.582500", "183854.042500", "183854.502500", "183854.962500", "183855.422500", "183855.882500", "183856.342500", "183856.802500", "183857.262500", "183857.722500", "183858.182500", "183858.642500", "183859.102500", "183859.562500", "183900.022500", "183900.482500", "183900.942500", "183901.402500", "183901.862500", "183902.322500", "183902.782500", "183903.242500", "183903.702500", "183904.162500", "183904.622500", "183905.082500", "183905.542500", "183906.002500", "183906.462500", "183906.922500", "183907.382500", "183907.842500", "183908.302500", "183908.762500", "183909.222500", "183909.682500", "183910.142500", "183910.602500", "183911.062500", "183911.522500", "183911.982500", "183912.442500", "183912.902500", "183913.362500", "183913.822500", "183914.282500", "183914.742500", "183915.202500", "183915.662500", "183916.122500", "183916.582500", "183917.042500", "183917.502500", "183917.962500", "183918.422500", "183918.882500", "183919.342500", "183919.802500", "183920.262500", "183920.722500", "183921.182500", "183921.642500", "183922.102500", "183922.562500", "183923.022500", "183923.482500", "183923.942500", "183924.402500", "183924.862500", "183925.322500", "183925.782500", "183926.242500", "183926.702500", "183927.162500", "183927.622500", "183928.082500", "183928.542500", "183929.002500", "183929.462500", "183929.922500", "183930.382500", "183930.842500", "183931.302500", "183931.762500", "183932.222500", "183932.682500", "183933.142500", "183933.602500", "183934.062500", "183934.522500", "183934.982500", "183935.442500", "183935.902500", "183936.362500", "183936.822500", "183937.282500", "183937.742500", "183938.202500", "183938.662500", "183939.122500", "183939.582500", "183940.042500", "183940.502500", "183940.962500", "183941.422500", "183941.882500", "183942.342500", "183942.802500", "183943.262500", "183943.722500", "183944.182500", "183944.642500", "183945.102500", "183945.562500", "183946.022500", "183946.482500", "183946.942500"],
