{
  "AcquisitionMatrixPE": 82,
  "AcquisitionNumber": 1,
  "AcquisitionTime": "19:10:28.220000",
  "BandwidthPerPixelPhaseEncode": 24.888,
  "BaseResolution": 82,
  "BodyPartExamined": "BRAIN",
  "ConsistencyInfo": "N4_VE11E_LATEST_20181129",
  "ConversionSoftware": "dcm2niix",
  "ConversionSoftwareVersion": "v1.0.20201102",
  "DerivedVendorReportedEchoSpacing": 0.00049,
  "DeviceSerialNumber": "66112",
  "DwellTime": 2e-06,
  "EchoTime": 0.0272,
  "EchoTrainLength": 82,
  "EffectiveEchoSpacing": 0.00049,
  "FlipAngle": 44,
  "ImageComments": "Unaliased MB8/PE3",
  "ImageOrientationPatientDICOM": [0.995842, 0.0359696, 0.0836996, -0.0382564, 0.998933, 0.0258792],
  "ImageType": [
    "ORIGINAL",
    "PRIMARY",
    "M",
    "MB",
    "ND",
    "NORM",
    "MOSAIC"
],
  "ImagingFrequency": 123.252,
  "InPlanePhaseEncodingDirectionDICOM": "COL",
  "InstitutionAddress": "Maynard 3,Hanover,NH,US,03755",
  "InstitutionName": "Dartmouth College - PBS",
  "InstitutionalDepartmentName": "Department",
  "MRAcquisitionType": "2D",
  "MagneticFieldStrength": 3,
  "Manufacturer": "Siemens",
  "ManufacturersModelName": "Prisma",
  "Modality": "MR",
  "MultibandAccelerationFactor": 8,
  "PartialFourier": 1,
  "PatientPosition": "HFS",
  "PercentPhaseFOV": 100,
  "PercentSampling": 100,
  "PhaseEncodingDirection": "j-",
  "PhaseEncodingSteps": 82,
  "PhaseResolution": 1,
  "PixelBandwidth": 3050,
  "ProcedureStepDescription": "Wager_Wager^1076_spacetop",
  "ProtocolName": "func_run-06_task-social_acq-ap-mb8",
  "PulseSequenceDetails": "%CustomerSeq%\\cmrr_mbep2d_bold",
  "ReceiveCoilActiveElements": "HEA;HEP",
  "ReceiveCoilName": "Head_32",
  "ReconMatrixPE": 82,
  "RepetitionTime": 0.46,
  "SAR": 0.102993,
  "ScanOptions": "FS",
  "ScanningSequence": "EP",
  "SequenceName": "epfid2d1_82",
  "SequenceVariant": "SK\\SS",
  "SeriesDescription": "func_run-06_task-social_acq-ap-mb8",
  "SeriesNumber": 18,
  "ShimSetting": [4152, -7764, -7291, 524, -62, -107, -27, 73],
  "SliceThickness": 2.7,
  "SliceTiming": [0, 0.2525, 0.0625, 0.315, 0.125, 0.3775, 0.19, 0, 0.2525, 0.0625, 0.315, 0.125, 0.3775, 0.19, 0, 0.2525, 0.0625, 0.315, 0.125, 0.3775, 0.19, 0, 0.2525, 0.0625, 0.315, 0.125, 0.3775, 0.19, 0, 0.2525, 0.0625, 0.315, 0.125, 0.3775, 0.19, 0, 0.2525, 0.0625, 0.315, 0.125, 0.3775, 0.19, 0, 0.2525, 0.0625, 0.315, 0.125, 0.3775, 0.19, 0, 0.2525, 0.0625, 0.315, 0.125, 0.3775, 0.19],
  "SoftwareVersions": "syngo MR E11",
  "SpacingBetweenSlices": 2.7,
  "StationName": "AWP66112",
  "TaskName": "social",
  "TotalReadoutTime": 0.03969,
  "TxRefAmp": 252.715,
  "WipMemBlock": "254d8351-c37f-448e-bda4-2cdaf234a068||Sequence: R016 ve11e/master r/434b28f1; Aug  7 2019 18:53:46 by eja",
  "dcmmeta_affine": [
    [-2.6717703342437744, -0.10263907164335251, 0.22323451936244965, 113.6416244506836],
    [-0.09650381654500961, 2.6800637245178223, 0.07822882384061813, -94.73924255371094],
    [0.22456000745296478, -0.06943202018737793, 2.6896183490753174, -85.09545135498047],
    [0.0, 0.0, 0.0, 1.0]
],
  "dcmmeta_reorient_transform": [
    [0.0, -1.0, 0.0, 81.0],
    [1.0, 0.0, 0.0, 0.0],
    [0.0, 0.0, 1.0, 0.0],
    [0.0, 0.0, 0.0, 1.0]
],
  "dcmmeta_shape": [82, 82, 56, 872],
  "dcmmeta_slice_dim": 2,
  "dcmmeta_version": 0.6,
  "global": {
    "const": {
      "AccessionNumber": "A003911",
      "AcquisitionMatrix": [82, 0, 0, 82],
      "AngioFlag": "N",
      "BitsAllocated": 16,
      "BitsStored": 16,
      "BodyPartExamined": "BRAIN",
      "Columns": 656,
      "EchoNumbers": 1,
      "EchoTime": 27.2,
      "EchoTrainLength": 82,
      "FlipAngle": 44.0,
      "HighBit": 15,
      "ImageOrientationPatient": [0.99584163309541, 0.03596960293677, 0.08369963834116, -0.0382563801402, 0.9989327885278, 0.02587920753495],
      "ImagePositionPatient": [-842.66852231502, -919.2207704509, -175.0951581544],
      "ImageType": [
        "ORIGINAL",
        "PRIMARY",
        "M",
        "MB",
        "ND",
        "NORM",
        "MOSAIC"
],
      "ImagedNucleus": "1H",
      "ImagingFrequency": 123.252231,
      "InPlanePhaseEncodingDirection": "COL",
      "MRAcquisitionType": "2D",
      "MagneticFieldStrength": 3.0,
      "Manufacturer": "SIEMENS",
      "ManufacturerModelName": "Prisma",
      "Modality": "MR",
      "NumberOfAverages": 1.0,
      "NumberOfPhaseEncodingSteps": 82,
      "PercentPhaseFieldOfView": 100.0,
      "PercentSampling": 100.0,
      "PerformedProcedureStepStartTime": "182139.580000",
      "PhotometricInterpretation": "MONOCHROME2",
      "PixelBandwidth": 3050.0,
      "PixelRepresentation": 0,
      "PixelSpacing": [2.6829268932343, 2.6829268932343],
      "ProtocolName": "func_run-06_task-social_acq-ap-mb8",
      "RepetitionTime": 460.0,
      "Rows": 656,
      "SAR": 0.10299343490182,
      "SamplesPerPixel": 1,
      "ScanOptions": "FS",
      "ScanningSequence": "EP",
      "SequenceName": "epfid2d1_82",
      "SequenceVariant": [
        "SK",
        "SS"
],
      "SeriesDescription": "func_run-06_task-social_acq-ap-mb8",
      "SeriesNumber": 18,
      "SeriesTime": "191054.713000",
      "SliceLocation": -78.117366468575,
      "SliceThickness": 2.7000000476837,
      "SmallestImagePixelValue": 0,
      "SoftwareVersions": "syngo MR E11",
      "SpacingBetweenSlices": 2.7000000364328,
      "SpecificCharacterSet": "ISO_IR 100",
      "StudyID": "3",
      "StudyTime": "182139.425000",
      "TransmitCoilName": "Body",
      "VariableFlipAngleFlag": "N",
      "WindowCenterWidthExplanation": "Algo1"
    },
    "slices": {}
  },
  "time": {
    "samples": {
      "AcquisitionNumber": [1, 2, 3, 4, 5, 6, 7, 8, 9, 10, 11, 12, 13, 14, 15, 16, 17, 18, 19, 20, 21, 22, 23, 24, 25, 26, 27, 28, 29, 30, 31, 32, 33, 34, 35, 36, 37, 38, 39, 40, 41, 42, 43, 44, 45, 46, 47, 48, 49, 50, 51, 52, 53, 54, 55, 56, 57, 58, 59, 60, 61, 62, 63, 64, 65, 66, 67, 68, 69, 70, 71, 72, 73, 74, 75, 76, 77, 78, 79, 80, 81, 82, 83, 84, 85, 86, 87, 88, 89, 90, 91, 92, 93, 94, 95, 96, 97, 98, 99, 100, 101, 102, 103, 104, 105, 106, 107, 108, 109, 110, 111, 112, 113, 114, 115, 116, 117, 118, 119, 120, 121, 122, 123, 124, 125, 126, 127, 128, 129, 130, 131, 132, 133, 134, 135, 136, 137, 138, 139, 140, 141, 142, 143, 144, 145, 146, 147, 148, 149, 150, 151, 152, 153, 154, 155, 156, 157, 158, 159, 160, 161, 162, 163, 164, 165, 166, 167, 168, 169, 170, 171, 172, 173, 174, 175, 176, 177, 178, 179, 180, 181, 182, 183, 184, 185, 186, 187, 188, 189, 190, 191, 192, 193, 194, 195, 196, 197, 198, 199, 200, 201, 202, 203, 204, 205, 206, 207, 208, 209, 210, 211, 212, 213, 214, 215, 216, 217, 218, 219, 220, 221, 222, 223, 224, 225, 226, 227, 228, 229, 230, 231, 232, 233, 234, 235, 236, 237, 238, 239, 240, 241, 242, 243, 244, 245, 246, 247, 248, 249, 250, 251, 252, 253, 254, 255, 256, 257, 258, 259, 260, 261, 262, 263, 264, 265, 266, 267, 268, 269, 270, 271, 272, 273, 274, 275, 276, 277, 278, 279, 280, 281, 282, 283, 284, 285, 286, 287, 288, 289, 290, 291, 292, 293, 294, 295, 296, 297, 298, 299, 300, 301, 302, 303, 304, 305, 306, 307, 308, 309, 310, 311, 312, 313, 314, 315, 316, 317, 318, 319, 320, 321, 322, 323, 324, 325, 326, 327, 328, 329, 330, 331, 332, 333, 334, 335, 336, 337, 338, 339, 340, 341, 342, 343, 344, 345, 346, 347, 348, 349, 350, 351, 352, 353, 354, 355, 356, 357, 358, 359, 360, 361, 362, 363, 364, 365, 366, 367, 368, 369, 370, 371, 372, 373, 374, 375, 376, 377, 378, 379, 380, 381, 382, 383, 384, 385, 386, 387, 388, 389, 390, 391, 392, 393, 394, 395, 396, 397, 398, 399, 400, 401, 402, 403, 404, 405, 406, 407, 408, 409, 410, 411, 412, 413, 414, 415, 416, 417, 418, 419, 420, 421, 422, 423, 424, 425, 426, 427, 428, 429, 430, 431, 432, 433, 434, 435, 436, 437, 438, 439, 440, 441, 442, 443, 444, 445, 446, 447, 448, 449, 450, 451, 452, 453, 454, 455, 456, 457, 458, 459, 460, 461, 462, 463, 464, 465, 466, 467, 468, 469, 470, 471, 472, 473, 474, 475, 476, 477, 478, 479, 480, 481, 482, 483, 484, 485, 486, 487, 488, 489, 490, 491, 492, 493, 494, 495, 496, 497, 498, 499, 500, 501, 502, 503, 504, 505, 506, 507, 508, 509, 510, 511, 512, 513, 514, 515, 516, 517, 518, 519, 520, 521, 522, 523, 524, 525, 526, 527, 528, 529, 530, 531, 532, 533, 534, 535, 536, 537, 538, 539, 540, 541, 542, 543, 544, 545, 546, 547, 548, 549, 550, 551, 552, 553, 554, 555, 556, 557, 558, 559, 560, 561, 562, 563, 564, 565, 566, 567, 568, 569, 570, 571, 572, 573, 574, 575, 576, 577, 578, 579, 580, 581, 582, 583, 584, 585, 586, 587, 588, 589, 590, 591, 592, 593, 594, 595, 596, 597, 598, 599, 600, 601, 602, 603, 604, 605, 606, 607, 608, 609, 610, 611, 612, 613, 614, 615, 616, 617, 618, 619, 620, 621, 622, 623, 624, 625, 626, 627, 628, 629, 630, 631, 632, 633, 634, 635, 636, 637, 638, 639, 640, 641, 642, 643, 644, 645, 646, 647, 648, 649, 650, 651, 652, 653, 654, 655, 656, 657, 658, 659, 660, 661, 662, 663, 664, 665, 666, 667, 668, 669, 670, 671, 672, 673, 674, 675, 676, 677, 678, 679, 680, 681, 682, 683, 684, 685, 686, 687, 688, 689, 690, 691, 692, 693, 694, 695, 696, 697, 698, 699, 700, 701, 702, 703, 704, 705, 706, 707, 708, 709, 710, 711, 712, 713, 714, 715, 716, 717, 718, 719, 720, 721, 722, 723, 724, 725, 726, 727, 728, 729, 730, 731, 732, 733, 734, 735, 736, 737, 738, 739, 740, 741, 742, 743, 744, 745, 746, 747, 748, 749, 750, 751, 752, 753, 754, 755, 756, 757, 758, 759, 760, 761, 762, 763, 764, 765, 766, 767, 768, 769, 770, 771, 772, 773, 774, 775, 776, 777, 778, 779, 780, 781, 782, 783, 784, 785, 786, 787, 788, 789, 790, 791, 792, 793, 794, 795, 796, 797, 798, 799, 800, 801, 802, 803, 804, 805, 806, 807, 808, 809, 810, 811, 812, 813, 814, 815, 816, 817, 818, 819, 820, 821, 822, 823, 824, 825, 826, 827, 828, 829, 830, 831, 832, 833, 834, 835, 836, 837, 838, 839, 840, 841, 842, 843, 844, 845, 846, 847, 848, 849, 850, 851, 852, 853, 854, 855, 856, 857, 858, 859, 860, 861, 862, 863, 864, 865, 866, 867, 868, 869, 870, 871, 872],
      "AcquisitionTime": ["191028.220000", "191028.680000", "191029.140000", "191029.600000", "191030.060000", "191030.520000", "191030.980000", "191031.440000", "191031.900000", "191032.360000", "191032.820000", "191033.280000", "191033.740000", "191034.200000", "191034.660000", "191035.120000", "191035.580000", "191036.040000", "191036.500000", "191036.960000", "191037.420000", "191037.880000", "191038.340000", "191038.800000", "191039.260000", "191039.720000", "191040.180000", "191040.640000", "191041.100000", "191041.560000", "191042.020000", "191042.480000", "191042.940000", "191043.400000", "191043.860000", "191044.320000", "191044.780000", "191045.240000", "191045.700000", "191046.160000", "191046.620000", "191047.080000", "191047.540000", "191048.000000", "191048.460000", "191048.920000", "191049.380000", "191049.840000", "191050.300000", "191050.760000", "191051.220000", "191051.680000", "191052.140000", "191052.600000", "191053.060000", "191053.520000", "191053.980000", "191054.440000", "191054.900000", "191055.360000", "191055.820000", "191056.280000", "191056.740000", "191057.200000", "191057.660000", "191058.120000", "191058.580000", "191059.040000", "191059.500000", "191059.960000", "191100.420000", "191100.880000", "191101.340000", "191101.800000", "191102.260000", "191102.720000", "191103.180000", "191103.640000", "191104.100000", "191104.560000", "191105.020000", "191105.480000", "191105.940000", "191106.400000", "191106.860000", "191107.320000", "191107.780000", "191108.240000", "191108.700000", "191109.160000", "191109.620000", "191110.080000", "191110.540000", "191111.000000", "191111.460000", "191111.920000", "191112.380000", "191112.840000", "191113.300000", "191113.760000", "191114.220000", "191114.680000", "191115.140000", "191115.600000", "191116.060000", "191116.520000", "191116.980000", "191117.440000", "191117.900000", "191118.360000", "191118.820000", "191119.280000", "191119.740000", "191120.200000", "191120.660000", "191121.120000", "191121.580000", "191122.040000", "191122.500000", "191122.960000", "191123.420000", "191123.880000", "191124.340000", "191124.800000", "191125.260000", "191125.720000", "191126.180000", "191126.640000", "191127.100000", "191127.560000", "191128.020000", "191128.480000", "191128.940000", "191129.400000", "191129.860000", "191130.320000", "191130.780000", "191131.240000", "191131.700000", "191132.160000", "191132.620000", "191133.080000", "191133.540000", "191134.000000", "191134.460000", "191134.920000", "191135.380000", "191135.840000", "191136.300000", "191136.760000", "191137.220000", "191137.680000", "191138.140000", "191138.600000", "191139.060000", "191139.520000", "191139.980000", "191140.440000", "191140.900000", "191141.360000", "191141.820000", "191142.280000", "191142.740000", "191143.200000", "191143.660000", "191144.120000", "191144.580000", "191145.040000", "191145.500000", "191145.960000", "191146.420000", "191146.880000", "191147.340000", "191147.800000", "191148.260000", "191148.720000", "191149.180000", "191149.640000", "191150.100000", "191150.560000", "191151.020000", "191151.480000", "191151.940000", "191152.400000", "191152.860000", "191153.320000", "191153.780000", "191154.240000", "191154.700000", "191155.160000", "191155.620000", "191156.080000", "191156.540000", "191157.000000", "191157.460000", "191157.920000", "191158.380000", "191158.840000", "191159.300000", "191159.760000", "191200.220000", "191200.680000", "191201.140000", "191201.600000", "191202.060000", "191202.520000", "191202.980000", "191203.440000", "191203.900000", "191204.360000", "191204.820000", "191205.280000", "191205.740000", "191206.200000", "191206.660000", "191207.120000", "191207.580000", "191208.040000", "191208.500000", "191208.960000", "191209.420000", "191209.880000", "191210.340000", "191210.800000", "191211.260000", "191211.720000", "191212.180000", "191212.640000", "191213.100000", "191213.560000", "191214.020000", "191214.480000", "191214.940000", "191215.400000", "191215.860000", "191216.320000", "191216.780000", "191217.240000", "191217.700000", "191218.160000", "191218.620000", "191219.080000", "191219.540000", "191220.000000", "191220.460000", "191220.920000", "191221.380000", "191221.840000", "191222.300000", "191222.760000", "191223.220000", "191223.680000", "191224.140000", "191224.600000", "191225.060000", "191225.520000", "191225.980000", "191226.440000", "191226.900000", "191227.360000", "191227.820000", "191228.280000", "191228.740000", "191229.200000", "191229.660000", "191230.120000", "191230.580000", "191231.040000", "191231.500000", "191231.960000", "191232.420000", "191232.880000", "191233.340000", "191233.800000", "191234.260000", "191234.720000", "191235.180000", "191235.640000", "191236.100000", "191236.560000", "191237.020000", "191237.480000", "191237.940000", "191238.400000", "191238.860000", "191239.320000", "191239.780000", "191240.240000", "191240.700000", "191241.160000", "191241.620000", "191242.080000", "191242.540000", "191243.000000", "191243.460000", "191243.920000", "191244.380000", "191244.840000", "191245.300000", "191245.760000", "191246.220000", "191246.680000", "191247.140000", "191247.600000", "191248.060000", "191248.520000", "191248.980000", "191249.440000", "191249.900000", "191250.360000", "191250.820000", "191251.280000", "191251.740000", "191252.200000", "191252.660000", "191253.120000", "191253.580000", "191254.040000", "191254.500000", "191254.960000", "191255.420000", "191255.880000", "191256.340000", "191256.800000", "191257.260000", "191257.720000", "191258.180000", "191258.640000", "191259.100000", "191259.560000", "191300.020000", "191300.480000", "191300.940000", "191301.400000", "191301.860000", "191302.320000", "191302.780000", "191303.240000", "191303.700000", "191304.160000", "191304.620000", "191305.080000", "191305.540000", "191306.000000", "191306.460000", "191306.920000", "191307.380000", "191307.840000", "191308.300000", "191308.760000", "191309.220000", "191309.680000", "191310.140000", "191310.600000", "191311.060000", "191311.520000", "191311.980000", "191312.440000", "191312.900000", "191313.360000", "191313.820000", "191314.280000", "191314.740000", "191315.200000", "191315.660000", "191316.120000", "191316.580000", "191317.040000", "191317.500000", "191317.960000", "191318.420000", "191318.880000", "191319.340000", "191319.800000", "191320.260000", "191320.720000", "191321.180000", "191321.640000", "191322.100000", "191322.560000", "191323.020000", "191323.480000", "191323.940000", "191324.400000", "191324.860000", "191325.320000", "191325.780000", "191326.240000", "191326.700000", "191327.160000", "191327.620000", "191328.080000", "191328.540000", "191329.000000", "191329.460000", "191329.920000", "191330.380000", "191330.840000", "191331.300000", "191331.760000", "191332.220000", "191332.680000", "191333.140000", "191333.600000", "191334.060000", "191334.520000", "191334.980000", "191335.440000", "191335.900000", "191336.360000", "191336.820000", "191337.280000", "191337.740000", "191338.200000", "191338.660000", "191339.120000", "191339.580000", "191340.040000", "191340.500000", "191340.960000", "191341.420000", "191341.880000", "191342.340000", "191342.800000", "191343.260000", "191343.720000", "191344.180000", "191344.640000", "191345.100000", "191345.560000", "191346.020000", "191346.480000", "191346.940000", "191347.400000", "191347.860000", "191348.320000", "191348.780000", "191349.240000", "191349.700000", "191350.160000", "191350.620000", "191351.080000", "191351.540000", "191352.000000", "191352.460000", "191352.920000", "191353.380000", "191353.840000", "191354.300000", "191354.760000", "191355.220000", "191355.680000", "191356.140000", "191356.600000", "191357.060000", "191357.520000", "191357.980000", "191358.440000", "191358.900000", "191359.360000", "191359.820000", "191400.280000", "191400.740000", "191401.200000", "191401.660000", "191402.120000", "191402.580000", "191403.040000", "191403.500000", "191403.960000", "191404.420000", "191404.880000", "191405.340000", "191405.800000", "191406.260000", "191406.720000", "191407.180000", "191407.640000", "191408.100000", "191408.560000", "191409.020000", "191409.480000", "191409.940000", "191410.400000", "191410.860000", "191411.320000", "191411.780000", "191412.240000", "191412.700000", "191413.160000", "191413.620000", "191414.080000", "191414.540000", "191415.000000", "191415.460000", "191415.920000", "191416.380000", "191416.840000", "191417.300000", "191417.760000", "191418.220000", "191418.680000", "191419.140000", "191419.600000", "191420.060000", "191420.520000", "191420.980000", "191421.440000", "191421.900000", "191422.360000", "191422.820000", "191423.280000", "191423.740000", "191424.200000", "191424.660000", "191425.120000", "191425.580000", "191426.040000", "191426.500000", "191426.960000", "191427.420000", "191427.880000", "191428.340000", "191428.800000", "191429.260000", "191429.720000", "191430.180000", "191430.640000", "191431.100000", "191431.560000", "191432.020000", "191432.480000", "191432.940000", "191433.400000", "191433.860000", "191434.320000", "191434.780000", "191435.240000", "191435.700000", "191436.160000", "191436.620000", "191437.080000", "191437.540000", "191438.000000", "191438.460000", "191438.920000", "191439.380000", "191439.840000", "191440.300000", "191440.760000", "191441.220000", "191441.680000", "191442.140000", "191442.600000", "191443.060000", "191443.520000", "191443.980000", "191444.440000", "191444.900000", "191445.360000", "191445.820000", "191446.280000", "191446.740000", "191447.200000", "191447.660000", "191448.120000", "191448.580000", "191449.040000", "191449.500000", "191449.960000", "191450.420000", "191450.880000", "191451.340000", "191451.800000", "191452.260000", "191452.720000", "191453.180000", "191453.640000", "191454.100000", "191454.560000", "191455.020000", "191455.480000", "191455.940000", "191456.400000", "191456.860000", "191457.320000", "191457.780000", "191458.240000", "191458.700000", "191459.160000", "191459.620000", "191500.080000", "191500.540000", "191501.000000", "191501.460000", "191501.920000", "191502.380000", "191502.840000", "191503.300000", "191503.760000", "191504.220000", "191504.680000", "191505.140000", "191505.600000", "191506.060000", "191506.520000", "191506.980000", "191507.440000", "191507.900000", "191508.360000", "191508.820000", "191509.280000", "191509.740000", "191510.200000", "191510.660000", "191511.120000", "191511.580000", "191512.040000", "191512.500000", "191512.960000", "191513.420000", "191513.880000", "191514.340000", "191514.800000", "191515.260000", "191515.720000", "191516.180000", "191516.640000", "191517.100000", "191517.560000", "191518.020000", "191518.480000", "191518.940000", "191519.400000", "191519.860000", "191520.320000", "191520.780000", "191521.240000", "191521.700000", "191522.160000", "191522.620000", "191523.080000", "191523.540000", "191524.000000", "191524.460000", "191524.920000", "191525.380000", "191525.840000", "191526.300000", "191526.760000", "191527.220000", "191527.680000", "191528.140000", "191528.600000", "191529.060000", "191529.520000", "191529.980000", "191530.440000", "191530.900000", "191531.360000", "191531.820000", "191532.280000", "191532.740000", "191533.200000", "191533.660000", "191534.120000", "191534.580000", "191535.040000", "191535.500000", "191535.960000", "191536.420000", "191536.880000", "191537.340000", "191537.800000", "191538.260000", "191538.720000", "191539.180000", "191539.640000", "191540.100000", "191540.560000", "191541.020000", "191541.480000", "191541.940000", "191542.400000", "191542.860000", "191543.320000", "191543.780000", "191544.240000", "191544.700000", "191545.160000", "191545.620000", "191546.080000", "191546.540000", "191547.000000", "191547.460000", "191547.920000", "191548.380000", "191548.840000", "191549.300000", "191549.760000", "191550.220000", "191550.680000", "191551.140000", "191551.600000", "191552.060000", "191552.520000", "191552.980000", "191553.440000", "191553.900000", "191554.360000", "191554.820000", "191555.280000", "191555.740000", "191556.200000", "191556.660000", "191557.120000", "191557.580000", "191558.040000", "191558.500000", "191558.960000", "191559.420000", "191559.880000", "191600.340000", "191600.800000", "191601.260000", "191601.720000", "191602.180000", "191602.640000", "191603.100000", "191603.560000", "191604.020000", "191604.480000", "191604.940000", "191605.400000", "191605.860000", "191606.320000", "191606.780000", "191607.240000", "191607.700000", "191608.160000", "191608.620000", "191609.080000", "191609.540000", "191610.000000", "191610.460000", "191610.920000", "191611.380000", "191611.840000", "191612.300000", "191612.760000", "191613.220000", "191613.680000", "191614.140000", "191614.600000", "191615.060000", "191615.520000", "191615.980000", "191616.440000", "191616.900000", "191617.360000", "191617.820000", "191618.280000", "191618.740000", "191619.200000", "191619.660000", "191620.120000", "191620.580000", "191621.040000", "191621.500000", "191621.960000", "191622.420000", "191622.880000", "191623.340000", "191623.800000", "191624.260000", "191624.720000", "191625.180000", "191625.640000", "191626.100000", "191626.560000", "191627.020000", "191627.480000", "191627.940000", "191628.400000", "191628.860000", "191629.320000", "191629.780000", "191630.240000", "191630.700000", "191631.160000", "191631.620000", "191632.080000", "191632.540000", "191633.000000", "191633.460000", "191633.920000", "191634.380000", "191634.840000", "191635.300000", "191635.760000", "191636.220000", "191636.680000", "191637.140000", "191637.600000", "191638.060000", "191638.520000", "191638.980000", "191639.440000", "191639.900000", "191640.360000", "191640.820000", "191641.280000", "191641.740000", "191642.200000", "191642.660000", "191643.120000", "191643.580000", "191644.040000", "191644.500000", "191644.960000", "191645.420000", "191645.880000", "191646.340000", "191646.800000", "191647.260000", "191647.720000", "191648.180000", "191648.640000", "191649.100000", "191649.560000", "191650.020000", "191650.480000", "191650.940000", "191651.400000", "191651.860000", "191652.320000", "191652.780000", "191653.240000", "191653.700000", "191654.160000", "191654.620000", "191655.080000", "191655.540000", "191656.000000", "191656.460000", "191656.920000", "191657.380000", "191657.840000", "191658.300000", "191658.760000", "191659.220000", "191659.680000", "191700.140000", "191700.600000", "191701.060000", "191701.520000", "191701.980000", "191702.440000", "191702.900000", "191703.360000", "191703.820000", "191704.280000", "191704.740000", "191705.200000", "191705.660000", "191706.120000", "191706.580000", "191707.040000", "191707.500000", "191707.960000", "191708.420000", "191708.880000"],
