{
  "AcquisitionMatrixPE": 82,
  "AcquisitionNumber": 1,
  "AcquisitionTime": "18:54:13.617500",
  "BandwidthPerPixelPhaseEncode": 24.888,
  "BaseResolution": 82,
  "BodyPartExamined": "BRAIN",
  "ConsistencyInfo": "N4_VE11E_LATEST_20181129",
  "ConversionSoftware": "dcm2niix",
  "ConversionSoftwareVersion": "v1.0.20201102",
  "DerivedVendorReportedEchoSpacing": 0.00049,
  "DeviceSerialNumber": "66112",
  "DwellTime": 2e-06,
  "EchoTime": 0.0272,
  "EchoTrainLength": 82,
  "EffectiveEchoSpacing": 0.00049,
  "FlipAngle": 44,
  "ImageComments": "Unaliased MB8/PE3",
  "ImageOrientationPatientDICOM": [0.995842, 0.0359696, 0.0836996, -0.0382564, 0.998933, 0.0258792],
  "ImageType": [
    "ORIGINAL",
    "PRIMARY",
    "M",
    "MB",
    "ND",
    "NORM",
    "MOSAIC"
],
  "ImagingFrequency": 123.252,
  "InPlanePhaseEncodingDirectionDICOM": "COL",
  "InstitutionAddress": "Maynard 3,Hanover,NH,US,03755",
  "InstitutionName": "Dartmouth College - PBS",
  "InstitutionalDepartmentName": "Department",
  "MRAcquisitionType": "2D",
  "MagneticFieldStrength": 3,
  "Manufacturer": "Siemens",
  "ManufacturersModelName": "Prisma",
  "Modality": "MR",
  "MultibandAccelerationFactor": 8,
  "PartialFourier": 1,
  "PatientPosition": "HFS",
  "PercentPhaseFOV": 100,
  "PercentSampling": 100,
  "PhaseEncodingDirection": "j-",
  "PhaseEncodingSteps": 82,
  "PhaseResolution": 1,
  "PixelBandwidth": 3050,
  "ProcedureStepDescription": "Wager_Wager^1076_spacetop",
  "ProtocolName": "func_run-04_task-social_acq-ap-mb8",
  "PulseSequenceDetails": "%CustomerSeq%\\cmrr_mbep2d_bold",
  "ReceiveCoilActiveElements": "HEA;HEP",
  "ReceiveCoilName": "Head_32",
  "ReconMatrixPE": 82,
  "RepetitionTime": 0.46,
  "SAR": 0.102993,
  "ScanOptions": "FS",
  "ScanningSequence": "EP",
  "SequenceName": "epfid2d1_82",
  "SequenceVariant": "SK\\SS",
  "SeriesDescription": "func_run-04_task-social_acq-ap-mb8",
  "SeriesNumber": 14,
  "ShimSetting": [4152, -7764, -7291, 524, -62, -107, -27, 73],
  "SliceThickness": 2.7,
  "SliceTiming": [0, 0.25, 0.0625, 0.315, 0.125, 0.3775, 0.1875, 0, 0.25, 0.0625, 0.315, 0.125, 0.3775, 0.1875, 0, 0.25, 0.0625, 0.315, 0.125, 0.3775, 0.1875, 0, 0.25, 0.0625, 0.315, 0.125, 0.3775, 0.1875, 0, 0.25, 0.0625, 0.315, 0.125, 0.3775, 0.1875, 0, 0.25, 0.0625, 0.315, 0.125, 0.3775, 0.1875, 0, 0.25, 0.0625, 0.315, 0.125, 0.3775, 0.1875, 0, 0.25, 0.0625, 0.315, 0.125, 0.3775, 0.1875],
  "SoftwareVersions": "syngo MR E11",
  "SpacingBetweenSlices": 2.7,
  "StationName": "AWP66112",
  "TaskName": "social",
  "TotalReadoutTime": 0.03969,
  "TxRefAmp": 252.715,
  "WipMemBlock": "00a88326-d564-4cc3-b3dc-6ba93a37cbd7||Sequence: R016 ve11e/master r/434b28f1; Aug  7 2019 18:53:46 by eja",
  "dcmmeta_affine": [
    [-2.6717703342437744, -0.10263907164335251, 0.22323451936244965, 113.6416244506836],
    [-0.09650381654500961, 2.6800637245178223, 0.07822882384061813, -94.73924255371094],
    [0.22456000745296478, -0.06943202018737793, 2.6896183490753174, -85.09545135498047],
    [0.0, 0.0, 0.0, 1.0]
],
  "dcmmeta_reorient_transform": [
    [0.0, -1.0, 0.0, 81.0],
    [1.0, 0.0, 0.0, 0.0],
    [0.0, 0.0, 1.0, 0.0],
    [0.0, 0.0, 0.0, 1.0]
],
  "dcmmeta_shape": [82, 82, 56, 872],
  "dcmmeta_slice_dim": 2,
  "dcmmeta_version": 0.6,
  "global": {
    "const": {
      "AccessionNumber": "A003911",
      "AcquisitionMatrix": [82, 0, 0, 82],
      "AngioFlag": "N",
      "BitsAllocated": 16,
      "BitsStored": 16,
      "BodyPartExamined": "BRAIN",
      "Columns": 656,
      "EchoNumbers": 1,
      "EchoTime": 27.2,
      "EchoTrainLength": 82,
      "FlipAngle": 44.0,
      "HighBit": 15,
      "ImageOrientationPatient": [0.99584163309541, 0.03596960293677, 0.08369963834116, -0.0382563801402, 0.9989327885278, 0.02587920753495],
      "ImagePositionPatient": [-842.66852231502, -919.2207704509, -175.0951581544],
      "ImageType": [
        "ORIGINAL",
        "PRIMARY",
        "M",
        "MB",
        "ND",
        "NORM",
        "MOSAIC"
],
      "ImagedNucleus": "1H",
      "ImagingFrequency": 123.25223,
      "InPlanePhaseEncodingDirection": "COL",
      "MRAcquisitionType": "2D",
      "MagneticFieldStrength": 3.0,
      "Manufacturer": "SIEMENS",
      "ManufacturerModelName": "Prisma",
      "Modality": "MR",
      "NumberOfAverages": 1.0,
      "NumberOfPhaseEncodingSteps": 82,
      "PercentPhaseFieldOfView": 100.0,
      "PercentSampling": 100.0,
      "PerformedProcedureStepStartTime": "182139.580000",
      "PhotometricInterpretation": "MONOCHROME2",
      "PixelBandwidth": 3050.0,
      "PixelRepresentation": 0,
      "PixelSpacing": [2.6829268932343, 2.6829268932343],
      "ProtocolName": "func_run-04_task-social_acq-ap-mb8",
      "RepetitionTime": 460.0,
      "Rows": 656,
      "SAR": 0.10299343490182,
      "SamplesPerPixel": 1,
      "ScanOptions": "FS",
      "ScanningSequence": "EP",
      "SequenceName": "epfid2d1_82",
      "SequenceVariant": [
        "SK",
        "SS"
],
      "SeriesDescription": "func_run-04_task-social_acq-ap-mb8",
      "SeriesNumber": 14,
      "SeriesTime": "185434.806000",
      "SliceLocation": -78.117366468575,
      "SliceThickness": 2.7000000476837,
      "SmallestImagePixelValue": 0,
      "SoftwareVersions": "syngo MR E11",
      "SpacingBetweenSlices": 2.7000000364328,
      "SpecificCharacterSet": "ISO_IR 100",
      "StudyID": "3",
      "StudyTime": "182139.425000",
      "TransmitCoilName": "Body",
      "VariableFlipAngleFlag": "N",
      "WindowCenterWidthExplanation": "Algo1"
    },
    "slices": {}
  },
  "time": {
    "samples": {
      "AcquisitionNumber": [1, 2, 3, 4, 5, 6, 7, 8, 9, 10, 11, 12, 13, 14, 15, 16, 17, 18, 19, 20, 21, 22, 23, 24, 25, 26, 27, 28, 29, 30, 31, 32, 33, 34, 35, 36, 37, 38, 39, 40, 41, 42, 43, 44, 45, 46, 47, 48, 49, 50, 51, 52, 53, 54, 55, 56, 57, 58, 59, 60, 61, 62, 63, 64, 65, 66, 67, 68, 69, 70, 71, 72, 73, 74, 75, 76, 77, 78, 79, 80, 81, 82, 83, 84, 85, 86, 87, 88, 89, 90, 91, 92, 93, 94, 95, 96, 97, 98, 99, 100, 101, 102, 103, 104, 105, 106, 107, 108, 109, 110, 111, 112, 113, 114, 115, 116, 117, 118, 119, 120, 121, 122, 123, 124, 125, 126, 127, 128, 129, 130, 131, 132, 133, 134, 135, 136, 137, 138, 139, 140, 141, 142, 143, 144, 145, 146, 147, 148, 149, 150, 151, 152, 153, 154, 155, 156, 157, 158, 159, 160, 161, 162, 163, 164, 165, 166, 167, 168, 169, 170, 171, 172, 173, 174, 175, 176, 177, 178, 179, 180, 181, 182, 183, 184, 185, 186, 187, 188, 189, 190, 191, 192, 193, 194, 195, 196, 197, 198, 199, 200, 201, 202, 203, 204, 205, 206, 207, 208, 209, 210, 211, 212, 213, 214, 215, 216, 217, 218, 219, 220, 221, 222, 223, 224, 225, 226, 227, 228, 229, 230, 231, 232, 233, 234, 235, 236, 237, 238, 239, 240, 241, 242, 243, 244, 245, 246, 247, 248, 249, 250, 251, 252, 253, 254, 255, 256, 257, 258, 259, 260, 261, 262, 263, 264, 265, 266, 267, 268, 269, 270, 271, 272, 273, 274, 275, 276, 277, 278, 279, 280, 281, 282, 283, 284, 285, 286, 287, 288, 289, 290, 291, 292, 293, 294, 295, 296, 297, 298, 299, 300, 301, 302, 303, 304, 305, 306, 307, 308, 309, 310, 311, 312, 313, 314, 315, 316, 317, 318, 319, 320, 321, 322, 323, 324, 325, 326, 327, 328, 329, 330, 331, 332, 333, 334, 335, 336, 337, 338, 339, 340, 341, 342, 343, 344, 345, 346, 347, 348, 349, 350, 351, 352, 353, 354, 355, 356, 357, 358, 359, 360, 361, 362, 363, 364, 365, 366, 367, 368, 369, 370, 371, 372, 373, 374, 375, 376, 377, 378, 379, 380, 381, 382, 383, 384, 385, 386, 387, 388, 389, 390, 391, 392, 393, 394, 395, 396, 397, 398, 399, 400, 401, 402, 403, 404, 405, 406, 407, 408, 409, 410, 411, 412, 413, 414, 415, 416, 417, 418, 419, 420, 421, 422, 423, 424, 425, 426, 427, 428, 429, 430, 431, 432, 433, 434, 435, 436, 437, 438, 439, 440, 441, 442, 443, 444, 445, 446, 447, 448, 449, 450, 451, 452, 453, 454, 455, 456, 457, 458, 459, 460, 461, 462, 463, 464, 465, 466, 467, 468, 469, 470, 471, 472, 473, 474, 475, 476, 477, 478, 479, 480, 481, 482, 483, 484, 485, 486, 487, 488, 489, 490, 491, 492, 493, 494, 495, 496, 497, 498, 499, 500, 501, 502, 503, 504, 505, 506, 507, 508, 509, 510, 511, 512, 513, 514, 515, 516, 517, 518, 519, 520, 521, 522, 523, 524, 525, 526, 527, 528, 529, 530, 531, 532, 533, 534, 535, 536, 537, 538, 539, 540, 541, 542, 543, 544, 545, 546, 547, 548, 549, 550, 551, 552, 553, 554, 555, 556, 557, 558, 559, 560, 561, 562, 563, 564, 565, 566, 567, 568, 569, 570, 571, 572, 573, 574, 575, 576, 577, 578, 579, 580, 581, 582, 583, 584, 585, 586, 587, 588, 589, 590, 591, 592, 593, 594, 595, 596, 597, 598, 599, 600, 601, 602, 603, 604, 605, 606, 607, 608, 609, 610, 611, 612, 613, 614, 615, 616, 617, 618, 619, 620, 621, 622, 623, 624, 625, 626, 627, 628, 629, 630, 631, 632, 633, 634, 635, 636, 637, 638, 639, 640, 641, 642, 643, 644, 645, 646, 647, 648, 649, 650, 651, 652, 653, 654, 655, 656, 657, 658, 659, 660, 661, 662, 663, 664, 665, 666, 667, 668, 669, 670, 671, 672, 673, 674, 675, 676, 677, 678, 679, 680, 681, 682, 683, 684, 685, 686, 687, 688, 689, 690, 691, 692, 693, 694, 695, 696, 697, 698, 699, 700, 701, 702, 703, 704, 705, 706, 707, 708, 709, 710, 711, 712, 713, 714, 715, 716, 717, 718, 719, 720, 721, 722, 723, 724, 725, 726, 727, 728, 729, 730, 731, 732, 733, 734, 735, 736, 737, 738, 739, 740, 741, 742, 743, 744, 745, 746, 747, 748, 749, 750, 751, 752, 753, 754, 755, 756, 757, 758, 759, 760, 761, 762, 763, 764, 765, 766, 767, 768, 769, 770, 771, 772, 773, 774, 775, 776, 777, 778, 779, 780, 781, 782, 783, 784, 785, 786, 787, 788, 789, 790, 791, 792, 793, 794, 795, 796, 797, 798, 799, 800, 801, 802, 803, 804, 805, 806, 807, 808, 809, 810, 811, 812, 813, 814, 815, 816, 817, 818, 819, 820, 821, 822, 823, 824, 825, 826, 827, 828, 829, 830, 831, 832, 833, 834, 835, 836, 837, 838, 839, 840, 841, 842, 843, 844, 845, 846, 847, 848, 849, 850, 851, 852, 853, 854, 855, 856, 857, 858, 859, 860, 861, 862, 863, 864, 865, 866, 867, 868, 869, 870, 871, 872],
      "AcquisitionTime": ["185413.617500", "185414.077500", "185414.537500", "185414.997500", "185415.457500", "185415.917500", "185416.377500", "185416.837500", "185417.297500", "185417.757500", "185418.217500", "185418.677500", "185419.137500", "185419.597500", "185420.057500", "185420.517500", "185420.977500", "185421.437500", "185421.897500", "185422.357500", "185422.817500", "185423.277500", "185423.737500", "185424.197500", "185424.657500", "185425.117500", "185425.577500", "185426.037500", "185426.497500", "185426.957500", "185427.417500", "185427.877500", "185428.337500", "185428.797500", "185429.257500", "185429.717500", "185430.177500", "185430.637500", "185431.097500", "185431.557500", "185432.017500", "185432.477500", "185432.937500", "185433.397500", "185433.857500", "185434.317500", "185434.777500", "185435.237500", "185435.697500", "185436.157500", "185436.617500", "185437.077500", "185437.537500", "185437.997500", "185438.457500", "185438.917500", "185439.377500", "185439.837500", "185440.297500", "185440.757500", "185441.217500", "185441.677500", "185442.137500", "185442.597500", "185443.057500", "185443.517500", "185443.977500", "185444.437500", "185444.897500", "185445.357500", "185445.817500", "185446.277500", "185446.737500", "185447.197500", "185447.657500", "185448.117500", "185448.577500", "185449.037500", "185449.497500", "185449.957500", "185450.417500", "185450.877500", "185451.337500", "185451.797500", "185452.257500", "185452.717500", "185453.177500", "185453.637500", "185454.097500", "185454.557500", "185455.017500", "185455.477500", "185455.937500", "185456.397500", "185456.857500", "185457.317500", "185457.777500", "185458.237500", "185458.697500", "185459.157500", "185459.617500", "185500.077500", "185500.537500", "185500.997500", "185501.457500", "185501.917500", "185502.377500", "185502.837500", "185503.297500", "185503.757500", "185504.217500", "185504.677500", "185505.137500", "185505.597500", "185506.057500", "185506.517500", "185506.977500", "185507.437500", "185507.897500", "185508.357500", "185508.817500", "185509.277500", "185509.737500", "185510.197500", "185510.657500", "185511.117500", "185511.577500", "185512.037500", "185512.497500", "185512.957500", "185513.417500", "185513.877500", "185514.337500", "185514.797500", "185515.257500", "185515.717500", "185516.177500", "185516.637500", "185517.097500", "185517.557500", "185518.017500", "185518.477500", "185518.937500", "185519.397500", "185519.857500", "185520.317500", "185520.777500", "185521.237500", "185521.697500", "185522.157500", "185522.617500", "185523.077500", "185523.537500", "185523.997500", "185524.457500", "185524.917500", "185525.377500", "185525.837500", "185526.297500", "185526.757500", "185527.217500", "185527.677500", "185528.137500", "185528.597500", "185529.057500", "185529.517500", "185529.977500", "185530.437500", "185530.897500", "185531.357500", "185531.817500", "185532.277500", "185532.737500", "185533.197500", "185533.657500", "185534.117500", "185534.577500", "185535.037500", "185535.497500", "185535.957500", "185536.417500", "185536.877500", "185537.337500", "185537.797500", "185538.257500", "185538.717500", "185539.177500", "185539.637500", "185540.097500", "185540.557500", "185541.017500", "185541.477500", "185541.937500", "185542.397500", "185542.857500", "185543.317500", "185543.777500", "185544.237500", "185544.697500", "185545.157500", "185545.617500", "185546.077500", "185546.537500", "185546.997500", "185547.457500", "185547.917500", "185548.377500", "185548.837500", "185549.297500", "185549.757500", "185550.217500", "185550.677500", "185551.137500", "185551.597500", "185552.057500", "185552.517500", "185552.977500", "185553.437500", "185553.897500", "185554.357500", "185554.817500", "185555.277500", "185555.737500", "185556.197500", "185556.657500", "185557.117500", "185557.577500", "185558.037500", "185558.497500", "185558.957500", "185559.417500", "185559.877500", "185600.337500", "185600.797500", "185601.257500", "185601.717500", "185602.177500", "185602.637500", "185603.097500", "185603.557500", "185604.017500", "185604.477500", "185604.937500", "185605.397500", "185605.857500", "185606.317500", "185606.777500", "185607.237500", "185607.697500", "185608.157500", "185608.617500", "185609.077500", "185609.537500", "185609.997500", "185610.457500", "185610.917500", "185611.377500", "185611.837500", "185612.297500", "185612.757500", "185613.217500", "185613.677500", "185614.137500", "185614.597500", "185615.057500", "185615.517500", "185615.977500", "185616.437500", "185616.897500", "185617.357500", "185617.817500", "185618.277500", "185618.737500", "185619.197500", "185619.657500", "185620.117500", "185620.577500", "185621.037500", "185621.497500", "185621.957500", "185622.417500", "185622.877500", "185623.337500", "185623.797500", "185624.257500", "185624.717500", "185625.177500", "185625.637500", "185626.097500", "185626.557500", "185627.017500", "185627.477500", "185627.937500", "185628.397500", "185628.857500", "185629.317500", "185629.777500", "185630.237500", "185630.697500", "185631.157500", "185631.617500", "185632.077500", "185632.537500", "185632.997500", "185633.457500", "185633.917500", "185634.377500", "185634.837500", "185635.297500", "185635.757500", "185636.217500", "185636.677500", "185637.137500", "185637.597500", "185638.057500", "185638.517500", "185638.977500", "185639.437500", "185639.897500", "185640.357500", "185640.817500", "185641.277500", "185641.737500", "185642.197500", "185642.657500", "185643.117500", "185643.577500", "185644.037500", "185644.497500", "185644.957500", "185645.417500", "185645.877500", "185646.337500", "185646.797500", "185647.257500", "185647.717500", "185648.177500", "185648.637500", "185649.097500", "185649.557500", "185650.017500", "185650.477500", "185650.937500", "185651.397500", "185651.857500", "185652.317500", "185652.777500", "185653.237500", "185653.697500", "185654.157500", "185654.617500", "185655.077500", "185655.537500", "185655.997500", "185656.457500", "185656.917500", "185657.377500", "185657.837500", "185658.297500", "185658.757500", "185659.217500", "185659.677500", "185700.137500", "185700.597500", "185701.057500", "185701.517500", "185701.977500", "185702.437500", "185702.897500", "185703.357500", "185703.817500", "185704.277500", "185704.737500", "185705.197500", "185705.657500", "185706.117500", "185706.577500", "185707.037500", "185707.497500", "185707.957500", "185708.417500", "185708.877500", "185709.337500", "185709.797500", "185710.257500", "185710.717500", "185711.177500", "185711.637500", "185712.097500", "185712.557500", "185713.017500", "185713.477500", "185713.937500", "185714.397500", "185714.857500", "185715.317500", "185715.777500", "185716.237500", "185716.697500", "185717.157500", "185717.617500", "185718.077500", "185718.537500", "185718.997500", "185719.457500", "185719.917500", "185720.377500", "185720.837500", "185721.297500", "185721.757500", "185722.217500", "185722.677500", "185723.137500", "185723.597500", "185724.057500", "185724.517500", "185724.977500", "185725.437500", "185725.897500", "185726.357500", "185726.817500", "185727.277500", "185727.737500", "185728.197500", "185728.657500", "185729.117500", "185729.577500", "185730.037500", "185730.497500", "185730.957500", "185731.417500", "185731.877500", "185732.337500", "185732.797500", "185733.257500", "185733.717500", "185734.177500", "185734.637500", "185735.097500", "185735.557500", "185736.017500", "185736.477500", "185736.937500", "185737.397500", "185737.857500", "185738.317500", "185738.777500", "185739.237500", "185739.697500", "185740.157500", "185740.617500", "185741.077500", "185741.537500", "185741.997500", "185742.457500", "185742.917500", "185743.377500", "185743.837500", "185744.297500", "185744.757500", "185745.217500", "185745.677500", "185746.137500", "185746.597500", "185747.057500", "185747.517500", "185747.977500", "185748.437500", "185748.897500", "185749.357500", "185749.817500", "185750.277500", "185750.737500", "185751.197500", "185751.657500", "185752.117500", "185752.577500", "185753.037500", "185753.497500", "185753.957500", "185754.417500", "185754.877500", "185755.337500", "185755.797500", "185756.257500", "185756.717500", "185757.177500", "185757.637500", "185758.097500", "185758.557500", "185759.017500", "185759.477500", "185759.937500", "185800.397500", "185800.857500", "185801.317500", "185801.777500", "185802.237500", "185802.697500", "185803.157500", "185803.617500", "185804.077500", "185804.537500", "185804.997500", "185805.457500", "185805.917500", "185806.377500", "185806.837500", "185807.297500", "185807.757500", "185808.217500", "185808.677500", "185809.137500", "185809.597500", "185810.057500", "185810.517500", "185810.977500", "185811.437500", "185811.897500", "185812.357500", "185812.817500", "185813.277500", "185813.737500", "185814.197500", "185814.657500", "185815.117500", "185815.577500", "185816.037500", "185816.497500", "185816.957500", "185817.417500", "185817.877500", "185818.337500", "185818.797500", "185819.257500", "185819.717500", "185820.177500", "185820.637500", "185821.097500", "185821.557500", "185822.017500", "185822.477500", "185822.937500", "185823.397500", "185823.857500", "185824.317500", "185824.777500", "185825.237500", "185825.697500", "185826.157500", "185826.617500", "185827.077500", "185827.537500", "185827.997500", "185828.457500", "185828.917500", "185829.377500", "185829.837500", "185830.297500", "185830.757500", "185831.217500", "185831.677500", "185832.137500", "185832.597500", "185833.057500", "185833.517500", "185833.977500", "185834.437500", "185834.897500", "185835.357500", "185835.817500", "185836.277500", "185836.737500", "185837.197500", "185837.657500", "185838.117500", "185838.577500", "185839.037500", "185839.497500", "185839.957500", "185840.417500", "185840.877500", "185841.337500", "185841.797500", "185842.257500", "185842.717500", "185843.177500", "185843.637500", "185844.097500", "185844.557500", "185845.017500", "185845.477500", "185845.937500", "185846.397500", "185846.857500", "185847.317500", "185847.777500", "185848.237500", "185848.697500", "185849.157500", "185849.617500", "185850.077500", "185850.537500", "185850.997500", "185851.457500", "185851.917500", "185852.377500", "185852.837500", "185853.297500", "185853.757500", "185854.217500", "185854.677500", "185855.137500", "185855.597500", "185856.057500", "185856.517500", "185856.977500", "185857.437500", "185857.897500", "185858.357500", "185858.817500", "185859.277500", "185859.737500", "185900.197500", "185900.657500", "185901.117500", "185901.577500", "185902.037500", "185902.497500", "185902.957500", "185903.417500", "185903.877500", "185904.337500", "185904.797500", "185905.257500", "185905.717500", "185906.177500", "185906.637500", "185907.097500", "185907.557500", "185908.017500", "185908.477500", "185908.937500", "185909.397500", "185909.857500", "185910.317500", "185910.777500", "185911.237500", "185911.697500", "185912.157500", "185912.617500", "185913.077500", "185913.537500", "185913.997500", "185914.457500", "185914.917500", "185915.377500", "185915.837500", "185916.297500", "185916.757500", "185917.217500", "185917.677500", "185918.137500", "185918.597500", "185919.057500", "185919.517500", "185919.977500", "185920.437500", "185920.897500", "185921.357500", "185921.817500", "185922.277500", "185922.737500", "185923.197500", "185923.657500", "185924.117500", "185924.577500", "185925.037500", "185925.497500", "185925.957500", "185926.417500", "185926.877500", "185927.337500", "185927.797500", "185928.257500", "185928.717500", "185929.177500", "185929.637500", "185930.097500", "185930.557500", "185931.017500", "185931.477500", "185931.937500", "185932.397500", "185932.857500", "185933.317500", "185933.777500", "185934.237500", "185934.697500", "185935.157500", "185935.617500", "185936.077500", "185936.537500", "185936.997500", "185937.457500", "185937.917500", "185938.377500", "185938.837500", "185939.297500", "185939.757500", "185940.217500", "185940.677500", "185941.137500", "185941.597500", "185942.057500", "185942.517500", "185942.977500", "185943.437500", "185943.897500", "185944.357500", "185944.817500", "185945.277500", "185945.737500", "185946.197500", "185946.657500", "185947.117500", "185947.577500", "185948.037500", "185948.497500", "185948.957500", "185949.417500", "185949.877500", "185950.337500", "185950.797500", "185951.257500", "185951.717500", "185952.177500", "185952.637500", "185953.097500", "185953.557500", "185954.017500", "185954.477500", "185954.937500", "185955.397500", "185955.857500", "185956.317500", "185956.777500", "185957.237500", "185957.697500", "185958.157500", "185958.617500", "185959.077500", "185959.537500", "185959.997500", "190000.457500", "190000.917500", "190001.377500", "190001.837500", "190002.297500", "190002.757500", "190003.217500", "190003.677500", "190004.137500", "190004.597500", "190005.057500", "190005.517500", "190005.977500", "190006.437500", "190006.897500", "190007.357500", "190007.817500", "190008.277500", "190008.737500", "190009.197500", "190009.657500", "190010.117500", "190010.577500", "190011.037500", "190011.497500", "190011.957500", "190012.417500", "190012.877500", "190013.337500", "190013.797500", "190014.257500", "190014.717500", "190015.177500", "190015.637500", "190016.097500", "190016.557500", "190017.017500", "190017.477500", "190017.937500", "190018.397500", "190018.857500", "190019.317500", "190019.777500", "190020.237500", "190020.697500", "190021.157500", "190021.617500", "190022.077500", "190022.537500", "190022.997500", "190023.457500", "190023.917500", "190024.377500", "190024.837500", "190025.297500", "190025.757500", "190026.217500", "190026.677500", "190027.137500", "190027.597500", "190028.057500", "190028.517500", "190028.977500", "190029.437500", "190029.897500", "190030.357500", "190030.817500", "190031.277500", "190031.737500", "190032.197500", "190032.657500", "190033.117500", "190033.577500", "190034.037500", "190034.497500", "190034.957500", "190035.417500", "190035.877500", "190036.337500", "190036.797500", "190037.257500", "190037.717500", "190038.177500", "190038.637500", "190039.097500", "190039.557500", "190040.017500", "190040.477500", "190040.937500", "190041.397500", "190041.857500", "190042.317500", "190042.777500", "190043.237500", "190043.697500", "190044.157500", "190044.617500", "190045.077500", "190045.537500", "190045.997500", "190046.457500", "190046.917500", "190047.377500", "190047.837500", "190048.297500", "190048.757500", "190049.217500", "190049.677500", "190050.137500", "190050.597500", "190051.057500", "190051.517500", "190051.977500", "190052.437500", "190052.897500", "190053.357500", "190053.817500", "190054.277500"],
