{
  "AcquisitionMatrixPE": 82,
  "AcquisitionNumber": 1,
  "AcquisitionTime": "17:07:49.792500",
  "BandwidthPerPixelPhaseEncode": 24.888,
  "BaseResolution": 82,
  "BodyPartExamined": "BRAIN",
  "ConsistencyInfo": "N4_VE11E_LATEST_20181129",
  "ConversionSoftware": "dcm2niix",
  "ConversionSoftwareVersion": "v1.0.20201102",
  "DerivedVendorReportedEchoSpacing": 0.00049,
  "DeviceSerialNumber": "66112",
  "DwellTime": 2e-06,
  "EchoTime": 0.0272,
  "EchoTrainLength": 82,
  "EffectiveEchoSpacing": 0.00049,
  "FlipAngle": 44,
  "ImageComments": "Unaliased MB8/PE3",
  "ImageOrientationPatientDICOM": [0.999478, -0.0315396, -0.00696596, 0.032283, 0.982382, 0.184074],
  "ImageType": [
    "ORIGINAL",
    "PRIMARY",
    "M",
    "MB",
    "ND",
    "NORM",
    "MOSAIC"
],
  "ImagingFrequency": 123.259,
  "InPlanePhaseEncodingDirectionDICOM": "COL",
  "InstitutionAddress": "Maynard 3,Hanover,NH,US,03755",
  "InstitutionName": "Dartmouth College - PBS",
  "InstitutionalDepartmentName": "Department",
  "MRAcquisitionType": "2D",
  "MagneticFieldStrength": 3,
  "Manufacturer": "Siemens",
  "ManufacturersModelName": "Prisma",
  "Modality": "MR",
  "MultibandAccelerationFactor": 8,
  "PartialFourier": 1,
  "PatientPosition": "HFS",
  "PercentPhaseFOV": 100,
  "PercentSampling": 100,
  "PhaseEncodingDirection": "j-",
  "PhaseEncodingSteps": 82,
  "PhaseResolution": 1,
  "PixelBandwidth": 3050,
  "ProcedureStepDescription": "Wager_Wager^1076_spacetop",
  "ProtocolName": "func_run-01_task-social_acq-ap-mb8",
  "PulseSequenceDetails": "%CustomerSeq%\\cmrr_mbep2d_bold",
  "ReceiveCoilActiveElements": "HEA;HEP",
  "ReceiveCoilName": "Head_32",
  "ReconMatrixPE": 82,
  "RepetitionTime": 0.46,
  "SAR": 0.0957692,
  "ScanOptions": "FS",
  "ScanningSequence": "EP",
  "SequenceName": "epfid2d1_82",
  "SequenceVariant": "SK\\SS",
  "SeriesDescription": "func_run-01_task-social_acq-ap-mb8",
  "SeriesNumber": 12,
  "ShimSetting": [4246, -7909, -7263, 502, -140, -385, 251, 143],
  "SliceThickness": 2.7,
  "SliceTiming": [0, 0.25, 0.0625, 0.3125, 0.125, 0.375, 0.1875, 0, 0.25, 0.0625, 0.3125, 0.125, 0.375, 0.1875, 0, 0.25, 0.0625, 0.3125, 0.125, 0.375, 0.1875, 0, 0.25, 0.0625, 0.3125, 0.125, 0.375, 0.1875, 0, 0.25, 0.0625, 0.3125, 0.125, 0.375, 0.1875, 0, 0.25, 0.0625, 0.3125, 0.125, 0.375, 0.1875, 0, 0.25, 0.0625, 0.3125, 0.125, 0.375, 0.1875, 0, 0.25, 0.0625, 0.3125, 0.125, 0.375, 0.1875],
  "SoftwareVersions": "syngo MR E11",
  "SpacingBetweenSlices": 2.7,
  "StationName": "AWP66112",
  "TaskName": "social",
  "TotalReadoutTime": 0.03969,
  "TxRefAmp": 246.339,
  "WipMemBlock": "96f464e4-2b24-45c0-8d79-3ee1ef75dba4||Sequence: R016 ve11e/master r/434b28f1; Aug  7 2019 18:53:46 by eja",
  "dcmmeta_affine": [
    [-2.6815271377563477, 0.08661296218633652, -0.0028015945572406054, 108.190185546875],
    [0.08461838215589523, 2.6356594562530518, 0.4973468780517578, -115.98530578613281],
    [-0.01868916116654873, -0.4938563108444214, 2.653796911239624, -47.17774963378906],
    [0.0, 0.0, 0.0, 1.0]
],
  "dcmmeta_reorient_transform": [
    [0.0, -1.0, 0.0, 81.0],
    [1.0, 0.0, 0.0, 0.0],
    [0.0, 0.0, 1.0, 0.0],
    [0.0, 0.0, 0.0, 1.0]
],
  "dcmmeta_shape": [82, 82, 56, 872],
  "dcmmeta_slice_dim": 2,
  "dcmmeta_version": 0.6,
  "global": {
    "const": {
      "AccessionNumber": "A004687",
      "AcquisitionMatrix": [82, 0, 0, 82],
      "AngioFlag": "N",
      "BitsAllocated": 16,
      "BitsStored": 16,
      "BodyPartExamined": "BRAIN",
      "Columns": 656,
      "EchoNumbers": 1,
      "EchoTime": 27.2,
      "EchoTrainLength": 82,
      "FlipAngle": 44.0,
      "HighBit": 15,
      "ImageOrientationPatient": [0.99947822911916, -0.0315395770368, -0.0069659598884, 0.03228301172158, 0.9823821434263, 0.18407371195074],
      "ImagePositionPatient": [-909.66200860926, -829.65190546575, -223.55308297703],
      "ImageType": [
        "ORIGINAL",
        "PRIMARY",
        "M",
        "MB",
        "ND",
        "NORM",
        "MOSAIC"
],
      "ImagedNucleus": "1H",
      "ImagingFrequency": 123.259092,
      "InPlanePhaseEncodingDirection": "COL",
      "MRAcquisitionType": "2D",
      "MagneticFieldStrength": 3.0,
      "Manufacturer": "SIEMENS",
      "ManufacturerModelName": "Prisma",
      "Modality": "MR",
      "NumberOfAverages": 1.0,
      "NumberOfPhaseEncodingSteps": 82,
      "PercentPhaseFieldOfView": 100.0,
      "PercentSampling": 100.0,
      "PerformedProcedureStepStartTime": "162612.444000",
      "PhotometricInterpretation": "MONOCHROME2",
      "PixelBandwidth": 3050.0,
      "PixelRepresentation": 0,
      "PixelSpacing": [2.6829268932343, 2.6829268932343],
      "ProtocolName": "func_run-01_task-social_acq-ap-mb8",
      "RepetitionTime": 460.0,
      "Rows": 656,
      "SAR": 0.09576920865824,
      "SamplesPerPixel": 1,
      "ScanOptions": "FS",
      "ScanningSequence": "EP",
      "SequenceName": "epfid2d1_82",
      "SequenceVariant": [
        "SK",
        "SS"
],
      "SeriesDescription": "func_run-01_task-social_acq-ap-mb8",
      "SeriesNumber": 12,
      "SeriesTime": "170807.936000",
      "SliceLocation": -67.84748237594,
      "SliceThickness": 2.7000000476837,
      "SmallestImagePixelValue": 0,
      "SoftwareVersions": "syngo MR E11",
      "SpacingBetweenSlices": 2.699999995025,
      "SpecificCharacterSet": "ISO_IR 100",
      "StudyID": "2",
      "StudyTime": "162612.374000",
      "TransmitCoilName": "Body",
      "VariableFlipAngleFlag": "N",
      "WindowCenterWidthExplanation": "Algo1"
    },
    "slices": {}
  },
  "time": {
    "samples": {
      "AcquisitionNumber": [1, 2, 3, 4, 5, 6, 7, 8, 9, 10, 11, 12, 13, 14, 15, 16, 17, 18, 19, 20, 21, 22, 23, 24, 25, 26, 27, 28, 29, 30, 31, 32, 33, 34, 35, 36, 37, 38, 39, 40, 41, 42, 43, 44, 45, 46, 47, 48, 49, 50, 51, 52, 53, 54, 55, 56, 57, 58, 59, 60, 61, 62, 63, 64, 65, 66, 67, 68, 69, 70, 71, 72, 73, 74, 75, 76, 77, 78, 79, 80, 81, 82, 83, 84, 85, 86, 87, 88, 89, 90, 91, 92, 93, 94, 95, 96, 97, 98, 99, 100, 101, 102, 103, 104, 105, 106, 107, 108, 109, 110, 111, 112, 113, 114, 115, 116, 117, 118, 119, 120, 121, 122, 123, 124, 125, 126, 127, 128, 129, 130, 131, 132, 133, 134, 135, 136, 137, 138, 139, 140, 141, 142, 143, 144, 145, 146, 147, 148, 149, 150, 151, 152, 153, 154, 155, 156, 157, 158, 159, 160, 161, 162, 163, 164, 165, 166, 167, 168, 169, 170, 171, 172, 173, 174, 175, 176, 177, 178, 179, 180, 181, 182, 183, 184, 185, 186, 187, 188, 189, 190, 191, 192, 193, 194, 195, 196, 197, 198, 199, 200, 201, 202, 203, 204, 205, 206, 207, 208, 209, 210, 211, 212, 213, 214, 215, 216, 217, 218, 219, 220, 221, 222, 223, 224, 225, 226, 227, 228, 229, 230, 231, 232, 233, 234, 235, 236, 237, 238, 239, 240, 241, 242, 243, 244, 245, 246, 247, 248, 249, 250, 251, 252, 253, 254, 255, 256, 257, 258, 259, 260, 261, 262, 263, 264, 265, 266, 267, 268, 269, 270, 271, 272, 273, 274, 275, 276, 277, 278, 279, 280, 281, 282, 283, 284, 285, 286, 287, 288, 289, 290, 291, 292, 293, 294, 295, 296, 297, 298, 299, 300, 301, 302, 303, 304, 305, 306, 307, 308, 309, 310, 311, 312, 313, 314, 315, 316, 317, 318, 319, 320, 321, 322, 323, 324, 325, 326, 327, 328, 329, 330, 331, 332, 333, 334, 335, 336, 337, 338, 339, 340, 341, 342, 343, 344, 345, 346, 347, 348, 349, 350, 351, 352, 353, 354, 355, 356, 357, 358, 359, 360, 361, 362, 363, 364, 365, 366, 367, 368, 369, 370, 371, 372, 373, 374, 375, 376, 377, 378, 379, 380, 381, 382, 383, 384, 385, 386, 387, 388, 389, 390, 391, 392, 393, 394, 395, 396, 397, 398, 399, 400, 401, 402, 403, 404, 405, 406, 407, 408, 409, 410, 411, 412, 413, 414, 415, 416, 417, 418, 419, 420, 421, 422, 423, 424, 425, 426, 427, 428, 429, 430, 431, 432, 433, 434, 435, 436, 437, 438, 439, 440, 441, 442, 443, 444, 445, 446, 447, 448, 449, 450, 451, 452, 453, 454, 455, 456, 457, 458, 459, 460, 461, 462, 463, 464, 465, 466, 467, 468, 469, 470, 471, 472, 473, 474, 475, 476, 477, 478, 479, 480, 481, 482, 483, 484, 485, 486, 487, 488, 489, 490, 491, 492, 493, 494, 495, 496, 497, 498, 499, 500, 501, 502, 503, 504, 505, 506, 507, 508, 509, 510, 511, 512, 513, 514, 515, 516, 517, 518, 519, 520, 521, 522, 523, 524, 525, 526, 527, 528, 529, 530, 531, 532, 533, 534, 535, 536, 537, 538, 539, 540, 541, 542, 543, 544, 545, 546, 547, 548, 549, 550, 551, 552, 553, 554, 555, 556, 557, 558, 559, 560, 561, 562, 563, 564, 565, 566, 567, 568, 569, 570, 571, 572, 573, 574, 575, 576, 577, 578, 579, 580, 581, 582, 583, 584, 585, 586, 587, 588, 589, 590, 591, 592, 593, 594, 595, 596, 597, 598, 599, 600, 601, 602, 603, 604, 605, 606, 607, 608, 609, 610, 611, 612, 613, 614, 615, 616, 617, 618, 619, 620, 621, 622, 623, 624, 625, 626, 627, 628, 629, 630, 631, 632, 633, 634, 635, 636, 637, 638, 639, 640, 641, 642, 643, 644, 645, 646, 647, 648, 649, 650, 651, 652, 653, 654, 655, 656, 657, 658, 659, 660, 661, 662, 663, 664, 665, 666, 667, 668, 669, 670, 671, 672, 673, 674, 675, 676, 677, 678, 679, 680, 681, 682, 683, 684, 685, 686, 687, 688, 689, 690, 691, 692, 693, 694, 695, 696, 697, 698, 699, 700, 701, 702, 703, 704, 705, 706, 707, 708, 709, 710, 711, 712, 713, 714, 715, 716, 717, 718, 719, 720, 721, 722, 723, 724, 725, 726, 727, 728, 729, 730, 731, 732, 733, 734, 735, 736, 737, 738, 739, 740, 741, 742, 743, 744, 745, 746, 747, 748, 749, 750, 751, 752, 753, 754, 755, 756, 757, 758, 759, 760, 761, 762, 763, 764, 765, 766, 767, 768, 769, 770, 771, 772, 773, 774, 775, 776, 777, 778, 779, 780, 781, 782, 783, 784, 785, 786, 787, 788, 789, 790, 791, 792, 793, 794, 795, 796, 797, 798, 799, 800, 801, 802, 803, 804, 805, 806, 807, 808, 809, 810, 811, 812, 813, 814, 815, 816, 817, 818, 819, 820, 821, 822, 823, 824, 825, 826, 827, 828, 829, 830, 831, 832, 833, 834, 835, 836, 837, 838, 839, 840, 841, 842, 843, 844, 845, 846, 847, 848, 849, 850, 851, 852, 853, 854, 855, 856, 857, 858, 859, 860, 861, 862, 863, 864, 865, 866, 867, 868, 869, 870, 871, 872],
      "AcquisitionTime": ["170749.792500", "170750.252500", "170750.712500", "170751.172500", "170751.632500", "170752.092500", "170752.552500", "170753.012500", "170753.472500", "170753.932500", "170754.392500", "170754.852500", "170755.312500", "170755.772500", "170756.232500", "170756.692500", "170757.152500", "170757.612500", "170758.072500", "170758.532500", "170758.992500", "170759.452500", "170759.912500", "170800.372500", "170800.832500", "170801.292500", "170801.752500", "170802.212500", "170802.672500", "170803.132500", "170803.592500", "170804.052500", "170804.512500", "170804.972500", "170805.432500", "170805.892500", "170806.352500", "170806.812500", "170807.272500", "170807.732500", "170808.192500", "170808.652500", "170809.112500", "170809.572500", "170810.032500", "170810.492500", "170810.952500", "170811.412500", "170811.872500", "170812.332500", "170812.792500", "170813.252500", "170813.712500", "170814.172500", "170814.632500", "170815.092500", "170815.552500", "170816.012500", "170816.472500", "170816.932500", "170817.392500", "170817.852500", "170818.312500", "170818.772500", "170819.232500", "170819.692500", "170820.152500", "170820.612500", "170821.072500", "170821.532500", "170821.992500", "170822.452500", "170822.912500", "170823.372500", "170823.832500", "170824.292500", "170824.752500", "170825.212500", "170825.672500", "170826.132500", "170826.592500", "170827.052500", "170827.512500", "170827.972500", "170828.432500", "170828.892500", "170829.352500", "170829.812500", "170830.272500", "170830.732500", "170831.192500", "170831.652500", "170832.112500", "170832.572500", "170833.032500", "170833.492500", "170833.952500", "170834.412500", "170834.872500", "170835.332500", "170835.792500", "170836.252500", "170836.712500", "170837.172500", "170837.632500", "170838.092500", "170838.552500", "170839.012500", "170839.472500", "170839.932500", "170840.392500", "170840.852500", "170841.312500", "170841.772500", "170842.232500", "170842.692500", "170843.152500", "170843.612500", "170844.072500", "170844.532500", "170844.992500", "170845.452500", "170845.912500", "170846.372500", "170846.832500", "170847.292500", "170847.752500", "170848.212500", "170848.672500", "170849.132500", "170849.592500", "170850.052500", "170850.512500", "170850.972500", "170851.432500", "170851.892500", "170852.352500", "170852.812500", "170853.272500", "170853.732500", "170854.192500", "170854.652500", "170855.112500", "170855.572500", "170856.032500", "170856.492500", "170856.952500", "170857.412500", "170857.872500", "170858.332500", "170858.792500", "170859.252500", "170859.712500", "170900.172500", "170900.632500", "170901.092500", "170901.552500", "170902.012500", "170902.472500", "170902.932500", "170903.392500", "170903.852500", "170904.312500", "170904.772500", "170905.232500", "170905.692500", "170906.152500", "170906.612500", "170907.072500", "170907.532500", "170907.992500", "170908.452500", "170908.912500", "170909.372500", "170909.832500", "170910.292500", "170910.752500", "170911.212500", "170911.672500", "170912.132500", "170912.592500", "170913.052500", "170913.512500", "170913.972500", "170914.432500", "170914.892500", "170915.352500", "170915.812500", "170916.272500", "170916.732500", "170917.192500", "170917.652500", "170918.112500", "170918.572500", "170919.032500", "170919.492500", "170919.952500", "170920.412500", "170920.872500", "170921.332500", "170921.792500", "170922.252500", "170922.712500", "170923.172500", "170923.632500", "170924.092500", "170924.552500", "170925.012500", "170925.472500", "170925.932500", "170926.392500", "170926.852500", "170927.312500", "170927.772500", "170928.232500", "170928.692500", "170929.152500", "170929.612500", "170930.072500", "170930.532500", "170930.992500", "170931.452500", "170931.912500", "170932.372500", "170932.832500", "170933.292500", "170933.752500", "170934.212500", "170934.672500", "170935.132500", "170935.592500", "170936.052500", "170936.512500", "170936.972500", "170937.432500", "170937.892500", "170938.352500", "170938.812500", "170939.272500", "170939.732500", "170940.192500", "170940.652500", "170941.112500", "170941.572500", "170942.032500", "170942.492500", "170942.952500", "170943.412500", "170943.872500", "170944.332500", "170944.792500", "170945.252500", "170945.712500", "170946.172500", "170946.632500", "170947.092500", "170947.552500", "170948.012500", "170948.472500", "170948.932500", "170949.392500", "170949.852500", "170950.312500", "170950.772500", "170951.232500", "170951.692500", "170952.152500", "170952.612500", "170953.072500", "170953.532500", "170953.992500", "170954.452500", "170954.912500", "170955.372500", "170955.832500", "170956.292500", "170956.752500", "170957.212500", "170957.672500", "170958.132500", "170958.592500", "170959.052500", "170959.512500", "170959.972500", "171000.432500", "171000.892500", "171001.352500", "171001.812500", "171002.272500", "171002.732500", "171003.192500", "171003.652500", "171004.112500", "171004.572500", "171005.032500", "171005.492500", "171005.952500", "171006.412500", "171006.872500", "171007.332500", "171007.792500", "171008.252500", "171008.712500", "171009.172500", "171009.632500", "171010.092500", "171010.552500", "171011.012500", "171011.472500", "171011.932500", "171012.392500", "171012.852500", "171013.312500", "171013.772500", "171014.232500", "171014.692500", "171015.152500", "171015.612500", "171016.072500", "171016.532500", "171016.992500", "171017.452500", "171017.912500", "171018.372500", "171018.832500", "171019.292500", "171019.752500", "171020.212500", "171020.672500", "171021.132500", "171021.592500", "171022.052500", "171022.512500", "171022.972500", "171023.432500", "171023.892500", "171024.352500", "171024.812500", "171025.272500", "171025.732500", "171026.192500", "171026.652500", "171027.112500", "171027.572500", "171028.032500", "171028.492500", "171028.952500", "171029.412500", "171029.872500", "171030.332500", "171030.792500", "171031.252500", "171031.712500", "171032.172500", "171032.632500", "171033.092500", "171033.552500", "171034.012500", "171034.472500", "171034.932500", "171035.392500", "171035.852500", "171036.312500", "171036.772500", "171037.232500", "171037.692500", "171038.152500", "171038.612500", "171039.072500", "171039.532500", "171039.992500", "171040.452500", "171040.912500", "171041.372500", "171041.832500", "171042.292500", "171042.752500", "171043.212500", "171043.672500", "171044.132500", "171044.592500", "171045.052500", "171045.512500", "171045.972500", "171046.432500", "171046.892500", "171047.352500", "171047.812500", "171048.272500", "171048.732500", "171049.192500", "171049.652500", "171050.112500", "171050.572500", "171051.032500", "171051.492500", "171051.952500", "171052.412500", "171052.872500", "171053.332500", "171053.792500", "171054.252500", "171054.712500", "171055.172500", "171055.632500", "171056.092500", "171056.552500", "171057.012500", "171057.472500", "171057.932500", "171058.392500", "171058.852500", "171059.312500", "171059.772500", "171100.232500", "171100.692500", "171101.152500", "171101.612500", "171102.072500", "171102.532500", "171102.992500", "171103.452500", "171103.912500", "171104.372500", "171104.832500", "171105.292500", "171105.752500", "171106.212500", "171106.672500", "171107.132500", "171107.592500", "171108.052500", "171108.512500", "171108.972500", "171109.432500", "171109.892500", "171110.352500", "171110.812500", "171111.272500", "171111.732500", "171112.192500", "171112.652500", "171113.112500", "171113.572500", "171114.032500", "171114.492500", "171114.952500", "171115.412500", "171115.872500", "171116.332500", "171116.792500", "171117.252500", "171117.712500", "171118.172500", "171118.632500", "171119.092500", "171119.552500", "171120.012500", "171120.472500", "171120.932500", "171121.392500", "171121.852500", "171122.312500", "171122.772500", "171123.232500", "171123.692500", "171124.152500", "171124.612500", "171125.072500", "171125.532500", "171125.992500", "171126.452500", "171126.912500", "171127.372500", "171127.832500", "171128.292500", "171128.752500", "171129.212500", "171129.672500", "171130.132500", "171130.592500", "171131.052500", "171131.512500", "171131.972500", "171132.432500", "171132.892500", "171133.352500", "171133.812500", "171134.272500", "171134.732500", "171135.192500", "171135.652500", "171136.112500", "171136.572500", "171137.032500", "171137.492500", "171137.952500", "171138.412500", "171138.872500", "171139.332500", "171139.792500", "171140.252500", "171140.712500", "171141.172500", "171141.632500", "171142.092500", "171142.552500", "171143.012500", "171143.472500", "171143.932500", "171144.392500", "171144.852500", "171145.312500", "171145.772500", "171146.232500", "171146.692500", "171147.152500", "171147.612500", "171148.072500", "171148.532500", "171148.992500", "171149.452500", "171149.912500", "171150.372500", "171150.832500", "171151.292500", "171151.752500", "171152.212500", "171152.672500", "171153.132500", "171153.592500", "171154.052500", "171154.512500", "171154.972500", "171155.432500", "171155.892500", "171156.352500", "171156.812500", "171157.272500", "171157.732500", "171158.192500", "171158.652500", "171159.112500", "171159.572500", "171200.032500", "171200.492500", "171200.952500", "171201.412500", "171201.872500", "171202.332500", "171202.792500", "171203.252500", "171203.712500", "171204.172500", "171204.632500", "171205.092500", "171205.552500", "171206.012500", "171206.472500", "171206.932500", "171207.392500", "171207.852500", "171208.312500", "171208.772500", "171209.232500", "171209.692500", "171210.152500", "171210.612500", "171211.072500", "171211.532500", "171211.992500", "171212.452500", "171212.912500", "171213.372500", "171213.832500", "171214.292500", "171214.752500", "171215.212500", "171215.672500", "171216.132500", "171216.592500", "171217.052500", "171217.512500", "171217.972500", "171218.432500", "171218.892500", "171219.352500", "171219.812500", "171220.272500", "171220.732500", "171221.192500", "171221.652500", "171222.112500", "171222.572500", "171223.032500", "171223.492500", "171223.952500", "171224.412500", "171224.872500", "171225.332500", "171225.792500", "171226.252500", "171226.712500", "171227.172500", "171227.632500", "171228.092500", "171228.552500", "171229.012500", "171229.472500", "171229.932500", "171230.392500", "171230.852500", "171231.312500", "171231.772500", "171232.232500", "171232.692500", "171233.152500", "171233.612500", "171234.072500", "171234.532500", "171234.992500", "171235.452500", "171235.912500", "171236.372500", "171236.832500", "171237.292500", "171237.752500", "171238.212500", "171238.672500", "171239.132500", "171239.592500", "171240.052500", "171240.512500", "171240.972500", "171241.432500", "171241.892500", "171242.352500", "171242.812500", "171243.272500", "171243.732500", "171244.192500", "171244.652500", "171245.112500", "171245.572500", "171246.032500", "171246.492500", "171246.952500", "171247.412500", "171247.872500", "171248.332500", "171248.792500", "171249.252500", "171249.712500", "171250.172500", "171250.632500", "171251.092500", "171251.552500", "171252.012500", "171252.472500", "171252.932500", "171253.392500", "171253.852500", "171254.312500", "171254.772500", "171255.232500", "171255.692500", "171256.152500", "171256.612500", "171257.072500", "171257.532500", "171257.992500", "171258.452500", "171258.912500", "171259.372500", "171259.832500", "171300.292500", "171300.752500", "171301.212500", "171301.672500", "171302.132500", "171302.592500", "171303.052500", "171303.512500", "171303.972500", "171304.432500", "171304.892500", "171305.352500", "171305.812500", "171306.272500", "171306.732500", "171307.192500", "171307.652500", "171308.112500", "171308.572500", "171309.032500", "171309.492500", "171309.952500", "171310.412500", "171310.872500", "171311.332500", "171311.792500", "171312.252500", "171312.712500", "171313.172500", "171313.632500", "171314.092500", "171314.552500", "171315.012500", "171315.472500", "171315.932500", "171316.392500", "171316.852500", "171317.312500", "171317.772500", "171318.232500", "171318.692500", "171319.152500", "171319.612500", "171320.072500", "171320.532500", "171320.992500", "171321.452500", "171321.912500", "171322.372500", "171322.832500", "171323.292500", "171323.752500", "171324.212500", "171324.672500", "171325.132500", "171325.592500", "171326.052500", "171326.512500", "171326.972500", "171327.432500", "171327.892500", "171328.352500", "171328.812500", "171329.272500", "171329.732500", "171330.192500", "171330.652500", "171331.112500", "171331.572500", "171332.032500", "171332.492500", "171332.952500", "171333.412500", "171333.872500", "171334.332500", "171334.792500", "171335.252500", "171335.712500", "171336.172500", "171336.632500", "171337.092500", "171337.552500", "171338.012500", "171338.472500", "171338.932500", "171339.392500", "171339.852500", "171340.312500", "171340.772500", "171341.232500", "171341.692500", "171342.152500", "171342.612500", "171343.072500", "171343.532500", "171343.992500", "171344.452500", "171344.912500", "171345.372500", "171345.832500", "171346.292500", "171346.752500", "171347.212500", "171347.672500", "171348.132500", "171348.592500", "171349.052500", "171349.512500", "171349.972500", "171350.432500", "171350.892500", "171351.352500", "171351.812500", "171352.272500", "171352.732500", "171353.192500", "171353.652500", "171354.112500", "171354.572500", "171355.032500", "171355.492500", "171355.952500", "171356.412500", "171356.872500", "171357.332500", "171357.792500", "171358.252500", "171358.712500", "171359.172500", "171359.632500", "171400.092500", "171400.552500", "171401.012500", "171401.472500", "171401.932500", "171402.392500", "171402.852500", "171403.312500", "171403.772500", "171404.232500", "171404.692500", "171405.152500", "171405.612500", "171406.072500", "171406.532500", "171406.992500", "171407.452500", "171407.912500", "171408.372500", "171408.832500", "171409.292500", "171409.752500", "171410.212500", "171410.672500", "171411.132500", "171411.592500", "171412.052500", "171412.512500", "171412.972500", "171413.432500", "171413.892500", "171414.352500", "171414.812500", "171415.272500", "171415.732500", "171416.192500", "171416.652500", "171417.112500", "171417.572500", "171418.032500", "171418.492500", "171418.952500", "171419.412500", "171419.872500", "171420.332500", "171420.792500", "171421.252500", "171421.712500", "171422.172500", "171422.632500", "171423.092500", "171423.552500", "171424.012500", "171424.472500", "171424.932500", "171425.392500", "171425.852500", "171426.312500", "171426.772500", "171427.232500", "171427.692500", "171428.152500", "171428.612500", "171429.072500", "171429.532500", "171429.992500", "171430.452500"],
