{
  "AcquisitionMatrixPE": 82,
  "AcquisitionNumber": 1,
  "AcquisitionTime": "17:14:47.725000",
  "BandwidthPerPixelPhaseEncode": 24.888,
  "BaseResolution": 82,
  "BodyPartExamined": "BRAIN",
  "ConsistencyInfo": "N4_VE11E_LATEST_20181129",
  "ConversionSoftware": "dcm2niix",
  "ConversionSoftwareVersion": "v1.0.20201102",
  "DerivedVendorReportedEchoSpacing": 0.00049,
  "DeviceSerialNumber": "66112",
  "DwellTime": 2e-06,
  "EchoTime": 0.0272,
  "EchoTrainLength": 82,
  "EffectiveEchoSpacing": 0.00049,
  "FlipAngle": 44,
  "ImageComments": "Unaliased MB8/PE3",
  "ImageOrientationPatientDICOM": [0.999478, -0.0315396, -0.00696596, 0.032283, 0.982382, 0.184074],
  "ImageType": [
    "ORIGINAL",
    "PRIMARY",
    "M",
    "MB",
    "ND",
    "NORM",
    "MOSAIC"
],
  "ImagingFrequency": 123.259,
  "InPlanePhaseEncodingDirectionDICOM": "COL",
  "InstitutionAddress": "Maynard 3,Hanover,NH,US,03755",
  "InstitutionName": "Dartmouth College - PBS",
  "InstitutionalDepartmentName": "Department",
  "MRAcquisitionType": "2D",
  "MagneticFieldStrength": 3,
  "Manufacturer": "Siemens",
  "ManufacturersModelName": "Prisma",
  "Modality": "MR",
  "MultibandAccelerationFactor": 8,
  "PartialFourier": 1,
  "PatientPosition": "HFS",
  "PercentPhaseFOV": 100,
  "PercentSampling": 100,
  "PhaseEncodingDirection": "j-",
  "PhaseEncodingSteps": 82,
  "PhaseResolution": 1,
  "PixelBandwidth": 3050,
  "ProcedureStepDescription": "Wager_Wager^1076_spacetop",
  "ProtocolName": "func_run-02_task-social_acq-ap-mb8",
  "PulseSequenceDetails": "%CustomerSeq%\\cmrr_mbep2d_bold",
  "ReceiveCoilActiveElements": "HEA;HEP",
  "ReceiveCoilName": "Head_32",
  "ReconMatrixPE": 82,
  "RepetitionTime": 0.46,
  "SAR": 0.0957692,
  "ScanOptions": "FS",
  "ScanningSequence": "EP",
  "SequenceName": "epfid2d1_82",
  "SequenceVariant": "SK\\SS",
  "SeriesDescription": "func_run-02_task-social_acq-ap-mb8",
  "SeriesNumber": 14,
  "ShimSetting": [4246, -7909, -7263, 502, -140, -385, 251, 143],
  "SliceThickness": 2.7,
  "SliceTiming": [0, 0.25, 0.0625, 0.3125, 0.125, 0.375, 0.1875, 0, 0.25, 0.0625, 0.3125, 0.125, 0.375, 0.1875, 0, 0.25, 0.0625, 0.3125, 0.125, 0.375, 0.1875, 0, 0.25, 0.0625, 0.3125, 0.125, 0.375, 0.1875, 0, 0.25, 0.0625, 0.3125, 0.125, 0.375, 0.1875, 0, 0.25, 0.0625, 0.3125, 0.125, 0.375, 0.1875, 0, 0.25, 0.0625, 0.3125, 0.125, 0.375, 0.1875, 0, 0.25, 0.0625, 0.3125, 0.125, 0.375, 0.1875],
  "SoftwareVersions": "syngo MR E11",
  "SpacingBetweenSlices": 2.7,
  "StationName": "AWP66112",
  "TaskName": "social",
  "TotalReadoutTime": 0.03969,
  "TxRefAmp": 246.339,
  "WipMemBlock": "92668f17-4123-4bf5-8ad6-1c5f8a1004fa||Sequence: R016 ve11e/master r/434b28f1; Aug  7 2019 18:53:46 by eja",
  "dcmmeta_affine": [
    [-2.6815271377563477, 0.08661296218633652, -0.0028015945572406054, 108.190185546875],
    [0.08461838215589523, 2.6356594562530518, 0.4973468780517578, -115.98530578613281],
    [-0.01868916116654873, -0.4938563108444214, 2.653796911239624, -47.17774963378906],
    [0.0, 0.0, 0.0, 1.0]
],
  "dcmmeta_reorient_transform": [
    [0.0, -1.0, 0.0, 81.0],
    [1.0, 0.0, 0.0, 0.0],
    [0.0, 0.0, 1.0, 0.0],
    [0.0, 0.0, 0.0, 1.0]
],
  "dcmmeta_shape": [82, 82, 56, 872],
  "dcmmeta_slice_dim": 2,
  "dcmmeta_version": 0.6,
  "global": {
    "const": {
      "AccessionNumber": "A004687",
      "AcquisitionMatrix": [82, 0, 0, 82],
      "AngioFlag": "N",
      "BitsAllocated": 16,
      "BitsStored": 16,
      "BodyPartExamined": "BRAIN",
      "Columns": 656,
      "EchoNumbers": 1,
      "EchoTime": 27.2,
      "EchoTrainLength": 82,
      "FlipAngle": 44.0,
      "HighBit": 15,
      "ImageOrientationPatient": [0.99947822911916, -0.0315395770368, -0.0069659598884, 0.03228301172158, 0.9823821434263, 0.18407371195074],
      "ImagePositionPatient": [-909.66200860926, -829.65190546575, -223.55308297703],
      "ImageType": [
        "ORIGINAL",
        "PRIMARY",
        "M",
        "MB",
        "ND",
        "NORM",
        "MOSAIC"
],
      "ImagedNucleus": "1H",
      "ImagingFrequency": 123.259101,
      "InPlanePhaseEncodingDirection": "COL",
      "MRAcquisitionType": "2D",
      "MagneticFieldStrength": 3.0,
      "Manufacturer": "SIEMENS",
      "ManufacturerModelName": "Prisma",
      "Modality": "MR",
      "NumberOfAverages": 1.0,
      "NumberOfPhaseEncodingSteps": 82,
      "PercentPhaseFieldOfView": 100.0,
      "PercentSampling": 100.0,
      "PerformedProcedureStepStartTime": "162612.444000",
      "PhotometricInterpretation": "MONOCHROME2",
      "PixelBandwidth": 3050.0,
      "PixelRepresentation": 0,
      "PixelSpacing": [2.6829268932343, 2.6829268932343],
      "ProtocolName": "func_run-02_task-social_acq-ap-mb8",
      "RepetitionTime": 460.0,
      "Rows": 656,
      "SAR": 0.09576920865824,
      "SamplesPerPixel": 1,
      "ScanOptions": "FS",
      "ScanningSequence": "EP",
      "SequenceName": "epfid2d1_82",
      "SequenceVariant": [
        "SK",
        "SS"
],
      "SeriesDescription": "func_run-02_task-social_acq-ap-mb8",
      "SeriesNumber": 14,
      "SeriesTime": "171508.042000",
      "SliceLocation": -67.84748237594,
      "SliceThickness": 2.7000000476837,
      "SmallestImagePixelValue": 0,
      "SoftwareVersions": "syngo MR E11",
      "SpacingBetweenSlices": 2.699999995025,
      "SpecificCharacterSet": "ISO_IR 100",
      "StudyID": "2",
      "StudyTime": "162612.374000",
      "TransmitCoilName": "Body",
      "VariableFlipAngleFlag": "N",
      "WindowCenterWidthExplanation": "Algo1"
    },
    "slices": {}
  },
  "time": {
    "samples": {
      "AcquisitionNumber": [1, 2, 3, 4, 5, 6, 7, 8, 9, 10, 11, 12, 13, 14, 15, 16, 17, 18, 19, 20, 21, 22, 23, 24, 25, 26, 27, 28, 29, 30, 31, 32, 33, 34, 35, 36, 37, 38, 39, 40, 41, 42, 43, 44, 45, 46, 47, 48, 49, 50, 51, 52, 53, 54, 55, 56, 57, 58, 59, 60, 61, 62, 63, 64, 65, 66, 67, 68, 69, 70, 71, 72, 73, 74, 75, 76, 77, 78, 79, 80, 81, 82, 83, 84, 85, 86, 87, 88, 89, 90, 91, 92, 93, 94, 95, 96, 97, 98, 99, 100, 101, 102, 103, 104, 105, 106, 107, 108, 109, 110, 111, 112, 113, 114, 115, 116, 117, 118, 119, 120, 121, 122, 123, 124, 125, 126, 127, 128, 129, 130, 131, 132, 133, 134, 135, 136, 137, 138, 139, 140, 141, 142, 143, 144, 145, 146, 147, 148, 149, 150, 151, 152, 153, 154, 155, 156, 157, 158, 159, 160, 161, 162, 163, 164, 165, 166, 167, 168, 169, 170, 171, 172, 173, 174, 175, 176, 177, 178, 179, 180, 181, 182, 183, 184, 185, 186, 187, 188, 189, 190, 191, 192, 193, 194, 195, 196, 197, 198, 199, 200, 201, 202, 203, 204, 205, 206, 207, 208, 209, 210, 211, 212, 213, 214, 215, 216, 217, 218, 219, 220, 221, 222, 223, 224, 225, 226, 227, 228, 229, 230, 231, 232, 233, 234, 235, 236, 237, 238, 239, 240, 241, 242, 243, 244, 245, 246, 247, 248, 249, 250, 251, 252, 253, 254, 255, 256, 257, 258, 259, 260, 261, 262, 263, 264, 265, 266, 267, 268, 269, 270, 271, 272, 273, 274, 275, 276, 277, 278, 279, 280, 281, 282, 283, 284, 285, 286, 287, 288, 289, 290, 291, 292, 293, 294, 295, 296, 297, 298, 299, 300, 301, 302, 303, 304, 305, 306, 307, 308, 309, 310, 311, 312, 313, 314, 315, 316, 317, 318, 319, 320, 321, 322, 323, 324, 325, 326, 327, 328, 329, 330, 331, 332, 333, 334, 335, 336, 337, 338, 339, 340, 341, 342, 343, 344, 345, 346, 347, 348, 349, 350, 351, 352, 353, 354, 355, 356, 357, 358, 359, 360, 361, 362, 363, 364, 365, 366, 367, 368, 369, 370, 371, 372, 373, 374, 375, 376, 377, 378, 379, 380, 381, 382, 383, 384, 385, 386, 387, 388, 389, 390, 391, 392, 393, 394, 395, 396, 397, 398, 399, 400, 401, 402, 403, 404, 405, 406, 407, 408, 409, 410, 411, 412, 413, 414, 415, 416, 417, 418, 419, 420, 421, 422, 423, 424, 425, 426, 427, 428, 429, 430, 431, 432, 433, 434, 435, 436, 437, 438, 439, 440, 441, 442, 443, 444, 445, 446, 447, 448, 449, 450, 451, 452, 453, 454, 455, 456, 457, 458, 459, 460, 461, 462, 463, 464, 465, 466, 467, 468, 469, 470, 471, 472, 473, 474, 475, 476, 477, 478, 479, 480, 481, 482, 483, 484, 485, 486, 487, 488, 489, 490, 491, 492, 493, 494, 495, 496, 497, 498, 499, 500, 501, 502, 503, 504, 505, 506, 507, 508, 509, 510, 511, 512, 513, 514, 515, 516, 517, 518, 519, 520, 521, 522, 523, 524, 525, 526, 527, 528, 529, 530, 531, 532, 533, 534, 535, 536, 537, 538, 539, 540, 541, 542, 543, 544, 545, 546, 547, 548, 549, 550, 551, 552, 553, 554, 555, 556, 557, 558, 559, 560, 561, 562, 563, 564, 565, 566, 567, 568, 569, 570, 571, 572, 573, 574, 575, 576, 577, 578, 579, 580, 581, 582, 583, 584, 585, 586, 587, 588, 589, 590, 591, 592, 593, 594, 595, 596, 597, 598, 599, 600, 601, 602, 603, 604, 605, 606, 607, 608, 609, 610, 611, 612, 613, 614, 615, 616, 617, 618, 619, 620, 621, 622, 623, 624, 625, 626, 627, 628, 629, 630, 631, 632, 633, 634, 635, 636, 637, 638, 639, 640, 641, 642, 643, 644, 645, 646, 647, 648, 649, 650, 651, 652, 653, 654, 655, 656, 657, 658, 659, 660, 661, 662, 663, 664, 665, 666, 667, 668, 669, 670, 671, 672, 673, 674, 675, 676, 677, 678, 679, 680, 681, 682, 683, 684, 685, 686, 687, 688, 689, 690, 691, 692, 693, 694, 695, 696, 697, 698, 699, 700, 701, 702, 703, 704, 705, 706, 707, 708, 709, 710, 711, 712, 713, 714, 715, 716, 717, 718, 719, 720, 721, 722, 723, 724, 725, 726, 727, 728, 729, 730, 731, 732, 733, 734, 735, 736, 737, 738, 739, 740, 741, 742, 743, 744, 745, 746, 747, 748, 749, 750, 751, 752, 753, 754, 755, 756, 757, 758, 759, 760, 761, 762, 763, 764, 765, 766, 767, 768, 769, 770, 771, 772, 773, 774, 775, 776, 777, 778, 779, 780, 781, 782, 783, 784, 785, 786, 787, 788, 789, 790, 791, 792, 793, 794, 795, 796, 797, 798, 799, 800, 801, 802, 803, 804, 805, 806, 807, 808, 809, 810, 811, 812, 813, 814, 815, 816, 817, 818, 819, 820, 821, 822, 823, 824, 825, 826, 827, 828, 829, 830, 831, 832, 833, 834, 835, 836, 837, 838, 839, 840, 841, 842, 843, 844, 845, 846, 847, 848, 849, 850, 851, 852, 853, 854, 855, 856, 857, 858, 859, 860, 861, 862, 863, 864, 865, 866, 867, 868, 869, 870, 871, 872],
      "AcquisitionTime": ["171447.725000", "171448.185000", "171448.645000", "171449.105000", "171449.565000", "171450.025000", "171450.485000", "171450.945000", "171451.405000", "171451.865000", "171452.325000", "171452.785000", "171453.245000", "171453.705000", "171454.165000", "171454.625000", "171455.085000", "171455.545000", "171456.005000", "171456.465000", "171456.925000", "171457.385000", "171457.845000", "171458.305000", "171458.765000", "171459.225000", "171459.685000", "171500.145000", "171500.605000", "171501.065000", "171501.525000", "171501.985000", "171502.445000", "171502.905000", "171503.365000", "171503.825000", "171504.285000", "171504.745000", "171505.205000", "171505.665000", "171506.125000", "171506.585000", "171507.045000", "171507.505000", "171507.965000", "171508.425000", "171508.885000", "171509.345000", "171509.805000", "171510.265000", "171510.725000", "171511.185000", "171511.645000", "171512.105000", "171512.565000", "171513.025000", "171513.485000", "171513.945000", "171514.405000", "171514.865000", "171515.325000", "171515.785000", "171516.245000", "171516.705000", "171517.165000", "171517.625000", "171518.085000", "171518.545000", "171519.005000", "171519.465000", "171519.925000", "171520.385000", "171520.845000", "171521.305000", "171521.765000", "171522.225000", "171522.685000", "171523.145000", "171523.605000", "171524.065000", "171524.525000", "171524.985000", "171525.445000", "171525.905000", "171526.365000", "171526.825000", "171527.285000", "171527.745000", "171528.205000", "171528.665000", "171529.125000", "171529.585000", "171530.045000", "171530.505000", "171530.965000", "171531.425000", "171531.885000", "171532.345000", "171532.805000", "171533.265000", "171533.725000", "171534.185000", "171534.645000", "171535.105000", "171535.565000", "171536.025000", "171536.485000", "171536.945000", "171537.405000", "171537.865000", "171538.325000", "171538.785000", "171539.245000", "171539.705000", "171540.165000", "171540.625000", "171541.085000", "171541.545000", "171542.005000", "171542.465000", "171542.925000", "171543.385000", "171543.845000", "171544.305000", "171544.765000", "171545.225000", "171545.685000", "171546.145000", "171546.605000", "171547.065000", "171547.525000", "171547.985000", "171548.445000", "171548.905000", "171549.365000", "171549.825000", "171550.285000", "171550.745000", "171551.205000", "171551.665000", "171552.125000", "171552.585000", "171553.045000", "171553.505000", "171553.965000", "171554.425000", "171554.885000", "171555.345000", "171555.805000", "171556.265000", "171556.725000", "171557.185000", "171557.645000", "171558.105000", "171558.565000", "171559.025000", "171559.485000", "171559.945000", "171600.405000", "171600.865000", "171601.325000", "171601.785000", "171602.245000", "171602.705000", "171603.165000", "171603.625000", "171604.085000", "171604.545000", "171605.005000", "171605.465000", "171605.925000", "171606.385000", "171606.845000", "171607.305000", "171607.765000", "171608.225000", "171608.685000", "171609.145000", "171609.605000", "171610.065000", "171610.525000", "171610.985000", "171611.445000", "171611.905000", "171612.365000", "171612.825000", "171613.285000", "171613.745000", "171614.205000", "171614.665000", "171615.125000", "171615.585000", "171616.045000", "171616.505000", "171616.965000", "171617.425000", "171617.885000", "171618.345000", "171618.805000", "171619.265000", "171619.725000", "171620.185000", "171620.645000", "171621.105000", "171621.565000", "171622.025000", "171622.485000", "171622.945000", "171623.405000", "171623.865000", "171624.325000", "171624.785000", "171625.245000", "171625.705000", "171626.165000", "171626.625000", "171627.085000", "171627.545000", "171628.005000", "171628.465000", "171628.925000", "171629.385000", "171629.845000", "171630.305000", "171630.765000", "171631.225000", "171631.685000", "171632.145000", "171632.605000", "171633.065000", "171633.525000", "171633.985000", "171634.445000", "171634.905000", "171635.365000", "171635.825000", "171636.285000", "171636.745000", "171637.205000", "171637.665000", "171638.125000", "171638.585000", "171639.045000", "171639.505000", "171639.965000", "171640.425000", "171640.885000", "171641.345000", "171641.805000", "171642.265000", "171642.725000", "171643.185000", "171643.645000", "171644.105000", "171644.565000", "171645.025000", "171645.485000", "171645.945000", "171646.405000", "171646.865000", "171647.325000", "171647.785000", "171648.245000", "171648.705000", "171649.165000", "171649.625000", "171650.085000", "171650.545000", "171651.005000", "171651.465000", "171651.925000", "171652.385000", "171652.845000", "171653.305000", "171653.765000", "171654.225000", "171654.685000", "171655.145000", "171655.605000", "171656.065000", "171656.525000", "171656.985000", "171657.445000", "171657.905000", "171658.365000", "171658.825000", "171659.285000", "171659.745000", "171700.205000", "171700.665000", "171701.125000", "171701.585000", "171702.045000", "171702.505000", "171702.965000", "171703.425000", "171703.885000", "171704.345000", "171704.805000", "171705.265000", "171705.725000", "171706.185000", "171706.645000", "171707.105000", "171707.565000", "171708.025000", "171708.485000", "171708.945000", "171709.405000", "171709.865000", "171710.325000", "171710.785000", "171711.245000", "171711.705000", "171712.165000", "171712.625000", "171713.085000", "171713.545000", "171714.005000", "171714.465000", "171714.925000", "171715.385000", "171715.845000", "171716.305000", "171716.765000", "171717.225000", "171717.685000", "171718.145000", "171718.605000", "171719.065000", "171719.525000", "171719.985000", "171720.445000", "171720.905000", "171721.365000", "171721.825000", "171722.285000", "171722.745000", "171723.205000", "171723.665000", "171724.125000", "171724.585000", "171725.045000", "171725.505000", "171725.965000", "171726.425000", "171726.885000", "171727.345000", "171727.805000", "171728.265000", "171728.725000", "171729.185000", "171729.645000", "171730.105000", "171730.565000", "171731.025000", "171731.485000", "171731.945000", "171732.405000", "171732.865000", "171733.325000", "171733.785000", "171734.245000", "171734.705000", "171735.165000", "171735.625000", "171736.085000", "171736.545000", "171737.005000", "171737.465000", "171737.925000", "171738.385000", "171738.845000", "171739.305000", "171739.765000", "171740.225000", "171740.685000", "171741.145000", "171741.605000", "171742.065000", "171742.525000", "171742.985000", "171743.445000", "171743.905000", "171744.365000", "171744.825000", "171745.285000", "171745.745000", "171746.205000", "171746.665000", "171747.125000", "171747.585000", "171748.045000", "171748.505000", "171748.965000", "171749.425000", "171749.885000", "171750.345000", "171750.805000", "171751.265000", "171751.725000", "171752.185000", "171752.645000", "171753.105000", "171753.565000", "171754.025000", "171754.485000", "171754.945000", "171755.405000", "171755.865000", "171756.325000", "171756.785000", "171757.245000", "171757.705000", "171758.165000", "171758.625000", "171759.085000", "171759.545000", "171800.005000", "171800.465000", "171800.925000", "171801.385000", "171801.845000", "171802.305000", "171802.765000", "171803.225000", "171803.685000", "171804.145000", "171804.605000", "171805.065000", "171805.525000", "171805.985000", "171806.445000", "171806.905000", "171807.365000", "171807.825000", "171808.285000", "171808.745000", "171809.205000", "171809.665000", "171810.125000", "171810.585000", "171811.045000", "171811.505000", "171811.965000", "171812.425000", "171812.885000", "171813.345000", "171813.805000", "171814.265000", "171814.725000", "171815.185000", "171815.645000", "171816.105000", "171816.565000", "171817.025000", "171817.485000", "171817.945000", "171818.405000", "171818.865000", "171819.325000", "171819.785000", "171820.245000", "171820.705000", "171821.165000", "171821.625000", "171822.085000", "171822.545000", "171823.005000", "171823.465000", "171823.925000", "171824.385000", "171824.845000", "171825.305000", "171825.765000", "171826.225000", "171826.685000", "171827.145000", "171827.605000", "171828.065000", "171828.525000", "171828.985000", "171829.445000", "171829.905000", "171830.365000", "171830.825000", "171831.285000", "171831.745000", "171832.205000", "171832.665000", "171833.125000", "171833.585000", "171834.045000", "171834.505000", "171834.965000", "171835.425000", "171835.885000", "171836.345000", "171836.805000", "171837.265000", "171837.725000", "171838.185000", "171838.645000", "171839.105000", "171839.565000", "171840.025000", "171840.485000", "171840.945000", "171841.405000", "171841.865000", "171842.325000", "171842.785000", "171843.245000", "171843.705000", "171844.165000", "171844.625000", "171845.085000", "171845.545000", "171846.005000", "171846.465000", "171846.925000", "171847.385000", "171847.845000", "171848.305000", "171848.765000", "171849.225000", "171849.685000", "171850.145000", "171850.605000", "171851.065000", "171851.525000", "171851.985000", "171852.445000", "171852.905000", "171853.365000", "171853.825000", "171854.285000", "171854.745000", "171855.205000", "171855.665000", "171856.125000", "171856.585000", "171857.045000", "171857.505000", "171857.965000", "171858.425000", "171858.885000", "171859.345000", "171859.805000", "171900.265000", "171900.725000", "171901.185000", "171901.645000", "171902.105000", "171902.565000", "171903.025000", "171903.485000", "171903.945000", "171904.405000", "171904.865000", "171905.325000", "171905.785000", "171906.245000", "171906.705000", "171907.165000", "171907.625000", "171908.085000", "171908.545000", "171909.005000", "171909.465000", "171909.925000", "171910.385000", "171910.845000", "171911.305000", "171911.765000", "171912.225000", "171912.685000", "171913.145000", "171913.605000", "171914.065000", "171914.525000", "171914.985000", "171915.445000", "171915.905000", "171916.365000", "171916.825000", "171917.285000", "171917.745000", "171918.205000", "171918.665000", "171919.125000", "171919.585000", "171920.045000", "171920.505000", "171920.965000", "171921.425000", "171921.885000", "171922.345000", "171922.805000", "171923.265000", "171923.725000", "171924.185000", "171924.645000", "171925.105000", "171925.565000", "171926.025000", "171926.485000", "171926.945000", "171927.405000", "171927.865000", "171928.325000", "171928.785000", "171929.245000", "171929.705000", "171930.165000", "171930.625000", "171931.085000", "171931.545000", "171932.005000", "171932.465000", "171932.925000", "171933.385000", "171933.845000", "171934.305000", "171934.765000", "171935.225000", "171935.685000", "171936.145000", "171936.605000", "171937.065000", "171937.525000", "171937.985000", "171938.445000", "171938.905000", "171939.365000", "171939.825000", "171940.285000", "171940.745000", "171941.205000", "171941.665000", "171942.125000", "171942.585000", "171943.045000", "171943.505000", "171943.965000", "171944.425000", "171944.885000", "171945.345000", "171945.805000", "171946.265000", "171946.725000", "171947.185000", "171947.645000", "171948.105000", "171948.565000", "171949.025000", "171949.485000", "171949.945000", "171950.405000", "171950.865000", "171951.325000", "171951.785000", "171952.245000", "171952.705000", "171953.165000", "171953.625000", "171954.085000", "171954.545000", "171955.005000", "171955.465000", "171955.925000", "171956.385000", "171956.845000", "171957.305000", "171957.765000", "171958.225000", "171958.685000", "171959.145000", "171959.605000", "172000.065000", "172000.525000", "172000.985000", "172001.445000", "172001.905000", "172002.365000", "172002.825000", "172003.285000", "172003.745000", "172004.205000", "172004.665000", "172005.125000", "172005.585000", "172006.045000", "172006.505000", "172006.965000", "172007.425000", "172007.885000", "172008.345000", "172008.805000", "172009.265000", "172009.725000", "172010.185000", "172010.645000", "172011.105000", "172011.565000", "172012.025000", "172012.485000", "172012.945000", "172013.405000", "172013.865000", "172014.325000", "172014.785000", "172015.245000", "172015.705000", "172016.165000", "172016.625000", "172017.085000", "172017.545000", "172018.005000", "172018.465000", "172018.925000", "172019.385000", "172019.845000", "172020.305000", "172020.765000", "172021.225000", "172021.685000", "172022.145000", "172022.605000", "172023.065000", "172023.525000", "172023.985000", "172024.445000", "172024.905000", "172025.365000", "172025.825000", "172026.285000", "172026.745000", "172027.205000", "172027.665000", "172028.125000", "172028.585000", "172029.045000", "172029.505000", "172029.965000", "172030.425000", "172030.885000", "172031.345000", "172031.805000", "172032.265000", "172032.725000", "172033.185000", "172033.645000", "172034.105000", "172034.565000", "172035.025000", "172035.485000", "172035.945000", "172036.405000", "172036.865000", "172037.325000", "172037.785000", "172038.245000", "172038.705000", "172039.165000", "172039.625000", "172040.085000", "172040.545000", "172041.005000", "172041.465000", "172041.925000", "172042.385000", "172042.845000", "172043.305000", "172043.765000", "172044.225000", "172044.685000", "172045.145000", "172045.605000", "172046.065000", "172046.525000", "172046.985000", "172047.445000", "172047.905000", "172048.365000", "172048.825000", "172049.285000", "172049.745000", "172050.205000", "172050.665000", "172051.125000", "172051.585000", "172052.045000", "172052.505000", "172052.965000", "172053.425000", "172053.885000", "172054.345000", "172054.805000", "172055.265000", "172055.725000", "172056.185000", "172056.645000", "172057.105000", "172057.565000", "172058.025000", "172058.485000", "172058.945000", "172059.405000", "172059.865000", "172100.325000", "172100.785000", "172101.245000", "172101.705000", "172102.165000", "172102.625000", "172103.085000", "172103.545000", "172104.005000", "172104.465000", "172104.925000", "172105.385000", "172105.845000", "172106.305000", "172106.765000", "172107.225000", "172107.685000", "172108.145000", "172108.605000", "172109.065000", "172109.525000", "172109.985000", "172110.445000", "172110.905000", "172111.365000", "172111.825000", "172112.285000", "172112.745000", "172113.205000", "172113.665000", "172114.125000", "172114.585000", "172115.045000", "172115.505000", "172115.965000", "172116.425000", "172116.885000", "172117.345000", "172117.805000", "172118.265000", "172118.725000", "172119.185000", "172119.645000", "172120.105000", "172120.565000", "172121.025000", "172121.485000", "172121.945000", "172122.405000", "172122.865000", "172123.325000", "172123.785000", "172124.245000", "172124.705000", "172125.165000", "172125.625000", "172126.085000", "172126.545000", "172127.005000", "172127.465000", "172127.925000", "172128.385000"],
