{
  "AcquisitionMatrixPE": 140,
  "AcquisitionNumber": 1,
  "AcquisitionTime": "17:43:9.050000",
  "BandwidthPerPixelPhaseEncode": 10.352,
  "BaseResolution": 140,
  "BodyPartExamined": "BRAIN",
  "ConsistencyInfo": "N4_VE11E_LATEST_20181129",
  "ConversionSoftware": "dcm2niix",
  "ConversionSoftwareVersion": "v1.0.20201102",
  "DerivedVendorReportedEchoSpacing": 0.000689998,
  "DeviceSerialNumber": "66112",
  "DiffusionScheme": "Monopolar",
  "DwellTime": 2.1e-06,
  "EchoTime": 0.088,
  "EchoTrainLength": 105,
  "EffectiveEchoSpacing": 0.000689998,
  "FlipAngle": 90,
  "ImageComments": "Unaliased MB3/PE3",
  "ImageOrientationPatientDICOM": [0.997685, -0.0466393, 0.0494938, 0.0341426, 0.972927, 0.228575],
  "ImageType": [
    "ORIGINAL",
    "PRIMARY",
    "DIFFUSION",
    "NONE",
    "MB",
    "ND"
],
  "ImagingFrequency": 123.259,
  "InPlanePhaseEncodingDirectionDICOM": "COL",
  "InstitutionAddress": "Maynard 3,Hanover,NH,US,03755",
  "InstitutionName": "Dartmouth College - PBS",
  "InstitutionalDepartmentName": "Department",
  "IntendedFor": [
    "ses-01/dwi/sub-0116_ses-01_acq-96dirX6b0Xmb_dwi.nii.gz"
],
  "MRAcquisitionType": "2D",
  "MagneticFieldStrength": 3,
  "Manufacturer": "Siemens",
  "ManufacturersModelName": "Prisma",
  "Modality": "MR",
  "MultibandAccelerationFactor": 3,
  "PartialFourier": 0.75,
  "PatientPosition": "HFS",
  "PercentPhaseFOV": 100,
  "PercentSampling": 100,
  "PhaseEncodingDirection": "j-",
  "PhaseEncodingSteps": 105,
  "PhaseResolution": 1,
  "PixelBandwidth": 1700,
  "ProcedureStepDescription": "Wager_Wager^1076_spacetop",
  "ProtocolName": "dwi_acq-discorr-AP",
  "PulseSequenceDetails": "%CustomerSeq%\\cmrr_mbep2d_diff",
  "ReceiveCoilActiveElements": "HEA;HEP",
  "ReceiveCoilName": "Head_32",
  "ReconMatrixPE": 140,
  "RepetitionTime": 4.1,
  "SAR": 0.165277,
  "ScanOptions": "PFP\\FS",
  "ScanningSequence": "EP",
  "SequenceName": "ep_b0",
  "SequenceVariant": "SK\\SS",
  "SeriesDescription": "dwi_acq-discorr-AP",
  "SeriesNumber": 7,
  "ShimSetting": [4249, -7897, -7241, 419, -152, -399, 248, 102],
  "SliceThickness": 1.7,
  "SliceTiming": [0, 2.125, 0.15625, 2.26562, 0.3125, 2.42188, 0.45312, 2.57812, 0.60938, 2.71875, 0.76562, 2.875, 0.90625, 3.03125, 1.0625, 3.17188, 1.20312, 3.32812, 1.35938, 3.48438, 1.51562, 3.625, 1.67188, 3.78125, 1.8125, 3.9375, 1.96875, 0, 2.125, 0.15625, 2.26562, 0.3125, 2.42188, 0.45312, 2.57812, 0.60938, 2.71875, 0.76562, 2.875, 0.90625, 3.03125, 1.0625, 3.17188, 1.20312, 3.32812, 1.35938, 3.48438, 1.51562, 3.625, 1.67188, 3.78125, 1.8125, 3.9375, 1.96875, 0, 2.125, 0.15625, 2.26562, 0.3125, 2.42188, 0.45312, 2.57812, 0.60938, 2.71875, 0.76562, 2.875, 0.90625, 3.03125, 1.0625, 3.17188, 1.20312, 3.32812, 1.35938, 3.48438, 1.51562, 3.625, 1.67188, 3.78125, 1.8125, 3.9375, 1.96875],
  "SoftwareVersions": "syngo MR E11",
  "SpacingBetweenSlices": 1.7,
  "StationName": "AWP66112",
  "TotalReadoutTime": 0.0959097,
  "TxRefAmp": 247.476,
  "WipMemBlock": "5cfa7136-470c-4ab0-bc5c-c06a6c5a3dec||Sequence: R016 ve11e/master r/434b28f1; Aug  7 2019 19:06:17 by eja",
  "dcmmeta_affine": [
    [-1.7103170156478882, 0.05853023752570152, 0.09998416900634766, 117.80006408691406],
    [0.07995311915874481, 1.6678754091262817, 0.3848075866699219, -112.48326873779297],
    [0.08484653383493423, -0.39184364676475525, 1.6528549194335938, -39.680076599121094],
    [0.0, 0.0, 0.0, 1.0]
],
  "dcmmeta_reorient_transform": [
    [0.0, -1.0, 0.0, 139.0],
    [1.0, 0.0, 0.0, 0.0],
    [0.0, 0.0, -1.0, 80.0],
    [0.0, 0.0, 0.0, 1.0]
],
  "dcmmeta_shape": [140, 140, 81],
  "dcmmeta_slice_dim": 2,
  "dcmmeta_version": 0.6,
  "global": {
    "const": {
      "AccessionNumber": "A004538",
      "AcquisitionMatrix": [140, 0, 0, 140],
      "AcquisitionNumber": 1,
      "AngioFlag": "N",
      "BitsAllocated": 16,
      "BitsStored": 16,
      "BodyPartExamined": "BRAIN",
      "Columns": 140,
      "EchoNumbers": 1,
      "EchoTime": 88.0,
      "EchoTrainLength": 105,
      "FlipAngle": 90.0,
      "HighBit": 15,
      "ImageOrientationPatient": [0.99768488852156, -0.0466393172297, 0.04949381076535, 0.03414263878097, 0.97292730478948, 0.22857545758928],
      "ImageType": [
        "ORIGINAL",
        "PRIMARY",
        "DIFFUSION",
        "NONE",
        "MB",
        "ND"
],
      "ImagedNucleus": "1H",
      "ImagingFrequency": 123.259085,
      "InPlanePhaseEncodingDirection": "COL",
      "MRAcquisitionType": "2D",
      "MagneticFieldStrength": 3.0,
      "Manufacturer": "SIEMENS",
      "ManufacturerModelName": "Prisma",
      "Modality": "MR",
      "NumberOfAverages": 1.0,
      "NumberOfPhaseEncodingSteps": 105,
      "PercentPhaseFieldOfView": 100.0,
      "PercentSampling": 100.0,
      "PerformedProcedureStepStartTime": "172645.183000",
      "PhotometricInterpretation": "MONOCHROME2",
      "PixelBandwidth": 1700.0,
      "PixelRepresentation": 0,
      "PixelSpacing": [1.7142857313156, 1.7142857313156],
      "ProtocolName": "dwi_acq-discorr-AP",
      "RepetitionTime": 4100.0,
      "Rows": 140,
      "SAR": 0.16527724453489,
      "SamplesPerPixel": 1,
      "ScanOptions": [
        "PFP",
        "FS"
],
      "ScanningSequence": "EP",
      "SequenceName": "ep_b0",
      "SequenceVariant": [
        "SK",
        "SS"
],
      "SeriesDescription": "dwi_acq-discorr-AP",
      "SeriesNumber": 7,
      "SeriesTime": "174314.174000",
      "SliceThickness": 1.7000000476837,
      "SmallestImagePixelValue": 0,
      "SoftwareVersions": "syngo MR E11",
      "SpacingBetweenSlices": 1.7,
      "SpecificCharacterSet": "ISO_IR 100",
      "StudyID": "1",
      "StudyTime": "172645.042000",
      "TransmitCoilName": "Body",
      "VariableFlipAngleFlag": "N",
      "WindowCenterWidthExplanation": "Algo1"
    },
    "slices": {
      "AcquisitionTime": ["174309.050000", "174311.165000", "174309.200000", "174311.317500", "174309.352500", "174311.467500", "174309.502500", "174311.617500", "174309.655000", "174311.770000", "174309.805000", "174311.920000", "174309.957500", "174312.072500", "174310.107500", "174312.222500", "174310.257500", "174312.375000", "174310.410000", "174312.525000", "174310.560000", "174312.677500", "174310.712500", "174312.827500", "174310.862500", "174312.977500", "174311.015000", "174309.050000", "174311.165000", "174309.200000", "174311.317500", "174309.352500", "174311.467500", "174309.502500", "174311.617500", "174309.655000", "174311.770000", "174309.805000", "174311.920000", "174309.957500", "174312.072500", "174310.107500", "174312.222500", "174310.257500", "174312.375000", "174310.410000", "174312.525000", "174310.560000", "174312.677500", "174310.712500", "174312.827500", "174310.862500", "174312.977500", "174311.015000", "174309.050000", "174311.165000", "174309.200000", "174311.317500", "174309.352500", "174311.467500", "174309.502500", "174311.617500", "174309.655000", "174311.770000", "174309.805000", "174311.920000", "174309.957500", "174312.072500", "174310.107500", "174312.222500", "174310.257500", "174312.375000", "174310.410000", "174312.525000", "174310.560000", "174312.677500", "174310.712500", "174312.827500", "174310.862500", "174312.977500", "174311.015000"],
      "ContentTime": ["174314.177000", "174314.268000", "174314.191000", "174314.281000", "174314.197000", "174314.286000", "174314.203000", "174314.292000", "174314.209000", "174314.298000", "174314.215000", "174314.304000", "174314.220000", "174314.310000", "174314.227000", "174314.318000", "174314.233000", "174314.324000", "174314.239000", "174314.330000", "174314.245000", "174314.336000", "174314.251000", "174314.342000", "174314.256000", "174314.349000", "174314.262000", "174314.180000", "174314.277000", "174314.193000", "174314.282000", "174314.199000", "174314.288000", "174314.205000", "174314.294000", "174314.211000", "174314.300000", "174314.217000", "174314.306000", "174314.222000", "174314.313000", "174314.229000", "174314.320000", "174314.235000", "174314.326000", "174314.241000", "174314.332000", "174314.247000", "174314.338000", "174314.252000", "174314.344000", "174314.258000", "174314.351000", "174314.264000", "174314.182000", "174314.279000", "174314.195000", "174314.284000", "174314.201000", "174314.290000", "174314.207000", "174314.296000", "174314.213000", "174314.302000", "174314.219000", "174314.308000", "174314.224000", "174314.315000", "174314.231000", "174314.322000", "174314.237000", "174314.328000", "174314.243000", "174314.334000", "174314.249000", "174314.340000", "174314.254000", "174314.347000", "174314.260000", "174314.353000", "174314.266000"],
      "CsaImage.GSWDDataType": [
        "predicted",
        "predicted",
        "predicted",
        "predicted",
        "predicted",
        "predicted",
        "predicted",
        "predicted",
        "predicted",
        "predicted",
        "predicted",
        "predicted",
        "predicted",
        "predicted",
        "predicted",
        "predicted",
        "predicted",
        "predicted",
        "predicted",
        "predicted",
        "predicted",
        "predicted",
        "predicted",
        "measured",
        "predicted",
        "measured",
        "predicted",
        "predicted",
        "predicted",
        "predicted",
        "predicted",
        "predicted",
        "predicted",
        "predicted",
        "predicted",
        "predicted",
        "predicted",
        "predicted",
        "predicted",
        "predicted",
        "predicted",
        "predicted",
        "predicted",
        "predicted",
        "predicted",
        "predicted",
        "predicted",
        "predicted",
        "predicted",
        "predicted",
        "measured",
        "predicted",
        "measured",
        "predicted",
        "predicted",
        "predicted",
        "predicted",
        "predicted",
        "predicted",
        "predicted",
        "predicted",
        "predicted",
        "predicted",
        "predicted",
        "predicted",
        "predicted",
        "predicted",
        "predicted",
        "predicted",
        "predicted",
        "predicted",
        "predicted",
        "predicted",
        "predicted",
        "predicted",
        "predicted",
        "predicted",
        "measured",
        "predicted",
        "measured",
        "predicted"
],
      "CsaImage.ICE_Dims": [
        "X_1_1_1_1_1_1_1_1_1_1_1_117",
        "X_1_1_1_1_1_1_42_1_1_2_1_117",
        "X_1_1_1_1_1_1_2_1_1_3_1_117",
        "X_1_1_1_1_1_1_43_1_1_4_1_117",
        "X_1_1_1_1_1_1_3_1_1_5_1_117",
        "X_1_1_1_1_1_1_44_1_1_6_1_117",
        "X_1_1_1_1_1_1_4_1_1_7_1_117",
        "X_1_1_1_1_1_1_45_1_1_8_1_117",
        "X_1_1_1_1_1_1_5_1_1_9_1_117",
        "X_1_1_1_1_1_1_46_1_1_10_1_117",
        "X_1_1_1_1_1_1_6_1_1_11_1_117",
        "X_1_1_1_1_1_1_47_1_1_12_1_117",
        "X_1_1_1_1_1_1_7_1_1_13_1_117",
        "X_1_1_1_1_1_1_48_1_1_14_1_117",
        "X_1_1_1_1_1_1_8_1_1_15_1_117",
        "X_1_1_1_1_1_1_49_1_1_16_1_117",
        "X_1_1_1_1_1_1_9_1_1_17_1_117",
        "X_1_1_1_1_1_1_50_1_1_18_1_117",
        "X_1_1_1_1_1_1_10_1_1_19_1_117",
        "X_1_1_1_1_1_1_51_1_1_20_1_117",
        "X_1_1_1_1_1_1_11_1_1_21_1_117",
        "X_1_1_1_1_1_1_52_1_1_22_1_117",
        "X_1_1_1_1_1_1_12_1_1_23_1_117",
        "X_1_1_1_1_1_1_53_1_1_24_1_117",
        "X_1_1_1_1_1_1_13_1_1_25_1_117",
        "X_1_1_1_1_1_1_54_1_1_26_1_117",
        "X_1_1_1_1_1_1_14_1_1_27_1_117",
        "X_1_1_1_1_1_1_55_1_1_28_1_117",
        "X_1_1_1_1_1_1_15_1_1_29_1_117",
        "X_1_1_1_1_1_1_56_1_1_30_1_117",
        "X_1_1_1_1_1_1_16_1_1_31_1_117",
        "X_1_1_1_1_1_1_57_1_1_32_1_117",
        "X_1_1_1_1_1_1_17_1_1_33_1_117",
        "X_1_1_1_1_1_1_58_1_1_34_1_117",
        "X_1_1_1_1_1_1_18_1_1_35_1_117",
        "X_1_1_1_1_1_1_59_1_1_36_1_117",
        "X_1_1_1_1_1_1_19_1_1_37_1_117",
        "X_1_1_1_1_1_1_60_1_1_38_1_117",
        "X_1_1_1_1_1_1_20_1_1_39_1_117",
        "X_1_1_1_1_1_1_61_1_1_40_1_117",
        "X_1_1_1_1_1_1_21_1_1_41_1_117",
        "X_1_1_1_1_1_1_62_1_1_42_1_117",
        "X_1_1_1_1_1_1_22_1_1_43_1_117",
        "X_1_1_1_1_1_1_63_1_1_44_1_117",
        "X_1_1_1_1_1_1_23_1_1_45_1_117",
        "X_1_1_1_1_1_1_64_1_1_46_1_117",
        "X_1_1_1_1_1_1_24_1_1_47_1_117",
        "X_1_1_1_1_1_1_65_1_1_48_1_117",
        "X_1_1_1_1_1_1_25_1_1_49_1_117",
        "X_1_1_1_1_1_1_66_1_1_50_1_117",
        "X_1_1_1_1_1_1_26_1_1_51_1_117",
        "X_1_1_1_1_1_1_67_1_1_52_1_117",
        "X_1_1_1_1_1_1_27_1_1_53_1_117",
        "X_1_1_1_1_1_1_68_1_1_54_1_117",
        "X_1_1_1_1_1_1_28_1_1_55_1_117",
        "X_1_1_1_1_1_1_69_1_1_56_1_117",
        "X_1_1_1_1_1_1_29_1_1_57_1_117",
        "X_1_1_1_1_1_1_70_1_1_58_1_117",
        "X_1_1_1_1_1_1_30_1_1_59_1_117",
        "X_1_1_1_1_1_1_71_1_1_60_1_117",
        "X_1_1_1_1_1_1_31_1_1_61_1_117",
        "X_1_1_1_1_1_1_72_1_1_62_1_117",
        "X_1_1_1_1_1_1_32_1_1_63_1_117",
        "X_1_1_1_1_1_1_73_1_1_64_1_117",
        "X_1_1_1_1_1_1_33_1_1_65_1_117",
        "X_1_1_1_1_1_1_74_1_1_66_1_117",
        "X_1_1_1_1_1_1_34_1_1_67_1_117",
        "X_1_1_1_1_1_1_75_1_1_68_1_117",
        "X_1_1_1_1_1_1_35_1_1_69_1_117",
        "X_1_1_1_1_1_1_76_1_1_70_1_117",
        "X_1_1_1_1_1_1_36_1_1_71_1_117",
        "X_1_1_1_1_1_1_77_1_1_72_1_117",
        "X_1_1_1_1_1_1_37_1_1_73_1_117",
        "X_1_1_1_1_1_1_78_1_1_74_1_117",
        "X_1_1_1_1_1_1_38_1_1_75_1_117",
        "X_1_1_1_1_1_1_79_1_1_76_1_117",
        "X_1_1_1_1_1_1_39_1_1_77_1_117",
        "X_1_1_1_1_1_1_80_1_1_78_1_117",
        "X_1_1_1_1_1_1_40_1_1_79_1_117",
        "X_1_1_1_1_1_1_81_1_1_80_1_117",
        "X_1_1_1_1_1_1_41_1_1_81_1_117"
],
      "CsaImage.ProtocolSliceNumber": [0, 1, 2, 3, 4, 5, 6, 7, 8, 9, 10, 11, 12, 13, 14, 15, 16, 17, 18, 19, 20, 21, 22, 23, 24, 25, 26, 27, 28, 29, 30, 31, 32, 33, 34, 35, 36, 37, 38, 39, 40, 41, 42, 43, 44, 45, 46, 47, 48, 49, 50, 51, 52, 53, 54, 55, 56, 57, 58, 59, 60, 61, 62, 63, 64, 65, 66, 67, 68, 69, 70, 71, 72, 73, 74, 75, 76, 77, 78, 79, 80],
      "CsaImage.RFSWDDataType": [
        "predicted",
        "predicted",
        "predicted",
        "predicted",
        "predicted",
        "predicted",
        "predicted",
        "predicted",
        "predicted",
        "predicted",
        "predicted",
        "predicted",
        "predicted",
        "predicted",
        "predicted",
        "predicted",
        "predicted",
        "predicted",
        "predicted",
        "predicted",
        "predicted",
        "predicted",
        "predicted",
        "measured",
        "predicted",
        "measured",
        "predicted",
        "predicted",
        "predicted",
        "predicted",
        "predicted",
        "predicted",
        "predicted",
        "predicted",
        "predicted",
        "predicted",
        "predicted",
        "predicted",
        "predicted",
        "predicted",
        "predicted",
        "predicted",
        "predicted",
        "predicted",
        "predicted",
        "predicted",
        "predicted",
        "predicted",
        "predicted",
        "predicted",
        "measured",
        "predicted",
        "measured",
        "predicted",
        "predicted",
        "predicted",
        "predicted",
        "predicted",
        "predicted",
        "predicted",
        "predicted",
        "predicted",
        "predicted",
        "predicted",
        "predicted",
        "predicted",
        "predicted",
        "predicted",
        "predicted",
        "predicted",
        "predicted",
        "predicted",
        "predicted",
        "predicted",
        "predicted",
        "predicted",
        "predicted",
        "measured",
        "predicted",
        "measured",
        "predicted"
],
      "CsaImage.SlicePosition_PCS": [
        [-125.93573336, -119.35154104, -94.14630097],
        [-126.03571777, -119.73634672, -92.49344605],
        [-126.13570241, -120.1211524, -90.84059113],
        [-126.23568706, -120.50595903, -89.18773621],
        [-126.3356717, -120.89076471, -87.53488129],
        [-126.43565635, -121.27557039, -85.88202637],
        [-126.535641, -121.66037607, -84.22917145],
        [-126.63562564, -122.0451827, -82.57632035],
        [-126.73561029, -122.42998838, -80.92346543],
        [-126.83559493, -122.81479406, -79.27061051],
        [-126.93557934, -123.19959974, -77.61775559],
        [-127.03556399, -123.58440638, -75.96490067],
        [-127.13554863, -123.96921205, -74.31204575],
        [-127.23553328, -124.35401773, -72.65919464],
        [-127.33551792, -124.73882437, -71.00633973],
        [-127.43550257, -125.12363005, -69.35348481],
        [-127.53548722, -125.50843573, -67.70062989],
        [-127.63547186, -125.8932414, -66.04777497],
        [-127.73545651, -126.27804804, -64.39492195],
        [-127.83544115, -126.66285372, -62.74206704],
        [-127.9354258, -127.0476594, -61.08921212],
        [-128.03541044, -127.43246603, -59.4363591],
        [-128.13539509, -127.81727171, -57.78350418],
        [-128.23537926, -128.20207739, -56.13064926],
        [-128.3353639, -128.58688307, -54.47779435],
        [-128.43534855, -128.97168875, -52.82494133],
        [-128.5353332, -129.35649443, -51.17208641],
        [-128.63531784, -129.74130201, -49.51923149],
        [-128.73530249, -130.12610769, -47.86637753],
        [-128.83528713, -130.51091337, -46.21352356],
        [-128.93527178, -130.89571905, -44.56066864],
        [-129.03525643, -131.28052473, -42.90781468],
        [-129.13524107, -131.66533041, -41.25496024],
        [-129.23522572, -132.05013609, -39.60210627],
        [-129.33521036, -132.43494368, -37.94925183],
        [-129.43519501, -132.81974935, -36.29639738],
        [-129.53517966, -133.20455503, -34.64354306],
        [-129.6351643, -133.58936071, -32.99068874],
        [-129.73514895, -133.97416639, -31.33783429],
        [-129.83513359, -134.35897207, -29.68498009],
        [-129.93511824, -134.74377775, -28.03212565],
        [-130.03510241, -135.12858343, -26.37927121],
        [-130.13508705, -135.51339102, -24.72641724],
        [-130.2350717, -135.8981967, -23.07356232],
        [-130.33505635, -136.28300238, -21.42070835],
        [-130.43504099, -136.66780805, -19.76785439],
        [-130.53502564, -137.05261373, -18.11499947],
        [-130.63501028, -137.43741941, -16.46214455],
        [-130.73499493, -137.82222509, -14.80929154],
        [-130.83497957, -138.20703268, -13.15643662],
        [-130.93496422, -138.59183836, -11.5035817],
        [-131.03494887, -138.97664404, -9.85072869],
        [-131.13493351, -139.36144972, -8.19787377],
        [-131.23491816, -139.7462554, -6.54501885],
        [-131.3349028, -140.13106108, -4.89216584],
        [-131.43488745, -140.51586676, -3.23931092],
        [-131.5348721, -140.90067434, -1.586456],
        [-131.63485674, -141.28548002, 0.06639892],
        [-131.73484091, -141.6702857, 1.71925384],
        [-131.83482556, -142.05509138, 3.37210495],
        [-131.93481068, -142.43989706, 5.02495987],
        [-132.03479485, -142.82470274, 6.67781479],
        [-132.13477997, -143.20951033, 8.3306697],
        [-132.23476414, -143.5943141, 9.98352462],
        [-132.33474926, -143.97912168, 11.63637954],
        [-132.43473343, -144.36392546, 13.28923446],
        [-132.53471855, -144.74873304, 14.94208557],
        [-132.63470272, -145.13353681, 16.59494049],
        [-132.73468689, -145.5183444, 18.24779541],
        [-132.83467201, -145.90315199, 19.90065033],
        [-132.93465618, -146.28795576, 21.55350525],
        [-133.03464131, -146.67276335, 23.20636016],
        [-133.13462547, -147.05756712, 24.85921127],
        [-133.2346106, -147.44237471, 26.51206619],
        [-133.33459477, -147.82717848, 28.16492111],
        [-133.43457989, -148.21198606, 29.81777603],
        [-133.53456406, -148.59679365, 31.47063095],
        [-133.63454918, -148.98159742, 33.12348587],
        [-133.73453335, -149.36640501, 34.77634079],
        [-133.83451847, -149.75120878, 36.42919571],
        [-133.93450264, -150.13601637, 38.08205063]
],
      "CsaImage.TimeAfterStart": [16.4, 18.515, 16.55, 18.665, 16.7025, 18.8175, 16.8525, 18.9675, 17.0025, 19.12, 17.155, 19.27, 17.305, 19.4225, 17.4575, 19.5725, 17.6075, 19.7225, 17.76, 19.875, 17.91, 20.025, 18.0625, 20.1775, 18.2125, 20.3275, 18.3625, 16.4, 18.515, 16.55, 18.665, 16.7025, 18.8175, 16.8525, 18.9675, 17.0025, 19.12, 17.155, 19.27, 17.305, 19.4225, 17.4575, 19.5725, 17.6075, 19.7225, 17.76, 19.875, 17.91, 20.025, 18.0625, 20.1775, 18.2125, 20.3275, 18.3625, 16.4, 18.515, 16.55, 18.665, 16.7025, 18.8175, 16.8525, 18.9675, 17.0025, 19.12, 17.155, 19.27, 17.305, 19.4225, 17.4575, 19.5725, 17.6075, 19.7225, 17.76, 19.875, 17.91, 20.025, 18.0625, 20.1775, 18.2125, 20.3275, 18.3625],
      "ImagePositionPatient": [
        [-125.93573335842, -119.35154104144, -94.146300967878],
        [-126.03571776584, -119.73634672077, -92.493446048444],
        [-126.13570241169, -120.12115240009, -90.84059112901],
        [-126.23568705753, -120.50595903308, -89.187736209577],
        [-126.33567170337, -120.8907647124, -87.534881290143],
        [-126.43565634922, -121.27557039172, -85.88202637071],
        [-126.53564099506, -121.66037607105, -84.229171451276],
        [-126.63562564091, -122.04518270404, -82.57632034654],
        [-126.73561028675, -122.42998838336, -80.923465427106],
        [-126.83559493259, -122.81479406268, -79.270610507672],
        [-126.93557934002, -123.19959974201, -77.617755588239],
        [-127.03556398586, -123.584406375, -75.964900668805],
        [-127.1355486317, -123.96921205432, -74.312045749372],
        [-127.23553327755, -124.35401773364, -72.659194644635],
        [-127.33551792339, -124.73882436664, -71.006339725202],
        [-127.43550256923, -125.12363004596, -69.353484805768],
        [-127.53548721508, -125.50843572528, -67.700629886335],
        [-127.63547186092, -125.8932414046, -66.047774966901],
        [-127.73545650677, -126.2780480376, -64.394921954816],
        [-127.83544115261, -126.66285371692, -62.742067035382],
        [-127.93542579845, -127.04765939624, -61.089212115949],
        [-128.0354104443, -127.43246602924, -59.436359103864],
        [-128.13539509014, -127.81727170856, -57.78350418443],
        [-128.23537925915, -128.20207738788, -56.130649264997],
        [-128.33536390499, -128.5868830672, -54.477794345563],
        [-128.43534855083, -128.97168874652, -52.824941333478],
        [-128.53533319668, -129.35649442584, -51.172086414045],
        [-128.63531784252, -129.74130201251, -49.519231494611],
        [-128.73530248836, -130.12610769183, -47.866377528852],
        [-128.83528713421, -130.51091337116, -46.213523563092],
        [-128.93527178005, -130.89571905048, -44.560668643659],
        [-129.03525642589, -131.2805247298, -42.9078146779],
        [-129.13524107174, -131.66533040912, -41.254960235303],
        [-129.23522571758, -132.05013608844, -39.602106269544],
        [-129.33521036342, -132.43494367511, -37.949251826947],
        [-129.43519500927, -132.81974935443, -36.296397384351],
        [-129.53517965511, -133.20455503375, -34.643543060964],
        [-129.63516430095, -133.58936071307, -32.990688737577],
        [-129.7351489468, -133.9741663924, -31.33783429498],
        [-129.83513359264, -134.35897207172, -29.684980090802],
        [-129.93511823849, -134.74377775104, -28.032125648206],
        [-130.03510240749, -135.12858343036, -26.379271205609],
        [-130.13508705333, -135.51339101703, -24.72641723985],
        [-130.23507169918, -135.89819669635, -23.073562320417],
        [-130.33505634502, -136.28300237567, -21.420708354657],
        [-130.43504099087, -136.66780805499, -19.767854388898],
        [-130.53502563671, -137.05261373432, -18.114999469464],
        [-130.63501028255, -137.43741941364, -16.462144550031],
        [-130.7349949284, -137.82222509296, -14.809291537946],
        [-130.83497957424, -138.20703267963, -13.156436618512],
        [-130.93496422008, -138.59183835895, -11.503581699079],
        [-131.03494886593, -138.97664403827, -9.8507286869937],
        [-131.13493351177, -139.36144971759, -8.1978737675601],
        [-131.23491815761, -139.74625539691, -6.5450188481266],
        [-131.33490280346, -140.13106107623, -4.8921658360416],
        [-131.4348874493, -140.51586675556, -3.239310916608],
        [-131.53487209514, -140.90067434223, -1.5864559971744],
        [-131.63485674099, -141.28548002155, 0.06639892225919],
        [-131.73484090999, -141.67028570087, 1.7192538416928],
        [-131.83482555584, -142.05509138019, 3.3721049464291],
        [-131.93481067852, -142.43989705951, 5.0249598658627],
        [-132.03479484752, -142.82470273883, 6.6778147852963],
        [-132.13477997021, -143.2095103255, 8.3306697047299],
        [-132.23476413921, -143.59431409747, 9.9835246241635],
        [-132.33474926189, -143.97912168414, 11.636379543597],
        [-132.4347334309, -144.36392545612, 13.289234463031],
        [-132.53471855358, -144.74873304279, 14.942085567767],
        [-132.63470272259, -145.13353681476, 16.594940487201],
        [-132.73468689159, -145.51834440143, 18.247795406634],
        [-132.83467201427, -145.9031519881, 19.900650326068],
        [-132.93465618328, -146.28795576007, 21.553505245501],
        [-133.03464130596, -146.67276334674, 23.206360164935],
        [-133.13462547497, -147.05756711871, 24.859211269671],
        [-133.23461059765, -147.44237470538, 26.512066189105],
        [-133.33459476665, -147.82717847736, 28.164921108538],
        [-133.43457988933, -148.21198606403, 29.817776027972],
        [-133.53456405834, -148.5967936507, 31.470630947406],
        [-133.63454918102, -148.98159742267, 33.123485866839],
        [-133.73453335003, -149.36640500934, 34.776340786273],
        [-133.83451847271, -149.75120878131, 36.429195705706],
        [-133.93450264171, -150.13601636798, 38.08205062514]
],
      "InstanceCreationTime": ["174314.177000", "174314.268000", "174314.191000", "174314.281000", "174314.197000", "174314.286000", "174314.203000", "174314.292000", "174314.209000", "174314.298000", "174314.215000", "174314.304000", "174314.220000", "174314.310000", "174314.227000", "174314.318000", "174314.233000", "174314.324000", "174314.239000", "174314.330000", "174314.245000", "174314.336000", "174314.251000", "174314.342000", "174314.256000", "174314.349000", "174314.262000", "174314.180000", "174314.277000", "174314.193000", "174314.282000", "174314.199000", "174314.288000", "174314.205000", "174314.294000", "174314.211000", "174314.300000", "174314.217000", "174314.306000", "174314.222000", "174314.313000", "174314.229000", "174314.320000", "174314.235000", "174314.326000", "174314.241000", "174314.332000", "174314.247000", "174314.338000", "174314.252000", "174314.344000", "174314.258000", "174314.351000", "174314.264000", "174314.182000", "174314.279000", "174314.195000", "174314.284000", "174314.201000", "174314.290000", "174314.207000", "174314.296000", "174314.213000", "174314.302000", "174314.219000", "174314.308000", "174314.224000", "174314.315000", "174314.231000", "174314.322000", "174314.237000", "174314.328000", "174314.243000", "174314.334000", "174314.249000", "174314.340000", "174314.254000", "174314.347000", "174314.260000", "174314.353000", "174314.266000"],
      "InstanceNumber": [1, 2, 3, 4, 5, 6, 7, 8, 9, 10, 11, 12, 13, 14, 15, 16, 17, 18, 19, 20, 21, 22, 23, 24, 25, 26, 27, 28, 29, 30, 31, 32, 33, 34, 35, 36, 37, 38, 39, 40, 41, 42, 43, 44, 45, 46, 47, 48, 49, 50, 51, 52, 53, 54, 55, 56, 57, 58, 59, 60, 61, 62, 63, 64, 65, 66, 67, 68, 69, 70, 71, 72, 73, 74, 75, 76, 77, 78, 79, 80, 81],
      "LargestImagePixelValue": [34551, 32588, 22080, 31104, 32465, 27394, 27532, 32487, 31972, 32666, 26169, 23586, 27710, 28462, 31548, 29409, 39025, 37673, 40099, 41394, 42035, 33995, 46810, 54274, 52342, 40776, 43049, 49316, 42015, 45658, 48314, 44184, 65535, 63978, 56561, 45820, 40968, 46193, 47601, 43385, 49998, 40324, 42357, 45149, 55698, 63651, 53954, 56502, 55223, 65535, 65535, 65535, 54817, 61909, 56565, 50188, 45964, 43728, 46510, 45182, 45167, 56505, 65535, 47383, 37639, 43912, 43713, 41920, 44748, 54162, 65080, 56703, 65535, 65535, 65535, 59509, 43284, 34113, 5419, 6221, 6319],
      "SliceLocation": [-57.112532093349, -55.412531600037, -53.712531092703, -52.012530369498, -50.312529862163, -48.612529354828, -46.912528847494, -45.212531833194, -43.512531325859, -41.812530818525, -40.112530325213, -38.412529602008, -36.712529094673, -35.012532296243, -33.312531573039, -31.612531065704, -29.912530558369, -28.212530051035, -26.512531182282, -24.812530674948, -23.112530167613, -21.412531298861, -19.712530791526, -18.012530312236, -16.312529804902, -14.61253115202, -12.912530644685, -11.21252970561, -9.5125301255013, -7.812530545393, -6.1125300380584, -4.41253045795, -2.7125304142285, -1.0125308341202, 0.68746964134192, 2.3874696850634, 4.0874696128816, 5.7874695406998, 7.4874695844213, 9.1874693963362, 10.887469440058, 12.587469455734, 14.287469467583, 15.987469974918, 17.687469555026, 19.387469135135, 21.087469642469, 22.787470149804, 24.487468802686, 26.187469741761, 27.887470249096, 29.587468901978, 31.287469409312, 32.987469916647, 34.687468569529, 36.387469076864, 38.087470015939, 39.787470523274, 41.487471002563, 43.187467800993, 44.887468336372, 46.587468815662, 48.287469782782, 49.987469830331, 51.687470797452, 53.387470845001, 55.087468103216, 56.787468150765, 58.487469061795, 60.187470028915, 61.887470076464, 63.587471043585, 65.287467382228, 66.987468349349, 68.687468396898, 70.387469364018, 72.087470275048, 73.787470378687, 75.487471289718, 77.187471393357, 78.887472304387],
