{
  "AcquisitionMatrixPE": 140,
  "AcquisitionNumber": 1,
  "AcquisitionTime": "10:32:47.500000",
  "BandwidthPerPixelPhaseEncode": 10.352,
  "BaseResolution": 140,
  "BodyPartExamined": "BRAIN",
  "ConsistencyInfo": "N4_VE11E_LATEST_20181129",
  "ConversionSoftware": "dcm2niix",
  "ConversionSoftwareVersion": "v1.0.20201102",
  "DerivedVendorReportedEchoSpacing": 0.000689998,
  "DeviceSerialNumber": "66112",
  "DiffusionScheme": "Monopolar",
  "DwellTime": 2.1e-06,
  "EchoTime": 0.088,
  "EchoTrainLength": 105,
  "EffectiveEchoSpacing": 0.000689998,
  "FlipAngle": 90,
  "ImageComments": "Unaliased MB3/PE3",
  "ImageOrientationPatientDICOM": [0.995511, 0.066732, -0.0671166, -0.0650747, 0.997526, 0.0265853],
  "ImageType": [
    "ORIGINAL",
    "PRIMARY",
    "DIFFUSION",
    "NONE",
    "MB",
    "ND"
],
  "ImagingFrequency": 123.259,
  "InPlanePhaseEncodingDirectionDICOM": "COL",
  "InstitutionAddress": "Maynard 3,Hanover,NH,US,03755",
  "InstitutionName": "Dartmouth College - PBS",
  "InstitutionalDepartmentName": "Department",
  "IntendedFor": [
    "ses-01/dwi/sub-0127_ses-01_acq-96dirX6b0Xmb_dwi.nii.gz"
],
  "MRAcquisitionType": "2D",
  "MagneticFieldStrength": 3,
  "Manufacturer": "Siemens",
  "ManufacturersModelName": "Prisma",
  "Modality": "MR",
  "MultibandAccelerationFactor": 3,
  "PartialFourier": 0.75,
  "PatientPosition": "HFS",
  "PercentPhaseFOV": 100,
  "PercentSampling": 100,
  "PhaseEncodingDirection": "j",
  "PhaseEncodingSteps": 105,
  "PhaseResolution": 1,
  "PixelBandwidth": 1700,
  "ProcedureStepDescription": "Wager_Wager^1076_spacetop",
  "ProtocolName": "dwi_acq-discorr-PA",
  "PulseSequenceDetails": "%CustomerSeq%\\cmrr_mbep2d_diff",
  "ReceiveCoilActiveElements": "HEA;HEP",
  "ReceiveCoilName": "Head_32",
  "ReconMatrixPE": 140,
  "RepetitionTime": 4.1,
  "SAR": 0.135424,
  "ScanOptions": "PFP\\FS",
  "ScanningSequence": "EP",
  "SequenceName": "ep_b0",
  "SequenceVariant": "SK\\SS",
  "SeriesDescription": "dwi_acq-discorr-PA",
  "SeriesNumber": 6,
  "ShimSetting": [4188, -7738, -7255, 168, -155, 129, -55, 120],
  "SliceThickness": 1.7,
  "SliceTiming": [0, 2.11719, 0.14844, 2.26562, 0.30469, 2.41406, 0.45312, 2.57031, 0.60156, 2.71875, 0.75781, 2.86719, 0.90625, 3.02344, 1.05469, 3.17188, 1.21094, 3.32031, 1.35938, 3.47656, 1.50781, 3.625, 1.66406, 3.78125, 1.8125, 3.92969, 1.96094, 0, 2.11719, 0.14844, 2.26562, 0.30469, 2.41406, 0.45312, 2.57031, 0.60156, 2.71875, 0.75781, 2.86719, 0.90625, 3.02344, 1.05469, 3.17188, 1.21094, 3.32031, 1.35938, 3.47656, 1.50781, 3.625, 1.66406, 3.78125, 1.8125, 3.92969, 1.96094, 0, 2.11719, 0.14844, 2.26562, 0.30469, 2.41406, 0.45312, 2.57031, 0.60156, 2.71875, 0.75781, 2.86719, 0.90625, 3.02344, 1.05469, 3.17188, 1.21094, 3.32031, 1.35938, 3.47656, 1.50781, 3.625, 1.66406, 3.78125, 1.8125, 3.92969, 1.96094],
  "SoftwareVersions": "syngo MR E11",
  "SpacingBetweenSlices": 1.7,
  "StationName": "AWP66112",
  "TotalReadoutTime": 0.0959097,
  "TxRefAmp": 243.555,
  "WipMemBlock": "4f716a24-afef-4c02-830f-c14713f2999f||Sequence: R016 ve11e/master r/434b28f1; Aug  7 2019 19:06:17 by eja",
  "dcmmeta_affine": [
    [-1.7065902948379517, -0.11155661195516586, -0.11683192849159241, 136.0962371826172],
    [-0.11439766734838486, 1.7100448608398438, 0.037567138671875, -86.5408935546875],
    [-0.11505702137947083, -0.04557488486170769, 1.6955642700195312, -64.83177947998047],
    [0.0, 0.0, 0.0, 1.0]
],
  "dcmmeta_reorient_transform": [
    [0.0, -1.0, 0.0, 139.0],
    [1.0, 0.0, 0.0, 0.0],
    [0.0, 0.0, -1.0, 80.0],
    [0.0, 0.0, 0.0, 1.0]
],
  "dcmmeta_shape": [140, 140, 81],
  "dcmmeta_slice_dim": 2,
  "dcmmeta_version": 0.6,
  "global": {
    "const": {
      "AccessionNumber": "A004845",
      "AcquisitionMatrix": [140, 0, 0, 140],
      "AcquisitionNumber": 1,
      "AngioFlag": "N",
      "BitsAllocated": 16,
      "BitsStored": 16,
      "BodyPartExamined": "BRAIN",
      "Columns": 140,
      "EchoNumbers": 1,
      "EchoTime": 88.0,
      "EchoTrainLength": 105,
      "FlipAngle": 90.0,
      "HighBit": 15,
      "ImageOrientationPatient": [0.99551102779291, 0.0667319706701, -0.0671165973004, -0.0650746888433, 0.99752619215839, 0.02658534991171],
      "ImageType": [
        "ORIGINAL",
        "PRIMARY",
        "DIFFUSION",
        "NONE",
        "MB",
        "ND"
],
      "ImagedNucleus": "1H",
      "ImagingFrequency": 123.259212,
      "InPlanePhaseEncodingDirection": "COL",
      "MRAcquisitionType": "2D",
      "MagneticFieldStrength": 3.0,
      "Manufacturer": "SIEMENS",
      "ManufacturerModelName": "Prisma",
      "Modality": "MR",
      "NumberOfAverages": 1.0,
      "NumberOfPhaseEncodingSteps": 105,
      "PercentPhaseFieldOfView": 100.0,
      "PercentSampling": 100.0,
      "PerformedProcedureStepStartTime": "101206.751000",
      "PhotometricInterpretation": "MONOCHROME2",
      "PixelBandwidth": 1700.0,
      "PixelRepresentation": 0,
      "PixelSpacing": [1.7142857313156, 1.7142857313156],
      "ProtocolName": "dwi_acq-discorr-PA",
      "RepetitionTime": 4100.0,
      "Rows": 140,
      "SAR": 0.13542377940102,
      "SamplesPerPixel": 1,
      "ScanOptions": [
        "PFP",
        "FS"
],
      "ScanningSequence": "EP",
      "SequenceName": "ep_b0",
      "SequenceVariant": [
        "SK",
        "SS"
],
      "SeriesDescription": "dwi_acq-discorr-PA",
      "SeriesNumber": 6,
      "SeriesTime": "103251.032000",
      "SliceThickness": 1.7000000476837,
      "SmallestImagePixelValue": 0,
      "SoftwareVersions": "syngo MR E11",
      "SpacingBetweenSlices": 1.7,
      "SpecificCharacterSet": "ISO_IR 100",
      "StudyID": "1",
      "StudyTime": "101206.640000",
      "TransmitCoilName": "Body",
      "VariableFlipAngleFlag": "N",
      "WindowCenterWidthExplanation": "Algo1"
    },
    "slices": {
      "AcquisitionTime": ["103247.500000", "103249.615000", "103247.650000", "103249.765000", "103247.802500", "103249.917500", "103247.952500", "103250.067500", "103248.102500", "103250.220000", "103248.255000", "103250.370000", "103248.405000", "103250.522500", "103248.557500", "103250.672500", "103248.707500", "103250.822500", "103248.860000", "103250.975000", "103249.010000", "103251.125000", "103249.162500", "103251.277500", "103249.312500", "103251.427500", "103249.462500", "103247.500000", "103249.615000", "103247.650000", "103249.765000", "103247.802500", "103249.917500", "103247.952500", "103250.067500", "103248.102500", "103250.220000", "103248.255000", "103250.370000", "103248.405000", "103250.522500", "103248.557500", "103250.672500", "103248.707500", "103250.822500", "103248.860000", "103250.975000", "103249.010000", "103251.125000", "103249.162500", "103251.277500", "103249.312500", "103251.427500", "103249.462500", "103247.500000", "103249.615000", "103247.650000", "103249.765000", "103247.802500", "103249.917500", "103247.952500", "103250.067500", "103248.102500", "103250.220000", "103248.255000", "103250.370000", "103248.405000", "103250.522500", "103248.557500", "103250.672500", "103248.707500", "103250.822500", "103248.860000", "103250.975000", "103249.010000", "103251.125000", "103249.162500", "103251.277500", "103249.312500", "103251.427500", "103249.462500"],
      "ContentTime": ["103251.035000", "103251.127000", "103251.042000", "103251.133000", "103251.047000", "103251.139000", "103251.053000", "103251.145000", "103251.060000", "103251.160000", "103251.067000", "103251.184000", "103251.073000", "103251.940000", "103251.079000", "103251.946000", "103251.092000", "103251.952000", "103251.098000", "103251.958000", "103251.104000", "103251.964000", "103251.109000", "103251.970000", "103251.115000", "103251.976000", "103251.121000", "103251.038000", "103251.129000", "103251.043000", "103251.135000", "103251.049000", "103251.141000", "103251.056000", "103251.150000", "103251.062000", "103251.162000", "103251.069000", "103251.186000", "103251.075000", "103251.942000", "103251.081000", "103251.948000", "103251.094000", "103251.954000", "103251.100000", "103251.960000", "103251.106000", "103251.966000", "103251.111000", "103251.972000", "103251.117000", "103251.978000", "103251.123000", "103251.040000", "103251.131000", "103251.045000", "103251.137000", "103251.051000", "103251.143000", "103251.058000", "103251.158000", "103251.065000", "103251.182000", "103251.071000", "103251.188000", "103251.077000", "103251.944000", "103251.090000", "103251.950000", "103251.096000", "103251.956000", "103251.102000", "103251.962000", "103251.108000", "103251.968000", "103251.113000", "103251.974000", "103251.119000", "103251.980000", "103251.125000"],
      "CsaImage.GSWDDataType": [
        "predicted",
        "predicted",
        "predicted",
        "predicted",
        "predicted",
        "predicted",
        "predicted",
        "predicted",
        "predicted",
        "predicted",
        "predicted",
        "predicted",
        "predicted",
        "predicted",
        "predicted",
        "predicted",
        "predicted",
        "predicted",
        "predicted",
        "predicted",
        "predicted",
        "predicted",
        "predicted",
        "measured",
        "predicted",
        "measured",
        "predicted",
        "predicted",
        "predicted",
        "predicted",
        "predicted",
        "predicted",
        "predicted",
        "predicted",
        "predicted",
        "predicted",
        "predicted",
        "predicted",
        "predicted",
        "predicted",
        "predicted",
        "predicted",
        "predicted",
        "predicted",
        "predicted",
        "predicted",
        "predicted",
        "predicted",
        "predicted",
        "predicted",
        "measured",
        "predicted",
        "measured",
        "predicted",
        "predicted",
        "predicted",
        "predicted",
        "predicted",
        "predicted",
        "predicted",
        "predicted",
        "predicted",
        "predicted",
        "predicted",
        "predicted",
        "predicted",
        "predicted",
        "predicted",
        "predicted",
        "predicted",
        "predicted",
        "predicted",
        "predicted",
        "predicted",
        "predicted",
        "predicted",
        "predicted",
        "measured",
        "predicted",
        "measured",
        "predicted"
],
      "CsaImage.ICE_Dims": [
        "X_1_1_1_1_1_1_1_1_1_1_1_132",
        "X_1_1_1_1_1_1_42_1_1_2_1_132",
        "X_1_1_1_1_1_1_2_1_1_3_1_132",
        "X_1_1_1_1_1_1_43_1_1_4_1_132",
        "X_1_1_1_1_1_1_3_1_1_5_1_132",
        "X_1_1_1_1_1_1_44_1_1_6_1_132",
        "X_1_1_1_1_1_1_4_1_1_7_1_132",
        "X_1_1_1_1_1_1_45_1_1_8_1_132",
        "X_1_1_1_1_1_1_5_1_1_9_1_132",
        "X_1_1_1_1_1_1_46_1_1_10_1_132",
        "X_1_1_1_1_1_1_6_1_1_11_1_132",
        "X_1_1_1_1_1_1_47_1_1_12_1_132",
        "X_1_1_1_1_1_1_7_1_1_13_1_132",
        "X_1_1_1_1_1_1_48_1_1_14_1_132",
        "X_1_1_1_1_1_1_8_1_1_15_1_132",
        "X_1_1_1_1_1_1_49_1_1_16_1_132",
        "X_1_1_1_1_1_1_9_1_1_17_1_132",
        "X_1_1_1_1_1_1_50_1_1_18_1_132",
        "X_1_1_1_1_1_1_10_1_1_19_1_132",
        "X_1_1_1_1_1_1_51_1_1_20_1_132",
        "X_1_1_1_1_1_1_11_1_1_21_1_132",
        "X_1_1_1_1_1_1_52_1_1_22_1_132",
        "X_1_1_1_1_1_1_12_1_1_23_1_132",
        "X_1_1_1_1_1_1_53_1_1_24_1_132",
        "X_1_1_1_1_1_1_13_1_1_25_1_132",
        "X_1_1_1_1_1_1_54_1_1_26_1_132",
        "X_1_1_1_1_1_1_14_1_1_27_1_132",
        "X_1_1_1_1_1_1_55_1_1_28_1_132",
        "X_1_1_1_1_1_1_15_1_1_29_1_132",
        "X_1_1_1_1_1_1_56_1_1_30_1_132",
        "X_1_1_1_1_1_1_16_1_1_31_1_132",
        "X_1_1_1_1_1_1_57_1_1_32_1_132",
        "X_1_1_1_1_1_1_17_1_1_33_1_132",
        "X_1_1_1_1_1_1_58_1_1_34_1_132",
        "X_1_1_1_1_1_1_18_1_1_35_1_132",
        "X_1_1_1_1_1_1_59_1_1_36_1_132",
        "X_1_1_1_1_1_1_19_1_1_37_1_132",
        "X_1_1_1_1_1_1_60_1_1_38_1_132",
        "X_1_1_1_1_1_1_20_1_1_39_1_132",
        "X_1_1_1_1_1_1_61_1_1_40_1_132",
        "X_1_1_1_1_1_1_21_1_1_41_1_132",
        "X_1_1_1_1_1_1_62_1_1_42_1_132",
        "X_1_1_1_1_1_1_22_1_1_43_1_132",
        "X_1_1_1_1_1_1_63_1_1_44_1_132",
        "X_1_1_1_1_1_1_23_1_1_45_1_132",
        "X_1_1_1_1_1_1_64_1_1_46_1_132",
        "X_1_1_1_1_1_1_24_1_1_47_1_132",
        "X_1_1_1_1_1_1_65_1_1_48_1_132",
        "X_1_1_1_1_1_1_25_1_1_49_1_132",
        "X_1_1_1_1_1_1_66_1_1_50_1_132",
        "X_1_1_1_1_1_1_26_1_1_51_1_132",
        "X_1_1_1_1_1_1_67_1_1_52_1_132",
        "X_1_1_1_1_1_1_27_1_1_53_1_132",
        "X_1_1_1_1_1_1_68_1_1_54_1_132",
        "X_1_1_1_1_1_1_28_1_1_55_1_132",
        "X_1_1_1_1_1_1_69_1_1_56_1_132",
        "X_1_1_1_1_1_1_29_1_1_57_1_132",
        "X_1_1_1_1_1_1_70_1_1_58_1_132",
        "X_1_1_1_1_1_1_30_1_1_59_1_132",
        "X_1_1_1_1_1_1_71_1_1_60_1_132",
        "X_1_1_1_1_1_1_31_1_1_61_1_132",
        "X_1_1_1_1_1_1_72_1_1_62_1_132",
        "X_1_1_1_1_1_1_32_1_1_63_1_132",
        "X_1_1_1_1_1_1_73_1_1_64_1_132",
        "X_1_1_1_1_1_1_33_1_1_65_1_132",
        "X_1_1_1_1_1_1_74_1_1_66_1_132",
        "X_1_1_1_1_1_1_34_1_1_67_1_132",
        "X_1_1_1_1_1_1_75_1_1_68_1_132",
        "X_1_1_1_1_1_1_35_1_1_69_1_132",
        "X_1_1_1_1_1_1_76_1_1_70_1_132",
        "X_1_1_1_1_1_1_36_1_1_71_1_132",
        "X_1_1_1_1_1_1_77_1_1_72_1_132",
        "X_1_1_1_1_1_1_37_1_1_73_1_132",
        "X_1_1_1_1_1_1_78_1_1_74_1_132",
        "X_1_1_1_1_1_1_38_1_1_75_1_132",
        "X_1_1_1_1_1_1_79_1_1_76_1_132",
        "X_1_1_1_1_1_1_39_1_1_77_1_132",
        "X_1_1_1_1_1_1_80_1_1_78_1_132",
        "X_1_1_1_1_1_1_40_1_1_79_1_132",
        "X_1_1_1_1_1_1_81_1_1_80_1_132",
        "X_1_1_1_1_1_1_41_1_1_81_1_132"
],
      "CsaImage.ProtocolSliceNumber": [0, 1, 2, 3, 4, 5, 6, 7, 8, 9, 10, 11, 12, 13, 14, 15, 16, 17, 18, 19, 20, 21, 22, 23, 24, 25, 26, 27, 28, 29, 30, 31, 32, 33, 34, 35, 36, 37, 38, 39, 40, 41, 42, 43, 44, 45, 46, 47, 48, 49, 50, 51, 52, 53, 54, 55, 56, 57, 58, 59, 60, 61, 62, 63, 64, 65, 66, 67, 68, 69, 70, 71, 72, 73, 74, 75, 76, 77, 78, 79, 80],
      "CsaImage.RFSWDDataType": [
        "predicted",
        "predicted",
        "predicted",
        "predicted",
        "predicted",
        "predicted",
        "predicted",
        "predicted",
        "predicted",
        "predicted",
        "predicted",
        "predicted",
        "predicted",
        "predicted",
        "predicted",
        "predicted",
        "predicted",
        "predicted",
        "predicted",
        "predicted",
        "predicted",
        "predicted",
        "predicted",
        "measured",
        "predicted",
        "measured",
        "predicted",
        "predicted",
        "predicted",
        "predicted",
        "predicted",
        "predicted",
        "predicted",
        "predicted",
        "predicted",
        "predicted",
        "predicted",
        "predicted",
        "predicted",
        "predicted",
        "predicted",
        "predicted",
        "predicted",
        "predicted",
        "predicted",
        "predicted",
        "predicted",
        "predicted",
        "predicted",
        "predicted",
        "measured",
        "predicted",
        "measured",
        "predicted",
        "predicted",
        "predicted",
        "predicted",
        "predicted",
        "predicted",
        "predicted",
        "predicted",
        "predicted",
        "predicted",
        "predicted",
        "predicted",
        "predicted",
        "predicted",
        "predicted",
        "predicted",
        "predicted",
        "predicted",
        "predicted",
        "predicted",
        "predicted",
        "predicted",
        "predicted",
        "predicted",
        "measured",
        "predicted",
        "measured",
        "predicted"
],
      "CsaImage.SlicePosition_PCS": [
        [-120.58987418, -151.15533391, -71.16670681],
        [-120.4730424, -151.19290105, -69.47114254],
        [-120.35620967, -151.23046819, -67.77557827],
        [-120.23937789, -151.26803533, -66.080014],
        [-120.12254611, -151.30560247, -64.38444973],
        [-120.00571433, -151.34316961, -62.68888546],
        [-119.88888255, -151.38073674, -60.99332119],
        [-119.77205077, -151.41830388, -59.29775692],
        [-119.65521804, -151.45587293, -57.60218883],
        [-119.53838674, -151.49344007, -55.90662456],
        [-119.42155448, -151.53100721, -54.21106029],
        [-119.3047227, -151.56857434, -52.51549602],
        [-119.18789092, -151.60614148, -50.81993175],
        [-119.07105866, -151.64370862, -49.12436748],
        [-118.95422688, -151.68127576, -47.42880321],
        [-118.8373951, -151.7188429, -45.73323894],
        [-118.72056333, -151.75641004, -44.03767467],
        [-118.60373107, -151.79397718, -42.3421104],
        [-118.48689929, -151.83154432, -40.64654613],
        [-118.37006751, -151.86911336, -38.95098186],
        [-118.25323525, -151.9066805, -37.25541759],
        [-118.13640347, -151.94424764, -35.55985332],
        [-118.01957169, -151.98181478, -33.86428524],
        [-117.90273944, -152.01938192, -32.16872097],
        [-117.78590766, -152.05694905, -30.4731567],
        [-117.66907588, -152.09451619, -28.77759243],
        [-117.5522441, -152.13208333, -27.08202816],
        [-117.43541184, -152.16965047, -25.38646389],
        [-117.31858006, -152.20721761, -23.69089962],
        [-117.20174828, -152.24478475, -21.99533535],
        [-117.08491603, -152.28235379, -20.29977108],
        [-116.96808425, -152.31992093, -18.60420681],
        [-116.85125247, -152.35748807, -16.90864254],
        [-116.73442021, -152.39505521, -15.21307827],
        [-116.61758843, -152.43262235, -13.51751209],
        [-116.50075665, -152.47018949, -11.82194782],
        [-116.38392487, -152.50775663, -10.12638355],
        [-116.26709262, -152.54532376, -8.43081928],
        [-116.15026084, -152.5828909, -6.73525501],
        [-116.03342906, -152.62045804, -5.03969074],
        [-115.9165968, -152.65802518, -3.34412552],
        [-115.79976502, -152.69559423, -1.64856125],
        [-115.68293324, -152.73316137, 0.04700302],
        [-115.56610123, -152.7707285, 1.74256777],
        [-115.44926921, -152.80829564, 3.43813228],
        [-115.33243743, -152.84586278, 5.13369673],
        [-115.21560541, -152.88342992, 6.8292613],
        [-115.09877363, -152.92099706, 8.5248258],
        [-114.98194161, -152.9585642, 10.22039007],
        [-114.8651096, -152.99613134, 11.91595482],
        [-114.74827782, -153.03369847, 13.61151909],
        [-114.6314458, -153.07126561, 15.30708336],
        [-114.51461402, -153.10883466, 17.00264858],
        [-114.397782, -153.1464018, 18.69821285],
        [-114.28094998, -153.18396894, 20.39377712],
        [-114.1641182, -153.22153608, 22.08934139],
        [-114.04728619, -153.25910321, 23.78490566],
        [-113.93045441, -153.29667035, 25.48046993],
        [-113.81362239, -153.33423749, 27.17603611],
        [-113.69679037, -153.37180463, 28.87160038],
        [-113.57995859, -153.40937177, 30.56716465],
        [-113.46312669, -153.44693891, 32.26272892],
        [-113.34629467, -153.48450605, 33.95829319],
        [-113.22946278, -153.52207509, 35.65385746],
        [-113.11263088, -153.55964223, 37.34942173],
        [-112.99579898, -153.59720937, 39.044986],
        [-112.87896708, -153.63477651, 40.74055027],
        [-112.76213506, -153.67234365, 42.43611454],
        [-112.64530322, -153.70991079, 44.13167881],
        [-112.52847126, -153.74747792, 45.82724308],
        [-112.41163937, -153.78504506, 47.52281117],
        [-112.29480741, -153.8226122, 49.21837544],
        [-112.17797551, -153.86017934, 50.91393971],
        [-112.06114358, -153.89774648, 52.60950398],
        [-111.94431165, -153.93531552, 54.30506825],
        [-111.82747974, -153.97288266, 56.00063252],
        [-111.71064782, -154.0104498, 57.69619679],
        [-111.5938159, -154.04801694, 59.39176106],
        [-111.47698398, -154.08558408, 61.08732533],
        [-111.36015207, -154.12315122, 62.7828896],
        [-111.24332014, -154.16071836, 64.47845387]
],
      "CsaImage.TimeAfterStart": [16.4, 18.5175, 16.5525, 18.6675, 16.7025, 18.82, 16.855, 18.97, 17.005, 19.12, 17.1575, 19.2725, 17.3075, 19.4225, 17.46, 19.575, 17.61, 19.725, 17.76, 19.8775, 17.9125, 20.0275, 18.0625, 20.18, 18.215, 20.33, 18.365, 16.4, 18.5175, 16.5525, 18.6675, 16.7025, 18.82, 16.855, 18.97, 17.005, 19.12, 17.1575, 19.2725, 17.3075, 19.4225, 17.46, 19.575, 17.61, 19.725, 17.76, 19.8775, 17.9125, 20.0275, 18.0625, 20.18, 18.215, 20.33, 18.365, 16.4, 18.5175, 16.5525, 18.6675, 16.7025, 18.82, 16.855, 18.97, 17.005, 19.12, 17.1575, 19.2725, 17.3075, 19.4225, 17.46, 19.575, 17.61, 19.725, 17.76, 19.8775, 17.9125, 20.0275, 18.0625, 20.18, 18.215, 20.33, 18.365],
      "ImagePositionPatient": [
        [-120.58987418089, -151.15533391175, -71.166706808008],
        [-120.47304240141, -151.19290105042, -69.471142537989],
        [-120.35620966826, -151.2304681891, -67.775578267969],
        [-120.23937788878, -151.26803532777, -66.08001399795],
        [-120.1225461093, -151.30560246644, -64.38444972793],
        [-120.00571432982, -151.34316960511, -62.688885457911],
        [-119.88888255034, -151.38073674378, -60.993321187891],
        [-119.77205077086, -151.41830388245, -59.297756917872],
        [-119.6552180377, -151.45587292848, -57.602188833155],
        [-119.53838673506, -151.49344006715, -55.906624563135],
        [-119.42155447874, -151.53100720582, -54.211060293116],
        [-119.30472269926, -151.56857434449, -52.515496023096],
        [-119.18789091978, -151.60614148316, -50.819931753077],
        [-119.07105866346, -151.64370862183, -49.124367483057],
        [-118.95422688398, -151.68127576051, -47.428803213038],
        [-118.8373951045, -151.71884289918, -45.733238943018],
        [-118.72056332502, -151.75641003785, -44.037674672999],
        [-118.60373106871, -151.79397717652, -42.342110402979],
        [-118.48689928923, -151.83154431519, -40.64654613296],
        [-118.37006750975, -151.86911336121, -38.95098186294],
        [-118.25323525343, -151.90668049989, -37.255417592921],
        [-118.13640347395, -151.94424763856, -35.559853322901],
        [-118.01957169447, -151.98181477723, -33.864285238184],
        [-117.90273943815, -152.0193819159, -32.168720968165],
        [-117.78590765867, -152.05694905457, -30.473156698145],
        [-117.66907587919, -152.09451619325, -28.777592428126],
        [-117.55224409971, -152.13208333192, -27.082028158106],
        [-117.4354118434, -152.16965047059, -25.386463888087],
        [-117.31858006392, -152.20721760926, -23.690899618067],
        [-117.20174828444, -152.24478474793, -21.995335348048],
        [-117.08491602812, -152.28235379395, -20.299771078028],
        [-116.96808424864, -152.31992093263, -18.604206808008],
        [-116.85125246916, -152.3574880713, -16.908642537989],
        [-116.73442021284, -152.39505520997, -15.213078267969],
        [-116.61758843336, -152.43262234864, -13.517512090601],
        [-116.50075665388, -152.47018948731, -11.821947820582],
        [-116.3839248744, -152.50775662598, -10.126383550562],
        [-116.26709261809, -152.54532376466, -8.4308192805426],
        [-116.15026083861, -152.58289090333, -6.7352550105231],
        [-116.03342905913, -152.620458042, -5.0396907405036],
        [-115.91659680281, -152.65802518067, -3.3441255168097],
        [-115.79976502333, -152.69559422669, -1.6485612467902],
        [-115.68293324385, -152.73316136536, 0.04700302322934],
        [-115.56610122595, -152.77072850404, 1.742567770086],
        [-115.44926920805, -152.80829564271, 3.4381322785241],
        [-115.33243742857, -152.84586278138, 5.1336967273576],
        [-115.21560541067, -152.88342992005, 6.8292612954004],
        [-115.09877363119, -152.92099705872, 8.5248258038385],
        [-114.98194161329, -152.9585641974, 10.220390073858],
        [-114.8651095954, -152.99613133607, 11.915954820715],
        [-114.74827781592, -153.03369847474, 13.611519090734],
        [-114.63144579802, -153.07126561341, 15.307083360754],
        [-114.51461401854, -153.10883465943, 17.002648584448],
        [-114.39778200064, -153.1464017981, 18.698212854467],
        [-114.28094998274, -153.18396893678, 20.393777124487],
        [-114.16411820326, -153.22153607545, 22.089341394506],
        [-114.04728618536, -153.25910321412, 23.784905664526],
        [-113.93045440588, -153.29667035279, 25.480469934545],
        [-113.81362238798, -153.33423749146, 27.176036111913],
        [-113.69679037008, -153.37180463014, 28.871600381933],
        [-113.5799585906, -153.40937176881, 30.567164651952],
        [-113.46312669191, -153.44693890748, 32.262728921972],
        [-113.34629467402, -153.48450604615, 33.958293191992],
        [-113.22946277533, -153.52207509217, 35.653857462011],
        [-113.11263087664, -153.55964223084, 37.349421732031],
        [-112.99579897795, -153.59720936952, 39.04498600205],
        [-112.87896707926, -153.63477650819, 40.74055027207],
        [-112.76213506136, -153.67234364686, 42.436114542089],
        [-112.64530322228, -153.70991078553, 44.131678812109],
        [-112.52847126398, -153.7474779242, 45.827243082128],
        [-112.41163936529, -153.78504506287, 47.522811166845],
        [-112.294807407, -153.82261220155, 49.218375436865],
        [-112.17797550831, -153.86017934022, 50.913939706884],
        [-112.06114357982, -153.89774647889, 52.609503976904],
        [-111.94431165133, -153.93531552491, 54.305068246923],
        [-111.82747973774, -153.97288266358, 56.000632516943],
        [-111.71064782415, -154.01044980225, 57.696196786962],
        [-111.59381589938, -154.04801694093, 59.391761056982],
        [-111.47698398206, -154.0855840796, 61.087325327001],
        [-111.36015206847, -154.12315121827, 62.782889597021],
        [-111.24332013998, -154.16071835694, 64.47845386704]
],
      "InstanceCreationTime": ["103251.035000", "103251.127000", "103251.042000", "103251.133000", "103251.047000", "103251.139000", "103251.053000", "103251.145000", "103251.060000", "103251.160000", "103251.067000", "103251.184000", "103251.073000", "103251.940000", "103251.079000", "103251.946000", "103251.092000", "103251.952000", "103251.098000", "103251.958000", "103251.104000", "103251.964000", "103251.109000", "103251.970000", "103251.115000", "103251.976000", "103251.121000", "103251.038000", "103251.129000", "103251.043000", "103251.135000", "103251.049000", "103251.141000", "103251.056000", "103251.150000", "103251.062000", "103251.162000", "103251.069000", "103251.186000", "103251.075000", "103251.942000", "103251.081000", "103251.948000", "103251.094000", "103251.954000", "103251.100000", "103251.960000", "103251.106000", "103251.966000", "103251.111000", "103251.972000", "103251.117000", "103251.978000", "103251.123000", "103251.040000", "103251.131000", "103251.045000", "103251.137000", "103251.051000", "103251.143000", "103251.058000", "103251.158000", "103251.065000", "103251.182000", "103251.071000", "103251.188000", "103251.077000", "103251.944000", "103251.090000", "103251.950000", "103251.096000", "103251.956000", "103251.102000", "103251.962000", "103251.108000", "103251.968000", "103251.113000", "103251.974000", "103251.119000", "103251.980000", "103251.125000"],
      "InstanceNumber": [1, 2, 3, 4, 5, 6, 7, 8, 9, 10, 11, 12, 13, 14, 15, 16, 17, 18, 19, 20, 21, 22, 23, 24, 25, 26, 27, 28, 29, 30, 31, 32, 33, 34, 35, 36, 37, 38, 39, 40, 41, 42, 43, 44, 45, 46, 47, 48, 49, 50, 51, 52, 53, 54, 55, 56, 57, 58, 59, 60, 61, 62, 63, 64, 65, 66, 67, 68, 69, 70, 71, 72, 73, 74, 75, 76, 77, 78, 79, 80, 81],
      "LargestImagePixelValue": [35763, 31397, 26329, 28224, 24133, 26259, 29051, 24216, 23901, 25404, 28233, 19540, 22452, 27269, 25214, 27641, 25686, 25463, 28698, 41854, 50040, 56426, 59174, 65535, 65535, 65535, 65535, 65535, 65535, 65535, 65535, 65535, 65475, 52499, 35160, 46265, 48686, 38305, 39731, 42234, 45332, 39184, 37235, 28823, 33761, 28163, 31868, 29088, 27429, 32978, 38234, 35816, 35130, 38482, 37267, 34048, 37342, 45774, 57427, 42951, 38648, 49007, 53587, 46965, 38326, 48739, 37150, 35440, 45847, 32356, 33709, 42005, 42653, 37139, 45002, 48630, 42863, 51280, 40698, 28025, 13399],
      "SliceLocation": [-75.928228863767, -74.228229114247, -72.528229299185, -70.828229549664, -69.128229800143, -67.428230050622, -65.728230301101, -64.02823055158, -62.328226889624, -60.628227172874, -58.928227390582, -57.228227641062, -55.528227891541, -53.828228109249, -52.128228359728, -50.428228610207, -48.728228860686, -47.028229078395, -45.328229328874, -43.628229537204, -41.928229754912, -40.228230005391, -38.528226451126, -36.828226668835, -35.128226919314, -33.428227169793, -31.728227420272, -30.02822763798, -28.328227888459, -26.628228138938, -24.928228314498, -23.228228564977, -21.528228815456, -19.828229033164, -18.128227381271, -16.42822763175, -14.728227882229, -13.028228099938, -11.328228350417, -9.6282286008961, -7.9282278674186, -6.2282280757483, -4.5282283262273, -2.8282280847281, -1.1282280810254, 0.57177184684293, 2.2717719099948, 3.9717718973122, 5.6717716632184, 7.3717719047176, 9.0717716542386, 10.771771420145, 12.471772163001, 14.171771928907, 15.871771694814, 17.571771444334, 19.271771210241, 20.971770959762, 22.67177262804, 24.371772393946, 26.071772143467, 27.771771901181, 29.471771667087, 31.17177146695, 32.871771224663, 34.571770982377, 36.27177074009, 37.971770505997, 39.671770259614, 41.371770021424, 43.071773583882, 44.771773345691, 46.471773103405, 48.171772863167, 49.871772665078, 51.571772423815, 53.271772182553, 54.971771942059, 56.671771701052, 58.37177145979, 60.071771219552],
