{
  "AcquisitionMatrixPE": 82,
  "AcquisitionNumber": 1,
  "AcquisitionTime": "15:28:55.937500",
  "BandwidthPerPixelPhaseEncode": 24.888,
  "BaseResolution": 82,
  "BodyPartExamined": "BRAIN",
  "ConsistencyInfo": "N4_VE11C_LATEST_20160120",
  "ConversionSoftware": "dcm2niix",
  "ConversionSoftwareVersion": "v1.0.20201102",
  "DerivedVendorReportedEchoSpacing": 0.00049,
  "DeviceSerialNumber": "66112",
  "DwellTime": 2e-06,
  "EchoTime": 0.0272,
  "EchoTrainLength": 82,
  "EffectiveEchoSpacing": 0.00049,
  "FlipAngle": 44,
  "ImageComments": "Unaliased MB8/PE3",
  "ImageOrientationPatientDICOM": [0.999843, -0.0135547, 0.01137, 0.0116925, 0.988568, 0.150322],
  "ImageType": [
    "ORIGINAL",
    "PRIMARY",
    "M",
    "MB",
    "ND",
    "NORM",
    "MOSAIC"
],
  "ImagingFrequency": 123.252,
  "InPlanePhaseEncodingDirectionDICOM": "COL",
  "InstitutionAddress": "Maynard 3,Hanover,NH,US,03755",
  "InstitutionName": "Dartmouth College - PBS",
  "InstitutionalDepartmentName": "Department",
  "MRAcquisitionType": "2D",
  "MagneticFieldStrength": 3,
  "Manufacturer": "Siemens",
  "ManufacturersModelName": "Prisma",
  "Modality": "MR",
  "MultibandAccelerationFactor": 8,
  "PartialFourier": 1,
  "PatientPosition": "HFS",
  "PercentPhaseFOV": 100,
  "PercentSampling": 100,
  "PhaseEncodingDirection": "j-",
  "PhaseEncodingSteps": 82,
  "PhaseResolution": 1,
  "PixelBandwidth": 3050,
  "ProcedureStepDescription": "Wager_Wager^1076_spacetop",
  "ProtocolName": "func_run-03_task-faces_acq-ap-mb8",
  "PulseSequenceDetails": "%CustomerSeq%\\cmrr_mbep2d_bold",
  "ReceiveCoilActiveElements": "HEA;HEP",
  "ReceiveCoilName": "Head_32",
  "ReconMatrixPE": 82,
  "RepetitionTime": 0.46,
  "SAR": 0.103527,
  "ScanOptions": "FS",
  "ScanningSequence": "EP",
  "SequenceName": "epfid2d1_82",
  "SequenceVariant": "SK\\SS",
  "SeriesDescription": "func_run-03_task-faces_acq-ap-mb8",
  "SeriesNumber": 20,
  "ShimSetting": [4163, -7798, -7208, 494, -3, -280, 76, 81],
  "SliceThickness": 2.7,
  "SliceTiming": [0, 0.25, 0.0625, 0.3125, 0.125, 0.375, 0.1875, 0, 0.25, 0.0625, 0.3125, 0.125, 0.375, 0.1875, 0, 0.25, 0.0625, 0.3125, 0.125, 0.375, 0.1875, 0, 0.25, 0.0625, 0.3125, 0.125, 0.375, 0.1875, 0, 0.25, 0.0625, 0.3125, 0.125, 0.375, 0.1875, 0, 0.25, 0.0625, 0.3125, 0.125, 0.375, 0.1875, 0, 0.25, 0.0625, 0.3125, 0.125, 0.375, 0.1875, 0, 0.25, 0.0625, 0.3125, 0.125, 0.375, 0.1875],
  "SoftwareVersions": "syngo MR E11",
  "SpacingBetweenSlices": 2.7,
  "StationName": "AWP66112",
  "TaskName": "faces",
  "TotalReadoutTime": 0.03969,
  "TxRefAmp": 252.287,
  "WipMemBlock": "941818d4-1e1c-4692-8806-15ae786b0389||Sequence: R016 ve11c/master r/e634e98; Dec 19 2017 11:00:25 by eja",
  "dcmmeta_affine": [
    [-2.682507038116455, 0.031370002776384354, 0.035849373787641525, 109.00860595703125],
    [0.036366358399391174, 2.6522557735443115, 0.40544572472572327, -108.23371124267578],
    [0.030504770576953888, -0.40330174565315247, 2.6691436767578125, -23.998306274414062],
    [0.0, 0.0, 0.0, 1.0]
],
  "dcmmeta_reorient_transform": [
    [0.0, -1.0, 0.0, 81.0],
    [1.0, 0.0, 0.0, 0.0],
    [0.0, 0.0, 1.0, 0.0],
    [0.0, 0.0, 0.0, 1.0]
],
  "dcmmeta_shape": [82, 82, 56, 914],
  "dcmmeta_slice_dim": 2,
  "dcmmeta_version": 0.6,
  "global": {
    "const": {
      "AccessionNumber": "A003607",
      "AcquisitionMatrix": [82, 0, 0, 82],
      "AngioFlag": "N",
      "BitsAllocated": 16,
      "BitsStored": 16,
      "BodyPartExamined": "BRAIN",
      "Columns": 656,
      "EchoNumbers": 1,
      "EchoTime": 27.2,
      "EchoTrainLength": 82,
      "FlipAngle": 44.0,
      "HighBit": 15,
      "ImageOrientationPatient": [0.99984348437515, -0.0135547326123, 0.01136995938295, 0.01169245510691, 0.98856801248585, 0.15032155927662],
      "ImagePositionPatient": [-890.43226523397, -857.35924330917, -181.16822044639],
      "ImageType": [
        "ORIGINAL",
        "PRIMARY",
        "M",
        "MB",
        "ND",
        "NORM",
        "MOSAIC"
],
      "ImagedNucleus": "1H",
      "ImagingFrequency": 123.25212,
      "InPlanePhaseEncodingDirection": "COL",
      "MRAcquisitionType": "2D",
      "MagneticFieldStrength": 3.0,
      "Manufacturer": "SIEMENS",
      "ManufacturerModelName": "Prisma",
      "Modality": "MR",
      "NumberOfAverages": 1.0,
      "NumberOfPhaseEncodingSteps": 82,
      "PercentPhaseFieldOfView": 100.0,
      "PercentSampling": 100.0,
      "PerformedProcedureStepStartTime": "141844.588000",
      "PhotometricInterpretation": "MONOCHROME2",
      "PixelBandwidth": 3050.0,
      "PixelRepresentation": 0,
      "PixelSpacing": [2.6829268932343, 2.6829268932343],
      "ProtocolName": "func_run-03_task-faces_acq-ap-mb8",
      "RepetitionTime": 460.0,
      "Rows": 656,
      "SAR": 0.10352694459558,
      "SamplesPerPixel": 1,
      "ScanOptions": "FS",
      "ScanningSequence": "EP",
      "SequenceName": "epfid2d1_82",
      "SequenceVariant": [
        "SK",
        "SS"
],
      "SeriesDescription": "func_run-03_task-faces_acq-ap-mb8",
      "SeriesNumber": 20,
      "SeriesTime": "152924.043000",
      "SliceLocation": -38.529606187111,
      "SliceThickness": 2.7000000476837,
      "SmallestImagePixelValue": 0,
      "SoftwareVersions": "syngo MR E11",
      "SpacingBetweenSlices": 2.6999999575822,
      "SpecificCharacterSet": "ISO_IR 100",
      "StudyID": "1",
      "StudyTime": "141844.147000",
      "TransmitCoilName": "Body",
      "VariableFlipAngleFlag": "N",
      "WindowCenterWidthExplanation": "Algo1",
      "dBdt": 0.0},
    "slices": {}
  },
  "time": {
    "samples": {
      "AcquisitionNumber": [1, 2, 3, 4, 5, 6, 7, 8, 9, 10, 11, 12, 13, 14, 15, 16, 17, 18, 19, 20, 21, 22, 23, 24, 25, 26, 27, 28, 29, 30, 31, 32, 33, 34, 35, 36, 37, 38, 39, 40, 41, 42, 43, 44, 45, 46, 47, 48, 49, 50, 51, 52, 53, 54, 55, 56, 57, 58, 59, 60, 61, 62, 63, 64, 65, 66, 67, 68, 69, 70, 71, 72, 73, 74, 75, 76, 77, 78, 79, 80, 81, 82, 83, 84, 85, 86, 87, 88, 89, 90, 91, 92, 93, 94, 95, 96, 97, 98, 99, 100, 101, 102, 103, 104, 105, 106, 107, 108, 109, 110, 111, 112, 113, 114, 115, 116, 117, 118, 119, 120, 121, 122, 123, 124, 125, 126, 127, 128, 129, 130, 131, 132, 133, 134, 135, 136, 137, 138, 139, 140, 141, 142, 143, 144, 145, 146, 147, 148, 149, 150, 151, 152, 153, 154, 155, 156, 157, 158, 159, 160, 161, 162, 163, 164, 165, 166, 167, 168, 169, 170, 171, 172, 173, 174, 175, 176, 177, 178, 179, 180, 181, 182, 183, 184, 185, 186, 187, 188, 189, 190, 191, 192, 193, 194, 195, 196, 197, 198, 199, 200, 201, 202, 203, 204, 205, 206, 207, 208, 209, 210, 211, 212, 213, 214, 215, 216, 217, 218, 219, 220, 221, 222, 223, 224, 225, 226, 227, 228, 229, 230, 231, 232, 233, 234, 235, 236, 237, 238, 239, 240, 241, 242, 243, 244, 245, 246, 247, 248, 249, 250, 251, 252, 253, 254, 255, 256, 257, 258, 259, 260, 261, 262, 263, 264, 265, 266, 267, 268, 269, 270, 271, 272, 273, 274, 275, 276, 277, 278, 279, 280, 281, 282, 283, 284, 285, 286, 287, 288, 289, 290, 291, 292, 293, 294, 295, 296, 297, 298, 299, 300, 301, 302, 303, 304, 305, 306, 307, 308, 309, 310, 311, 312, 313, 314, 315, 316, 317, 318, 319, 320, 321, 322, 323, 324, 325, 326, 327, 328, 329, 330, 331, 332, 333, 334, 335, 336, 337, 338, 339, 340, 341, 342, 343, 344, 345, 346, 347, 348, 349, 350, 351, 352, 353, 354, 355, 356, 357, 358, 359, 360, 361, 362, 363, 364, 365, 366, 367, 368, 369, 370, 371, 372, 373, 374, 375, 376, 377, 378, 379, 380, 381, 382, 383, 384, 385, 386, 387, 388, 389, 390, 391, 392, 393, 394, 395, 396, 397, 398, 399, 400, 401, 402, 403, 404, 405, 406, 407, 408, 409, 410, 411, 412, 413, 414, 415, 416, 417, 418, 419, 420, 421, 422, 423, 424, 425, 426, 427, 428, 429, 430, 431, 432, 433, 434, 435, 436, 437, 438, 439, 440, 441, 442, 443, 444, 445, 446, 447, 448, 449, 450, 451, 452, 453, 454, 455, 456, 457, 458, 459, 460, 461, 462, 463, 464, 465, 466, 467, 468, 469, 470, 471, 472, 473, 474, 475, 476, 477, 478, 479, 480, 481, 482, 483, 484, 485, 486, 487, 488, 489, 490, 491, 492, 493, 494, 495, 496, 497, 498, 499, 500, 501, 502, 503, 504, 505, 506, 507, 508, 509, 510, 511, 512, 513, 514, 515, 516, 517, 518, 519, 520, 521, 522, 523, 524, 525, 526, 527, 528, 529, 530, 531, 532, 533, 534, 535, 536, 537, 538, 539, 540, 541, 542, 543, 544, 545, 546, 547, 548, 549, 550, 551, 552, 553, 554, 555, 556, 557, 558, 559, 560, 561, 562, 563, 564, 565, 566, 567, 568, 569, 570, 571, 572, 573, 574, 575, 576, 577, 578, 579, 580, 581, 582, 583, 584, 585, 586, 587, 588, 589, 590, 591, 592, 593, 594, 595, 596, 597, 598, 599, 600, 601, 602, 603, 604, 605, 606, 607, 608, 609, 610, 611, 612, 613, 614, 615, 616, 617, 618, 619, 620, 621, 622, 623, 624, 625, 626, 627, 628, 629, 630, 631, 632, 633, 634, 635, 636, 637, 638, 639, 640, 641, 642, 643, 644, 645, 646, 647, 648, 649, 650, 651, 652, 653, 654, 655, 656, 657, 658, 659, 660, 661, 662, 663, 664, 665, 666, 667, 668, 669, 670, 671, 672, 673, 674, 675, 676, 677, 678, 679, 680, 681, 682, 683, 684, 685, 686, 687, 688, 689, 690, 691, 692, 693, 694, 695, 696, 697, 698, 699, 700, 701, 702, 703, 704, 705, 706, 707, 708, 709, 710, 711, 712, 713, 714, 715, 716, 717, 718, 719, 720, 721, 722, 723, 724, 725, 726, 727, 728, 729, 730, 731, 732, 733, 734, 735, 736, 737, 738, 739, 740, 741, 742, 743, 744, 745, 746, 747, 748, 749, 750, 751, 752, 753, 754, 755, 756, 757, 758, 759, 760, 761, 762, 763, 764, 765, 766, 767, 768, 769, 770, 771, 772, 773, 774, 775, 776, 777, 778, 779, 780, 781, 782, 783, 784, 785, 786, 787, 788, 789, 790, 791, 792, 793, 794, 795, 796, 797, 798, 799, 800, 801, 802, 803, 804, 805, 806, 807, 808, 809, 810, 811, 812, 813, 814, 815, 816, 817, 818, 819, 820, 821, 822, 823, 824, 825, 826, 827, 828, 829, 830, 831, 832, 833, 834, 835, 836, 837, 838, 839, 840, 841, 842, 843, 844, 845, 846, 847, 848, 849, 850, 851, 852, 853, 854, 855, 856, 857, 858, 859, 860, 861, 862, 863, 864, 865, 866, 867, 868, 869, 870, 871, 872, 873, 874, 875, 876, 877, 878, 879, 880, 881, 882, 883, 884, 885, 886, 887, 888, 889, 890, 891, 892, 893, 894, 895, 896, 897, 898, 899, 900, 901, 902, 903, 904, 905, 906, 907, 908, 909, 910, 911, 912, 913, 914],
      "AcquisitionTime": ["152855.937500", "152856.397500", "152856.857500", "152857.317500", "152857.777500", "152858.237500", "152858.697500", "152859.157500", "152859.617500", "152900.077500", "152900.537500", "152900.997500", "152901.457500", "152901.917500", "152902.377500", "152902.837500", "152903.297500", "152903.757500", "152904.217500", "152904.677500", "152905.137500", "152905.597500", "152906.057500", "152906.517500", "152906.977500", "152907.437500", "152907.897500", "152908.357500", "152908.817500", "152909.277500", "152909.737500", "152910.197500", "152910.657500", "152911.117500", "152911.577500", "152912.037500", "152912.497500", "152912.957500", "152913.417500", "152913.877500", "152914.337500", "152914.797500", "152915.257500", "152915.717500", "152916.177500", "152916.637500", "152917.097500", "152917.557500", "152918.017500", "152918.477500", "152918.937500", "152919.397500", "152919.857500", "152920.317500", "152920.777500", "152921.237500", "152921.697500", "152922.157500", "152922.617500", "152923.077500", "152923.537500", "152923.997500", "152924.457500", "152924.917500", "152925.377500", "152925.837500", "152926.297500", "152926.757500", "152927.217500", "152927.677500", "152928.137500", "152928.597500", "152929.057500", "152929.517500", "152929.977500", "152930.437500", "152930.897500", "152931.357500", "152931.817500", "152932.277500", "152932.737500", "152933.197500", "152933.657500", "152934.117500", "152934.577500", "152935.037500", "152935.497500", "152935.957500", "152936.417500", "152936.877500", "152937.337500", "152937.797500", "152938.257500", "152938.717500", "152939.177500", "152939.637500", "152940.097500", "152940.557500", "152941.017500", "152941.477500", "152941.937500", "152942.397500", "152942.857500", "152943.317500", "152943.777500", "152944.237500", "152944.697500", "152945.157500", "152945.617500", "152946.077500", "152946.537500", "152946.997500", "152947.457500", "152947.917500", "152948.377500", "152948.837500", "152949.297500", "152949.757500", "152950.217500", "152950.677500", "152951.137500", "152951.597500", "152952.057500", "152952.517500", "152952.977500", "152953.437500", "152953.897500", "152954.357500", "152954.817500", "152955.277500", "152955.737500", "152956.197500", "152956.657500", "152957.117500", "152957.577500", "152958.037500", "152958.497500", "152958.957500", "152959.417500", "152959.877500", "153000.337500", "153000.797500", "153001.257500", "153001.717500", "153002.177500", "153002.637500", "153003.097500", "153003.557500", "153004.017500", "153004.477500", "153004.937500", "153005.397500", "153005.857500", "153006.317500", "153006.777500", "153007.237500", "153007.697500", "153008.157500", "153008.617500", "153009.077500", "153009.537500", "153009.997500", "153010.457500", "153010.917500", "153011.377500", "153011.837500", "153012.297500", "153012.757500", "153013.217500", "153013.677500", "153014.137500", "153014.597500", "153015.057500", "153015.517500", "153015.977500", "153016.437500", "153016.897500", "153017.357500", "153017.817500", "153018.277500", "153018.737500", "153019.197500", "153019.657500", "153020.117500", "153020.577500", "153021.037500", "153021.497500", "153021.957500", "153022.417500", "153022.877500", "153023.337500", "153023.797500", "153024.257500", "153024.717500", "153025.177500", "153025.637500", "153026.097500", "153026.557500", "153027.017500", "153027.477500", "153027.937500", "153028.397500", "153028.857500", "153029.317500", "153029.777500", "153030.237500", "153030.697500", "153031.157500", "153031.617500", "153032.077500", "153032.537500", "153032.997500", "153033.457500", "153033.917500", "153034.377500", "153034.837500", "153035.297500", "153035.757500", "153036.217500", "153036.677500", "153037.137500", "153037.597500", "153038.057500", "153038.517500", "153038.977500", "153039.437500", "153039.897500", "153040.357500", "153040.817500", "153041.277500", "153041.737500", "153042.197500", "153042.657500", "153043.117500", "153043.577500", "153044.037500", "153044.497500", "153044.957500", "153045.417500", "153045.877500", "153046.337500", "153046.797500", "153047.257500", "153047.717500", "153048.177500", "153048.637500", "153049.097500", "153049.557500", "153050.017500", "153050.477500", "153050.937500", "153051.397500", "153051.857500", "153052.317500", "153052.777500", "153053.237500", "153053.697500", "153054.157500", "153054.617500", "153055.077500", "153055.537500", "153055.997500", "153056.457500", "153056.917500", "153057.377500", "153057.837500", "153058.297500", "153058.757500", "153059.217500", "153059.677500", "153100.137500", "153100.597500", "153101.057500", "153101.517500", "153101.977500", "153102.437500", "153102.897500", "153103.357500", "153103.817500", "153104.277500", "153104.737500", "153105.197500", "153105.657500", "153106.117500", "153106.577500", "153107.037500", "153107.497500", "153107.957500", "153108.417500", "153108.877500", "153109.337500", "153109.797500", "153110.257500", "153110.717500", "153111.177500", "153111.637500", "153112.097500", "153112.557500", "153113.017500", "153113.477500", "153113.937500", "153114.397500", "153114.857500", "153115.317500", "153115.777500", "153116.237500", "153116.697500", "153117.157500", "153117.617500", "153118.077500", "153118.537500", "153118.997500", "153119.457500", "153119.917500", "153120.377500", "153120.837500", "153121.297500", "153121.757500", "153122.217500", "153122.677500", "153123.137500", "153123.597500", "153124.057500", "153124.517500", "153124.977500", "153125.437500", "153125.897500", "153126.357500", "153126.817500", "153127.277500", "153127.737500", "153128.197500", "153128.657500", "153129.117500", "153129.577500", "153130.037500", "153130.497500", "153130.957500", "153131.417500", "153131.877500", "153132.337500", "153132.797500", "153133.257500", "153133.717500", "153134.177500", "153134.637500", "153135.097500", "153135.557500", "153136.017500", "153136.477500", "153136.937500", "153137.397500", "153137.857500", "153138.317500", "153138.777500", "153139.237500", "153139.697500", "153140.157500", "153140.617500", "153141.077500", "153141.537500", "153141.997500", "153142.457500", "153142.917500", "153143.377500", "153143.837500", "153144.297500", "153144.757500", "153145.217500", "153145.677500", "153146.137500", "153146.597500", "153147.057500", "153147.517500", "153147.977500", "153148.437500", "153148.897500", "153149.357500", "153149.817500", "153150.277500", "153150.737500", "153151.197500", "153151.657500", "153152.117500", "153152.577500", "153153.037500", "153153.497500", "153153.957500", "153154.417500", "153154.877500", "153155.337500", "153155.797500", "153156.257500", "153156.717500", "153157.177500", "153157.637500", "153158.097500", "153158.557500", "153159.017500", "153159.477500", "153159.937500", "153200.397500", "153200.857500", "153201.317500", "153201.777500", "153202.237500", "153202.697500", "153203.157500", "153203.617500", "153204.077500", "153204.537500", "153204.997500", "153205.457500", "153205.917500", "153206.377500", "153206.837500", "153207.297500", "153207.757500", "153208.217500", "153208.677500", "153209.137500", "153209.597500", "153210.057500", "153210.517500", "153210.977500", "153211.437500", "153211.897500", "153212.357500", "153212.817500", "153213.277500", "153213.737500", "153214.197500", "153214.657500", "153215.117500", "153215.577500", "153216.037500", "153216.497500", "153216.957500", "153217.417500", "153217.877500", "153218.337500", "153218.797500", "153219.257500", "153219.717500", "153220.177500", "153220.637500", "153221.097500", "153221.557500", "153222.017500", "153222.477500", "153222.937500", "153223.397500", "153223.857500", "153224.317500", "153224.777500", "153225.237500", "153225.697500", "153226.157500", "153226.617500", "153227.077500", "153227.537500", "153227.997500", "153228.457500", "153228.917500", "153229.377500", "153229.837500", "153230.297500", "153230.757500", "153231.217500", "153231.677500", "153232.137500", "153232.597500", "153233.057500", "153233.517500", "153233.977500", "153234.437500", "153234.897500", "153235.357500", "153235.817500", "153236.277500", "153236.737500", "153237.197500", "153237.657500", "153238.117500", "153238.577500", "153239.037500", "153239.497500", "153239.957500", "153240.417500", "153240.877500", "153241.337500", "153241.797500", "153242.257500", "153242.717500", "153243.177500", "153243.637500", "153244.097500", "153244.557500", "153245.017500", "153245.477500", "153245.937500", "153246.397500", "153246.857500", "153247.317500", "153247.777500", "153248.237500", "153248.697500", "153249.157500", "153249.617500", "153250.077500", "153250.537500", "153250.997500", "153251.457500", "153251.917500", "153252.377500", "153252.837500", "153253.297500", "153253.757500", "153254.217500", "153254.677500", "153255.137500", "153255.597500", "153256.057500", "153256.517500", "153256.977500", "153257.437500", "153257.897500", "153258.357500", "153258.817500", "153259.277500", "153259.737500", "153300.197500", "153300.657500", "153301.117500", "153301.577500", "153302.037500", "153302.497500", "153302.957500", "153303.417500", "153303.877500", "153304.337500", "153304.797500", "153305.257500", "153305.717500", "153306.177500", "153306.637500", "153307.097500", "153307.557500", "153308.017500", "153308.477500", "153308.937500", "153309.397500", "153309.857500", "153310.317500", "153310.777500", "153311.237500", "153311.697500", "153312.157500", "153312.617500", "153313.077500", "153313.537500", "153313.997500", "153314.457500", "153314.917500", "153315.377500", "153315.837500", "153316.297500", "153316.757500", "153317.217500", "153317.677500", "153318.137500", "153318.597500", "153319.057500", "153319.517500", "153319.977500", "153320.437500", "153320.897500", "153321.357500", "153321.817500", "153322.277500", "153322.737500", "153323.197500", "153323.657500", "153324.117500", "153324.577500", "153325.037500", "153325.497500", "153325.957500", "153326.417500", "153326.877500", "153327.337500", "153327.797500", "153328.257500", "153328.717500", "153329.177500", "153329.637500", "153330.097500", "153330.557500", "153331.017500", "153331.477500", "153331.937500", "153332.397500", "153332.857500", "153333.317500", "153333.777500", "153334.237500", "153334.697500", "153335.157500", "153335.617500", "153336.077500", "153336.537500", "153336.997500", "153337.457500", "153337.917500", "153338.377500", "153338.837500", "153339.297500", "153339.757500", "153340.217500", "153340.677500", "153341.137500", "153341.597500", "153342.057500", "153342.517500", "153342.977500", "153343.437500", "153343.897500", "153344.357500", "153344.817500", "153345.277500", "153345.737500", "153346.197500", "153346.657500", "153347.117500", "153347.577500", "153348.037500", "153348.497500", "153348.957500", "153349.417500", "153349.877500", "153350.337500", "153350.797500", "153351.257500", "153351.717500", "153352.177500", "153352.637500", "153353.097500", "153353.557500", "153354.017500", "153354.477500", "153354.937500", "153355.397500", "153355.857500", "153356.317500", "153356.777500", "153357.237500", "153357.697500", "153358.157500", "153358.617500", "153359.077500", "153359.537500", "153359.997500", "153400.457500", "153400.917500", "153401.377500", "153401.837500", "153402.297500", "153402.757500", "153403.217500", "153403.677500", "153404.137500", "153404.597500", "153405.057500", "153405.517500", "153405.977500", "153406.437500", "153406.897500", "153407.357500", "153407.817500", "153408.277500", "153408.737500", "153409.197500", "153409.657500", "153410.117500", "153410.577500", "153411.037500", "153411.497500", "153411.957500", "153412.417500", "153412.877500", "153413.337500", "153413.797500", "153414.257500", "153414.717500", "153415.177500", "153415.637500", "153416.097500", "153416.557500", "153417.017500", "153417.477500", "153417.937500", "153418.397500", "153418.857500", "153419.317500", "153419.777500", "153420.237500", "153420.697500", "153421.157500", "153421.617500", "153422.077500", "153422.537500", "153422.997500", "153423.457500", "153423.917500", "153424.377500", "153424.837500", "153425.297500", "153425.757500", "153426.217500", "153426.677500", "153427.137500", "153427.597500", "153428.057500", "153428.517500", "153428.977500", "153429.437500", "153429.897500", "153430.357500", "153430.817500", "153431.277500", "153431.737500", "153432.197500", "153432.657500", "153433.117500", "153433.577500", "153434.037500", "153434.497500", "153434.957500", "153435.417500", "153435.877500", "153436.337500", "153436.797500", "153437.257500", "153437.717500", "153438.177500", "153438.637500", "153439.097500", "153439.557500", "153440.017500", "153440.477500", "153440.937500", "153441.397500", "153441.857500", "153442.317500", "153442.777500", "153443.237500", "153443.697500", "153444.157500", "153444.617500", "153445.077500", "153445.537500", "153445.997500", "153446.457500", "153446.917500", "153447.377500", "153447.837500", "153448.297500", "153448.757500", "153449.217500", "153449.677500", "153450.137500", "153450.597500", "153451.057500", "153451.517500", "153451.977500", "153452.437500", "153452.897500", "153453.357500", "153453.817500", "153454.277500", "153454.737500", "153455.197500", "153455.657500", "153456.117500", "153456.577500", "153457.037500", "153457.497500", "153457.957500", "153458.417500", "153458.877500", "153459.337500", "153459.797500", "153500.257500", "153500.717500", "153501.177500", "153501.637500", "153502.097500", "153502.557500", "153503.017500", "153503.477500", "153503.937500", "153504.397500", "153504.857500", "153505.317500", "153505.777500", "153506.237500", "153506.697500", "153507.157500", "153507.617500", "153508.077500", "153508.537500", "153508.997500", "153509.457500", "153509.917500", "153510.377500", "153510.837500", "153511.297500", "153511.757500", "153512.217500", "153512.677500", "153513.137500", "153513.597500", "153514.057500", "153514.517500", "153514.977500", "153515.437500", "153515.897500", "153516.357500", "153516.817500", "153517.277500", "153517.737500", "153518.197500", "153518.657500", "153519.117500", "153519.577500", "153520.037500", "153520.497500", "153520.957500", "153521.417500", "153521.877500", "153522.337500", "153522.797500", "153523.257500", "153523.717500", "153524.177500", "153524.637500", "153525.097500", "153525.557500", "153526.017500", "153526.477500", "153526.937500", "153527.397500", "153527.857500", "153528.317500", "153528.777500", "153529.237500", "153529.697500", "153530.157500", "153530.617500", "153531.077500", "153531.537500", "153531.997500", "153532.457500", "153532.917500", "153533.377500", "153533.837500", "153534.297500", "153534.757500", "153535.217500", "153535.677500", "153536.137500", "153536.597500", "153537.057500", "153537.517500", "153537.977500", "153538.437500", "153538.897500", "153539.357500", "153539.817500", "153540.277500", "153540.737500", "153541.197500", "153541.657500", "153542.117500", "153542.577500", "153543.037500", "153543.497500", "153543.957500", "153544.417500", "153544.877500", "153545.337500", "153545.797500", "153546.257500", "153546.717500", "153547.177500", "153547.637500", "153548.097500", "153548.557500", "153549.017500", "153549.477500", "153549.937500", "153550.397500", "153550.857500", "153551.317500", "153551.777500", "153552.237500", "153552.697500", "153553.157500", "153553.617500", "153554.077500", "153554.537500", "153554.997500", "153555.457500", "153555.917500"],
