{
  "AcquisitionMatrixPE": 82,
  "AcquisitionNumber": 1,
  "AcquisitionTime": "16:08:49.622500",
  "BandwidthPerPixelPhaseEncode": 24.888,
  "BaseResolution": 82,
  "BodyPartExamined": "BRAIN",
  "ConsistencyInfo": "N4_VE11C_LATEST_20160120",
  "ConversionSoftware": "dcm2niix",
  "ConversionSoftwareVersion": "v1.0.20201102",
  "DerivedVendorReportedEchoSpacing": 0.00049,
  "DeviceSerialNumber": "66112",
  "DwellTime": 2e-06,
  "EchoTime": 0.0272,
  "EchoTrainLength": 82,
  "EffectiveEchoSpacing": 0.00049,
  "FlipAngle": 44,
  "ImageComments": "Unaliased MB8/PE3",
  "ImageOrientationPatientDICOM": [0.999958, -0.00602651, 0.00695457, 0.00488672, 0.988117, 0.153623],
  "ImageType": [
    "ORIGINAL",
    "PRIMARY",
    "M",
    "MB",
    "ND",
    "NORM",
    "MOSAIC"
],
  "ImagingFrequency": 123.252,
  "InPlanePhaseEncodingDirectionDICOM": "COL",
  "InstitutionAddress": "Maynard 3,Hanover,NH,US,03755",
  "InstitutionName": "Dartmouth College - PBS",
  "InstitutionalDepartmentName": "Department",
  "MRAcquisitionType": "2D",
  "MagneticFieldStrength": 3,
  "Manufacturer": "Siemens",
  "ManufacturersModelName": "Prisma",
  "Modality": "MR",
  "MultibandAccelerationFactor": 8,
  "PartialFourier": 1,
  "PatientPosition": "HFS",
  "PercentPhaseFOV": 100,
  "PercentSampling": 100,
  "PhaseEncodingDirection": "j-",
  "PhaseEncodingSteps": 82,
  "PhaseResolution": 1,
  "PixelBandwidth": 3050,
  "ProcedureStepDescription": "Wager_Wager^1076_spacetop",
  "ProtocolName": "func_run-04_task-alignvideo_acq-ap-mb8",
  "PulseSequenceDetails": "%CustomerSeq%\\cmrr_mbep2d_bold",
  "ReceiveCoilActiveElements": "HEA;HEP",
  "ReceiveCoilName": "Head_32",
  "ReconMatrixPE": 82,
  "RepetitionTime": 0.46,
  "SAR": 0.103527,
  "ScanOptions": "FS",
  "ScanningSequence": "EP",
  "SequenceName": "epfid2d1_82",
  "SequenceVariant": "SK\\SS",
  "SeriesDescription": "func_run-04_task-alignvideo_acq-ap-mb8",
  "SeriesNumber": 34,
  "ShimSetting": [4163, -7797, -7207, 491, -4, -277, 79, 81],
  "SliceThickness": 2.7,
  "SliceTiming": [0, 0.25, 0.0625, 0.3125, 0.125, 0.3775, 0.1875, 0, 0.25, 0.0625, 0.3125, 0.125, 0.3775, 0.1875, 0, 0.25, 0.0625, 0.3125, 0.125, 0.3775, 0.1875, 0, 0.25, 0.0625, 0.3125, 0.125, 0.3775, 0.1875, 0, 0.25, 0.0625, 0.3125, 0.125, 0.3775, 0.1875, 0, 0.25, 0.0625, 0.3125, 0.125, 0.3775, 0.1875, 0, 0.25, 0.0625, 0.3125, 0.125, 0.3775, 0.1875, 0, 0.25, 0.0625, 0.3125, 0.125, 0.3775, 0.1875],
  "SoftwareVersions": "syngo MR E11",
  "SpacingBetweenSlices": 2.7,
  "StationName": "AWP66112",
  "TaskName": "alignvideo",
  "TotalReadoutTime": 0.03969,
  "TxRefAmp": 252.287,
  "WipMemBlock": "2c0d80b3-2cb2-41bc-88b7-2949d51cfbfb||Sequence: R016 ve11c/master r/e634e98; Dec 19 2017 11:00:25 by eja",
  "dcmmeta_affine": [
    [-2.6828134059906006, 0.013110723346471786, 0.021053900942206383, 110.6679458618164],
    [0.016168685629963875, 2.6510467529296875, 0.4146730303764343, -107.55989074707031],
    [0.018658597022294998, -0.4121595323085785, 2.6678836345672607, -21.747665405273438],
    [0.0, 0.0, 0.0, 1.0]
],
  "dcmmeta_reorient_transform": [
    [0.0, -1.0, 0.0, 81.0],
    [1.0, 0.0, 0.0, 0.0],
    [0.0, 0.0, 1.0, 0.0],
    [0.0, 0.0, 0.0, 1.0]
],
  "dcmmeta_shape": [82, 82, 56, 914],
  "dcmmeta_slice_dim": 2,
  "dcmmeta_version": 0.6,
  "global": {
    "const": {
      "AccessionNumber": "A003607",
      "AcquisitionMatrix": [82, 0, 0, 82],
      "AngioFlag": "N",
      "BitsAllocated": 16,
      "BitsStored": 16,
      "BodyPartExamined": "BRAIN",
      "Columns": 656,
      "EchoNumbers": 1,
      "EchoTime": 27.2,
      "EchoTrainLength": 82,
      "FlipAngle": 44.0,
      "HighBit": 15,
      "ImageOrientationPatient": [0.99995765668348, -0.0060265099529, 0.0069545681296, 0.00488672417675, 0.98811743428329, 0.15362309719648],
      "ImagePositionPatient": [-885.46010392273, -863.38493368211, -178.77739258769],
      "ImageType": [
        "ORIGINAL",
        "PRIMARY",
        "M",
        "MB",
        "ND",
        "NORM",
        "MOSAIC"
],
      "ImagedNucleus": "1H",
      "ImagingFrequency": 123.252123,
      "InPlanePhaseEncodingDirection": "COL",
      "MRAcquisitionType": "2D",
      "MagneticFieldStrength": 3.0,
      "Manufacturer": "SIEMENS",
      "ManufacturerModelName": "Prisma",
      "Modality": "MR",
      "NumberOfAverages": 1.0,
      "NumberOfPhaseEncodingSteps": 82,
      "PercentPhaseFieldOfView": 100.0,
      "PercentSampling": 100.0,
      "PerformedProcedureStepStartTime": "141844.588000",
      "PhotometricInterpretation": "MONOCHROME2",
      "PixelBandwidth": 3050.0,
      "PixelRepresentation": 0,
      "PixelSpacing": [2.6829268932343, 2.6829268932343],
      "ProtocolName": "func_run-04_task-alignvideo_acq-ap-mb8",
      "RepetitionTime": 460.0,
      "Rows": 656,
      "SAR": 0.10352694459558,
      "SamplesPerPixel": 1,
      "ScanOptions": "FS",
      "ScanningSequence": "EP",
      "SequenceName": "epfid2d1_82",
      "SequenceVariant": [
        "SK",
        "SS"
],
      "SeriesDescription": "func_run-04_task-alignvideo_acq-ap-mb8",
      "SeriesNumber": 34,
      "SeriesTime": "160904.096000",
      "SliceLocation": -37.145345532038,
      "SliceThickness": 2.7000000476837,
      "SmallestImagePixelValue": 0,
      "SoftwareVersions": "syngo MR E11",
      "SpacingBetweenSlices": 2.7000000254678,
      "SpecificCharacterSet": "ISO_IR 100",
      "StudyID": "1",
      "StudyTime": "141844.147000",
      "TransmitCoilName": "Body",
      "VariableFlipAngleFlag": "N",
      "WindowCenterWidthExplanation": "Algo1",
      "dBdt": 0.0},
    "slices": {}
  },
  "time": {
    "samples": {
      "AcquisitionNumber": [1, 2, 3, 4, 5, 6, 7, 8, 9, 10, 11, 12, 13, 14, 15, 16, 17, 18, 19, 20, 21, 22, 23, 24, 25, 26, 27, 28, 29, 30, 31, 32, 33, 34, 35, 36, 37, 38, 39, 40, 41, 42, 43, 44, 45, 46, 47, 48, 49, 50, 51, 52, 53, 54, 55, 56, 57, 58, 59, 60, 61, 62, 63, 64, 65, 66, 67, 68, 69, 70, 71, 72, 73, 74, 75, 76, 77, 78, 79, 80, 81, 82, 83, 84, 85, 86, 87, 88, 89, 90, 91, 92, 93, 94, 95, 96, 97, 98, 99, 100, 101, 102, 103, 104, 105, 106, 107, 108, 109, 110, 111, 112, 113, 114, 115, 116, 117, 118, 119, 120, 121, 122, 123, 124, 125, 126, 127, 128, 129, 130, 131, 132, 133, 134, 135, 136, 137, 138, 139, 140, 141, 142, 143, 144, 145, 146, 147, 148, 149, 150, 151, 152, 153, 154, 155, 156, 157, 158, 159, 160, 161, 162, 163, 164, 165, 166, 167, 168, 169, 170, 171, 172, 173, 174, 175, 176, 177, 178, 179, 180, 181, 182, 183, 184, 185, 186, 187, 188, 189, 190, 191, 192, 193, 194, 195, 196, 197, 198, 199, 200, 201, 202, 203, 204, 205, 206, 207, 208, 209, 210, 211, 212, 213, 214, 215, 216, 217, 218, 219, 220, 221, 222, 223, 224, 225, 226, 227, 228, 229, 230, 231, 232, 233, 234, 235, 236, 237, 238, 239, 240, 241, 242, 243, 244, 245, 246, 247, 248, 249, 250, 251, 252, 253, 254, 255, 256, 257, 258, 259, 260, 261, 262, 263, 264, 265, 266, 267, 268, 269, 270, 271, 272, 273, 274, 275, 276, 277, 278, 279, 280, 281, 282, 283, 284, 285, 286, 287, 288, 289, 290, 291, 292, 293, 294, 295, 296, 297, 298, 299, 300, 301, 302, 303, 304, 305, 306, 307, 308, 309, 310, 311, 312, 313, 314, 315, 316, 317, 318, 319, 320, 321, 322, 323, 324, 325, 326, 327, 328, 329, 330, 331, 332, 333, 334, 335, 336, 337, 338, 339, 340, 341, 342, 343, 344, 345, 346, 347, 348, 349, 350, 351, 352, 353, 354, 355, 356, 357, 358, 359, 360, 361, 362, 363, 364, 365, 366, 367, 368, 369, 370, 371, 372, 373, 374, 375, 376, 377, 378, 379, 380, 381, 382, 383, 384, 385, 386, 387, 388, 389, 390, 391, 392, 393, 394, 395, 396, 397, 398, 399, 400, 401, 402, 403, 404, 405, 406, 407, 408, 409, 410, 411, 412, 413, 414, 415, 416, 417, 418, 419, 420, 421, 422, 423, 424, 425, 426, 427, 428, 429, 430, 431, 432, 433, 434, 435, 436, 437, 438, 439, 440, 441, 442, 443, 444, 445, 446, 447, 448, 449, 450, 451, 452, 453, 454, 455, 456, 457, 458, 459, 460, 461, 462, 463, 464, 465, 466, 467, 468, 469, 470, 471, 472, 473, 474, 475, 476, 477, 478, 479, 480, 481, 482, 483, 484, 485, 486, 487, 488, 489, 490, 491, 492, 493, 494, 495, 496, 497, 498, 499, 500, 501, 502, 503, 504, 505, 506, 507, 508, 509, 510, 511, 512, 513, 514, 515, 516, 517, 518, 519, 520, 521, 522, 523, 524, 525, 526, 527, 528, 529, 530, 531, 532, 533, 534, 535, 536, 537, 538, 539, 540, 541, 542, 543, 544, 545, 546, 547, 548, 549, 550, 551, 552, 553, 554, 555, 556, 557, 558, 559, 560, 561, 562, 563, 564, 565, 566, 567, 568, 569, 570, 571, 572, 573, 574, 575, 576, 577, 578, 579, 580, 581, 582, 583, 584, 585, 586, 587, 588, 589, 590, 591, 592, 593, 594, 595, 596, 597, 598, 599, 600, 601, 602, 603, 604, 605, 606, 607, 608, 609, 610, 611, 612, 613, 614, 615, 616, 617, 618, 619, 620, 621, 622, 623, 624, 625, 626, 627, 628, 629, 630, 631, 632, 633, 634, 635, 636, 637, 638, 639, 640, 641, 642, 643, 644, 645, 646, 647, 648, 649, 650, 651, 652, 653, 654, 655, 656, 657, 658, 659, 660, 661, 662, 663, 664, 665, 666, 667, 668, 669, 670, 671, 672, 673, 674, 675, 676, 677, 678, 679, 680, 681, 682, 683, 684, 685, 686, 687, 688, 689, 690, 691, 692, 693, 694, 695, 696, 697, 698, 699, 700, 701, 702, 703, 704, 705, 706, 707, 708, 709, 710, 711, 712, 713, 714, 715, 716, 717, 718, 719, 720, 721, 722, 723, 724, 725, 726, 727, 728, 729, 730, 731, 732, 733, 734, 735, 736, 737, 738, 739, 740, 741, 742, 743, 744, 745, 746, 747, 748, 749, 750, 751, 752, 753, 754, 755, 756, 757, 758, 759, 760, 761, 762, 763, 764, 765, 766, 767, 768, 769, 770, 771, 772, 773, 774, 775, 776, 777, 778, 779, 780, 781, 782, 783, 784, 785, 786, 787, 788, 789, 790, 791, 792, 793, 794, 795, 796, 797, 798, 799, 800, 801, 802, 803, 804, 805, 806, 807, 808, 809, 810, 811, 812, 813, 814, 815, 816, 817, 818, 819, 820, 821, 822, 823, 824, 825, 826, 827, 828, 829, 830, 831, 832, 833, 834, 835, 836, 837, 838, 839, 840, 841, 842, 843, 844, 845, 846, 847, 848, 849, 850, 851, 852, 853, 854, 855, 856, 857, 858, 859, 860, 861, 862, 863, 864, 865, 866, 867, 868, 869, 870, 871, 872, 873, 874, 875, 876, 877, 878, 879, 880, 881, 882, 883, 884, 885, 886, 887, 888, 889, 890, 891, 892, 893, 894, 895, 896, 897, 898, 899, 900, 901, 902, 903, 904, 905, 906, 907, 908, 909, 910, 911, 912, 913, 914],
      "AcquisitionTime": ["160849.622500", "160850.082500", "160850.542500", "160851.002500", "160851.462500", "160851.922500", "160852.382500", "160852.842500", "160853.302500", "160853.762500", "160854.222500", "160854.682500", "160855.142500", "160855.602500", "160856.062500", "160856.522500", "160856.982500", "160857.442500", "160857.902500", "160858.362500", "160858.822500", "160859.282500", "160859.742500", "160900.202500", "160900.662500", "160901.122500", "160901.582500", "160902.042500", "160902.502500", "160902.962500", "160903.422500", "160903.882500", "160904.342500", "160904.802500", "160905.262500", "160905.722500", "160906.182500", "160906.642500", "160907.102500", "160907.562500", "160908.022500", "160908.482500", "160908.942500", "160909.402500", "160909.862500", "160910.322500", "160910.782500", "160911.242500", "160911.702500", "160912.162500", "160912.622500", "160913.082500", "160913.542500", "160914.002500", "160914.462500", "160914.922500", "160915.382500", "160915.842500", "160916.302500", "160916.762500", "160917.222500", "160917.682500", "160918.142500", "160918.602500", "160919.062500", "160919.522500", "160919.982500", "160920.442500", "160920.902500", "160921.362500", "160921.822500", "160922.282500", "160922.742500", "160923.202500", "160923.662500", "160924.122500", "160924.582500", "160925.042500", "160925.502500", "160925.962500", "160926.422500", "160926.882500", "160927.342500", "160927.802500", "160928.262500", "160928.722500", "160929.182500", "160929.642500", "160930.102500", "160930.562500", "160931.022500", "160931.482500", "160931.942500", "160932.402500", "160932.862500", "160933.322500", "160933.782500", "160934.242500", "160934.702500", "160935.162500", "160935.622500", "160936.082500", "160936.542500", "160937.002500", "160937.462500", "160937.922500", "160938.382500", "160938.842500", "160939.302500", "160939.762500", "160940.222500", "160940.682500", "160941.142500", "160941.602500", "160942.062500", "160942.522500", "160942.982500", "160943.442500", "160943.902500", "160944.362500", "160944.822500", "160945.282500", "160945.742500", "160946.202500", "160946.662500", "160947.122500", "160947.582500", "160948.042500", "160948.502500", "160948.962500", "160949.422500", "160949.882500", "160950.342500", "160950.802500", "160951.262500", "160951.722500", "160952.182500", "160952.642500", "160953.102500", "160953.562500", "160954.022500", "160954.482500", "160954.942500", "160955.402500", "160955.862500", "160956.322500", "160956.782500", "160957.242500", "160957.702500", "160958.162500", "160958.622500", "160959.082500", "160959.542500", "161000.002500", "161000.462500", "161000.922500", "161001.382500", "161001.842500", "161002.302500", "161002.762500", "161003.222500", "161003.682500", "161004.142500", "161004.602500", "161005.062500", "161005.522500", "161005.982500", "161006.442500", "161006.902500", "161007.362500", "161007.822500", "161008.282500", "161008.742500", "161009.202500", "161009.662500", "161010.122500", "161010.582500", "161011.042500", "161011.502500", "161011.962500", "161012.422500", "161012.882500", "161013.342500", "161013.802500", "161014.262500", "161014.722500", "161015.182500", "161015.642500", "161016.102500", "161016.562500", "161017.022500", "161017.482500", "161017.942500", "161018.402500", "161018.862500", "161019.322500", "161019.782500", "161020.242500", "161020.702500", "161021.162500", "161021.622500", "161022.082500", "161022.542500", "161023.002500", "161023.462500", "161023.922500", "161024.382500", "161024.842500", "161025.302500", "161025.762500", "161026.222500", "161026.682500", "161027.142500", "161027.602500", "161028.062500", "161028.522500", "161028.982500", "161029.442500", "161029.902500", "161030.362500", "161030.822500", "161031.282500", "161031.742500", "161032.202500", "161032.662500", "161033.122500", "161033.582500", "161034.042500", "161034.502500", "161034.962500", "161035.422500", "161035.882500", "161036.342500", "161036.802500", "161037.262500", "161037.722500", "161038.182500", "161038.642500", "161039.102500", "161039.562500", "161040.022500", "161040.482500", "161040.942500", "161041.402500", "161041.862500", "161042.322500", "161042.782500", "161043.242500", "161043.702500", "161044.162500", "161044.622500", "161045.082500", "161045.542500", "161046.002500", "161046.462500", "161046.922500", "161047.382500", "161047.842500", "161048.302500", "161048.762500", "161049.222500", "161049.682500", "161050.142500", "161050.602500", "161051.062500", "161051.522500", "161051.982500", "161052.442500", "161052.902500", "161053.362500", "161053.822500", "161054.282500", "161054.742500", "161055.202500", "161055.662500", "161056.122500", "161056.582500", "161057.042500", "161057.502500", "161057.962500", "161058.422500", "161058.882500", "161059.342500", "161059.802500", "161100.262500", "161100.722500", "161101.182500", "161101.642500", "161102.102500", "161102.562500", "161103.022500", "161103.482500", "161103.942500", "161104.402500", "161104.862500", "161105.322500", "161105.782500", "161106.242500", "161106.702500", "161107.162500", "161107.622500", "161108.082500", "161108.542500", "161109.002500", "161109.462500", "161109.922500", "161110.382500", "161110.842500", "161111.302500", "161111.762500", "161112.222500", "161112.682500", "161113.142500", "161113.602500", "161114.062500", "161114.522500", "161114.982500", "161115.442500", "161115.902500", "161116.362500", "161116.822500", "161117.282500", "161117.742500", "161118.202500", "161118.662500", "161119.122500", "161119.582500", "161120.042500", "161120.502500", "161120.962500", "161121.422500", "161121.882500", "161122.342500", "161122.802500", "161123.262500", "161123.722500", "161124.182500", "161124.642500", "161125.102500", "161125.562500", "161126.022500", "161126.482500", "161126.942500", "161127.402500", "161127.862500", "161128.322500", "161128.782500", "161129.242500", "161129.702500", "161130.162500", "161130.622500", "161131.082500", "161131.542500", "161132.002500", "161132.462500", "161132.922500", "161133.382500", "161133.842500", "161134.302500", "161134.762500", "161135.222500", "161135.682500", "161136.142500", "161136.602500", "161137.062500", "161137.522500", "161137.982500", "161138.442500", "161138.902500", "161139.362500", "161139.822500", "161140.282500", "161140.742500", "161141.202500", "161141.662500", "161142.122500", "161142.582500", "161143.042500", "161143.502500", "161143.962500", "161144.422500", "161144.882500", "161145.342500", "161145.802500", "161146.262500", "161146.722500", "161147.182500", "161147.642500", "161148.102500", "161148.562500", "161149.022500", "161149.482500", "161149.942500", "161150.402500", "161150.862500", "161151.322500", "161151.782500", "161152.242500", "161152.702500", "161153.162500", "161153.622500", "161154.082500", "161154.542500", "161155.002500", "161155.462500", "161155.922500", "161156.382500", "161156.842500", "161157.302500", "161157.762500", "161158.222500", "161158.682500", "161159.142500", "161159.602500", "161200.062500", "161200.522500", "161200.982500", "161201.442500", "161201.902500", "161202.362500", "161202.822500", "161203.282500", "161203.742500", "161204.202500", "161204.662500", "161205.122500", "161205.582500", "161206.042500", "161206.502500", "161206.962500", "161207.422500", "161207.882500", "161208.342500", "161208.802500", "161209.262500", "161209.722500", "161210.182500", "161210.642500", "161211.102500", "161211.562500", "161212.022500", "161212.482500", "161212.942500", "161213.402500", "161213.862500", "161214.322500", "161214.782500", "161215.242500", "161215.702500", "161216.162500", "161216.622500", "161217.082500", "161217.542500", "161218.002500", "161218.462500", "161218.922500", "161219.382500", "161219.842500", "161220.302500", "161220.762500", "161221.222500", "161221.682500", "161222.142500", "161222.602500", "161223.062500", "161223.522500", "161223.982500", "161224.442500", "161224.902500", "161225.362500", "161225.822500", "161226.282500", "161226.742500", "161227.202500", "161227.662500", "161228.122500", "161228.582500", "161229.042500", "161229.502500", "161229.962500", "161230.422500", "161230.882500", "161231.342500", "161231.802500", "161232.262500", "161232.722500", "161233.182500", "161233.642500", "161234.102500", "161234.562500", "161235.022500", "161235.482500", "161235.942500", "161236.402500", "161236.862500", "161237.322500", "161237.782500", "161238.242500", "161238.702500", "161239.162500", "161239.622500", "161240.082500", "161240.542500", "161241.002500", "161241.462500", "161241.922500", "161242.382500", "161242.842500", "161243.302500", "161243.762500", "161244.222500", "161244.682500", "161245.142500", "161245.602500", "161246.062500", "161246.522500", "161246.982500", "161247.442500", "161247.902500", "161248.362500", "161248.822500", "161249.282500", "161249.742500", "161250.202500", "161250.662500", "161251.122500", "161251.582500", "161252.042500", "161252.502500", "161252.962500", "161253.422500", "161253.882500", "161254.342500", "161254.802500", "161255.262500", "161255.722500", "161256.182500", "161256.642500", "161257.102500", "161257.562500", "161258.022500", "161258.482500", "161258.942500", "161259.402500", "161259.862500", "161300.322500", "161300.782500", "161301.242500", "161301.702500", "161302.162500", "161302.622500", "161303.082500", "161303.542500", "161304.002500", "161304.462500", "161304.922500", "161305.382500", "161305.842500", "161306.302500", "161306.762500", "161307.222500", "161307.682500", "161308.142500", "161308.602500", "161309.062500", "161309.522500", "161309.982500", "161310.442500", "161310.902500", "161311.362500", "161311.822500", "161312.282500", "161312.742500", "161313.202500", "161313.662500", "161314.122500", "161314.582500", "161315.042500", "161315.502500", "161315.962500", "161316.422500", "161316.882500", "161317.342500", "161317.802500", "161318.262500", "161318.722500", "161319.182500", "161319.642500", "161320.102500", "161320.562500", "161321.022500", "161321.482500", "161321.942500", "161322.402500", "161322.862500", "161323.322500", "161323.782500", "161324.242500", "161324.702500", "161325.162500", "161325.622500", "161326.082500", "161326.542500", "161327.002500", "161327.462500", "161327.922500", "161328.382500", "161328.842500", "161329.302500", "161329.762500", "161330.222500", "161330.682500", "161331.142500", "161331.602500", "161332.062500", "161332.522500", "161332.982500", "161333.442500", "161333.902500", "161334.362500", "161334.822500", "161335.282500", "161335.742500", "161336.202500", "161336.662500", "161337.122500", "161337.582500", "161338.042500", "161338.502500", "161338.962500", "161339.422500", "161339.882500", "161340.342500", "161340.802500", "161341.262500", "161341.722500", "161342.182500", "161342.642500", "161343.102500", "161343.562500", "161344.022500", "161344.482500", "161344.942500", "161345.402500", "161345.862500", "161346.322500", "161346.782500", "161347.242500", "161347.702500", "161348.162500", "161348.622500", "161349.082500", "161349.542500", "161350.002500", "161350.462500", "161350.922500", "161351.382500", "161351.842500", "161352.302500", "161352.762500", "161353.222500", "161353.682500", "161354.142500", "161354.602500", "161355.062500", "161355.522500", "161355.982500", "161356.442500", "161356.902500", "161357.362500", "161357.822500", "161358.282500", "161358.742500", "161359.202500", "161359.662500", "161400.122500", "161400.582500", "161401.042500", "161401.502500", "161401.962500", "161402.422500", "161402.882500", "161403.342500", "161403.802500", "161404.262500", "161404.722500", "161405.182500", "161405.642500", "161406.102500", "161406.562500", "161407.022500", "161407.482500", "161407.942500", "161408.402500", "161408.862500", "161409.322500", "161409.782500", "161410.242500", "161410.702500", "161411.162500", "161411.622500", "161412.082500", "161412.542500", "161413.002500", "161413.462500", "161413.922500", "161414.382500", "161414.842500", "161415.302500", "161415.762500", "161416.222500", "161416.682500", "161417.142500", "161417.602500", "161418.062500", "161418.522500", "161418.982500", "161419.442500", "161419.902500", "161420.362500", "161420.822500", "161421.282500", "161421.742500", "161422.202500", "161422.662500", "161423.122500", "161423.582500", "161424.042500", "161424.502500", "161424.962500", "161425.422500", "161425.882500", "161426.342500", "161426.802500", "161427.262500", "161427.722500", "161428.182500", "161428.642500", "161429.102500", "161429.562500", "161430.022500", "161430.482500", "161430.942500", "161431.402500", "161431.862500", "161432.322500", "161432.782500", "161433.242500", "161433.702500", "161434.162500", "161434.622500", "161435.082500", "161435.542500", "161436.002500", "161436.462500", "161436.922500", "161437.382500", "161437.842500", "161438.302500", "161438.762500", "161439.222500", "161439.682500", "161440.142500", "161440.602500", "161441.062500", "161441.522500", "161441.982500", "161442.442500", "161442.902500", "161443.362500", "161443.822500", "161444.282500", "161444.742500", "161445.202500", "161445.662500", "161446.122500", "161446.582500", "161447.042500", "161447.502500", "161447.962500", "161448.422500", "161448.882500", "161449.342500", "161449.802500", "161450.262500", "161450.722500", "161451.182500", "161451.642500", "161452.102500", "161452.562500", "161453.022500", "161453.482500", "161453.942500", "161454.402500", "161454.862500", "161455.322500", "161455.782500", "161456.242500", "161456.702500", "161457.162500", "161457.622500", "161458.082500", "161458.542500", "161459.002500", "161459.462500", "161459.922500", "161500.382500", "161500.842500", "161501.302500", "161501.762500", "161502.222500", "161502.682500", "161503.142500", "161503.602500", "161504.062500", "161504.522500", "161504.982500", "161505.442500", "161505.902500", "161506.362500", "161506.822500", "161507.282500", "161507.742500", "161508.202500", "161508.662500", "161509.122500", "161509.582500", "161510.042500", "161510.502500", "161510.962500", "161511.422500", "161511.882500", "161512.342500", "161512.802500", "161513.262500", "161513.722500", "161514.182500", "161514.642500", "161515.102500", "161515.562500", "161516.022500", "161516.482500", "161516.942500", "161517.402500", "161517.862500", "161518.322500", "161518.782500", "161519.242500", "161519.702500", "161520.162500", "161520.622500", "161521.082500", "161521.542500", "161522.002500", "161522.462500", "161522.922500", "161523.382500", "161523.842500", "161524.302500", "161524.762500", "161525.222500", "161525.682500", "161526.142500", "161526.602500", "161527.062500", "161527.522500", "161527.982500", "161528.442500", "161528.902500", "161529.362500", "161529.822500", "161530.282500", "161530.742500", "161531.202500", "161531.662500", "161532.122500", "161532.582500", "161533.042500", "161533.502500", "161533.962500", "161534.422500", "161534.882500", "161535.342500", "161535.802500", "161536.262500", "161536.722500", "161537.182500", "161537.642500", "161538.102500", "161538.562500", "161539.022500", "161539.482500", "161539.942500", "161540.402500", "161540.862500", "161541.322500", "161541.782500", "161542.242500", "161542.702500", "161543.162500", "161543.622500", "161544.082500", "161544.542500", "161545.002500", "161545.462500", "161545.922500", "161546.382500", "161546.842500", "161547.302500", "161547.762500", "161548.222500", "161548.682500", "161549.142500", "161549.602500"],
