{
  "AcquisitionMatrixPE": 82,
  "AcquisitionNumber": 1,
  "AcquisitionTime": "15:13:13.482500",
  "BandwidthPerPixelPhaseEncode": 24.888,
  "BaseResolution": 82,
  "BodyPartExamined": "BRAIN",
  "ConsistencyInfo": "N4_VE11C_LATEST_20160120",
  "ConversionSoftware": "dcm2niix",
  "ConversionSoftwareVersion": "v1.0.20201102",
  "DerivedVendorReportedEchoSpacing": 0.00049,
  "DeviceSerialNumber": "66112",
  "DwellTime": 2e-06,
  "EchoTime": 0.0272,
  "EchoTrainLength": 82,
  "EffectiveEchoSpacing": 0.00049,
  "FlipAngle": 44,
  "ImageComments": "Unaliased MB8/PE3",
  "ImageOrientationPatientDICOM": [0.999843, -0.0135547, 0.01137, 0.0116925, 0.988568, 0.150322],
  "ImageType": [
    "ORIGINAL",
    "PRIMARY",
    "M",
    "MB",
    "ND",
    "NORM",
    "MOSAIC"
],
  "ImagingFrequency": 123.252,
  "InPlanePhaseEncodingDirectionDICOM": "COL",
  "InstitutionAddress": "Maynard 3,Hanover,NH,US,03755",
  "InstitutionName": "Dartmouth College - PBS",
  "InstitutionalDepartmentName": "Department",
  "MRAcquisitionType": "2D",
  "MagneticFieldStrength": 3,
  "Manufacturer": "Siemens",
  "ManufacturersModelName": "Prisma",
  "Modality": "MR",
  "MultibandAccelerationFactor": 8,
  "PartialFourier": 1,
  "PatientPosition": "HFS",
  "PercentPhaseFOV": 100,
  "PercentSampling": 100,
  "PhaseEncodingDirection": "j-",
  "PhaseEncodingSteps": 82,
  "PhaseResolution": 1,
  "PixelBandwidth": 3050,
  "ProcedureStepDescription": "Wager_Wager^1076_spacetop",
  "ProtocolName": "func_run-01_task-faces_acq-ap-mb8",
  "PulseSequenceDetails": "%CustomerSeq%\\cmrr_mbep2d_bold",
  "ReceiveCoilActiveElements": "HEA;HEP",
  "ReceiveCoilName": "Head_32",
  "ReconMatrixPE": 82,
  "RepetitionTime": 0.46,
  "SAR": 0.103527,
  "ScanOptions": "FS",
  "ScanningSequence": "EP",
  "SequenceName": "epfid2d1_82",
  "SequenceVariant": "SK\\SS",
  "SeriesDescription": "func_run-01_task-faces_acq-ap-mb8",
  "SeriesNumber": 16,
  "ShimSetting": [4163, -7798, -7208, 494, -3, -280, 76, 81],
  "SliceThickness": 2.7,
  "SliceTiming": [0, 0.25, 0.0625, 0.315, 0.125, 0.3775, 0.1875, 0, 0.25, 0.0625, 0.315, 0.125, 0.3775, 0.1875, 0, 0.25, 0.0625, 0.315, 0.125, 0.3775, 0.1875, 0, 0.25, 0.0625, 0.315, 0.125, 0.3775, 0.1875, 0, 0.25, 0.0625, 0.315, 0.125, 0.3775, 0.1875, 0, 0.25, 0.0625, 0.315, 0.125, 0.3775, 0.1875, 0, 0.25, 0.0625, 0.315, 0.125, 0.3775, 0.1875, 0, 0.25, 0.0625, 0.315, 0.125, 0.3775, 0.1875],
  "SoftwareVersions": "syngo MR E11",
  "SpacingBetweenSlices": 2.7,
  "StationName": "AWP66112",
  "TaskName": "faces",
  "TotalReadoutTime": 0.03969,
  "TxRefAmp": 252.287,
  "WipMemBlock": "1889a2da-4ccb-4a77-af50-f43ef3f7cbc5||Sequence: R016 ve11c/master r/e634e98; Dec 19 2017 11:00:25 by eja",
  "dcmmeta_affine": [
    [-2.682507038116455, 0.031370002776384354, 0.035849373787641525, 109.00860595703125],
    [0.036366358399391174, 2.6522557735443115, 0.40544572472572327, -108.23371124267578],
    [0.030504770576953888, -0.40330174565315247, 2.6691436767578125, -23.998306274414062],
    [0.0, 0.0, 0.0, 1.0]
],
  "dcmmeta_reorient_transform": [
    [0.0, -1.0, 0.0, 81.0],
    [1.0, 0.0, 0.0, 0.0],
    [0.0, 0.0, 1.0, 0.0],
    [0.0, 0.0, 0.0, 1.0]
],
  "dcmmeta_shape": [82, 82, 56, 914],
  "dcmmeta_slice_dim": 2,
  "dcmmeta_version": 0.6,
  "global": {
    "const": {
      "AccessionNumber": "A003607",
      "AcquisitionMatrix": [82, 0, 0, 82],
      "AngioFlag": "N",
      "BitsAllocated": 16,
      "BitsStored": 16,
      "BodyPartExamined": "BRAIN",
      "Columns": 656,
      "EchoNumbers": 1,
      "EchoTime": 27.2,
      "EchoTrainLength": 82,
      "FlipAngle": 44.0,
      "HighBit": 15,
      "ImageOrientationPatient": [0.99984348437515, -0.0135547326123, 0.01136995938295, 0.01169245510691, 0.98856801248585, 0.15032155927662],
      "ImagePositionPatient": [-890.43226523397, -857.35924330917, -181.16822044639],
      "ImageType": [
        "ORIGINAL",
        "PRIMARY",
        "M",
        "MB",
        "ND",
        "NORM",
        "MOSAIC"
],
      "ImagedNucleus": "1H",
      "ImagingFrequency": 123.252116,
      "InPlanePhaseEncodingDirection": "COL",
      "MRAcquisitionType": "2D",
      "MagneticFieldStrength": 3.0,
      "Manufacturer": "SIEMENS",
      "ManufacturerModelName": "Prisma",
      "Modality": "MR",
      "NumberOfAverages": 1.0,
      "NumberOfPhaseEncodingSteps": 82,
      "PercentPhaseFieldOfView": 100.0,
      "PercentSampling": 100.0,
      "PerformedProcedureStepStartTime": "141844.588000",
      "PhotometricInterpretation": "MONOCHROME2",
      "PixelBandwidth": 3050.0,
      "PixelRepresentation": 0,
      "PixelSpacing": [2.6829268932343, 2.6829268932343],
      "ProtocolName": "func_run-01_task-faces_acq-ap-mb8",
      "RepetitionTime": 460.0,
      "Rows": 656,
      "SAR": 0.10352694459558,
      "SamplesPerPixel": 1,
      "ScanOptions": "FS",
      "ScanningSequence": "EP",
      "SequenceName": "epfid2d1_82",
      "SequenceVariant": [
        "SK",
        "SS"
],
      "SeriesDescription": "func_run-01_task-faces_acq-ap-mb8",
      "SeriesNumber": 16,
      "SeriesTime": "151324.099000",
      "SliceLocation": -38.529606187111,
      "SliceThickness": 2.7000000476837,
      "SmallestImagePixelValue": 0,
      "SoftwareVersions": "syngo MR E11",
      "SpacingBetweenSlices": 2.6999999575822,
      "SpecificCharacterSet": "ISO_IR 100",
      "StudyID": "1",
      "StudyTime": "141844.147000",
      "TransmitCoilName": "Body",
      "VariableFlipAngleFlag": "N",
      "WindowCenterWidthExplanation": "Algo1",
      "dBdt": 0.0},
    "slices": {}
  },
  "time": {
    "samples": {
      "AcquisitionNumber": [1, 2, 3, 4, 5, 6, 7, 8, 9, 10, 11, 12, 13, 14, 15, 16, 17, 18, 19, 20, 21, 22, 23, 24, 25, 26, 27, 28, 29, 30, 31, 32, 33, 34, 35, 36, 37, 38, 39, 40, 41, 42, 43, 44, 45, 46, 47, 48, 49, 50, 51, 52, 53, 54, 55, 56, 57, 58, 59, 60, 61, 62, 63, 64, 65, 66, 67, 68, 69, 70, 71, 72, 73, 74, 75, 76, 77, 78, 79, 80, 81, 82, 83, 84, 85, 86, 87, 88, 89, 90, 91, 92, 93, 94, 95, 96, 97, 98, 99, 100, 101, 102, 103, 104, 105, 106, 107, 108, 109, 110, 111, 112, 113, 114, 115, 116, 117, 118, 119, 120, 121, 122, 123, 124, 125, 126, 127, 128, 129, 130, 131, 132, 133, 134, 135, 136, 137, 138, 139, 140, 141, 142, 143, 144, 145, 146, 147, 148, 149, 150, 151, 152, 153, 154, 155, 156, 157, 158, 159, 160, 161, 162, 163, 164, 165, 166, 167, 168, 169, 170, 171, 172, 173, 174, 175, 176, 177, 178, 179, 180, 181, 182, 183, 184, 185, 186, 187, 188, 189, 190, 191, 192, 193, 194, 195, 196, 197, 198, 199, 200, 201, 202, 203, 204, 205, 206, 207, 208, 209, 210, 211, 212, 213, 214, 215, 216, 217, 218, 219, 220, 221, 222, 223, 224, 225, 226, 227, 228, 229, 230, 231, 232, 233, 234, 235, 236, 237, 238, 239, 240, 241, 242, 243, 244, 245, 246, 247, 248, 249, 250, 251, 252, 253, 254, 255, 256, 257, 258, 259, 260, 261, 262, 263, 264, 265, 266, 267, 268, 269, 270, 271, 272, 273, 274, 275, 276, 277, 278, 279, 280, 281, 282, 283, 284, 285, 286, 287, 288, 289, 290, 291, 292, 293, 294, 295, 296, 297, 298, 299, 300, 301, 302, 303, 304, 305, 306, 307, 308, 309, 310, 311, 312, 313, 314, 315, 316, 317, 318, 319, 320, 321, 322, 323, 324, 325, 326, 327, 328, 329, 330, 331, 332, 333, 334, 335, 336, 337, 338, 339, 340, 341, 342, 343, 344, 345, 346, 347, 348, 349, 350, 351, 352, 353, 354, 355, 356, 357, 358, 359, 360, 361, 362, 363, 364, 365, 366, 367, 368, 369, 370, 371, 372, 373, 374, 375, 376, 377, 378, 379, 380, 381, 382, 383, 384, 385, 386, 387, 388, 389, 390, 391, 392, 393, 394, 395, 396, 397, 398, 399, 400, 401, 402, 403, 404, 405, 406, 407, 408, 409, 410, 411, 412, 413, 414, 415, 416, 417, 418, 419, 420, 421, 422, 423, 424, 425, 426, 427, 428, 429, 430, 431, 432, 433, 434, 435, 436, 437, 438, 439, 440, 441, 442, 443, 444, 445, 446, 447, 448, 449, 450, 451, 452, 453, 454, 455, 456, 457, 458, 459, 460, 461, 462, 463, 464, 465, 466, 467, 468, 469, 470, 471, 472, 473, 474, 475, 476, 477, 478, 479, 480, 481, 482, 483, 484, 485, 486, 487, 488, 489, 490, 491, 492, 493, 494, 495, 496, 497, 498, 499, 500, 501, 502, 503, 504, 505, 506, 507, 508, 509, 510, 511, 512, 513, 514, 515, 516, 517, 518, 519, 520, 521, 522, 523, 524, 525, 526, 527, 528, 529, 530, 531, 532, 533, 534, 535, 536, 537, 538, 539, 540, 541, 542, 543, 544, 545, 546, 547, 548, 549, 550, 551, 552, 553, 554, 555, 556, 557, 558, 559, 560, 561, 562, 563, 564, 565, 566, 567, 568, 569, 570, 571, 572, 573, 574, 575, 576, 577, 578, 579, 580, 581, 582, 583, 584, 585, 586, 587, 588, 589, 590, 591, 592, 593, 594, 595, 596, 597, 598, 599, 600, 601, 602, 603, 604, 605, 606, 607, 608, 609, 610, 611, 612, 613, 614, 615, 616, 617, 618, 619, 620, 621, 622, 623, 624, 625, 626, 627, 628, 629, 630, 631, 632, 633, 634, 635, 636, 637, 638, 639, 640, 641, 642, 643, 644, 645, 646, 647, 648, 649, 650, 651, 652, 653, 654, 655, 656, 657, 658, 659, 660, 661, 662, 663, 664, 665, 666, 667, 668, 669, 670, 671, 672, 673, 674, 675, 676, 677, 678, 679, 680, 681, 682, 683, 684, 685, 686, 687, 688, 689, 690, 691, 692, 693, 694, 695, 696, 697, 698, 699, 700, 701, 702, 703, 704, 705, 706, 707, 708, 709, 710, 711, 712, 713, 714, 715, 716, 717, 718, 719, 720, 721, 722, 723, 724, 725, 726, 727, 728, 729, 730, 731, 732, 733, 734, 735, 736, 737, 738, 739, 740, 741, 742, 743, 744, 745, 746, 747, 748, 749, 750, 751, 752, 753, 754, 755, 756, 757, 758, 759, 760, 761, 762, 763, 764, 765, 766, 767, 768, 769, 770, 771, 772, 773, 774, 775, 776, 777, 778, 779, 780, 781, 782, 783, 784, 785, 786, 787, 788, 789, 790, 791, 792, 793, 794, 795, 796, 797, 798, 799, 800, 801, 802, 803, 804, 805, 806, 807, 808, 809, 810, 811, 812, 813, 814, 815, 816, 817, 818, 819, 820, 821, 822, 823, 824, 825, 826, 827, 828, 829, 830, 831, 832, 833, 834, 835, 836, 837, 838, 839, 840, 841, 842, 843, 844, 845, 846, 847, 848, 849, 850, 851, 852, 853, 854, 855, 856, 857, 858, 859, 860, 861, 862, 863, 864, 865, 866, 867, 868, 869, 870, 871, 872, 873, 874, 875, 876, 877, 878, 879, 880, 881, 882, 883, 884, 885, 886, 887, 888, 889, 890, 891, 892, 893, 894, 895, 896, 897, 898, 899, 900, 901, 902, 903, 904, 905, 906, 907, 908, 909, 910, 911, 912, 913, 914],
      "AcquisitionTime": ["151313.482500", "151313.942500", "151314.402500", "151314.862500", "151315.322500", "151315.782500", "151316.242500", "151316.702500", "151317.162500", "151317.622500", "151318.082500", "151318.542500", "151319.002500", "151319.462500", "151319.922500", "151320.382500", "151320.842500", "151321.302500", "151321.762500", "151322.222500", "151322.682500", "151323.142500", "151323.602500", "151324.062500", "151324.522500", "151324.982500", "151325.442500", "151325.902500", "151326.362500", "151326.822500", "151327.282500", "151327.742500", "151328.202500", "151328.662500", "151329.122500", "151329.582500", "151330.042500", "151330.502500", "151330.962500", "151331.422500", "151331.882500", "151332.342500", "151332.802500", "151333.262500", "151333.722500", "151334.182500", "151334.642500", "151335.102500", "151335.562500", "151336.022500", "151336.482500", "151336.942500", "151337.402500", "151337.862500", "151338.322500", "151338.782500", "151339.242500", "151339.702500", "151340.162500", "151340.622500", "151341.082500", "151341.542500", "151342.002500", "151342.462500", "151342.922500", "151343.382500", "151343.842500", "151344.302500", "151344.762500", "151345.222500", "151345.682500", "151346.142500", "151346.602500", "151347.062500", "151347.522500", "151347.982500", "151348.442500", "151348.902500", "151349.362500", "151349.822500", "151350.282500", "151350.742500", "151351.202500", "151351.662500", "151352.122500", "151352.582500", "151353.042500", "151353.502500", "151353.962500", "151354.422500", "151354.882500", "151355.342500", "151355.802500", "151356.262500", "151356.722500", "151357.182500", "151357.642500", "151358.102500", "151358.562500", "151359.022500", "151359.482500", "151359.942500", "151400.402500", "151400.862500", "151401.322500", "151401.782500", "151402.242500", "151402.702500", "151403.162500", "151403.622500", "151404.082500", "151404.542500", "151405.002500", "151405.462500", "151405.922500", "151406.382500", "151406.842500", "151407.302500", "151407.762500", "151408.222500", "151408.682500", "151409.142500", "151409.602500", "151410.062500", "151410.522500", "151410.982500", "151411.442500", "151411.902500", "151412.362500", "151412.822500", "151413.282500", "151413.742500", "151414.202500", "151414.662500", "151415.122500", "151415.582500", "151416.042500", "151416.502500", "151416.962500", "151417.422500", "151417.882500", "151418.342500", "151418.802500", "151419.262500", "151419.722500", "151420.182500", "151420.642500", "151421.102500", "151421.562500", "151422.022500", "151422.482500", "151422.942500", "151423.402500", "151423.862500", "151424.322500", "151424.782500", "151425.242500", "151425.702500", "151426.162500", "151426.622500", "151427.082500", "151427.542500", "151428.002500", "151428.462500", "151428.922500", "151429.382500", "151429.842500", "151430.302500", "151430.762500", "151431.222500", "151431.682500", "151432.142500", "151432.602500", "151433.062500", "151433.522500", "151433.982500", "151434.442500", "151434.902500", "151435.362500", "151435.822500", "151436.282500", "151436.742500", "151437.202500", "151437.662500", "151438.122500", "151438.582500", "151439.042500", "151439.502500", "151439.962500", "151440.422500", "151440.882500", "151441.342500", "151441.802500", "151442.262500", "151442.722500", "151443.182500", "151443.642500", "151444.102500", "151444.562500", "151445.022500", "151445.482500", "151445.942500", "151446.402500", "151446.862500", "151447.322500", "151447.782500", "151448.242500", "151448.702500", "151449.162500", "151449.622500", "151450.082500", "151450.542500", "151451.002500", "151451.462500", "151451.922500", "151452.382500", "151452.842500", "151453.302500", "151453.762500", "151454.222500", "151454.682500", "151455.142500", "151455.602500", "151456.062500", "151456.522500", "151456.982500", "151457.442500", "151457.902500", "151458.362500", "151458.822500", "151459.282500", "151459.742500", "151500.202500", "151500.662500", "151501.122500", "151501.582500", "151502.042500", "151502.502500", "151502.962500", "151503.422500", "151503.882500", "151504.342500", "151504.802500", "151505.262500", "151505.722500", "151506.182500", "151506.642500", "151507.102500", "151507.562500", "151508.022500", "151508.482500", "151508.942500", "151509.402500", "151509.862500", "151510.322500", "151510.782500", "151511.242500", "151511.702500", "151512.162500", "151512.622500", "151513.082500", "151513.542500", "151514.002500", "151514.462500", "151514.922500", "151515.382500", "151515.842500", "151516.302500", "151516.762500", "151517.222500", "151517.682500", "151518.142500", "151518.602500", "151519.062500", "151519.522500", "151519.982500", "151520.442500", "151520.902500", "151521.362500", "151521.822500", "151522.282500", "151522.742500", "151523.202500", "151523.662500", "151524.122500", "151524.582500", "151525.042500", "151525.502500", "151525.962500", "151526.422500", "151526.882500", "151527.342500", "151527.802500", "151528.262500", "151528.722500", "151529.182500", "151529.642500", "151530.102500", "151530.562500", "151531.022500", "151531.482500", "151531.942500", "151532.402500", "151532.862500", "151533.322500", "151533.782500", "151534.242500", "151534.702500", "151535.162500", "151535.622500", "151536.082500", "151536.542500", "151537.002500", "151537.462500", "151537.922500", "151538.382500", "151538.842500", "151539.302500", "151539.762500", "151540.222500", "151540.682500", "151541.142500", "151541.602500", "151542.062500", "151542.522500", "151542.982500", "151543.442500", "151543.902500", "151544.362500", "151544.822500", "151545.282500", "151545.742500", "151546.202500", "151546.662500", "151547.122500", "151547.582500", "151548.042500", "151548.502500", "151548.962500", "151549.422500", "151549.882500", "151550.342500", "151550.802500", "151551.262500", "151551.722500", "151552.182500", "151552.642500", "151553.102500", "151553.562500", "151554.022500", "151554.482500", "151554.942500", "151555.402500", "151555.862500", "151556.322500", "151556.782500", "151557.242500", "151557.702500", "151558.162500", "151558.622500", "151559.082500", "151559.542500", "151600.002500", "151600.462500", "151600.922500", "151601.382500", "151601.842500", "151602.302500", "151602.762500", "151603.222500", "151603.682500", "151604.142500", "151604.602500", "151605.062500", "151605.522500", "151605.982500", "151606.442500", "151606.902500", "151607.362500", "151607.822500", "151608.282500", "151608.742500", "151609.202500", "151609.662500", "151610.122500", "151610.582500", "151611.042500", "151611.502500", "151611.962500", "151612.422500", "151612.882500", "151613.342500", "151613.802500", "151614.262500", "151614.722500", "151615.182500", "151615.642500", "151616.102500", "151616.562500", "151617.022500", "151617.482500", "151617.942500", "151618.402500", "151618.862500", "151619.322500", "151619.782500", "151620.242500", "151620.702500", "151621.162500", "151621.622500", "151622.082500", "151622.542500", "151623.002500", "151623.462500", "151623.922500", "151624.382500", "151624.842500", "151625.302500", "151625.762500", "151626.222500", "151626.682500", "151627.142500", "151627.602500", "151628.062500", "151628.522500", "151628.982500", "151629.442500", "151629.902500", "151630.362500", "151630.822500", "151631.282500", "151631.742500", "151632.202500", "151632.662500", "151633.122500", "151633.582500", "151634.042500", "151634.502500", "151634.962500", "151635.422500", "151635.882500", "151636.342500", "151636.802500", "151637.262500", "151637.722500", "151638.182500", "151638.642500", "151639.102500", "151639.562500", "151640.022500", "151640.482500", "151640.942500", "151641.402500", "151641.862500", "151642.322500", "151642.782500", "151643.242500", "151643.702500", "151644.162500", "151644.622500", "151645.082500", "151645.542500", "151646.002500", "151646.462500", "151646.922500", "151647.382500", "151647.842500", "151648.302500", "151648.762500", "151649.222500", "151649.682500", "151650.142500", "151650.602500", "151651.062500", "151651.522500", "151651.982500", "151652.442500", "151652.902500", "151653.362500", "151653.822500", "151654.282500", "151654.742500", "151655.202500", "151655.662500", "151656.122500", "151656.582500", "151657.042500", "151657.502500", "151657.962500", "151658.422500", "151658.882500", "151659.342500", "151659.802500", "151700.262500", "151700.722500", "151701.182500", "151701.642500", "151702.102500", "151702.562500", "151703.022500", "151703.482500", "151703.942500", "151704.402500", "151704.862500", "151705.322500", "151705.782500", "151706.242500", "151706.702500", "151707.162500", "151707.622500", "151708.082500", "151708.542500", "151709.002500", "151709.462500", "151709.922500", "151710.382500", "151710.842500", "151711.302500", "151711.762500", "151712.222500", "151712.682500", "151713.142500", "151713.602500", "151714.062500", "151714.522500", "151714.982500", "151715.442500", "151715.902500", "151716.362500", "151716.822500", "151717.282500", "151717.742500", "151718.202500", "151718.662500", "151719.122500", "151719.582500", "151720.042500", "151720.502500", "151720.962500", "151721.422500", "151721.882500", "151722.342500", "151722.802500", "151723.262500", "151723.722500", "151724.182500", "151724.642500", "151725.102500", "151725.562500", "151726.022500", "151726.482500", "151726.942500", "151727.402500", "151727.862500", "151728.322500", "151728.782500", "151729.242500", "151729.702500", "151730.162500", "151730.622500", "151731.082500", "151731.542500", "151732.002500", "151732.462500", "151732.922500", "151733.382500", "151733.842500", "151734.302500", "151734.762500", "151735.222500", "151735.682500", "151736.142500", "151736.602500", "151737.062500", "151737.522500", "151737.982500", "151738.442500", "151738.902500", "151739.362500", "151739.822500", "151740.282500", "151740.742500", "151741.202500", "151741.662500", "151742.122500", "151742.582500", "151743.042500", "151743.502500", "151743.962500", "151744.422500", "151744.882500", "151745.342500", "151745.802500", "151746.262500", "151746.722500", "151747.182500", "151747.642500", "151748.102500", "151748.562500", "151749.022500", "151749.482500", "151749.942500", "151750.402500", "151750.862500", "151751.322500", "151751.782500", "151752.242500", "151752.702500", "151753.162500", "151753.622500", "151754.082500", "151754.542500", "151755.002500", "151755.462500", "151755.922500", "151756.382500", "151756.842500", "151757.302500", "151757.762500", "151758.222500", "151758.682500", "151759.142500", "151759.602500", "151800.062500", "151800.522500", "151800.982500", "151801.442500", "151801.902500", "151802.362500", "151802.822500", "151803.282500", "151803.742500", "151804.202500", "151804.662500", "151805.122500", "151805.582500", "151806.042500", "151806.502500", "151806.962500", "151807.422500", "151807.882500", "151808.342500", "151808.802500", "151809.262500", "151809.722500", "151810.182500", "151810.642500", "151811.102500", "151811.562500", "151812.022500", "151812.482500", "151812.942500", "151813.402500", "151813.862500", "151814.322500", "151814.782500", "151815.242500", "151815.702500", "151816.162500", "151816.622500", "151817.082500", "151817.542500", "151818.002500", "151818.462500", "151818.922500", "151819.382500", "151819.842500", "151820.302500", "151820.762500", "151821.222500", "151821.682500", "151822.142500", "151822.602500", "151823.062500", "151823.522500", "151823.982500", "151824.442500", "151824.902500", "151825.362500", "151825.822500", "151826.282500", "151826.742500", "151827.202500", "151827.662500", "151828.122500", "151828.582500", "151829.042500", "151829.502500", "151829.962500", "151830.422500", "151830.882500", "151831.342500", "151831.802500", "151832.262500", "151832.722500", "151833.182500", "151833.642500", "151834.102500", "151834.562500", "151835.022500", "151835.482500", "151835.942500", "151836.402500", "151836.862500", "151837.322500", "151837.782500", "151838.242500", "151838.702500", "151839.162500", "151839.622500", "151840.082500", "151840.542500", "151841.002500", "151841.462500", "151841.922500", "151842.382500", "151842.842500", "151843.302500", "151843.762500", "151844.222500", "151844.682500", "151845.142500", "151845.602500", "151846.062500", "151846.522500", "151846.982500", "151847.442500", "151847.902500", "151848.362500", "151848.822500", "151849.282500", "151849.742500", "151850.202500", "151850.662500", "151851.122500", "151851.582500", "151852.042500", "151852.502500", "151852.962500", "151853.422500", "151853.882500", "151854.342500", "151854.802500", "151855.262500", "151855.722500", "151856.182500", "151856.642500", "151857.102500", "151857.562500", "151858.022500", "151858.482500", "151858.942500", "151859.402500", "151859.862500", "151900.322500", "151900.782500", "151901.242500", "151901.702500", "151902.162500", "151902.622500", "151903.082500", "151903.542500", "151904.002500", "151904.462500", "151904.922500", "151905.382500", "151905.842500", "151906.302500", "151906.762500", "151907.222500", "151907.682500", "151908.142500", "151908.602500", "151909.062500", "151909.522500", "151909.982500", "151910.442500", "151910.902500", "151911.362500", "151911.822500", "151912.282500", "151912.742500", "151913.202500", "151913.662500", "151914.122500", "151914.582500", "151915.042500", "151915.502500", "151915.962500", "151916.422500", "151916.882500", "151917.342500", "151917.802500", "151918.262500", "151918.722500", "151919.182500", "151919.642500", "151920.102500", "151920.562500", "151921.022500", "151921.482500", "151921.942500", "151922.402500", "151922.862500", "151923.322500", "151923.782500", "151924.242500", "151924.702500", "151925.162500", "151925.622500", "151926.082500", "151926.542500", "151927.002500", "151927.462500", "151927.922500", "151928.382500", "151928.842500", "151929.302500", "151929.762500", "151930.222500", "151930.682500", "151931.142500", "151931.602500", "151932.062500", "151932.522500", "151932.982500", "151933.442500", "151933.902500", "151934.362500", "151934.822500", "151935.282500", "151935.742500", "151936.202500", "151936.662500", "151937.122500", "151937.582500", "151938.042500", "151938.502500", "151938.962500", "151939.422500", "151939.882500", "151940.342500", "151940.802500", "151941.262500", "151941.722500", "151942.182500", "151942.642500", "151943.102500", "151943.562500", "151944.022500", "151944.482500", "151944.942500", "151945.402500", "151945.862500", "151946.322500", "151946.782500", "151947.242500", "151947.702500", "151948.162500", "151948.622500", "151949.082500", "151949.542500", "151950.002500", "151950.462500", "151950.922500", "151951.382500", "151951.842500", "151952.302500", "151952.762500", "151953.222500", "151953.682500", "151954.142500", "151954.602500", "151955.062500", "151955.522500", "151955.982500", "151956.442500", "151956.902500", "151957.362500", "151957.822500", "151958.282500", "151958.742500", "151959.202500", "151959.662500", "152000.122500", "152000.582500", "152001.042500", "152001.502500", "152001.962500", "152002.422500", "152002.882500", "152003.342500", "152003.802500", "152004.262500", "152004.722500", "152005.182500", "152005.642500", "152006.102500", "152006.562500", "152007.022500", "152007.482500", "152007.942500", "152008.402500", "152008.862500", "152009.322500", "152009.782500", "152010.242500", "152010.702500", "152011.162500", "152011.622500", "152012.082500", "152012.542500", "152013.002500", "152013.462500"],
