{
  "AcquisitionMatrixPE": 82,
  "AcquisitionNumber": 1,
  "AcquisitionTime": "19:25:49.165000",
  "BandwidthPerPixelPhaseEncode": 24.888,
  "BaseResolution": 82,
  "BodyPartExamined": "BRAIN",
  "ConsistencyInfo": "N4_VE11E_LATEST_20181129",
  "ConversionSoftware": "dcm2niix",
  "ConversionSoftwareVersion": "v1.0.20201102",
  "DerivedVendorReportedEchoSpacing": 0.00049,
  "DeviceSerialNumber": "66112",
  "DwellTime": 2e-06,
  "EchoTime": 0.0272,
  "EchoTrainLength": 82,
  "EffectiveEchoSpacing": 0.00049,
  "FlipAngle": 44,
  "ImageComments": "Unaliased MB8/PE3",
  "ImageOrientationPatientDICOM": [0.998739, 0.0315629, 0.03905, -0.0360985, 0.991935, 0.1215],
  "ImageType": [
    "ORIGINAL",
    "PRIMARY",
    "M",
    "MB",
    "ND",
    "NORM",
    "MOSAIC"
],
  "ImagingFrequency": 123.259,
  "InPlanePhaseEncodingDirectionDICOM": "COL",
  "InstitutionAddress": "Maynard 3,Hanover,NH,US,03755",
  "InstitutionName": "Dartmouth College - PBS",
  "InstitutionalDepartmentName": "Department",
  "MRAcquisitionType": "2D",
  "MagneticFieldStrength": 3,
  "Manufacturer": "Siemens",
  "ManufacturersModelName": "Prisma",
  "Modality": "MR",
  "MultibandAccelerationFactor": 8,
  "PartialFourier": 1,
  "PatientPosition": "HFS",
  "PercentPhaseFOV": 100,
  "PercentSampling": 100,
  "PhaseEncodingDirection": "j-",
  "PhaseEncodingSteps": 82,
  "PhaseResolution": 1,
  "PixelBandwidth": 3050,
  "ProcedureStepDescription": "Wager_Wager^1076_spacetop",
  "ProtocolName": "func_run-01_task-social_acq-ap-mb8",
  "PulseSequenceDetails": "%CustomerSeq%\\cmrr_mbep2d_bold",
  "ReceiveCoilActiveElements": "HEA;HEP",
  "ReceiveCoilName": "Head_32",
  "ReconMatrixPE": 82,
  "RepetitionTime": 0.46,
  "SAR": 0.0865569,
  "ScanOptions": "FS",
  "ScanningSequence": "EP",
  "SequenceName": "epfid2d1_82",
  "SequenceVariant": "SK\\SS",
  "SeriesDescription": "func_run-01_task-social_acq-ap-mb8",
  "SeriesNumber": 8,
  "ShimSetting": [4229, -7792, -7216, 421, -109, -101, -12, 47],
  "SliceThickness": 2.7,
  "SliceTiming": [0, 0.2525, 0.065, 0.315, 0.1275, 0.3775, 0.19, 0, 0.2525, 0.065, 0.315, 0.1275, 0.3775, 0.19, 0, 0.2525, 0.065, 0.315, 0.1275, 0.3775, 0.19, 0, 0.2525, 0.065, 0.315, 0.1275, 0.3775, 0.19, 0, 0.2525, 0.065, 0.315, 0.1275, 0.3775, 0.19, 0, 0.2525, 0.065, 0.315, 0.1275, 0.3775, 0.19, 0, 0.2525, 0.065, 0.315, 0.1275, 0.3775, 0.19, 0, 0.2525, 0.065, 0.315, 0.1275, 0.3775, 0.19],
  "SoftwareVersions": "syngo MR E11",
  "SpacingBetweenSlices": 2.7,
  "StationName": "AWP66112",
  "TaskName": "social",
  "TotalReadoutTime": 0.03969,
  "TxRefAmp": 229.373,
  "WipMemBlock": "1c969a7a-c01c-40e0-9d63-98d06a90f94b||Sequence: R016 ve11e/master r/434b28f1; Aug  7 2019 18:53:46 by eja",
  "dcmmeta_affine": [
    [-2.6795427799224854, -0.09684953093528748, 0.0942302867770195, 111.59625244140625],
    [-0.08468098193407059, 2.6612884998321533, 0.33144283294677734, -110.24295806884766],
    [0.10476817190647125, -0.3259761929512024, 2.677922010421753, -59.11177062988281],
    [0.0, 0.0, 0.0, 1.0]
],
  "dcmmeta_reorient_transform": [
    [0.0, -1.0, 0.0, 81.0],
    [1.0, 0.0, 0.0, 0.0],
    [0.0, 0.0, 1.0, 0.0],
    [0.0, 0.0, 0.0, 1.0]
],
  "dcmmeta_shape": [82, 82, 56, 872],
  "dcmmeta_slice_dim": 2,
  "dcmmeta_version": 0.6,
  "global": {
    "const": {
      "AccessionNumber": "A004797",
      "AcquisitionMatrix": [82, 0, 0, 82],
      "AngioFlag": "N",
      "BitsAllocated": 16,
      "BitsStored": 16,
      "BodyPartExamined": "BRAIN",
      "Columns": 656,
      "EchoNumbers": 1,
      "EchoTime": 27.2,
      "EchoTrainLength": 82,
      "FlipAngle": 44.0,
      "HighBit": 15,
      "ImageOrientationPatient": [0.99873864639228, 0.03156291134058, 0.03904995301177, -0.036098459865, 0.9919347759724, 0.12150021157166],
      "ImagePositionPatient": [-844.9843996608, -893.41464678976, -209.1394719934],
      "ImageType": [
        "ORIGINAL",
        "PRIMARY",
        "M",
        "MB",
        "ND",
        "NORM",
        "MOSAIC"
],
      "ImagedNucleus": "1H",
      "ImagingFrequency": 123.259069,
      "InPlanePhaseEncodingDirection": "COL",
      "MRAcquisitionType": "2D",
      "MagneticFieldStrength": 3.0,
      "Manufacturer": "SIEMENS",
      "ManufacturerModelName": "Prisma",
      "Modality": "MR",
      "NumberOfAverages": 1.0,
      "NumberOfPhaseEncodingSteps": 82,
      "PercentPhaseFieldOfView": 100.0,
      "PercentSampling": 100.0,
      "PerformedProcedureStepStartTime": "191215.949000",
      "PhotometricInterpretation": "MONOCHROME2",
      "PixelBandwidth": 3050.0,
      "PixelRepresentation": 0,
      "PixelSpacing": [2.6829268932343, 2.6829268932343],
      "ProtocolName": "func_run-01_task-social_acq-ap-mb8",
      "RepetitionTime": 460.0,
      "Rows": 656,
      "SAR": 0.08655694649473,
      "SamplesPerPixel": 1,
      "ScanOptions": "FS",
      "ScanningSequence": "EP",
      "SequenceName": "epfid2d1_82",
      "SequenceVariant": [
        "SK",
        "SS"
],
      "SeriesDescription": "func_run-01_task-social_acq-ap-mb8",
      "SeriesNumber": 8,
      "SeriesTime": "192618.841000",
      "SliceLocation": -68.266742290381,
      "SliceThickness": 2.7000000476837,
      "SmallestImagePixelValue": 0,
      "SoftwareVersions": "syngo MR E11",
      "SpacingBetweenSlices": 2.7000000422652,
      "SpecificCharacterSet": "ISO_IR 100",
      "StudyID": "3",
      "StudyTime": "191215.887000",
      "TransmitCoilName": "Body",
      "VariableFlipAngleFlag": "N",
      "WindowCenterWidthExplanation": "Algo1"
    },
    "slices": {}
  },
  "time": {
    "samples": {
      "AcquisitionNumber": [1, 2, 3, 4, 5, 6, 7, 8, 9, 10, 11, 12, 13, 14, 15, 16, 17, 18, 19, 20, 21, 22, 23, 24, 25, 26, 27, 28, 29, 30, 31, 32, 33, 34, 35, 36, 37, 38, 39, 40, 41, 42, 43, 44, 45, 46, 47, 48, 49, 50, 51, 52, 53, 54, 55, 56, 57, 58, 59, 60, 61, 62, 63, 64, 65, 66, 67, 68, 69, 70, 71, 72, 73, 74, 75, 76, 77, 78, 79, 80, 81, 82, 83, 84, 85, 86, 87, 88, 89, 90, 91, 92, 93, 94, 95, 96, 97, 98, 99, 100, 101, 102, 103, 104, 105, 106, 107, 108, 109, 110, 111, 112, 113, 114, 115, 116, 117, 118, 119, 120, 121, 122, 123, 124, 125, 126, 127, 128, 129, 130, 131, 132, 133, 134, 135, 136, 137, 138, 139, 140, 141, 142, 143, 144, 145, 146, 147, 148, 149, 150, 151, 152, 153, 154, 155, 156, 157, 158, 159, 160, 161, 162, 163, 164, 165, 166, 167, 168, 169, 170, 171, 172, 173, 174, 175, 176, 177, 178, 179, 180, 181, 182, 183, 184, 185, 186, 187, 188, 189, 190, 191, 192, 193, 194, 195, 196, 197, 198, 199, 200, 201, 202, 203, 204, 205, 206, 207, 208, 209, 210, 211, 212, 213, 214, 215, 216, 217, 218, 219, 220, 221, 222, 223, 224, 225, 226, 227, 228, 229, 230, 231, 232, 233, 234, 235, 236, 237, 238, 239, 240, 241, 242, 243, 244, 245, 246, 247, 248, 249, 250, 251, 252, 253, 254, 255, 256, 257, 258, 259, 260, 261, 262, 263, 264, 265, 266, 267, 268, 269, 270, 271, 272, 273, 274, 275, 276, 277, 278, 279, 280, 281, 282, 283, 284, 285, 286, 287, 288, 289, 290, 291, 292, 293, 294, 295, 296, 297, 298, 299, 300, 301, 302, 303, 304, 305, 306, 307, 308, 309, 310, 311, 312, 313, 314, 315, 316, 317, 318, 319, 320, 321, 322, 323, 324, 325, 326, 327, 328, 329, 330, 331, 332, 333, 334, 335, 336, 337, 338, 339, 340, 341, 342, 343, 344, 345, 346, 347, 348, 349, 350, 351, 352, 353, 354, 355, 356, 357, 358, 359, 360, 361, 362, 363, 364, 365, 366, 367, 368, 369, 370, 371, 372, 373, 374, 375, 376, 377, 378, 379, 380, 381, 382, 383, 384, 385, 386, 387, 388, 389, 390, 391, 392, 393, 394, 395, 396, 397, 398, 399, 400, 401, 402, 403, 404, 405, 406, 407, 408, 409, 410, 411, 412, 413, 414, 415, 416, 417, 418, 419, 420, 421, 422, 423, 424, 425, 426, 427, 428, 429, 430, 431, 432, 433, 434, 435, 436, 437, 438, 439, 440, 441, 442, 443, 444, 445, 446, 447, 448, 449, 450, 451, 452, 453, 454, 455, 456, 457, 458, 459, 460, 461, 462, 463, 464, 465, 466, 467, 468, 469, 470, 471, 472, 473, 474, 475, 476, 477, 478, 479, 480, 481, 482, 483, 484, 485, 486, 487, 488, 489, 490, 491, 492, 493, 494, 495, 496, 497, 498, 499, 500, 501, 502, 503, 504, 505, 506, 507, 508, 509, 510, 511, 512, 513, 514, 515, 516, 517, 518, 519, 520, 521, 522, 523, 524, 525, 526, 527, 528, 529, 530, 531, 532, 533, 534, 535, 536, 537, 538, 539, 540, 541, 542, 543, 544, 545, 546, 547, 548, 549, 550, 551, 552, 553, 554, 555, 556, 557, 558, 559, 560, 561, 562, 563, 564, 565, 566, 567, 568, 569, 570, 571, 572, 573, 574, 575, 576, 577, 578, 579, 580, 581, 582, 583, 584, 585, 586, 587, 588, 589, 590, 591, 592, 593, 594, 595, 596, 597, 598, 599, 600, 601, 602, 603, 604, 605, 606, 607, 608, 609, 610, 611, 612, 613, 614, 615, 616, 617, 618, 619, 620, 621, 622, 623, 624, 625, 626, 627, 628, 629, 630, 631, 632, 633, 634, 635, 636, 637, 638, 639, 640, 641, 642, 643, 644, 645, 646, 647, 648, 649, 650, 651, 652, 653, 654, 655, 656, 657, 658, 659, 660, 661, 662, 663, 664, 665, 666, 667, 668, 669, 670, 671, 672, 673, 674, 675, 676, 677, 678, 679, 680, 681, 682, 683, 684, 685, 686, 687, 688, 689, 690, 691, 692, 693, 694, 695, 696, 697, 698, 699, 700, 701, 702, 703, 704, 705, 706, 707, 708, 709, 710, 711, 712, 713, 714, 715, 716, 717, 718, 719, 720, 721, 722, 723, 724, 725, 726, 727, 728, 729, 730, 731, 732, 733, 734, 735, 736, 737, 738, 739, 740, 741, 742, 743, 744, 745, 746, 747, 748, 749, 750, 751, 752, 753, 754, 755, 756, 757, 758, 759, 760, 761, 762, 763, 764, 765, 766, 767, 768, 769, 770, 771, 772, 773, 774, 775, 776, 777, 778, 779, 780, 781, 782, 783, 784, 785, 786, 787, 788, 789, 790, 791, 792, 793, 794, 795, 796, 797, 798, 799, 800, 801, 802, 803, 804, 805, 806, 807, 808, 809, 810, 811, 812, 813, 814, 815, 816, 817, 818, 819, 820, 821, 822, 823, 824, 825, 826, 827, 828, 829, 830, 831, 832, 833, 834, 835, 836, 837, 838, 839, 840, 841, 842, 843, 844, 845, 846, 847, 848, 849, 850, 851, 852, 853, 854, 855, 856, 857, 858, 859, 860, 861, 862, 863, 864, 865, 866, 867, 868, 869, 870, 871, 872],
      "AcquisitionTime": ["192549.165000", "192549.625000", "192550.085000", "192550.545000", "192551.005000", "192551.465000", "192551.925000", "192552.385000", "192552.845000", "192553.305000", "192553.765000", "192554.225000", "192554.685000", "192555.145000", "192555.605000", "192556.065000", "192556.525000", "192556.985000", "192557.445000", "192557.905000", "192558.365000", "192558.825000", "192559.285000", "192559.745000", "192600.205000", "192600.665000", "192601.125000", "192601.585000", "192602.045000", "192602.505000", "192602.965000", "192603.425000", "192603.885000", "192604.345000", "192604.805000", "192605.265000", "192605.725000", "192606.185000", "192606.645000", "192607.105000", "192607.565000", "192608.025000", "192608.485000", "192608.945000", "192609.405000", "192609.865000", "192610.325000", "192610.785000", "192611.245000", "192611.705000", "192612.165000", "192612.625000", "192613.085000", "192613.545000", "192614.005000", "192614.465000", "192614.925000", "192615.385000", "192615.845000", "192616.305000", "192616.765000", "192617.225000", "192617.685000", "192618.145000", "192618.605000", "192619.065000", "192619.525000", "192619.985000", "192620.445000", "192620.905000", "192621.365000", "192621.825000", "192622.285000", "192622.745000", "192623.205000", "192623.665000", "192624.125000", "192624.585000", "192625.045000", "192625.505000", "192625.965000", "192626.425000", "192626.885000", "192627.345000", "192627.805000", "192628.265000", "192628.725000", "192629.185000", "192629.645000", "192630.105000", "192630.565000", "192631.025000", "192631.485000", "192631.945000", "192632.405000", "192632.865000", "192633.325000", "192633.785000", "192634.245000", "192634.705000", "192635.165000", "192635.625000", "192636.085000", "192636.545000", "192637.005000", "192637.465000", "192637.925000", "192638.385000", "192638.845000", "192639.305000", "192639.765000", "192640.225000", "192640.685000", "192641.145000", "192641.605000", "192642.065000", "192642.525000", "192642.985000", "192643.445000", "192643.905000", "192644.365000", "192644.825000", "192645.285000", "192645.745000", "192646.205000", "192646.665000", "192647.125000", "192647.585000", "192648.045000", "192648.505000", "192648.965000", "192649.425000", "192649.885000", "192650.345000", "192650.805000", "192651.265000", "192651.725000", "192652.185000", "192652.645000", "192653.105000", "192653.565000", "192654.025000", "192654.485000", "192654.945000", "192655.405000", "192655.865000", "192656.325000", "192656.785000", "192657.245000", "192657.705000", "192658.165000", "192658.625000", "192659.085000", "192659.545000", "192700.005000", "192700.465000", "192700.925000", "192701.385000", "192701.845000", "192702.305000", "192702.765000", "192703.225000", "192703.685000", "192704.145000", "192704.605000", "192705.065000", "192705.525000", "192705.985000", "192706.445000", "192706.905000", "192707.365000", "192707.825000", "192708.285000", "192708.745000", "192709.205000", "192709.665000", "192710.125000", "192710.585000", "192711.045000", "192711.505000", "192711.965000", "192712.425000", "192712.885000", "192713.345000", "192713.805000", "192714.265000", "192714.725000", "192715.185000", "192715.645000", "192716.105000", "192716.565000", "192717.025000", "192717.485000", "192717.945000", "192718.405000", "192718.865000", "192719.325000", "192719.785000", "192720.245000", "192720.705000", "192721.165000", "192721.625000", "192722.085000", "192722.545000", "192723.005000", "192723.465000", "192723.925000", "192724.385000", "192724.845000", "192725.305000", "192725.765000", "192726.225000", "192726.685000", "192727.145000", "192727.605000", "192728.065000", "192728.525000", "192728.985000", "192729.445000", "192729.905000", "192730.365000", "192730.825000", "192731.285000", "192731.745000", "192732.205000", "192732.665000", "192733.125000", "192733.585000", "192734.045000", "192734.505000", "192734.965000", "192735.425000", "192735.885000", "192736.345000", "192736.805000", "192737.265000", "192737.725000", "192738.185000", "192738.645000", "192739.105000", "192739.565000", "192740.025000", "192740.485000", "192740.945000", "192741.405000", "192741.865000", "192742.325000", "192742.785000", "192743.245000", "192743.705000", "192744.165000", "192744.625000", "192745.085000", "192745.545000", "192746.005000", "192746.465000", "192746.925000", "192747.385000", "192747.845000", "192748.305000", "192748.765000", "192749.225000", "192749.685000", "192750.145000", "192750.605000", "192751.065000", "192751.525000", "192751.985000", "192752.445000", "192752.905000", "192753.365000", "192753.825000", "192754.285000", "192754.745000", "192755.205000", "192755.665000", "192756.125000", "192756.585000", "192757.045000", "192757.505000", "192757.965000", "192758.425000", "192758.885000", "192759.345000", "192759.805000", "192800.265000", "192800.725000", "192801.185000", "192801.645000", "192802.105000", "192802.565000", "192803.025000", "192803.485000", "192803.945000", "192804.405000", "192804.865000", "192805.325000", "192805.785000", "192806.245000", "192806.705000", "192807.165000", "192807.625000", "192808.085000", "192808.545000", "192809.005000", "192809.465000", "192809.925000", "192810.385000", "192810.845000", "192811.305000", "192811.765000", "192812.225000", "192812.685000", "192813.145000", "192813.605000", "192814.065000", "192814.525000", "192814.985000", "192815.445000", "192815.905000", "192816.365000", "192816.825000", "192817.285000", "192817.745000", "192818.205000", "192818.665000", "192819.125000", "192819.585000", "192820.045000", "192820.505000", "192820.965000", "192821.425000", "192821.885000", "192822.345000", "192822.805000", "192823.265000", "192823.725000", "192824.185000", "192824.645000", "192825.105000", "192825.565000", "192826.025000", "192826.485000", "192826.945000", "192827.405000", "192827.865000", "192828.325000", "192828.785000", "192829.245000", "192829.705000", "192830.165000", "192830.625000", "192831.085000", "192831.545000", "192832.005000", "192832.465000", "192832.925000", "192833.385000", "192833.845000", "192834.305000", "192834.765000", "192835.225000", "192835.685000", "192836.145000", "192836.605000", "192837.065000", "192837.525000", "192837.985000", "192838.445000", "192838.905000", "192839.365000", "192839.825000", "192840.285000", "192840.745000", "192841.205000", "192841.665000", "192842.125000", "192842.585000", "192843.045000", "192843.505000", "192843.965000", "192844.425000", "192844.885000", "192845.345000", "192845.805000", "192846.265000", "192846.725000", "192847.185000", "192847.645000", "192848.105000", "192848.565000", "192849.025000", "192849.485000", "192849.945000", "192850.405000", "192850.865000", "192851.325000", "192851.785000", "192852.245000", "192852.705000", "192853.165000", "192853.625000", "192854.085000", "192854.545000", "192855.005000", "192855.465000", "192855.925000", "192856.385000", "192856.845000", "192857.305000", "192857.765000", "192858.225000", "192858.685000", "192859.145000", "192859.605000", "192900.065000", "192900.525000", "192900.985000", "192901.445000", "192901.905000", "192902.365000", "192902.825000", "192903.285000", "192903.745000", "192904.205000", "192904.665000", "192905.125000", "192905.585000", "192906.045000", "192906.505000", "192906.965000", "192907.425000", "192907.885000", "192908.345000", "192908.805000", "192909.265000", "192909.725000", "192910.185000", "192910.645000", "192911.105000", "192911.565000", "192912.025000", "192912.485000", "192912.945000", "192913.405000", "192913.865000", "192914.325000", "192914.785000", "192915.245000", "192915.705000", "192916.165000", "192916.625000", "192917.085000", "192917.545000", "192918.005000", "192918.465000", "192918.925000", "192919.385000", "192919.845000", "192920.305000", "192920.765000", "192921.225000", "192921.685000", "192922.145000", "192922.605000", "192923.065000", "192923.525000", "192923.985000", "192924.445000", "192924.905000", "192925.365000", "192925.825000", "192926.285000", "192926.745000", "192927.205000", "192927.665000", "192928.125000", "192928.585000", "192929.045000", "192929.505000", "192929.965000", "192930.425000", "192930.885000", "192931.345000", "192931.805000", "192932.265000", "192932.725000", "192933.185000", "192933.645000", "192934.105000", "192934.565000", "192935.025000", "192935.485000", "192935.945000", "192936.405000", "192936.865000", "192937.325000", "192937.785000", "192938.245000", "192938.705000", "192939.165000", "192939.625000", "192940.085000", "192940.545000", "192941.005000", "192941.465000", "192941.925000", "192942.385000", "192942.845000", "192943.305000", "192943.765000", "192944.225000", "192944.685000", "192945.145000", "192945.605000", "192946.065000", "192946.525000", "192946.985000", "192947.445000", "192947.905000", "192948.365000", "192948.825000", "192949.285000", "192949.745000", "192950.205000", "192950.665000", "192951.125000", "192951.585000", "192952.045000", "192952.505000", "192952.965000", "192953.425000", "192953.885000", "192954.345000", "192954.805000", "192955.265000", "192955.725000", "192956.185000", "192956.645000", "192957.105000", "192957.565000", "192958.025000", "192958.485000", "192958.945000", "192959.405000", "192959.865000", "193000.325000", "193000.785000", "193001.245000", "193001.705000", "193002.165000", "193002.625000", "193003.085000", "193003.545000", "193004.005000", "193004.465000", "193004.925000", "193005.385000", "193005.845000", "193006.305000", "193006.765000", "193007.225000", "193007.685000", "193008.145000", "193008.605000", "193009.065000", "193009.525000", "193009.985000", "193010.445000", "193010.905000", "193011.365000", "193011.825000", "193012.285000", "193012.745000", "193013.205000", "193013.665000", "193014.125000", "193014.585000", "193015.045000", "193015.505000", "193015.965000", "193016.425000", "193016.885000", "193017.345000", "193017.805000", "193018.265000", "193018.725000", "193019.185000", "193019.645000", "193020.105000", "193020.565000", "193021.025000", "193021.485000", "193021.945000", "193022.405000", "193022.865000", "193023.325000", "193023.785000", "193024.245000", "193024.705000", "193025.165000", "193025.625000", "193026.085000", "193026.545000", "193027.005000", "193027.465000", "193027.925000", "193028.385000", "193028.845000", "193029.305000", "193029.765000", "193030.225000", "193030.685000", "193031.145000", "193031.605000", "193032.065000", "193032.525000", "193032.985000", "193033.445000", "193033.905000", "193034.365000", "193034.825000", "193035.285000", "193035.745000", "193036.205000", "193036.665000", "193037.125000", "193037.585000", "193038.045000", "193038.505000", "193038.965000", "193039.425000", "193039.885000", "193040.345000", "193040.805000", "193041.265000", "193041.725000", "193042.185000", "193042.645000", "193043.105000", "193043.565000", "193044.025000", "193044.485000", "193044.945000", "193045.405000", "193045.865000", "193046.325000", "193046.785000", "193047.245000", "193047.705000", "193048.165000", "193048.625000", "193049.085000", "193049.545000", "193050.005000", "193050.465000", "193050.925000", "193051.385000", "193051.845000", "193052.305000", "193052.765000", "193053.225000", "193053.685000", "193054.145000", "193054.605000", "193055.065000", "193055.525000", "193055.985000", "193056.445000", "193056.905000", "193057.365000", "193057.825000", "193058.285000", "193058.745000", "193059.205000", "193059.665000", "193100.125000", "193100.585000", "193101.045000", "193101.505000", "193101.965000", "193102.425000", "193102.885000", "193103.345000", "193103.805000", "193104.265000", "193104.725000", "193105.185000", "193105.645000", "193106.105000", "193106.565000", "193107.025000", "193107.485000", "193107.945000", "193108.405000", "193108.865000", "193109.325000", "193109.785000", "193110.245000", "193110.705000", "193111.165000", "193111.625000", "193112.085000", "193112.545000", "193113.005000", "193113.465000", "193113.925000", "193114.385000", "193114.845000", "193115.305000", "193115.765000", "193116.225000", "193116.685000", "193117.145000", "193117.605000", "193118.065000", "193118.525000", "193118.985000", "193119.445000", "193119.905000", "193120.365000", "193120.825000", "193121.285000", "193121.745000", "193122.205000", "193122.665000", "193123.125000", "193123.585000", "193124.045000", "193124.505000", "193124.965000", "193125.425000", "193125.885000", "193126.345000", "193126.805000", "193127.265000", "193127.725000", "193128.185000", "193128.645000", "193129.105000", "193129.565000", "193130.025000", "193130.485000", "193130.945000", "193131.405000", "193131.865000", "193132.325000", "193132.785000", "193133.245000", "193133.705000", "193134.165000", "193134.625000", "193135.085000", "193135.545000", "193136.005000", "193136.465000", "193136.925000", "193137.385000", "193137.845000", "193138.305000", "193138.765000", "193139.225000", "193139.685000", "193140.145000", "193140.605000", "193141.065000", "193141.525000", "193141.985000", "193142.445000", "193142.905000", "193143.365000", "193143.825000", "193144.285000", "193144.745000", "193145.205000", "193145.665000", "193146.125000", "193146.585000", "193147.045000", "193147.505000", "193147.965000", "193148.425000", "193148.885000", "193149.345000", "193149.805000", "193150.265000", "193150.725000", "193151.185000", "193151.645000", "193152.105000", "193152.565000", "193153.025000", "193153.485000", "193153.945000", "193154.405000", "193154.865000", "193155.325000", "193155.785000", "193156.245000", "193156.705000", "193157.165000", "193157.625000", "193158.085000", "193158.545000", "193159.005000", "193159.465000", "193159.925000", "193200.385000", "193200.845000", "193201.305000", "193201.765000", "193202.225000", "193202.685000", "193203.145000", "193203.605000", "193204.065000", "193204.525000", "193204.985000", "193205.445000", "193205.905000", "193206.365000", "193206.825000", "193207.285000", "193207.745000", "193208.205000", "193208.665000", "193209.125000", "193209.585000", "193210.045000", "193210.505000", "193210.965000", "193211.425000", "193211.885000", "193212.345000", "193212.805000", "193213.265000", "193213.725000", "193214.185000", "193214.645000", "193215.105000", "193215.565000", "193216.025000", "193216.485000", "193216.945000", "193217.405000", "193217.865000", "193218.325000", "193218.785000", "193219.245000", "193219.705000", "193220.165000", "193220.625000", "193221.085000", "193221.545000", "193222.005000", "193222.465000", "193222.925000", "193223.385000", "193223.845000", "193224.305000", "193224.765000", "193225.225000", "193225.685000", "193226.145000", "193226.605000", "193227.065000", "193227.525000", "193227.985000", "193228.445000", "193228.905000", "193229.365000", "193229.825000"],
