{
  "AcquisitionMatrixPE": 82,
  "AcquisitionNumber": 1,
  "AcquisitionTime": "20:50:6.442500",
  "BandwidthPerPixelPhaseEncode": 24.888,
  "BaseResolution": 82,
  "BodyPartExamined": "BRAIN",
  "ConsistencyInfo": "N4_VE11E_LATEST_20181129",
  "ConversionSoftware": "dcm2niix",
  "ConversionSoftwareVersion": "v1.0.20201102",
  "DerivedVendorReportedEchoSpacing": 0.00049,
  "DeviceSerialNumber": "66112",
  "DwellTime": 2e-06,
  "EchoTime": 0.0272,
  "EchoTrainLength": 82,
  "EffectiveEchoSpacing": 0.00049,
  "FlipAngle": 44,
  "ImageComments": "Unaliased MB8/PE3",
  "ImageOrientationPatientDICOM": [0.998162, 0.0413002, 0.044355, -0.0468976, 0.98992, 0.133637],
  "ImageType": [
    "ORIGINAL",
    "PRIMARY",
    "M",
    "MB",
    "ND",
    "NORM",
    "MOSAIC"
],
  "ImagingFrequency": 123.259,
  "InPlanePhaseEncodingDirectionDICOM": "COL",
  "InstitutionAddress": "Maynard 3,Hanover,NH,US,03755",
  "InstitutionName": "Dartmouth College - PBS",
  "InstitutionalDepartmentName": "Department",
  "MRAcquisitionType": "2D",
  "MagneticFieldStrength": 3,
  "Manufacturer": "Siemens",
  "ManufacturersModelName": "Prisma",
  "Modality": "MR",
  "MultibandAccelerationFactor": 8,
  "PartialFourier": 1,
  "PatientPosition": "HFS",
  "PercentPhaseFOV": 100,
  "PercentSampling": 100,
  "PhaseEncodingDirection": "j-",
  "PhaseEncodingSteps": 82,
  "PhaseResolution": 1,
  "PixelBandwidth": 3050,
  "ProcedureStepDescription": "Wager_Wager^1076_spacetop",
  "ProtocolName": "func_run-03_task-alignvideo_acq-ap-mb8",
  "PulseSequenceDetails": "%CustomerSeq%\\cmrr_mbep2d_bold",
  "ReceiveCoilActiveElements": "HEA;HEP",
  "ReceiveCoilName": "Head_32",
  "ReconMatrixPE": 82,
  "RepetitionTime": 0.46,
  "SAR": 0.0866546,
  "ScanOptions": "FS",
  "ScanningSequence": "EP",
  "SequenceName": "epfid2d1_82",
  "SequenceVariant": "SK\\SS",
  "SeriesDescription": "func_run-03_task-alignvideo_acq-ap-mb8",
  "SeriesNumber": 32,
  "ShimSetting": [4229, -7792, -7216, 425, -109, -94, -13, 48],
  "SliceThickness": 2.7,
  "SliceTiming": [0, 0.25, 0.0625, 0.3125, 0.125, 0.3775, 0.1875, 0, 0.25, 0.0625, 0.3125, 0.125, 0.3775, 0.1875, 0, 0.25, 0.0625, 0.3125, 0.125, 0.3775, 0.1875, 0, 0.25, 0.0625, 0.3125, 0.125, 0.3775, 0.1875, 0, 0.25, 0.0625, 0.3125, 0.125, 0.3775, 0.1875, 0, 0.25, 0.0625, 0.3125, 0.125, 0.3775, 0.1875, 0, 0.25, 0.0625, 0.3125, 0.125, 0.3775, 0.1875, 0, 0.25, 0.0625, 0.3125, 0.125, 0.3775, 0.1875],
  "SoftwareVersions": "syngo MR E11",
  "SpacingBetweenSlices": 2.7,
  "StationName": "AWP66112",
  "TaskName": "alignvideo",
  "TotalReadoutTime": 0.03969,
  "TxRefAmp": 229.373,
  "WipMemBlock": "23e5fe84-1c1c-4a7b-a240-2c535cf220bd||Sequence: R016 ve11e/master r/434b28f1; Aug  7 2019 18:53:46 by eja",
  "dcmmeta_affine": [
    [-2.677994966506958, -0.12582270801067352, 0.10364944487810135, 112.37893676757812],
    [-0.11080530285835266, 2.6558830738067627, 0.3657742440700531, -109.14398193359375],
    [0.11900129914283752, -0.35853952169418335, 2.673100471496582, -56.965213775634766],
    [0.0, 0.0, 0.0, 1.0]
],
  "dcmmeta_reorient_transform": [
    [0.0, -1.0, 0.0, 81.0],
    [1.0, 0.0, 0.0, 0.0],
    [0.0, 0.0, 1.0, 0.0],
    [0.0, 0.0, 0.0, 1.0]
],
  "dcmmeta_shape": [82, 82, 56, 1065],
  "dcmmeta_slice_dim": 2,
  "dcmmeta_version": 0.6,
  "global": {
    "const": {
      "AccessionNumber": "A004797",
      "AcquisitionMatrix": [82, 0, 0, 82],
      "AngioFlag": "N",
      "BitsAllocated": 16,
      "BitsStored": 16,
      "BodyPartExamined": "BRAIN",
      "Columns": 656,
      "EchoNumbers": 1,
      "EchoTime": 27.2,
      "EchoTrainLength": 82,
      "FlipAngle": 44.0,
      "HighBit": 15,
      "ImageOrientationPatient": [0.9981617746524, 0.0413001566527, 0.04435502996535, -0.0468975537731, 0.98992002137773, 0.13363746003875],
      "ImagePositionPatient": [-834.66076164225, -900.02209764239, -223.06113694243],
      "ImageType": [
        "ORIGINAL",
        "PRIMARY",
        "M",
        "MB",
        "ND",
        "NORM",
        "MOSAIC"
],
      "ImagedNucleus": "1H",
      "ImagingFrequency": 123.2591,
      "InPlanePhaseEncodingDirection": "COL",
      "MRAcquisitionType": "2D",
      "MagneticFieldStrength": 3.0,
      "Manufacturer": "SIEMENS",
      "ManufacturerModelName": "Prisma",
      "Modality": "MR",
      "NumberOfAverages": 1.0,
      "NumberOfPhaseEncodingSteps": 82,
      "PercentPhaseFieldOfView": 100.0,
      "PercentSampling": 100.0,
      "PerformedProcedureStepStartTime": "191215.949000",
      "PhotometricInterpretation": "MONOCHROME2",
      "PixelBandwidth": 3050.0,
      "PixelRepresentation": 0,
      "PixelSpacing": [2.6829268932343, 2.6829268932343],
      "ProtocolName": "func_run-03_task-alignvideo_acq-ap-mb8",
      "RepetitionTime": 460.0,
      "Rows": 656,
      "SAR": 0.0866545903079,
      "SamplesPerPixel": 1,
      "ScanOptions": "FS",
      "ScanningSequence": "EP",
      "SequenceName": "epfid2d1_82",
      "SequenceVariant": [
        "SK",
        "SS"
],
      "SeriesDescription": "func_run-03_task-alignvideo_acq-ap-mb8",
      "SeriesNumber": 32,
      "SeriesTime": "205018.848000",
      "SliceLocation": -66.869549816463,
      "SliceThickness": 2.7000000476837,
      "SmallestImagePixelValue": 0,
      "SoftwareVersions": "syngo MR E11",
      "SpacingBetweenSlices": 2.6999999748698,
      "SpecificCharacterSet": "ISO_IR 100",
      "StudyID": "3",
      "StudyTime": "191215.887000",
      "TransmitCoilName": "Body",
      "VariableFlipAngleFlag": "N",
      "WindowCenterWidthExplanation": "Algo1"
    },
    "slices": {}
  },
  "time": {
    "samples": {
      "AcquisitionNumber": [1, 2, 3, 4, 5, 6, 7, 8, 9, 10, 11, 12, 13, 14, 15, 16, 17, 18, 19, 20, 21, 22, 23, 24, 25, 26, 27, 28, 29, 30, 31, 32, 33, 34, 35, 36, 37, 38, 39, 40, 41, 42, 43, 44, 45, 46, 47, 48, 49, 50, 51, 52, 53, 54, 55, 56, 57, 58, 59, 60, 61, 62, 63, 64, 65, 66, 67, 68, 69, 70, 71, 72, 73, 74, 75, 76, 77, 78, 79, 80, 81, 82, 83, 84, 85, 86, 87, 88, 89, 90, 91, 92, 93, 94, 95, 96, 97, 98, 99, 100, 101, 102, 103, 104, 105, 106, 107, 108, 109, 110, 111, 112, 113, 114, 115, 116, 117, 118, 119, 120, 121, 122, 123, 124, 125, 126, 127, 128, 129, 130, 131, 132, 133, 134, 135, 136, 137, 138, 139, 140, 141, 142, 143, 144, 145, 146, 147, 148, 149, 150, 151, 152, 153, 154, 155, 156, 157, 158, 159, 160, 161, 162, 163, 164, 165, 166, 167, 168, 169, 170, 171, 172, 173, 174, 175, 176, 177, 178, 179, 180, 181, 182, 183, 184, 185, 186, 187, 188, 189, 190, 191, 192, 193, 194, 195, 196, 197, 198, 199, 200, 201, 202, 203, 204, 205, 206, 207, 208, 209, 210, 211, 212, 213, 214, 215, 216, 217, 218, 219, 220, 221, 222, 223, 224, 225, 226, 227, 228, 229, 230, 231, 232, 233, 234, 235, 236, 237, 238, 239, 240, 241, 242, 243, 244, 245, 246, 247, 248, 249, 250, 251, 252, 253, 254, 255, 256, 257, 258, 259, 260, 261, 262, 263, 264, 265, 266, 267, 268, 269, 270, 271, 272, 273, 274, 275, 276, 277, 278, 279, 280, 281, 282, 283, 284, 285, 286, 287, 288, 289, 290, 291, 292, 293, 294, 295, 296, 297, 298, 299, 300, 301, 302, 303, 304, 305, 306, 307, 308, 309, 310, 311, 312, 313, 314, 315, 316, 317, 318, 319, 320, 321, 322, 323, 324, 325, 326, 327, 328, 329, 330, 331, 332, 333, 334, 335, 336, 337, 338, 339, 340, 341, 342, 343, 344, 345, 346, 347, 348, 349, 350, 351, 352, 353, 354, 355, 356, 357, 358, 359, 360, 361, 362, 363, 364, 365, 366, 367, 368, 369, 370, 371, 372, 373, 374, 375, 376, 377, 378, 379, 380, 381, 382, 383, 384, 385, 386, 387, 388, 389, 390, 391, 392, 393, 394, 395, 396, 397, 398, 399, 400, 401, 402, 403, 404, 405, 406, 407, 408, 409, 410, 411, 412, 413, 414, 415, 416, 417, 418, 419, 420, 421, 422, 423, 424, 425, 426, 427, 428, 429, 430, 431, 432, 433, 434, 435, 436, 437, 438, 439, 440, 441, 442, 443, 444, 445, 446, 447, 448, 449, 450, 451, 452, 453, 454, 455, 456, 457, 458, 459, 460, 461, 462, 463, 464, 465, 466, 467, 468, 469, 470, 471, 472, 473, 474, 475, 476, 477, 478, 479, 480, 481, 482, 483, 484, 485, 486, 487, 488, 489, 490, 491, 492, 493, 494, 495, 496, 497, 498, 499, 500, 501, 502, 503, 504, 505, 506, 507, 508, 509, 510, 511, 512, 513, 514, 515, 516, 517, 518, 519, 520, 521, 522, 523, 524, 525, 526, 527, 528, 529, 530, 531, 532, 533, 534, 535, 536, 537, 538, 539, 540, 541, 542, 543, 544, 545, 546, 547, 548, 549, 550, 551, 552, 553, 554, 555, 556, 557, 558, 559, 560, 561, 562, 563, 564, 565, 566, 567, 568, 569, 570, 571, 572, 573, 574, 575, 576, 577, 578, 579, 580, 581, 582, 583, 584, 585, 586, 587, 588, 589, 590, 591, 592, 593, 594, 595, 596, 597, 598, 599, 600, 601, 602, 603, 604, 605, 606, 607, 608, 609, 610, 611, 612, 613, 614, 615, 616, 617, 618, 619, 620, 621, 622, 623, 624, 625, 626, 627, 628, 629, 630, 631, 632, 633, 634, 635, 636, 637, 638, 639, 640, 641, 642, 643, 644, 645, 646, 647, 648, 649, 650, 651, 652, 653, 654, 655, 656, 657, 658, 659, 660, 661, 662, 663, 664, 665, 666, 667, 668, 669, 670, 671, 672, 673, 674, 675, 676, 677, 678, 679, 680, 681, 682, 683, 684, 685, 686, 687, 688, 689, 690, 691, 692, 693, 694, 695, 696, 697, 698, 699, 700, 701, 702, 703, 704, 705, 706, 707, 708, 709, 710, 711, 712, 713, 714, 715, 716, 717, 718, 719, 720, 721, 722, 723, 724, 725, 726, 727, 728, 729, 730, 731, 732, 733, 734, 735, 736, 737, 738, 739, 740, 741, 742, 743, 744, 745, 746, 747, 748, 749, 750, 751, 752, 753, 754, 755, 756, 757, 758, 759, 760, 761, 762, 763, 764, 765, 766, 767, 768, 769, 770, 771, 772, 773, 774, 775, 776, 777, 778, 779, 780, 781, 782, 783, 784, 785, 786, 787, 788, 789, 790, 791, 792, 793, 794, 795, 796, 797, 798, 799, 800, 801, 802, 803, 804, 805, 806, 807, 808, 809, 810, 811, 812, 813, 814, 815, 816, 817, 818, 819, 820, 821, 822, 823, 824, 825, 826, 827, 828, 829, 830, 831, 832, 833, 834, 835, 836, 837, 838, 839, 840, 841, 842, 843, 844, 845, 846, 847, 848, 849, 850, 851, 852, 853, 854, 855, 856, 857, 858, 859, 860, 861, 862, 863, 864, 865, 866, 867, 868, 869, 870, 871, 872, 873, 874, 875, 876, 877, 878, 879, 880, 881, 882, 883, 884, 885, 886, 887, 888, 889, 890, 891, 892, 893, 894, 895, 896, 897, 898, 899, 900, 901, 902, 903, 904, 905, 906, 907, 908, 909, 910, 911, 912, 913, 914, 915, 916, 917, 918, 919, 920, 921, 922, 923, 924, 925, 926, 927, 928, 929, 930, 931, 932, 933, 934, 935, 936, 937, 938, 939, 940, 941, 942, 943, 944, 945, 946, 947, 948, 949, 950, 951, 952, 953, 954, 955, 956, 957, 958, 959, 960, 961, 962, 963, 964, 965, 966, 967, 968, 969, 970, 971, 972, 973, 974, 975, 976, 977, 978, 979, 980, 981, 982, 983, 984, 985, 986, 987, 988, 989, 990, 991, 992, 993, 994, 995, 996, 997, 998, 999, 1000, 1001, 1002, 1003, 1004, 1005, 1006, 1007, 1008, 1009, 1010, 1011, 1012, 1013, 1014, 1015, 1016, 1017, 1018, 1019, 1020, 1021, 1022, 1023, 1024, 1025, 1026, 1027, 1028, 1029, 1030, 1031, 1032, 1033, 1034, 1035, 1036, 1037, 1038, 1039, 1040, 1041, 1042, 1043, 1044, 1045, 1046, 1047, 1048, 1049, 1050, 1051, 1052, 1053, 1054, 1055, 1056, 1057, 1058, 1059, 1060, 1061, 1062, 1063, 1064, 1065],
      "AcquisitionTime": ["205006.442500", "205006.902500", "205007.362500", "205007.822500", "205008.282500", "205008.742500", "205009.202500", "205009.662500", "205010.122500", "205010.582500", "205011.042500", "205011.502500", "205011.962500", "205012.422500", "205012.882500", "205013.342500", "205013.802500", "205014.262500", "205014.722500", "205015.182500", "205015.642500", "205016.102500", "205016.562500", "205017.022500", "205017.482500", "205017.942500", "205018.402500", "205018.862500", "205019.322500", "205019.782500", "205020.242500", "205020.702500", "205021.162500", "205021.622500", "205022.082500", "205022.542500", "205023.002500", "205023.462500", "205023.922500", "205024.382500", "205024.842500", "205025.302500", "205025.762500", "205026.222500", "205026.682500", "205027.142500", "205027.602500", "205028.062500", "205028.522500", "205028.982500", "205029.442500", "205029.902500", "205030.362500", "205030.822500", "205031.282500", "205031.742500", "205032.202500", "205032.662500", "205033.122500", "205033.582500", "205034.042500", "205034.502500", "205034.962500", "205035.422500", "205035.882500", "205036.342500", "205036.802500", "205037.262500", "205037.722500", "205038.182500", "205038.642500", "205039.102500", "205039.562500", "205040.022500", "205040.482500", "205040.942500", "205041.402500", "205041.862500", "205042.322500", "205042.782500", "205043.242500", "205043.702500", "205044.162500", "205044.622500", "205045.082500", "205045.542500", "205046.002500", "205046.462500", "205046.922500", "205047.382500", "205047.842500", "205048.302500", "205048.762500", "205049.222500", "205049.682500", "205050.142500", "205050.602500", "205051.062500", "205051.522500", "205051.982500", "205052.442500", "205052.902500", "205053.362500", "205053.822500", "205054.282500", "205054.742500", "205055.202500", "205055.662500", "205056.122500", "205056.582500", "205057.042500", "205057.502500", "205057.962500", "205058.422500", "205058.882500", "205059.342500", "205059.802500", "205100.262500", "205100.722500", "205101.182500", "205101.642500", "205102.102500", "205102.562500", "205103.022500", "205103.482500", "205103.942500", "205104.402500", "205104.862500", "205105.322500", "205105.782500", "205106.242500", "205106.702500", "205107.162500", "205107.622500", "205108.082500", "205108.542500", "205109.002500", "205109.462500", "205109.922500", "205110.382500", "205110.842500", "205111.302500", "205111.762500", "205112.222500", "205112.682500", "205113.142500", "205113.602500", "205114.062500", "205114.522500", "205114.982500", "205115.442500", "205115.902500", "205116.362500", "205116.822500", "205117.282500", "205117.742500", "205118.202500", "205118.662500", "205119.122500", "205119.582500", "205120.042500", "205120.502500", "205120.962500", "205121.422500", "205121.882500", "205122.342500", "205122.802500", "205123.262500", "205123.722500", "205124.182500", "205124.642500", "205125.102500", "205125.562500", "205126.022500", "205126.482500", "205126.942500", "205127.402500", "205127.862500", "205128.322500", "205128.782500", "205129.242500", "205129.702500", "205130.162500", "205130.622500", "205131.082500", "205131.542500", "205132.002500", "205132.462500", "205132.922500", "205133.382500", "205133.842500", "205134.302500", "205134.762500", "205135.222500", "205135.682500", "205136.142500", "205136.602500", "205137.062500", "205137.522500", "205137.982500", "205138.442500", "205138.902500", "205139.362500", "205139.822500", "205140.282500", "205140.742500", "205141.202500", "205141.662500", "205142.122500", "205142.582500", "205143.042500", "205143.502500", "205143.962500", "205144.422500", "205144.882500", "205145.342500", "205145.802500", "205146.262500", "205146.722500", "205147.182500", "205147.642500", "205148.102500", "205148.562500", "205149.022500", "205149.482500", "205149.942500", "205150.402500", "205150.862500", "205151.322500", "205151.782500", "205152.242500", "205152.702500", "205153.162500", "205153.622500", "205154.082500", "205154.542500", "205155.002500", "205155.462500", "205155.922500", "205156.382500", "205156.842500", "205157.302500", "205157.762500", "205158.222500", "205158.682500", "205159.142500", "205159.602500", "205200.062500", "205200.522500", "205200.982500", "205201.442500", "205201.902500", "205202.362500", "205202.822500", "205203.282500", "205203.742500", "205204.202500", "205204.662500", "205205.122500", "205205.582500", "205206.042500", "205206.502500", "205206.962500", "205207.422500", "205207.882500", "205208.342500", "205208.802500", "205209.262500", "205209.722500", "205210.182500", "205210.642500", "205211.102500", "205211.562500", "205212.022500", "205212.482500", "205212.942500", "205213.402500", "205213.862500", "205214.322500", "205214.782500", "205215.242500", "205215.702500", "205216.162500", "205216.622500", "205217.082500", "205217.542500", "205218.002500", "205218.462500", "205218.922500", "205219.382500", "205219.842500", "205220.302500", "205220.762500", "205221.222500", "205221.682500", "205222.142500", "205222.602500", "205223.062500", "205223.522500", "205223.982500", "205224.442500", "205224.902500", "205225.362500", "205225.822500", "205226.282500", "205226.742500", "205227.202500", "205227.662500", "205228.122500", "205228.582500", "205229.042500", "205229.502500", "205229.962500", "205230.422500", "205230.882500", "205231.342500", "205231.802500", "205232.262500", "205232.722500", "205233.182500", "205233.642500", "205234.102500", "205234.562500", "205235.022500", "205235.482500", "205235.942500", "205236.402500", "205236.862500", "205237.322500", "205237.782500", "205238.242500", "205238.702500", "205239.162500", "205239.622500", "205240.082500", "205240.542500", "205241.002500", "205241.462500", "205241.922500", "205242.382500", "205242.842500", "205243.302500", "205243.762500", "205244.222500", "205244.682500", "205245.142500", "205245.602500", "205246.062500", "205246.522500", "205246.982500", "205247.442500", "205247.902500", "205248.362500", "205248.822500", "205249.282500", "205249.742500", "205250.202500", "205250.662500", "205251.122500", "205251.582500", "205252.042500", "205252.502500", "205252.962500", "205253.422500", "205253.882500", "205254.342500", "205254.802500", "205255.262500", "205255.722500", "205256.182500", "205256.642500", "205257.102500", "205257.562500", "205258.022500", "205258.482500", "205258.942500", "205259.402500", "205259.862500", "205300.322500", "205300.782500", "205301.242500", "205301.702500", "205302.162500", "205302.622500", "205303.082500", "205303.542500", "205304.002500", "205304.462500", "205304.922500", "205305.382500", "205305.842500", "205306.302500", "205306.762500", "205307.222500", "205307.682500", "205308.142500", "205308.602500", "205309.062500", "205309.522500", "205309.982500", "205310.442500", "205310.902500", "205311.362500", "205311.822500", "205312.282500", "205312.742500", "205313.202500", "205313.662500", "205314.122500", "205314.582500", "205315.042500", "205315.502500", "205315.962500", "205316.422500", "205316.882500", "205317.342500", "205317.802500", "205318.262500", "205318.722500", "205319.182500", "205319.642500", "205320.102500", "205320.562500", "205321.022500", "205321.482500", "205321.942500", "205322.402500", "205322.862500", "205323.322500", "205323.782500", "205324.242500", "205324.702500", "205325.162500", "205325.622500", "205326.082500", "205326.542500", "205327.002500", "205327.462500", "205327.922500", "205328.382500", "205328.842500", "205329.302500", "205329.762500", "205330.222500", "205330.682500", "205331.142500", "205331.602500", "205332.062500", "205332.522500", "205332.982500", "205333.442500", "205333.902500", "205334.362500", "205334.822500", "205335.282500", "205335.742500", "205336.202500", "205336.662500", "205337.122500", "205337.582500", "205338.042500", "205338.502500", "205338.962500", "205339.422500", "205339.882500", "205340.342500", "205340.802500", "205341.262500", "205341.722500", "205342.182500", "205342.642500", "205343.102500", "205343.562500", "205344.022500", "205344.482500", "205344.942500", "205345.402500", "205345.862500", "205346.322500", "205346.782500", "205347.242500", "205347.702500", "205348.162500", "205348.622500", "205349.082500", "205349.542500", "205350.002500", "205350.462500", "205350.922500", "205351.382500", "205351.842500", "205352.302500", "205352.762500", "205353.222500", "205353.682500", "205354.142500", "205354.602500", "205355.062500", "205355.522500", "205355.982500", "205356.442500", "205356.902500", "205357.362500", "205357.822500", "205358.282500", "205358.742500", "205359.202500", "205359.662500", "205400.122500", "205400.582500", "205401.042500", "205401.502500", "205401.962500", "205402.422500", "205402.882500", "205403.342500", "205403.802500", "205404.262500", "205404.722500", "205405.182500", "205405.642500", "205406.102500", "205406.562500", "205407.022500", "205407.482500", "205407.942500", "205408.402500", "205408.862500", "205409.322500", "205409.782500", "205410.242500", "205410.702500", "205411.162500", "205411.622500", "205412.082500", "205412.542500", "205413.002500", "205413.462500", "205413.922500", "205414.382500", "205414.842500", "205415.302500", "205415.762500", "205416.222500", "205416.682500", "205417.142500", "205417.602500", "205418.062500", "205418.522500", "205418.982500", "205419.442500", "205419.902500", "205420.362500", "205420.822500", "205421.282500", "205421.742500", "205422.202500", "205422.662500", "205423.122500", "205423.582500", "205424.042500", "205424.502500", "205424.962500", "205425.422500", "205425.882500", "205426.342500", "205426.802500", "205427.262500", "205427.722500", "205428.182500", "205428.642500", "205429.102500", "205429.562500", "205430.022500", "205430.482500", "205430.942500", "205431.402500", "205431.862500", "205432.322500", "205432.782500", "205433.242500", "205433.702500", "205434.162500", "205434.622500", "205435.082500", "205435.542500", "205436.002500", "205436.462500", "205436.922500", "205437.382500", "205437.842500", "205438.302500", "205438.762500", "205439.222500", "205439.682500", "205440.142500", "205440.602500", "205441.062500", "205441.522500", "205441.982500", "205442.442500", "205442.902500", "205443.362500", "205443.822500", "205444.282500", "205444.742500", "205445.202500", "205445.662500", "205446.122500", "205446.582500", "205447.042500", "205447.502500", "205447.962500", "205448.422500", "205448.882500", "205449.342500", "205449.802500", "205450.262500", "205450.722500", "205451.182500", "205451.642500", "205452.102500", "205452.562500", "205453.022500", "205453.482500", "205453.942500", "205454.402500", "205454.862500", "205455.322500", "205455.782500", "205456.242500", "205456.702500", "205457.162500", "205457.622500", "205458.082500", "205458.542500", "205459.002500", "205459.462500", "205459.922500", "205500.382500", "205500.842500", "205501.302500", "205501.762500", "205502.222500", "205502.682500", "205503.142500", "205503.602500", "205504.062500", "205504.522500", "205504.982500", "205505.442500", "205505.902500", "205506.362500", "205506.822500", "205507.282500", "205507.742500", "205508.202500", "205508.662500", "205509.122500", "205509.582500", "205510.042500", "205510.502500", "205510.962500", "205511.422500", "205511.882500", "205512.342500", "205512.802500", "205513.262500", "205513.722500", "205514.182500", "205514.642500", "205515.102500", "205515.562500", "205516.022500", "205516.482500", "205516.942500", "205517.402500", "205517.862500", "205518.322500", "205518.782500", "205519.242500", "205519.702500", "205520.162500", "205520.622500", "205521.082500", "205521.542500", "205522.002500", "205522.462500", "205522.922500", "205523.382500", "205523.842500", "205524.302500", "205524.762500", "205525.222500", "205525.682500", "205526.142500", "205526.602500", "205527.062500", "205527.522500", "205527.982500", "205528.442500", "205528.902500", "205529.362500", "205529.822500", "205530.282500", "205530.742500", "205531.202500", "205531.662500", "205532.122500", "205532.582500", "205533.042500", "205533.502500", "205533.962500", "205534.422500", "205534.882500", "205535.342500", "205535.802500", "205536.262500", "205536.722500", "205537.182500", "205537.642500", "205538.102500", "205538.562500", "205539.022500", "205539.482500", "205539.942500", "205540.402500", "205540.862500", "205541.322500", "205541.782500", "205542.242500", "205542.702500", "205543.162500", "205543.622500", "205544.082500", "205544.542500", "205545.002500", "205545.462500", "205545.922500", "205546.382500", "205546.842500", "205547.302500", "205547.762500", "205548.222500", "205548.682500", "205549.142500", "205549.602500", "205550.062500", "205550.522500", "205550.982500", "205551.442500", "205551.902500", "205552.362500", "205552.822500", "205553.282500", "205553.742500", "205554.202500", "205554.662500", "205555.122500", "205555.582500", "205556.042500", "205556.502500", "205556.962500", "205557.422500", "205557.882500", "205558.342500", "205558.802500", "205559.262500", "205559.722500", "205600.182500", "205600.642500", "205601.102500", "205601.562500", "205602.022500", "205602.482500", "205602.942500", "205603.402500", "205603.862500", "205604.322500", "205604.782500", "205605.242500", "205605.702500", "205606.162500", "205606.622500", "205607.082500", "205607.542500", "205608.002500", "205608.462500", "205608.922500", "205609.382500", "205609.842500", "205610.302500", "205610.762500", "205611.222500", "205611.682500", "205612.142500", "205612.602500", "205613.062500", "205613.522500", "205613.982500", "205614.442500", "205614.902500", "205615.362500", "205615.822500", "205616.282500", "205616.742500", "205617.202500", "205617.662500", "205618.122500", "205618.582500", "205619.042500", "205619.502500", "205619.962500", "205620.422500", "205620.882500", "205621.342500", "205621.802500", "205622.262500", "205622.722500", "205623.182500", "205623.642500", "205624.102500", "205624.562500", "205625.022500", "205625.482500", "205625.942500", "205626.402500", "205626.862500", "205627.322500", "205627.782500", "205628.242500", "205628.702500", "205629.162500", "205629.622500", "205630.082500", "205630.542500", "205631.002500", "205631.462500", "205631.922500", "205632.382500", "205632.842500", "205633.302500", "205633.762500", "205634.222500", "205634.682500", "205635.142500", "205635.602500", "205636.062500", "205636.522500", "205636.982500", "205637.442500", "205637.902500", "205638.362500", "205638.822500", "205639.282500", "205639.742500", "205640.202500", "205640.662500", "205641.122500", "205641.582500", "205642.042500", "205642.502500", "205642.962500", "205643.422500", "205643.882500", "205644.342500", "205644.802500", "205645.262500", "205645.722500", "205646.182500", "205646.642500", "205647.102500", "205647.562500", "205648.022500", "205648.482500", "205648.942500", "205649.402500", "205649.862500", "205650.322500", "205650.782500", "205651.242500", "205651.702500", "205652.162500", "205652.622500", "205653.082500", "205653.542500", "205654.002500", "205654.462500", "205654.922500", "205655.382500", "205655.842500", "205656.302500", "205656.762500", "205657.222500", "205657.682500", "205658.142500", "205658.602500", "205659.062500", "205659.522500", "205659.982500", "205700.442500", "205700.902500", "205701.362500", "205701.822500", "205702.282500", "205702.742500", "205703.202500", "205703.662500", "205704.122500", "205704.582500", "205705.042500", "205705.502500", "205705.962500", "205706.422500", "205706.882500", "205707.342500", "205707.802500", "205708.262500", "205708.722500", "205709.182500", "205709.642500", "205710.102500", "205710.562500", "205711.022500", "205711.482500", "205711.942500", "205712.402500", "205712.862500", "205713.322500", "205713.782500", "205714.242500", "205714.702500", "205715.162500", "205715.622500", "205716.082500", "205716.542500", "205717.002500", "205717.462500", "205717.922500", "205718.382500", "205718.842500", "205719.302500", "205719.762500", "205720.222500", "205720.682500", "205721.142500", "205721.602500", "205722.062500", "205722.522500", "205722.982500", "205723.442500", "205723.902500", "205724.362500", "205724.822500", "205725.282500", "205725.742500", "205726.202500", "205726.662500", "205727.122500", "205727.582500", "205728.042500", "205728.502500", "205728.962500", "205729.422500", "205729.882500", "205730.342500", "205730.802500", "205731.262500", "205731.722500", "205732.182500", "205732.642500", "205733.102500", "205733.562500", "205734.022500", "205734.482500", "205734.942500", "205735.402500", "205735.862500", "205736.322500", "205736.782500", "205737.242500", "205737.702500", "205738.162500", "205738.622500", "205739.082500", "205739.542500", "205740.002500", "205740.462500", "205740.922500", "205741.382500", "205741.842500", "205742.302500", "205742.762500", "205743.222500", "205743.682500", "205744.142500", "205744.602500", "205745.062500", "205745.522500", "205745.982500", "205746.442500", "205746.902500", "205747.362500", "205747.822500", "205748.282500", "205748.742500", "205749.202500", "205749.662500", "205750.122500", "205750.582500", "205751.042500", "205751.502500", "205751.962500", "205752.422500", "205752.882500", "205753.342500", "205753.802500", "205754.262500", "205754.722500", "205755.182500", "205755.642500", "205756.102500", "205756.562500", "205757.022500", "205757.482500", "205757.942500", "205758.402500", "205758.862500", "205759.322500", "205759.782500", "205800.242500", "205800.702500", "205801.162500", "205801.622500", "205802.082500", "205802.542500", "205803.002500", "205803.462500", "205803.922500", "205804.382500", "205804.842500", "205805.302500", "205805.762500", "205806.222500", "205806.682500", "205807.142500", "205807.602500", "205808.062500", "205808.522500", "205808.982500", "205809.442500", "205809.902500", "205810.362500", "205810.822500", "205811.282500", "205811.742500", "205812.202500", "205812.662500", "205813.122500", "205813.582500", "205814.042500", "205814.502500", "205814.962500", "205815.422500", "205815.882500"],
