{
  "AcquisitionMatrixPE": 82,
  "AcquisitionNumber": 1,
  "AcquisitionTime": "19:56:12.677500",
  "BandwidthPerPixelPhaseEncode": 24.888,
  "BaseResolution": 82,
  "BodyPartExamined": "BRAIN",
  "ConsistencyInfo": "N4_VE11E_LATEST_20181129",
  "ConversionSoftware": "dcm2niix",
  "ConversionSoftwareVersion": "v1.0.20201102",
  "DerivedVendorReportedEchoSpacing": 0.00049,
  "DeviceSerialNumber": "66112",
  "DwellTime": 2e-06,
  "EchoTime": 0.0272,
  "EchoTrainLength": 82,
  "EffectiveEchoSpacing": 0.00049,
  "FlipAngle": 44,
  "ImageComments": "Unaliased MB8/PE3",
  "ImageOrientationPatientDICOM": [0.998739, 0.0315629, 0.03905, -0.0360985, 0.991935, 0.1215],
  "ImageType": [
    "ORIGINAL",
    "PRIMARY",
    "M",
    "MB",
    "ND",
    "NORM",
    "MOSAIC"
],
  "ImagingFrequency": 123.259,
  "InPlanePhaseEncodingDirectionDICOM": "COL",
  "InstitutionAddress": "Maynard 3,Hanover,NH,US,03755",
  "InstitutionName": "Dartmouth College - PBS",
  "InstitutionalDepartmentName": "Department",
  "MRAcquisitionType": "2D",
  "MagneticFieldStrength": 3,
  "Manufacturer": "Siemens",
  "ManufacturersModelName": "Prisma",
  "Modality": "MR",
  "MultibandAccelerationFactor": 8,
  "PartialFourier": 1,
  "PatientPosition": "HFS",
  "PercentPhaseFOV": 100,
  "PercentSampling": 100,
  "PhaseEncodingDirection": "j-",
  "PhaseEncodingSteps": 82,
  "PhaseResolution": 1,
  "PixelBandwidth": 3050,
  "ProcedureStepDescription": "Wager_Wager^1076_spacetop",
  "ProtocolName": "func_run-05_task-social_acq-ap-mb8",
  "PulseSequenceDetails": "%CustomerSeq%\\cmrr_mbep2d_bold",
  "ReceiveCoilActiveElements": "HEA;HEP",
  "ReceiveCoilName": "Head_32",
  "ReconMatrixPE": 82,
  "RepetitionTime": 0.46,
  "SAR": 0.0865569,
  "ScanOptions": "FS",
  "ScanningSequence": "EP",
  "SequenceName": "epfid2d1_82",
  "SequenceVariant": "SK\\SS",
  "SeriesDescription": "func_run-05_task-social_acq-ap-mb8",
  "SeriesNumber": 16,
  "ShimSetting": [4229, -7792, -7216, 421, -109, -101, -12, 47],
  "SliceThickness": 2.7,
  "SliceTiming": [0, 0.2525, 0.0625, 0.315, 0.125, 0.3775, 0.19, 0, 0.2525, 0.0625, 0.315, 0.125, 0.3775, 0.19, 0, 0.2525, 0.0625, 0.315, 0.125, 0.3775, 0.19, 0, 0.2525, 0.0625, 0.315, 0.125, 0.3775, 0.19, 0, 0.2525, 0.0625, 0.315, 0.125, 0.3775, 0.19, 0, 0.2525, 0.0625, 0.315, 0.125, 0.3775, 0.19, 0, 0.2525, 0.0625, 0.315, 0.125, 0.3775, 0.19, 0, 0.2525, 0.0625, 0.315, 0.125, 0.3775, 0.19],
  "SoftwareVersions": "syngo MR E11",
  "SpacingBetweenSlices": 2.7,
  "StationName": "AWP66112",
  "TaskName": "social",
  "TotalReadoutTime": 0.03969,
  "TxRefAmp": 229.373,
  "WipMemBlock": "85965ea2-c37b-4209-a75e-d1b9798fc9e9||Sequence: R016 ve11e/master r/434b28f1; Aug  7 2019 18:53:46 by eja",
  "dcmmeta_affine": [
    [-2.6795427799224854, -0.09684953093528748, 0.0942302867770195, 111.59625244140625],
    [-0.08468098193407059, 2.6612884998321533, 0.33144283294677734, -110.24295806884766],
    [0.10476817190647125, -0.3259761929512024, 2.677922010421753, -59.11177062988281],
    [0.0, 0.0, 0.0, 1.0]
],
  "dcmmeta_reorient_transform": [
    [0.0, -1.0, 0.0, 81.0],
    [1.0, 0.0, 0.0, 0.0],
    [0.0, 0.0, 1.0, 0.0],
    [0.0, 0.0, 0.0, 1.0]
],
  "dcmmeta_shape": [82, 82, 56, 872],
  "dcmmeta_slice_dim": 2,
  "dcmmeta_version": 0.6,
  "global": {
    "const": {
      "AccessionNumber": "A004797",
      "AcquisitionMatrix": [82, 0, 0, 82],
      "AngioFlag": "N",
      "BitsAllocated": 16,
      "BitsStored": 16,
      "BodyPartExamined": "BRAIN",
      "Columns": 656,
      "EchoNumbers": 1,
      "EchoTime": 27.2,
      "EchoTrainLength": 82,
      "FlipAngle": 44.0,
      "HighBit": 15,
      "ImageOrientationPatient": [0.99873864639228, 0.03156291134058, 0.03904995301177, -0.036098459865, 0.9919347759724, 0.12150021157166],
      "ImagePositionPatient": [-844.9843996608, -893.41464678976, -209.1394719934],
      "ImageType": [
        "ORIGINAL",
        "PRIMARY",
        "M",
        "MB",
        "ND",
        "NORM",
        "MOSAIC"
],
      "ImagedNucleus": "1H",
      "ImagingFrequency": 123.259088,
      "InPlanePhaseEncodingDirection": "COL",
      "MRAcquisitionType": "2D",
      "MagneticFieldStrength": 3.0,
      "Manufacturer": "SIEMENS",
      "ManufacturerModelName": "Prisma",
      "Modality": "MR",
      "NumberOfAverages": 1.0,
      "NumberOfPhaseEncodingSteps": 82,
      "PercentPhaseFieldOfView": 100.0,
      "PercentSampling": 100.0,
      "PerformedProcedureStepStartTime": "191215.949000",
      "PhotometricInterpretation": "MONOCHROME2",
      "PixelBandwidth": 3050.0,
      "PixelRepresentation": 0,
      "PixelSpacing": [2.6829268932343, 2.6829268932343],
      "ProtocolName": "func_run-05_task-social_acq-ap-mb8",
      "RepetitionTime": 460.0,
      "Rows": 656,
      "SAR": 0.08655694649473,
      "SamplesPerPixel": 1,
      "ScanOptions": "FS",
      "ScanningSequence": "EP",
      "SequenceName": "epfid2d1_82",
      "SequenceVariant": [
        "SK",
        "SS"
],
      "SeriesDescription": "func_run-05_task-social_acq-ap-mb8",
      "SeriesNumber": 16,
      "SeriesTime": "195638.924000",
      "SliceLocation": -68.266742290381,
      "SliceThickness": 2.7000000476837,
      "SmallestImagePixelValue": 0,
      "SoftwareVersions": "syngo MR E11",
      "SpacingBetweenSlices": 2.7000000422652,
      "SpecificCharacterSet": "ISO_IR 100",
      "StudyID": "3",
      "StudyTime": "191215.887000",
      "TransmitCoilName": "Body",
      "VariableFlipAngleFlag": "N",
      "WindowCenterWidthExplanation": "Algo1"
    },
    "slices": {}
  },
  "time": {
    "samples": {
      "AcquisitionNumber": [1, 2, 3, 4, 5, 6, 7, 8, 9, 10, 11, 12, 13, 14, 15, 16, 17, 18, 19, 20, 21, 22, 23, 24, 25, 26, 27, 28, 29, 30, 31, 32, 33, 34, 35, 36, 37, 38, 39, 40, 41, 42, 43, 44, 45, 46, 47, 48, 49, 50, 51, 52, 53, 54, 55, 56, 57, 58, 59, 60, 61, 62, 63, 64, 65, 66, 67, 68, 69, 70, 71, 72, 73, 74, 75, 76, 77, 78, 79, 80, 81, 82, 83, 84, 85, 86, 87, 88, 89, 90, 91, 92, 93, 94, 95, 96, 97, 98, 99, 100, 101, 102, 103, 104, 105, 106, 107, 108, 109, 110, 111, 112, 113, 114, 115, 116, 117, 118, 119, 120, 121, 122, 123, 124, 125, 126, 127, 128, 129, 130, 131, 132, 133, 134, 135, 136, 137, 138, 139, 140, 141, 142, 143, 144, 145, 146, 147, 148, 149, 150, 151, 152, 153, 154, 155, 156, 157, 158, 159, 160, 161, 162, 163, 164, 165, 166, 167, 168, 169, 170, 171, 172, 173, 174, 175, 176, 177, 178, 179, 180, 181, 182, 183, 184, 185, 186, 187, 188, 189, 190, 191, 192, 193, 194, 195, 196, 197, 198, 199, 200, 201, 202, 203, 204, 205, 206, 207, 208, 209, 210, 211, 212, 213, 214, 215, 216, 217, 218, 219, 220, 221, 222, 223, 224, 225, 226, 227, 228, 229, 230, 231, 232, 233, 234, 235, 236, 237, 238, 239, 240, 241, 242, 243, 244, 245, 246, 247, 248, 249, 250, 251, 252, 253, 254, 255, 256, 257, 258, 259, 260, 261, 262, 263, 264, 265, 266, 267, 268, 269, 270, 271, 272, 273, 274, 275, 276, 277, 278, 279, 280, 281, 282, 283, 284, 285, 286, 287, 288, 289, 290, 291, 292, 293, 294, 295, 296, 297, 298, 299, 300, 301, 302, 303, 304, 305, 306, 307, 308, 309, 310, 311, 312, 313, 314, 315, 316, 317, 318, 319, 320, 321, 322, 323, 324, 325, 326, 327, 328, 329, 330, 331, 332, 333, 334, 335, 336, 337, 338, 339, 340, 341, 342, 343, 344, 345, 346, 347, 348, 349, 350, 351, 352, 353, 354, 355, 356, 357, 358, 359, 360, 361, 362, 363, 364, 365, 366, 367, 368, 369, 370, 371, 372, 373, 374, 375, 376, 377, 378, 379, 380, 381, 382, 383, 384, 385, 386, 387, 388, 389, 390, 391, 392, 393, 394, 395, 396, 397, 398, 399, 400, 401, 402, 403, 404, 405, 406, 407, 408, 409, 410, 411, 412, 413, 414, 415, 416, 417, 418, 419, 420, 421, 422, 423, 424, 425, 426, 427, 428, 429, 430, 431, 432, 433, 434, 435, 436, 437, 438, 439, 440, 441, 442, 443, 444, 445, 446, 447, 448, 449, 450, 451, 452, 453, 454, 455, 456, 457, 458, 459, 460, 461, 462, 463, 464, 465, 466, 467, 468, 469, 470, 471, 472, 473, 474, 475, 476, 477, 478, 479, 480, 481, 482, 483, 484, 485, 486, 487, 488, 489, 490, 491, 492, 493, 494, 495, 496, 497, 498, 499, 500, 501, 502, 503, 504, 505, 506, 507, 508, 509, 510, 511, 512, 513, 514, 515, 516, 517, 518, 519, 520, 521, 522, 523, 524, 525, 526, 527, 528, 529, 530, 531, 532, 533, 534, 535, 536, 537, 538, 539, 540, 541, 542, 543, 544, 545, 546, 547, 548, 549, 550, 551, 552, 553, 554, 555, 556, 557, 558, 559, 560, 561, 562, 563, 564, 565, 566, 567, 568, 569, 570, 571, 572, 573, 574, 575, 576, 577, 578, 579, 580, 581, 582, 583, 584, 585, 586, 587, 588, 589, 590, 591, 592, 593, 594, 595, 596, 597, 598, 599, 600, 601, 602, 603, 604, 605, 606, 607, 608, 609, 610, 611, 612, 613, 614, 615, 616, 617, 618, 619, 620, 621, 622, 623, 624, 625, 626, 627, 628, 629, 630, 631, 632, 633, 634, 635, 636, 637, 638, 639, 640, 641, 642, 643, 644, 645, 646, 647, 648, 649, 650, 651, 652, 653, 654, 655, 656, 657, 658, 659, 660, 661, 662, 663, 664, 665, 666, 667, 668, 669, 670, 671, 672, 673, 674, 675, 676, 677, 678, 679, 680, 681, 682, 683, 684, 685, 686, 687, 688, 689, 690, 691, 692, 693, 694, 695, 696, 697, 698, 699, 700, 701, 702, 703, 704, 705, 706, 707, 708, 709, 710, 711, 712, 713, 714, 715, 716, 717, 718, 719, 720, 721, 722, 723, 724, 725, 726, 727, 728, 729, 730, 731, 732, 733, 734, 735, 736, 737, 738, 739, 740, 741, 742, 743, 744, 745, 746, 747, 748, 749, 750, 751, 752, 753, 754, 755, 756, 757, 758, 759, 760, 761, 762, 763, 764, 765, 766, 767, 768, 769, 770, 771, 772, 773, 774, 775, 776, 777, 778, 779, 780, 781, 782, 783, 784, 785, 786, 787, 788, 789, 790, 791, 792, 793, 794, 795, 796, 797, 798, 799, 800, 801, 802, 803, 804, 805, 806, 807, 808, 809, 810, 811, 812, 813, 814, 815, 816, 817, 818, 819, 820, 821, 822, 823, 824, 825, 826, 827, 828, 829, 830, 831, 832, 833, 834, 835, 836, 837, 838, 839, 840, 841, 842, 843, 844, 845, 846, 847, 848, 849, 850, 851, 852, 853, 854, 855, 856, 857, 858, 859, 860, 861, 862, 863, 864, 865, 866, 867, 868, 869, 870, 871, 872],
      "AcquisitionTime": ["195612.677500", "195613.137500", "195613.597500", "195614.057500", "195614.517500", "195614.977500", "195615.437500", "195615.897500", "195616.357500", "195616.817500", "195617.277500", "195617.737500", "195618.197500", "195618.657500", "195619.117500", "195619.577500", "195620.037500", "195620.497500", "195620.957500", "195621.417500", "195621.877500", "195622.337500", "195622.797500", "195623.257500", "195623.717500", "195624.177500", "195624.637500", "195625.097500", "195625.557500", "195626.017500", "195626.477500", "195626.937500", "195627.397500", "195627.857500", "195628.317500", "195628.777500", "195629.237500", "195629.697500", "195630.157500", "195630.617500", "195631.077500", "195631.537500", "195631.997500", "195632.457500", "195632.917500", "195633.377500", "195633.837500", "195634.297500", "195634.757500", "195635.217500", "195635.677500", "195636.137500", "195636.597500", "195637.057500", "195637.517500", "195637.977500", "195638.437500", "195638.897500", "195639.357500", "195639.817500", "195640.277500", "195640.737500", "195641.197500", "195641.657500", "195642.117500", "195642.577500", "195643.037500", "195643.497500", "195643.957500", "195644.417500", "195644.877500", "195645.337500", "195645.797500", "195646.257500", "195646.717500", "195647.177500", "195647.637500", "195648.097500", "195648.557500", "195649.017500", "195649.477500", "195649.937500", "195650.397500", "195650.857500", "195651.317500", "195651.777500", "195652.237500", "195652.697500", "195653.157500", "195653.617500", "195654.077500", "195654.537500", "195654.997500", "195655.457500", "195655.917500", "195656.377500", "195656.837500", "195657.297500", "195657.757500", "195658.217500", "195658.677500", "195659.137500", "195659.597500", "195700.057500", "195700.517500", "195700.977500", "195701.437500", "195701.897500", "195702.357500", "195702.817500", "195703.277500", "195703.737500", "195704.197500", "195704.657500", "195705.117500", "195705.577500", "195706.037500", "195706.497500", "195706.957500", "195707.417500", "195707.877500", "195708.337500", "195708.797500", "195709.257500", "195709.717500", "195710.177500", "195710.637500", "195711.097500", "195711.557500", "195712.017500", "195712.477500", "195712.937500", "195713.397500", "195713.857500", "195714.317500", "195714.777500", "195715.237500", "195715.697500", "195716.157500", "195716.617500", "195717.077500", "195717.537500", "195717.997500", "195718.457500", "195718.917500", "195719.377500", "195719.837500", "195720.297500", "195720.757500", "195721.217500", "195721.677500", "195722.137500", "195722.597500", "195723.057500", "195723.517500", "195723.977500", "195724.437500", "195724.897500", "195725.357500", "195725.817500", "195726.277500", "195726.737500", "195727.197500", "195727.657500", "195728.117500", "195728.577500", "195729.037500", "195729.497500", "195729.957500", "195730.417500", "195730.877500", "195731.337500", "195731.797500", "195732.257500", "195732.717500", "195733.177500", "195733.637500", "195734.097500", "195734.557500", "195735.017500", "195735.477500", "195735.937500", "195736.397500", "195736.857500", "195737.317500", "195737.777500", "195738.237500", "195738.697500", "195739.157500", "195739.617500", "195740.077500", "195740.537500", "195740.997500", "195741.457500", "195741.917500", "195742.377500", "195742.837500", "195743.297500", "195743.757500", "195744.217500", "195744.677500", "195745.137500", "195745.597500", "195746.057500", "195746.517500", "195746.977500", "195747.437500", "195747.897500", "195748.357500", "195748.817500", "195749.277500", "195749.737500", "195750.197500", "195750.657500", "195751.117500", "195751.577500", "195752.037500", "195752.497500", "195752.957500", "195753.417500", "195753.877500", "195754.337500", "195754.797500", "195755.257500", "195755.717500", "195756.177500", "195756.637500", "195757.097500", "195757.557500", "195758.017500", "195758.477500", "195758.937500", "195759.397500", "195759.857500", "195800.317500", "195800.777500", "195801.237500", "195801.697500", "195802.157500", "195802.617500", "195803.077500", "195803.537500", "195803.997500", "195804.457500", "195804.917500", "195805.377500", "195805.837500", "195806.297500", "195806.757500", "195807.217500", "195807.677500", "195808.137500", "195808.597500", "195809.057500", "195809.517500", "195809.977500", "195810.437500", "195810.897500", "195811.357500", "195811.817500", "195812.277500", "195812.737500", "195813.197500", "195813.657500", "195814.117500", "195814.577500", "195815.037500", "195815.497500", "195815.957500", "195816.417500", "195816.877500", "195817.337500", "195817.797500", "195818.257500", "195818.717500", "195819.177500", "195819.637500", "195820.097500", "195820.557500", "195821.017500", "195821.477500", "195821.937500", "195822.397500", "195822.857500", "195823.317500", "195823.777500", "195824.237500", "195824.697500", "195825.157500", "195825.617500", "195826.077500", "195826.537500", "195826.997500", "195827.457500", "195827.917500", "195828.377500", "195828.837500", "195829.297500", "195829.757500", "195830.217500", "195830.677500", "195831.137500", "195831.597500", "195832.057500", "195832.517500", "195832.977500", "195833.437500", "195833.897500", "195834.357500", "195834.817500", "195835.277500", "195835.737500", "195836.197500", "195836.657500", "195837.117500", "195837.577500", "195838.037500", "195838.497500", "195838.957500", "195839.417500", "195839.877500", "195840.337500", "195840.797500", "195841.257500", "195841.717500", "195842.177500", "195842.637500", "195843.097500", "195843.557500", "195844.017500", "195844.477500", "195844.937500", "195845.397500", "195845.857500", "195846.317500", "195846.777500", "195847.237500", "195847.697500", "195848.157500", "195848.617500", "195849.077500", "195849.537500", "195849.997500", "195850.457500", "195850.917500", "195851.377500", "195851.837500", "195852.297500", "195852.757500", "195853.217500", "195853.677500", "195854.137500", "195854.597500", "195855.057500", "195855.517500", "195855.977500", "195856.437500", "195856.897500", "195857.357500", "195857.817500", "195858.277500", "195858.737500", "195859.197500", "195859.657500", "195900.117500", "195900.577500", "195901.037500", "195901.497500", "195901.957500", "195902.417500", "195902.877500", "195903.337500", "195903.797500", "195904.257500", "195904.717500", "195905.177500", "195905.637500", "195906.097500", "195906.557500", "195907.017500", "195907.477500", "195907.937500", "195908.397500", "195908.857500", "195909.317500", "195909.777500", "195910.237500", "195910.697500", "195911.157500", "195911.617500", "195912.077500", "195912.537500", "195912.997500", "195913.457500", "195913.917500", "195914.377500", "195914.837500", "195915.297500", "195915.757500", "195916.217500", "195916.677500", "195917.137500", "195917.597500", "195918.057500", "195918.517500", "195918.977500", "195919.437500", "195919.897500", "195920.357500", "195920.817500", "195921.277500", "195921.737500", "195922.197500", "195922.657500", "195923.117500", "195923.577500", "195924.037500", "195924.497500", "195924.957500", "195925.417500", "195925.877500", "195926.337500", "195926.797500", "195927.257500", "195927.717500", "195928.177500", "195928.637500", "195929.097500", "195929.557500", "195930.017500", "195930.477500", "195930.937500", "195931.397500", "195931.857500", "195932.317500", "195932.777500", "195933.237500", "195933.697500", "195934.157500", "195934.617500", "195935.077500", "195935.537500", "195935.997500", "195936.457500", "195936.917500", "195937.377500", "195937.837500", "195938.297500", "195938.757500", "195939.217500", "195939.677500", "195940.137500", "195940.597500", "195941.057500", "195941.517500", "195941.977500", "195942.437500", "195942.897500", "195943.357500", "195943.817500", "195944.277500", "195944.737500", "195945.197500", "195945.657500", "195946.117500", "195946.577500", "195947.037500", "195947.497500", "195947.957500", "195948.417500", "195948.877500", "195949.337500", "195949.797500", "195950.257500", "195950.717500", "195951.177500", "195951.637500", "195952.097500", "195952.557500", "195953.017500", "195953.477500", "195953.937500", "195954.397500", "195954.857500", "195955.317500", "195955.777500", "195956.237500", "195956.697500", "195957.157500", "195957.617500", "195958.077500", "195958.537500", "195958.997500", "195959.457500", "195959.917500", "200000.377500", "200000.837500", "200001.297500", "200001.757500", "200002.217500", "200002.677500", "200003.137500", "200003.597500", "200004.057500", "200004.517500", "200004.977500", "200005.437500", "200005.897500", "200006.357500", "200006.817500", "200007.277500", "200007.737500", "200008.197500", "200008.657500", "200009.117500", "200009.577500", "200010.037500", "200010.497500", "200010.957500", "200011.417500", "200011.877500", "200012.337500", "200012.797500", "200013.257500", "200013.717500", "200014.177500", "200014.637500", "200015.097500", "200015.557500", "200016.017500", "200016.477500", "200016.937500", "200017.397500", "200017.857500", "200018.317500", "200018.777500", "200019.237500", "200019.697500", "200020.157500", "200020.617500", "200021.077500", "200021.537500", "200021.997500", "200022.457500", "200022.917500", "200023.377500", "200023.837500", "200024.297500", "200024.757500", "200025.217500", "200025.677500", "200026.137500", "200026.597500", "200027.057500", "200027.517500", "200027.977500", "200028.437500", "200028.897500", "200029.357500", "200029.817500", "200030.277500", "200030.737500", "200031.197500", "200031.657500", "200032.117500", "200032.577500", "200033.037500", "200033.497500", "200033.957500", "200034.417500", "200034.877500", "200035.337500", "200035.797500", "200036.257500", "200036.717500", "200037.177500", "200037.637500", "200038.097500", "200038.557500", "200039.017500", "200039.477500", "200039.937500", "200040.397500", "200040.857500", "200041.317500", "200041.777500", "200042.237500", "200042.697500", "200043.157500", "200043.617500", "200044.077500", "200044.537500", "200044.997500", "200045.457500", "200045.917500", "200046.377500", "200046.837500", "200047.297500", "200047.757500", "200048.217500", "200048.677500", "200049.137500", "200049.597500", "200050.057500", "200050.517500", "200050.977500", "200051.437500", "200051.897500", "200052.357500", "200052.817500", "200053.277500", "200053.737500", "200054.197500", "200054.657500", "200055.117500", "200055.577500", "200056.037500", "200056.497500", "200056.957500", "200057.417500", "200057.877500", "200058.337500", "200058.797500", "200059.257500", "200059.717500", "200100.177500", "200100.637500", "200101.097500", "200101.557500", "200102.017500", "200102.477500", "200102.937500", "200103.397500", "200103.857500", "200104.317500", "200104.777500", "200105.237500", "200105.697500", "200106.157500", "200106.617500", "200107.077500", "200107.537500", "200107.997500", "200108.457500", "200108.917500", "200109.377500", "200109.837500", "200110.297500", "200110.757500", "200111.217500", "200111.677500", "200112.137500", "200112.597500", "200113.057500", "200113.517500", "200113.977500", "200114.437500", "200114.897500", "200115.357500", "200115.817500", "200116.277500", "200116.737500", "200117.197500", "200117.657500", "200118.117500", "200118.577500", "200119.037500", "200119.497500", "200119.957500", "200120.417500", "200120.877500", "200121.337500", "200121.797500", "200122.257500", "200122.717500", "200123.177500", "200123.637500", "200124.097500", "200124.557500", "200125.017500", "200125.477500", "200125.937500", "200126.397500", "200126.857500", "200127.317500", "200127.777500", "200128.237500", "200128.697500", "200129.157500", "200129.617500", "200130.077500", "200130.537500", "200130.997500", "200131.457500", "200131.917500", "200132.377500", "200132.837500", "200133.297500", "200133.757500", "200134.217500", "200134.677500", "200135.137500", "200135.597500", "200136.057500", "200136.517500", "200136.977500", "200137.437500", "200137.897500", "200138.357500", "200138.817500", "200139.277500", "200139.737500", "200140.197500", "200140.657500", "200141.117500", "200141.577500", "200142.037500", "200142.497500", "200142.957500", "200143.417500", "200143.877500", "200144.337500", "200144.797500", "200145.257500", "200145.717500", "200146.177500", "200146.637500", "200147.097500", "200147.557500", "200148.017500", "200148.477500", "200148.937500", "200149.397500", "200149.857500", "200150.317500", "200150.777500", "200151.237500", "200151.697500", "200152.157500", "200152.617500", "200153.077500", "200153.537500", "200153.997500", "200154.457500", "200154.917500", "200155.377500", "200155.837500", "200156.297500", "200156.757500", "200157.217500", "200157.677500", "200158.137500", "200158.597500", "200159.057500", "200159.517500", "200159.977500", "200200.437500", "200200.897500", "200201.357500", "200201.817500", "200202.277500", "200202.737500", "200203.197500", "200203.657500", "200204.117500", "200204.577500", "200205.037500", "200205.497500", "200205.957500", "200206.417500", "200206.877500", "200207.337500", "200207.797500", "200208.257500", "200208.717500", "200209.177500", "200209.637500", "200210.097500", "200210.557500", "200211.017500", "200211.477500", "200211.937500", "200212.397500", "200212.857500", "200213.317500", "200213.777500", "200214.237500", "200214.697500", "200215.157500", "200215.617500", "200216.077500", "200216.537500", "200216.997500", "200217.457500", "200217.917500", "200218.377500", "200218.837500", "200219.297500", "200219.757500", "200220.217500", "200220.677500", "200221.137500", "200221.597500", "200222.057500", "200222.517500", "200222.977500", "200223.437500", "200223.897500", "200224.357500", "200224.817500", "200225.277500", "200225.737500", "200226.197500", "200226.657500", "200227.117500", "200227.577500", "200228.037500", "200228.497500", "200228.957500", "200229.417500", "200229.877500", "200230.337500", "200230.797500", "200231.257500", "200231.717500", "200232.177500", "200232.637500", "200233.097500", "200233.557500", "200234.017500", "200234.477500", "200234.937500", "200235.397500", "200235.857500", "200236.317500", "200236.777500", "200237.237500", "200237.697500", "200238.157500", "200238.617500", "200239.077500", "200239.537500", "200239.997500", "200240.457500", "200240.917500", "200241.377500", "200241.837500", "200242.297500", "200242.757500", "200243.217500", "200243.677500", "200244.137500", "200244.597500", "200245.057500", "200245.517500", "200245.977500", "200246.437500", "200246.897500", "200247.357500", "200247.817500", "200248.277500", "200248.737500", "200249.197500", "200249.657500", "200250.117500", "200250.577500", "200251.037500", "200251.497500", "200251.957500", "200252.417500", "200252.877500", "200253.337500"],
