{
  "AcquisitionMatrixPE": 82,
  "AcquisitionNumber": 1,
  "AcquisitionTime": "19:32:57.315000",
  "BandwidthPerPixelPhaseEncode": 24.888,
  "BaseResolution": 82,
  "BodyPartExamined": "BRAIN",
  "ConsistencyInfo": "N4_VE11E_LATEST_20181129",
  "ConversionSoftware": "dcm2niix",
  "ConversionSoftwareVersion": "v1.0.20201102",
  "DerivedVendorReportedEchoSpacing": 0.00049,
  "DeviceSerialNumber": "66112",
  "DwellTime": 2e-06,
  "EchoTime": 0.0272,
  "EchoTrainLength": 82,
  "EffectiveEchoSpacing": 0.00049,
  "FlipAngle": 44,
  "ImageComments": "Unaliased MB8/PE3",
  "ImageOrientationPatientDICOM": [0.998739, 0.0315629, 0.03905, -0.0360985, 0.991935, 0.1215],
  "ImageType": [
    "ORIGINAL",
    "PRIMARY",
    "M",
    "MB",
    "ND",
    "NORM",
    "MOSAIC"
],
  "ImagingFrequency": 123.259,
  "InPlanePhaseEncodingDirectionDICOM": "COL",
  "InstitutionAddress": "Maynard 3,Hanover,NH,US,03755",
  "InstitutionName": "Dartmouth College - PBS",
  "InstitutionalDepartmentName": "Department",
  "MRAcquisitionType": "2D",
  "MagneticFieldStrength": 3,
  "Manufacturer": "Siemens",
  "ManufacturersModelName": "Prisma",
  "Modality": "MR",
  "MultibandAccelerationFactor": 8,
  "PartialFourier": 1,
  "PatientPosition": "HFS",
  "PercentPhaseFOV": 100,
  "PercentSampling": 100,
  "PhaseEncodingDirection": "j-",
  "PhaseEncodingSteps": 82,
  "PhaseResolution": 1,
  "PixelBandwidth": 3050,
  "ProcedureStepDescription": "Wager_Wager^1076_spacetop",
  "ProtocolName": "func_run-02_task-social_acq-ap-mb8",
  "PulseSequenceDetails": "%CustomerSeq%\\cmrr_mbep2d_bold",
  "ReceiveCoilActiveElements": "HEA;HEP",
  "ReceiveCoilName": "Head_32",
  "ReconMatrixPE": 82,
  "RepetitionTime": 0.46,
  "SAR": 0.0865569,
  "ScanOptions": "FS",
  "ScanningSequence": "EP",
  "SequenceName": "epfid2d1_82",
  "SequenceVariant": "SK\\SS",
  "SeriesDescription": "func_run-02_task-social_acq-ap-mb8",
  "SeriesNumber": 10,
  "ShimSetting": [4229, -7792, -7216, 421, -109, -101, -12, 47],
  "SliceThickness": 2.7,
  "SliceTiming": [0, 0.2525, 0.0625, 0.315, 0.1275, 0.3775, 0.19, 0, 0.2525, 0.0625, 0.315, 0.1275, 0.3775, 0.19, 0, 0.2525, 0.0625, 0.315, 0.1275, 0.3775, 0.19, 0, 0.2525, 0.0625, 0.315, 0.1275, 0.3775, 0.19, 0, 0.2525, 0.0625, 0.315, 0.1275, 0.3775, 0.19, 0, 0.2525, 0.0625, 0.315, 0.1275, 0.3775, 0.19, 0, 0.2525, 0.0625, 0.315, 0.1275, 0.3775, 0.19, 0, 0.2525, 0.0625, 0.315, 0.1275, 0.3775, 0.19],
  "SoftwareVersions": "syngo MR E11",
  "SpacingBetweenSlices": 2.7,
  "StationName": "AWP66112",
  "TaskName": "social",
  "TotalReadoutTime": 0.03969,
  "TxRefAmp": 229.373,
  "WipMemBlock": "5edd4e32-dda7-4cfe-b537-7b814a10e9ec||Sequence: R016 ve11e/master r/434b28f1; Aug  7 2019 18:53:46 by eja",
  "dcmmeta_affine": [
    [-2.6795427799224854, -0.09684953093528748, 0.0942302867770195, 111.59625244140625],
    [-0.08468098193407059, 2.6612884998321533, 0.33144283294677734, -110.24295806884766],
    [0.10476817190647125, -0.3259761929512024, 2.677922010421753, -59.11177062988281],
    [0.0, 0.0, 0.0, 1.0]
],
  "dcmmeta_reorient_transform": [
    [0.0, -1.0, 0.0, 81.0],
    [1.0, 0.0, 0.0, 0.0],
    [0.0, 0.0, 1.0, 0.0],
    [0.0, 0.0, 0.0, 1.0]
],
  "dcmmeta_shape": [82, 82, 56, 872],
  "dcmmeta_slice_dim": 2,
  "dcmmeta_version": 0.6,
  "global": {
    "const": {
      "AccessionNumber": "A004797",
      "AcquisitionMatrix": [82, 0, 0, 82],
      "AngioFlag": "N",
      "BitsAllocated": 16,
      "BitsStored": 16,
      "BodyPartExamined": "BRAIN",
      "Columns": 656,
      "EchoNumbers": 1,
      "EchoTime": 27.2,
      "EchoTrainLength": 82,
      "FlipAngle": 44.0,
      "HighBit": 15,
      "ImageOrientationPatient": [0.99873864639228, 0.03156291134058, 0.03904995301177, -0.036098459865, 0.9919347759724, 0.12150021157166],
      "ImagePositionPatient": [-844.9843996608, -893.41464678976, -209.1394719934],
      "ImageType": [
        "ORIGINAL",
        "PRIMARY",
        "M",
        "MB",
        "ND",
        "NORM",
        "MOSAIC"
],
      "ImagedNucleus": "1H",
      "ImagingFrequency": 123.259077,
      "InPlanePhaseEncodingDirection": "COL",
      "MRAcquisitionType": "2D",
      "MagneticFieldStrength": 3.0,
      "Manufacturer": "SIEMENS",
      "ManufacturerModelName": "Prisma",
      "Modality": "MR",
      "NumberOfAverages": 1.0,
      "NumberOfPhaseEncodingSteps": 82,
      "PercentPhaseFieldOfView": 100.0,
      "PercentSampling": 100.0,
      "PerformedProcedureStepStartTime": "191215.949000",
      "PhotometricInterpretation": "MONOCHROME2",
      "PixelBandwidth": 3050.0,
      "PixelRepresentation": 0,
      "PixelSpacing": [2.6829268932343, 2.6829268932343],
      "ProtocolName": "func_run-02_task-social_acq-ap-mb8",
      "RepetitionTime": 460.0,
      "Rows": 656,
      "SAR": 0.08655694649473,
      "SamplesPerPixel": 1,
      "ScanOptions": "FS",
      "ScanningSequence": "EP",
      "SequenceName": "epfid2d1_82",
      "SequenceVariant": [
        "SK",
        "SS"
],
      "SeriesDescription": "func_run-02_task-social_acq-ap-mb8",
      "SeriesNumber": 10,
      "SeriesTime": "193318.955000",
      "SliceLocation": -68.266742290381,
      "SliceThickness": 2.7000000476837,
      "SmallestImagePixelValue": 0,
      "SoftwareVersions": "syngo MR E11",
      "SpacingBetweenSlices": 2.7000000422652,
      "SpecificCharacterSet": "ISO_IR 100",
      "StudyID": "3",
      "StudyTime": "191215.887000",
      "TransmitCoilName": "Body",
      "VariableFlipAngleFlag": "N",
      "WindowCenterWidthExplanation": "Algo1"
    },
    "slices": {}
  },
  "time": {
    "samples": {
      "AcquisitionNumber": [1, 2, 3, 4, 5, 6, 7, 8, 9, 10, 11, 12, 13, 14, 15, 16, 17, 18, 19, 20, 21, 22, 23, 24, 25, 26, 27, 28, 29, 30, 31, 32, 33, 34, 35, 36, 37, 38, 39, 40, 41, 42, 43, 44, 45, 46, 47, 48, 49, 50, 51, 52, 53, 54, 55, 56, 57, 58, 59, 60, 61, 62, 63, 64, 65, 66, 67, 68, 69, 70, 71, 72, 73, 74, 75, 76, 77, 78, 79, 80, 81, 82, 83, 84, 85, 86, 87, 88, 89, 90, 91, 92, 93, 94, 95, 96, 97, 98, 99, 100, 101, 102, 103, 104, 105, 106, 107, 108, 109, 110, 111, 112, 113, 114, 115, 116, 117, 118, 119, 120, 121, 122, 123, 124, 125, 126, 127, 128, 129, 130, 131, 132, 133, 134, 135, 136, 137, 138, 139, 140, 141, 142, 143, 144, 145, 146, 147, 148, 149, 150, 151, 152, 153, 154, 155, 156, 157, 158, 159, 160, 161, 162, 163, 164, 165, 166, 167, 168, 169, 170, 171, 172, 173, 174, 175, 176, 177, 178, 179, 180, 181, 182, 183, 184, 185, 186, 187, 188, 189, 190, 191, 192, 193, 194, 195, 196, 197, 198, 199, 200, 201, 202, 203, 204, 205, 206, 207, 208, 209, 210, 211, 212, 213, 214, 215, 216, 217, 218, 219, 220, 221, 222, 223, 224, 225, 226, 227, 228, 229, 230, 231, 232, 233, 234, 235, 236, 237, 238, 239, 240, 241, 242, 243, 244, 245, 246, 247, 248, 249, 250, 251, 252, 253, 254, 255, 256, 257, 258, 259, 260, 261, 262, 263, 264, 265, 266, 267, 268, 269, 270, 271, 272, 273, 274, 275, 276, 277, 278, 279, 280, 281, 282, 283, 284, 285, 286, 287, 288, 289, 290, 291, 292, 293, 294, 295, 296, 297, 298, 299, 300, 301, 302, 303, 304, 305, 306, 307, 308, 309, 310, 311, 312, 313, 314, 315, 316, 317, 318, 319, 320, 321, 322, 323, 324, 325, 326, 327, 328, 329, 330, 331, 332, 333, 334, 335, 336, 337, 338, 339, 340, 341, 342, 343, 344, 345, 346, 347, 348, 349, 350, 351, 352, 353, 354, 355, 356, 357, 358, 359, 360, 361, 362, 363, 364, 365, 366, 367, 368, 369, 370, 371, 372, 373, 374, 375, 376, 377, 378, 379, 380, 381, 382, 383, 384, 385, 386, 387, 388, 389, 390, 391, 392, 393, 394, 395, 396, 397, 398, 399, 400, 401, 402, 403, 404, 405, 406, 407, 408, 409, 410, 411, 412, 413, 414, 415, 416, 417, 418, 419, 420, 421, 422, 423, 424, 425, 426, 427, 428, 429, 430, 431, 432, 433, 434, 435, 436, 437, 438, 439, 440, 441, 442, 443, 444, 445, 446, 447, 448, 449, 450, 451, 452, 453, 454, 455, 456, 457, 458, 459, 460, 461, 462, 463, 464, 465, 466, 467, 468, 469, 470, 471, 472, 473, 474, 475, 476, 477, 478, 479, 480, 481, 482, 483, 484, 485, 486, 487, 488, 489, 490, 491, 492, 493, 494, 495, 496, 497, 498, 499, 500, 501, 502, 503, 504, 505, 506, 507, 508, 509, 510, 511, 512, 513, 514, 515, 516, 517, 518, 519, 520, 521, 522, 523, 524, 525, 526, 527, 528, 529, 530, 531, 532, 533, 534, 535, 536, 537, 538, 539, 540, 541, 542, 543, 544, 545, 546, 547, 548, 549, 550, 551, 552, 553, 554, 555, 556, 557, 558, 559, 560, 561, 562, 563, 564, 565, 566, 567, 568, 569, 570, 571, 572, 573, 574, 575, 576, 577, 578, 579, 580, 581, 582, 583, 584, 585, 586, 587, 588, 589, 590, 591, 592, 593, 594, 595, 596, 597, 598, 599, 600, 601, 602, 603, 604, 605, 606, 607, 608, 609, 610, 611, 612, 613, 614, 615, 616, 617, 618, 619, 620, 621, 622, 623, 624, 625, 626, 627, 628, 629, 630, 631, 632, 633, 634, 635, 636, 637, 638, 639, 640, 641, 642, 643, 644, 645, 646, 647, 648, 649, 650, 651, 652, 653, 654, 655, 656, 657, 658, 659, 660, 661, 662, 663, 664, 665, 666, 667, 668, 669, 670, 671, 672, 673, 674, 675, 676, 677, 678, 679, 680, 681, 682, 683, 684, 685, 686, 687, 688, 689, 690, 691, 692, 693, 694, 695, 696, 697, 698, 699, 700, 701, 702, 703, 704, 705, 706, 707, 708, 709, 710, 711, 712, 713, 714, 715, 716, 717, 718, 719, 720, 721, 722, 723, 724, 725, 726, 727, 728, 729, 730, 731, 732, 733, 734, 735, 736, 737, 738, 739, 740, 741, 742, 743, 744, 745, 746, 747, 748, 749, 750, 751, 752, 753, 754, 755, 756, 757, 758, 759, 760, 761, 762, 763, 764, 765, 766, 767, 768, 769, 770, 771, 772, 773, 774, 775, 776, 777, 778, 779, 780, 781, 782, 783, 784, 785, 786, 787, 788, 789, 790, 791, 792, 793, 794, 795, 796, 797, 798, 799, 800, 801, 802, 803, 804, 805, 806, 807, 808, 809, 810, 811, 812, 813, 814, 815, 816, 817, 818, 819, 820, 821, 822, 823, 824, 825, 826, 827, 828, 829, 830, 831, 832, 833, 834, 835, 836, 837, 838, 839, 840, 841, 842, 843, 844, 845, 846, 847, 848, 849, 850, 851, 852, 853, 854, 855, 856, 857, 858, 859, 860, 861, 862, 863, 864, 865, 866, 867, 868, 869, 870, 871, 872],
      "AcquisitionTime": ["193257.315000", "193257.775000", "193258.235000", "193258.695000", "193259.155000", "193259.615000", "193300.075000", "193300.535000", "193300.995000", "193301.455000", "193301.915000", "193302.375000", "193302.835000", "193303.295000", "193303.755000", "193304.215000", "193304.675000", "193305.135000", "193305.595000", "193306.055000", "193306.515000", "193306.975000", "193307.435000", "193307.895000", "193308.355000", "193308.815000", "193309.275000", "193309.735000", "193310.195000", "193310.655000", "193311.115000", "193311.575000", "193312.035000", "193312.495000", "193312.955000", "193313.415000", "193313.875000", "193314.335000", "193314.795000", "193315.255000", "193315.715000", "193316.175000", "193316.635000", "193317.095000", "193317.555000", "193318.015000", "193318.475000", "193318.935000", "193319.395000", "193319.855000", "193320.315000", "193320.775000", "193321.235000", "193321.695000", "193322.155000", "193322.615000", "193323.075000", "193323.535000", "193323.995000", "193324.455000", "193324.915000", "193325.375000", "193325.835000", "193326.295000", "193326.755000", "193327.215000", "193327.675000", "193328.135000", "193328.595000", "193329.055000", "193329.515000", "193329.975000", "193330.435000", "193330.895000", "193331.355000", "193331.815000", "193332.275000", "193332.735000", "193333.195000", "193333.655000", "193334.115000", "193334.575000", "193335.035000", "193335.495000", "193335.955000", "193336.415000", "193336.875000", "193337.335000", "193337.795000", "193338.255000", "193338.715000", "193339.175000", "193339.635000", "193340.095000", "193340.555000", "193341.015000", "193341.475000", "193341.935000", "193342.395000", "193342.855000", "193343.315000", "193343.775000", "193344.235000", "193344.695000", "193345.155000", "193345.615000", "193346.075000", "193346.535000", "193346.995000", "193347.455000", "193347.915000", "193348.375000", "193348.835000", "193349.295000", "193349.755000", "193350.215000", "193350.675000", "193351.135000", "193351.595000", "193352.055000", "193352.515000", "193352.975000", "193353.435000", "193353.895000", "193354.355000", "193354.815000", "193355.275000", "193355.735000", "193356.195000", "193356.655000", "193357.115000", "193357.575000", "193358.035000", "193358.495000", "193358.955000", "193359.415000", "193359.875000", "193400.335000", "193400.795000", "193401.255000", "193401.715000", "193402.175000", "193402.635000", "193403.095000", "193403.555000", "193404.015000", "193404.475000", "193404.935000", "193405.395000", "193405.855000", "193406.315000", "193406.775000", "193407.235000", "193407.695000", "193408.155000", "193408.615000", "193409.075000", "193409.535000", "193409.995000", "193410.455000", "193410.915000", "193411.375000", "193411.835000", "193412.295000", "193412.755000", "193413.215000", "193413.675000", "193414.135000", "193414.595000", "193415.055000", "193415.515000", "193415.975000", "193416.435000", "193416.895000", "193417.355000", "193417.815000", "193418.275000", "193418.735000", "193419.195000", "193419.655000", "193420.115000", "193420.575000", "193421.035000", "193421.495000", "193421.955000", "193422.415000", "193422.875000", "193423.335000", "193423.795000", "193424.255000", "193424.715000", "193425.175000", "193425.635000", "193426.095000", "193426.555000", "193427.015000", "193427.475000", "193427.935000", "193428.395000", "193428.855000", "193429.315000", "193429.775000", "193430.235000", "193430.695000", "193431.155000", "193431.615000", "193432.075000", "193432.535000", "193432.995000", "193433.455000", "193433.915000", "193434.375000", "193434.835000", "193435.295000", "193435.755000", "193436.215000", "193436.675000", "193437.135000", "193437.595000", "193438.055000", "193438.515000", "193438.975000", "193439.435000", "193439.895000", "193440.355000", "193440.815000", "193441.275000", "193441.735000", "193442.195000", "193442.655000", "193443.115000", "193443.575000", "193444.035000", "193444.495000", "193444.955000", "193445.415000", "193445.875000", "193446.335000", "193446.795000", "193447.255000", "193447.715000", "193448.175000", "193448.635000", "193449.095000", "193449.555000", "193450.015000", "193450.475000", "193450.935000", "193451.395000", "193451.855000", "193452.315000", "193452.775000", "193453.235000", "193453.695000", "193454.155000", "193454.615000", "193455.075000", "193455.535000", "193455.995000", "193456.455000", "193456.915000", "193457.375000", "193457.835000", "193458.295000", "193458.755000", "193459.215000", "193459.675000", "193500.135000", "193500.595000", "193501.055000", "193501.515000", "193501.975000", "193502.435000", "193502.895000", "193503.355000", "193503.815000", "193504.275000", "193504.735000", "193505.195000", "193505.655000", "193506.115000", "193506.575000", "193507.035000", "193507.495000", "193507.955000", "193508.415000", "193508.875000", "193509.335000", "193509.795000", "193510.255000", "193510.715000", "193511.175000", "193511.635000", "193512.095000", "193512.555000", "193513.015000", "193513.475000", "193513.935000", "193514.395000", "193514.855000", "193515.315000", "193515.775000", "193516.235000", "193516.695000", "193517.155000", "193517.615000", "193518.075000", "193518.535000", "193518.995000", "193519.455000", "193519.915000", "193520.375000", "193520.835000", "193521.295000", "193521.755000", "193522.215000", "193522.675000", "193523.135000", "193523.595000", "193524.055000", "193524.515000", "193524.975000", "193525.435000", "193525.895000", "193526.355000", "193526.815000", "193527.275000", "193527.735000", "193528.195000", "193528.655000", "193529.115000", "193529.575000", "193530.035000", "193530.495000", "193530.955000", "193531.415000", "193531.875000", "193532.335000", "193532.795000", "193533.255000", "193533.715000", "193534.175000", "193534.635000", "193535.095000", "193535.555000", "193536.015000", "193536.475000", "193536.935000", "193537.395000", "193537.855000", "193538.315000", "193538.775000", "193539.235000", "193539.695000", "193540.155000", "193540.615000", "193541.075000", "193541.535000", "193541.995000", "193542.455000", "193542.915000", "193543.375000", "193543.835000", "193544.295000", "193544.755000", "193545.215000", "193545.675000", "193546.135000", "193546.595000", "193547.055000", "193547.515000", "193547.975000", "193548.435000", "193548.895000", "193549.355000", "193549.815000", "193550.275000", "193550.735000", "193551.195000", "193551.655000", "193552.115000", "193552.575000", "193553.035000", "193553.495000", "193553.955000", "193554.415000", "193554.875000", "193555.335000", "193555.795000", "193556.255000", "193556.715000", "193557.175000", "193557.635000", "193558.095000", "193558.555000", "193559.015000", "193559.475000", "193559.935000", "193600.395000", "193600.855000", "193601.315000", "193601.775000", "193602.235000", "193602.695000", "193603.155000", "193603.615000", "193604.075000", "193604.535000", "193604.995000", "193605.455000", "193605.915000", "193606.375000", "193606.835000", "193607.295000", "193607.755000", "193608.215000", "193608.675000", "193609.135000", "193609.595000", "193610.055000", "193610.515000", "193610.975000", "193611.435000", "193611.895000", "193612.355000", "193612.815000", "193613.275000", "193613.735000", "193614.195000", "193614.655000", "193615.115000", "193615.575000", "193616.035000", "193616.495000", "193616.955000", "193617.415000", "193617.875000", "193618.335000", "193618.795000", "193619.255000", "193619.715000", "193620.175000", "193620.635000", "193621.095000", "193621.555000", "193622.015000", "193622.475000", "193622.935000", "193623.395000", "193623.855000", "193624.315000", "193624.775000", "193625.235000", "193625.695000", "193626.155000", "193626.615000", "193627.075000", "193627.535000", "193627.995000", "193628.455000", "193628.915000", "193629.375000", "193629.835000", "193630.295000", "193630.755000", "193631.215000", "193631.675000", "193632.135000", "193632.595000", "193633.055000", "193633.515000", "193633.975000", "193634.435000", "193634.895000", "193635.355000", "193635.815000", "193636.275000", "193636.735000", "193637.195000", "193637.655000", "193638.115000", "193638.575000", "193639.035000", "193639.495000", "193639.955000", "193640.415000", "193640.875000", "193641.335000", "193641.795000", "193642.255000", "193642.715000", "193643.175000", "193643.635000", "193644.095000", "193644.555000", "193645.015000", "193645.475000", "193645.935000", "193646.395000", "193646.855000", "193647.315000", "193647.775000", "193648.235000", "193648.695000", "193649.155000", "193649.615000", "193650.075000", "193650.535000", "193650.995000", "193651.455000", "193651.915000", "193652.375000", "193652.835000", "193653.295000", "193653.755000", "193654.215000", "193654.675000", "193655.135000", "193655.595000", "193656.055000", "193656.515000", "193656.975000", "193657.435000", "193657.895000", "193658.355000", "193658.815000", "193659.275000", "193659.735000", "193700.195000", "193700.655000", "193701.115000", "193701.575000", "193702.035000", "193702.495000", "193702.955000", "193703.415000", "193703.875000", "193704.335000", "193704.795000", "193705.255000", "193705.715000", "193706.175000", "193706.635000", "193707.095000", "193707.555000", "193708.015000", "193708.475000", "193708.935000", "193709.395000", "193709.855000", "193710.315000", "193710.775000", "193711.235000", "193711.695000", "193712.155000", "193712.615000", "193713.075000", "193713.535000", "193713.995000", "193714.455000", "193714.915000", "193715.375000", "193715.835000", "193716.295000", "193716.755000", "193717.215000", "193717.675000", "193718.135000", "193718.595000", "193719.055000", "193719.515000", "193719.975000", "193720.435000", "193720.895000", "193721.355000", "193721.815000", "193722.275000", "193722.735000", "193723.195000", "193723.655000", "193724.115000", "193724.575000", "193725.035000", "193725.495000", "193725.955000", "193726.415000", "193726.875000", "193727.335000", "193727.795000", "193728.255000", "193728.715000", "193729.175000", "193729.635000", "193730.095000", "193730.555000", "193731.015000", "193731.475000", "193731.935000", "193732.395000", "193732.855000", "193733.315000", "193733.775000", "193734.235000", "193734.695000", "193735.155000", "193735.615000", "193736.075000", "193736.535000", "193736.995000", "193737.455000", "193737.915000", "193738.375000", "193738.835000", "193739.295000", "193739.755000", "193740.215000", "193740.675000", "193741.135000", "193741.595000", "193742.055000", "193742.515000", "193742.975000", "193743.435000", "193743.895000", "193744.355000", "193744.815000", "193745.275000", "193745.735000", "193746.195000", "193746.655000", "193747.115000", "193747.575000", "193748.035000", "193748.495000", "193748.955000", "193749.415000", "193749.875000", "193750.335000", "193750.795000", "193751.255000", "193751.715000", "193752.175000", "193752.635000", "193753.095000", "193753.555000", "193754.015000", "193754.475000", "193754.935000", "193755.395000", "193755.855000", "193756.315000", "193756.775000", "193757.235000", "193757.695000", "193758.155000", "193758.615000", "193759.075000", "193759.535000", "193759.995000", "193800.455000", "193800.915000", "193801.375000", "193801.835000", "193802.295000", "193802.755000", "193803.215000", "193803.675000", "193804.135000", "193804.595000", "193805.055000", "193805.515000", "193805.975000", "193806.435000", "193806.895000", "193807.355000", "193807.815000", "193808.275000", "193808.735000", "193809.195000", "193809.655000", "193810.115000", "193810.575000", "193811.035000", "193811.495000", "193811.955000", "193812.415000", "193812.875000", "193813.335000", "193813.795000", "193814.255000", "193814.715000", "193815.175000", "193815.635000", "193816.095000", "193816.555000", "193817.015000", "193817.475000", "193817.935000", "193818.395000", "193818.855000", "193819.315000", "193819.775000", "193820.235000", "193820.695000", "193821.155000", "193821.615000", "193822.075000", "193822.535000", "193822.995000", "193823.455000", "193823.915000", "193824.375000", "193824.835000", "193825.295000", "193825.755000", "193826.215000", "193826.675000", "193827.135000", "193827.595000", "193828.055000", "193828.515000", "193828.975000", "193829.435000", "193829.895000", "193830.355000", "193830.815000", "193831.275000", "193831.735000", "193832.195000", "193832.655000", "193833.115000", "193833.575000", "193834.035000", "193834.495000", "193834.955000", "193835.415000", "193835.875000", "193836.335000", "193836.795000", "193837.255000", "193837.715000", "193838.175000", "193838.635000", "193839.095000", "193839.555000", "193840.015000", "193840.475000", "193840.935000", "193841.395000", "193841.855000", "193842.315000", "193842.775000", "193843.235000", "193843.695000", "193844.155000", "193844.615000", "193845.075000", "193845.535000", "193845.995000", "193846.455000", "193846.915000", "193847.375000", "193847.835000", "193848.295000", "193848.755000", "193849.215000", "193849.675000", "193850.135000", "193850.595000", "193851.055000", "193851.515000", "193851.975000", "193852.435000", "193852.895000", "193853.355000", "193853.815000", "193854.275000", "193854.735000", "193855.195000", "193855.655000", "193856.115000", "193856.575000", "193857.035000", "193857.495000", "193857.955000", "193858.415000", "193858.875000", "193859.335000", "193859.795000", "193900.255000", "193900.715000", "193901.175000", "193901.635000", "193902.095000", "193902.555000", "193903.015000", "193903.475000", "193903.935000", "193904.395000", "193904.855000", "193905.315000", "193905.775000", "193906.235000", "193906.695000", "193907.155000", "193907.615000", "193908.075000", "193908.535000", "193908.995000", "193909.455000", "193909.915000", "193910.375000", "193910.835000", "193911.295000", "193911.755000", "193912.215000", "193912.675000", "193913.135000", "193913.595000", "193914.055000", "193914.515000", "193914.975000", "193915.435000", "193915.895000", "193916.355000", "193916.815000", "193917.275000", "193917.735000", "193918.195000", "193918.655000", "193919.115000", "193919.575000", "193920.035000", "193920.495000", "193920.955000", "193921.415000", "193921.875000", "193922.335000", "193922.795000", "193923.255000", "193923.715000", "193924.175000", "193924.635000", "193925.095000", "193925.555000", "193926.015000", "193926.475000", "193926.935000", "193927.395000", "193927.855000", "193928.315000", "193928.775000", "193929.235000", "193929.695000", "193930.155000", "193930.615000", "193931.075000", "193931.535000", "193931.995000", "193932.455000", "193932.915000", "193933.375000", "193933.835000", "193934.295000", "193934.755000", "193935.215000", "193935.675000", "193936.135000", "193936.595000", "193937.055000", "193937.515000", "193937.975000"],
