{
  "AcquisitionMatrixPE": 82,
  "AcquisitionNumber": 1,
  "AcquisitionTime": "10:58:39.930000",
  "BandwidthPerPixelPhaseEncode": 24.888,
  "BaseResolution": 82,
  "BodyPartExamined": "BRAIN",
  "ConsistencyInfo": "N4_VE11C_LATEST_20160120",
  "ConversionSoftware": "dcm2niix",
  "ConversionSoftwareVersion": "v1.0.20201102",
  "DerivedVendorReportedEchoSpacing": 0.00049,
  "DeviceSerialNumber": "66112",
  "DwellTime": 2e-06,
  "EchoTime": 0.0272,
  "EchoTrainLength": 82,
  "EffectiveEchoSpacing": 0.00049,
  "FlipAngle": 44,
  "ImageComments": "Unaliased MB8/PE3",
  "ImageOrientationPatientDICOM": [0.9958, 0.000710459, 0.0915539, -0.00695212, 0.99767, 0.0678739],
  "ImageType": [
    "ORIGINAL",
    "PRIMARY",
    "M",
    "MB",
    "ND",
    "NORM",
    "MOSAIC"
],
  "ImagingFrequency": 123.252,
  "InPlanePhaseEncodingDirectionDICOM": "COL",
  "InstitutionAddress": "Maynard 3,Hanover,NH,US,03755",
  "InstitutionName": "Dartmouth College - PBS",
  "InstitutionalDepartmentName": "Department",
  "MRAcquisitionType": "2D",
  "MagneticFieldStrength": 3,
  "Manufacturer": "Siemens",
  "ManufacturersModelName": "Prisma",
  "Modality": "MR",
  "MultibandAccelerationFactor": 8,
  "PartialFourier": 1,
  "PatientPosition": "HFS",
  "PercentPhaseFOV": 100,
  "PercentSampling": 100,
  "PhaseEncodingDirection": "j-",
  "PhaseEncodingSteps": 82,
  "PhaseResolution": 1,
  "PixelBandwidth": 3050,
  "ProcedureStepDescription": "Wager_Wager^1076_spacetop",
  "ProtocolName": "func_run-03_task-alignvideo_acq-ap-mb8",
  "PulseSequenceDetails": "%CustomerSeq%\\cmrr_mbep2d_bold",
  "ReceiveCoilActiveElements": "HEA;HEP",
  "ReceiveCoilName": "Head_32",
  "ReconMatrixPE": 82,
  "RepetitionTime": 0.46,
  "SAR": 0.096247,
  "ScanOptions": "FS",
  "ScanningSequence": "EP",
  "SequenceName": "epfid2d1_82",
  "SequenceVariant": "SK\\SS",
  "SeriesDescription": "func_run-03_task-alignvideo_acq-ap-mb8",
  "SeriesNumber": 32,
  "ShimSetting": [4164, -7746, -7272, 615, 11, -115, 16, 61],
  "SliceThickness": 2.7,
  "SliceTiming": [0, 0.2525, 0.0625, 0.315, 0.125, 0.3775, 0.19, 0, 0.2525, 0.0625, 0.315, 0.125, 0.3775, 0.19, 0, 0.2525, 0.0625, 0.315, 0.125, 0.3775, 0.19, 0, 0.2525, 0.0625, 0.315, 0.125, 0.3775, 0.19, 0, 0.2525, 0.0625, 0.315, 0.125, 0.3775, 0.19, 0, 0.2525, 0.0625, 0.315, 0.125, 0.3775, 0.19, 0, 0.2525, 0.0625, 0.315, 0.125, 0.3775, 0.19, 0, 0.2525, 0.0625, 0.315, 0.125, 0.3775, 0.19],
  "SoftwareVersions": "syngo MR E11",
  "SpacingBetweenSlices": 2.7,
  "StationName": "AWP66112",
  "TaskName": "alignvideo",
  "TotalReadoutTime": 0.03969,
  "TxRefAmp": 260.873,
  "WipMemBlock": "df32c44c-5bac-4398-a866-d38b77c6e740||Sequence: R016 ve11c/master r/e634e98; Dec 19 2017 11:00:25 by eja",
  "dcmmeta_affine": [
    [-2.6716582775115967, -0.018652040511369705, 0.24648933112621307, 107.32093048095703],
    [-0.001906110323034227, 2.6766748428344727, 0.18420833349227905, -96.04588317871094],
    [0.24563245475292206, -0.18210069835186005, 2.6824076175689697, -63.66690444946289],
    [0.0, 0.0, 0.0, 1.0]
],
  "dcmmeta_reorient_transform": [
    [0.0, -1.0, 0.0, 81.0],
    [1.0, 0.0, 0.0, 0.0],
    [0.0, 0.0, 1.0, 0.0],
    [0.0, 0.0, 0.0, 1.0]
],
  "dcmmeta_shape": [82, 82, 56, 1065],
  "dcmmeta_slice_dim": 2,
  "dcmmeta_version": 0.6,
  "global": {
    "const": {
      "AccessionNumber": "A003767",
      "AcquisitionMatrix": [82, 0, 0, 82],
      "AngioFlag": "N",
      "BitsAllocated": 16,
      "BitsStored": 16,
      "BodyPartExamined": "BRAIN",
      "Columns": 656,
      "EchoNumbers": 1,
      "EchoTime": 27.2,
      "EchoTrainLength": 82,
      "FlipAngle": 44.0,
      "HighBit": 15,
      "ImageOrientationPatient": [0.99579986766245, 0.00071045928149, 0.09155391204673, -0.0069521239233, 0.99766968615604, 0.06787389261169],
      "ImagePositionPatient": [-867.22289403434, -889.51750967101, -201.17647251245],
      "ImageType": [
        "ORIGINAL",
        "PRIMARY",
        "M",
        "MB",
        "ND",
        "NORM",
        "MOSAIC"
],
      "ImagedNucleus": "1H",
      "ImagingFrequency": 123.252177,
      "InPlanePhaseEncodingDirection": "COL",
      "MRAcquisitionType": "2D",
      "MagneticFieldStrength": 3.0,
      "Manufacturer": "SIEMENS",
      "ManufacturerModelName": "Prisma",
      "Modality": "MR",
      "NumberOfAverages": 1.0,
      "NumberOfPhaseEncodingSteps": 82,
      "PercentPhaseFieldOfView": 100.0,
      "PercentSampling": 100.0,
      "PerformedProcedureStepStartTime": "090404.101000",
      "PhotometricInterpretation": "MONOCHROME2",
      "PixelBandwidth": 3050.0,
      "PixelRepresentation": 0,
      "PixelSpacing": [2.6829268932343, 2.6829268932343],
      "ProtocolName": "func_run-03_task-alignvideo_acq-ap-mb8",
      "RepetitionTime": 460.0,
      "Rows": 656,
      "SAR": 0.09624697113344,
      "SamplesPerPixel": 1,
      "ScanOptions": "FS",
      "ScanningSequence": "EP",
      "SequenceName": "epfid2d1_82",
      "SequenceVariant": [
        "SK",
        "SS"
],
      "SeriesDescription": "func_run-03_task-alignvideo_acq-ap-mb8",
      "SeriesNumber": 32,
      "SeriesTime": "105905.278000",
      "SliceLocation": -60.007249303651,
      "SliceThickness": 2.7000000476837,
      "SmallestImagePixelValue": 0,
      "SoftwareVersions": "syngo MR E11",
      "SpacingBetweenSlices": 2.7000000975864,
      "SpecificCharacterSet": "ISO_IR 100",
      "StudyID": "4",
      "StudyTime": "090403.976000",
      "TransmitCoilName": "Body",
      "VariableFlipAngleFlag": "N",
      "WindowCenterWidthExplanation": "Algo1",
      "dBdt": 0.0},
    "slices": {}
  },
  "time": {
    "samples": {
      "AcquisitionNumber": [1, 2, 3, 4, 5, 6, 7, 8, 9, 10, 11, 12, 13, 14, 15, 16, 17, 18, 19, 20, 21, 22, 23, 24, 25, 26, 27, 28, 29, 30, 31, 32, 33, 34, 35, 36, 37, 38, 39, 40, 41, 42, 43, 44, 45, 46, 47, 48, 49, 50, 51, 52, 53, 54, 55, 56, 57, 58, 59, 60, 61, 62, 63, 64, 65, 66, 67, 68, 69, 70, 71, 72, 73, 74, 75, 76, 77, 78, 79, 80, 81, 82, 83, 84, 85, 86, 87, 88, 89, 90, 91, 92, 93, 94, 95, 96, 97, 98, 99, 100, 101, 102, 103, 104, 105, 106, 107, 108, 109, 110, 111, 112, 113, 114, 115, 116, 117, 118, 119, 120, 121, 122, 123, 124, 125, 126, 127, 128, 129, 130, 131, 132, 133, 134, 135, 136, 137, 138, 139, 140, 141, 142, 143, 144, 145, 146, 147, 148, 149, 150, 151, 152, 153, 154, 155, 156, 157, 158, 159, 160, 161, 162, 163, 164, 165, 166, 167, 168, 169, 170, 171, 172, 173, 174, 175, 176, 177, 178, 179, 180, 181, 182, 183, 184, 185, 186, 187, 188, 189, 190, 191, 192, 193, 194, 195, 196, 197, 198, 199, 200, 201, 202, 203, 204, 205, 206, 207, 208, 209, 210, 211, 212, 213, 214, 215, 216, 217, 218, 219, 220, 221, 222, 223, 224, 225, 226, 227, 228, 229, 230, 231, 232, 233, 234, 235, 236, 237, 238, 239, 240, 241, 242, 243, 244, 245, 246, 247, 248, 249, 250, 251, 252, 253, 254, 255, 256, 257, 258, 259, 260, 261, 262, 263, 264, 265, 266, 267, 268, 269, 270, 271, 272, 273, 274, 275, 276, 277, 278, 279, 280, 281, 282, 283, 284, 285, 286, 287, 288, 289, 290, 291, 292, 293, 294, 295, 296, 297, 298, 299, 300, 301, 302, 303, 304, 305, 306, 307, 308, 309, 310, 311, 312, 313, 314, 315, 316, 317, 318, 319, 320, 321, 322, 323, 324, 325, 326, 327, 328, 329, 330, 331, 332, 333, 334, 335, 336, 337, 338, 339, 340, 341, 342, 343, 344, 345, 346, 347, 348, 349, 350, 351, 352, 353, 354, 355, 356, 357, 358, 359, 360, 361, 362, 363, 364, 365, 366, 367, 368, 369, 370, 371, 372, 373, 374, 375, 376, 377, 378, 379, 380, 381, 382, 383, 384, 385, 386, 387, 388, 389, 390, 391, 392, 393, 394, 395, 396, 397, 398, 399, 400, 401, 402, 403, 404, 405, 406, 407, 408, 409, 410, 411, 412, 413, 414, 415, 416, 417, 418, 419, 420, 421, 422, 423, 424, 425, 426, 427, 428, 429, 430, 431, 432, 433, 434, 435, 436, 437, 438, 439, 440, 441, 442, 443, 444, 445, 446, 447, 448, 449, 450, 451, 452, 453, 454, 455, 456, 457, 458, 459, 460, 461, 462, 463, 464, 465, 466, 467, 468, 469, 470, 471, 472, 473, 474, 475, 476, 477, 478, 479, 480, 481, 482, 483, 484, 485, 486, 487, 488, 489, 490, 491, 492, 493, 494, 495, 496, 497, 498, 499, 500, 501, 502, 503, 504, 505, 506, 507, 508, 509, 510, 511, 512, 513, 514, 515, 516, 517, 518, 519, 520, 521, 522, 523, 524, 525, 526, 527, 528, 529, 530, 531, 532, 533, 534, 535, 536, 537, 538, 539, 540, 541, 542, 543, 544, 545, 546, 547, 548, 549, 550, 551, 552, 553, 554, 555, 556, 557, 558, 559, 560, 561, 562, 563, 564, 565, 566, 567, 568, 569, 570, 571, 572, 573, 574, 575, 576, 577, 578, 579, 580, 581, 582, 583, 584, 585, 586, 587, 588, 589, 590, 591, 592, 593, 594, 595, 596, 597, 598, 599, 600, 601, 602, 603, 604, 605, 606, 607, 608, 609, 610, 611, 612, 613, 614, 615, 616, 617, 618, 619, 620, 621, 622, 623, 624, 625, 626, 627, 628, 629, 630, 631, 632, 633, 634, 635, 636, 637, 638, 639, 640, 641, 642, 643, 644, 645, 646, 647, 648, 649, 650, 651, 652, 653, 654, 655, 656, 657, 658, 659, 660, 661, 662, 663, 664, 665, 666, 667, 668, 669, 670, 671, 672, 673, 674, 675, 676, 677, 678, 679, 680, 681, 682, 683, 684, 685, 686, 687, 688, 689, 690, 691, 692, 693, 694, 695, 696, 697, 698, 699, 700, 701, 702, 703, 704, 705, 706, 707, 708, 709, 710, 711, 712, 713, 714, 715, 716, 717, 718, 719, 720, 721, 722, 723, 724, 725, 726, 727, 728, 729, 730, 731, 732, 733, 734, 735, 736, 737, 738, 739, 740, 741, 742, 743, 744, 745, 746, 747, 748, 749, 750, 751, 752, 753, 754, 755, 756, 757, 758, 759, 760, 761, 762, 763, 764, 765, 766, 767, 768, 769, 770, 771, 772, 773, 774, 775, 776, 777, 778, 779, 780, 781, 782, 783, 784, 785, 786, 787, 788, 789, 790, 791, 792, 793, 794, 795, 796, 797, 798, 799, 800, 801, 802, 803, 804, 805, 806, 807, 808, 809, 810, 811, 812, 813, 814, 815, 816, 817, 818, 819, 820, 821, 822, 823, 824, 825, 826, 827, 828, 829, 830, 831, 832, 833, 834, 835, 836, 837, 838, 839, 840, 841, 842, 843, 844, 845, 846, 847, 848, 849, 850, 851, 852, 853, 854, 855, 856, 857, 858, 859, 860, 861, 862, 863, 864, 865, 866, 867, 868, 869, 870, 871, 872, 873, 874, 875, 876, 877, 878, 879, 880, 881, 882, 883, 884, 885, 886, 887, 888, 889, 890, 891, 892, 893, 894, 895, 896, 897, 898, 899, 900, 901, 902, 903, 904, 905, 906, 907, 908, 909, 910, 911, 912, 913, 914, 915, 916, 917, 918, 919, 920, 921, 922, 923, 924, 925, 926, 927, 928, 929, 930, 931, 932, 933, 934, 935, 936, 937, 938, 939, 940, 941, 942, 943, 944, 945, 946, 947, 948, 949, 950, 951, 952, 953, 954, 955, 956, 957, 958, 959, 960, 961, 962, 963, 964, 965, 966, 967, 968, 969, 970, 971, 972, 973, 974, 975, 976, 977, 978, 979, 980, 981, 982, 983, 984, 985, 986, 987, 988, 989, 990, 991, 992, 993, 994, 995, 996, 997, 998, 999, 1000, 1001, 1002, 1003, 1004, 1005, 1006, 1007, 1008, 1009, 1010, 1011, 1012, 1013, 1014, 1015, 1016, 1017, 1018, 1019, 1020, 1021, 1022, 1023, 1024, 1025, 1026, 1027, 1028, 1029, 1030, 1031, 1032, 1033, 1034, 1035, 1036, 1037, 1038, 1039, 1040, 1041, 1042, 1043, 1044, 1045, 1046, 1047, 1048, 1049, 1050, 1051, 1052, 1053, 1054, 1055, 1056, 1057, 1058, 1059, 1060, 1061, 1062, 1063, 1064, 1065],
      "AcquisitionTime": ["105839.930000", "105840.390000", "105840.850000", "105841.310000", "105841.770000", "105842.230000", "105842.690000", "105843.150000", "105843.610000", "105844.070000", "105844.530000", "105844.990000", "105845.450000", "105845.910000", "105846.370000", "105846.830000", "105847.290000", "105847.750000", "105848.210000", "105848.670000", "105849.130000", "105849.590000", "105850.050000", "105850.510000", "105850.970000", "105851.430000", "105851.890000", "105852.350000", "105852.810000", "105853.270000", "105853.730000", "105854.190000", "105854.650000", "105855.110000", "105855.570000", "105856.030000", "105856.490000", "105856.950000", "105857.410000", "105857.870000", "105858.330000", "105858.790000", "105859.250000", "105859.710000", "105900.170000", "105900.630000", "105901.090000", "105901.550000", "105902.010000", "105902.470000", "105902.930000", "105903.390000", "105903.850000", "105904.310000", "105904.770000", "105905.230000", "105905.690000", "105906.150000", "105906.610000", "105907.070000", "105907.530000", "105907.990000", "105908.450000", "105908.910000", "105909.370000", "105909.830000", "105910.290000", "105910.750000", "105911.210000", "105911.670000", "105912.130000", "105912.590000", "105913.050000", "105913.510000", "105913.970000", "105914.430000", "105914.890000", "105915.350000", "105915.810000", "105916.270000", "105916.730000", "105917.190000", "105917.650000", "105918.110000", "105918.570000", "105919.030000", "105919.490000", "105919.950000", "105920.410000", "105920.870000", "105921.330000", "105921.790000", "105922.250000", "105922.710000", "105923.170000", "105923.630000", "105924.090000", "105924.550000", "105925.010000", "105925.470000", "105925.930000", "105926.390000", "105926.850000", "105927.310000", "105927.770000", "105928.230000", "105928.690000", "105929.150000", "105929.610000", "105930.070000", "105930.530000", "105930.990000", "105931.450000", "105931.910000", "105932.370000", "105932.830000", "105933.290000", "105933.750000", "105934.210000", "105934.670000", "105935.130000", "105935.590000", "105936.050000", "105936.510000", "105936.970000", "105937.430000", "105937.890000", "105938.350000", "105938.810000", "105939.270000", "105939.730000", "105940.190000", "105940.650000", "105941.110000", "105941.570000", "105942.030000", "105942.490000", "105942.950000", "105943.410000", "105943.870000", "105944.330000", "105944.790000", "105945.250000", "105945.710000", "105946.170000", "105946.630000", "105947.090000", "105947.550000", "105948.010000", "105948.470000", "105948.930000", "105949.390000", "105949.850000", "105950.310000", "105950.770000", "105951.230000", "105951.690000", "105952.150000", "105952.610000", "105953.070000", "105953.530000", "105953.990000", "105954.450000", "105954.910000", "105955.370000", "105955.830000", "105956.290000", "105956.750000", "105957.210000", "105957.670000", "105958.130000", "105958.590000", "105959.050000", "105959.510000", "105959.970000", "110000.430000", "110000.890000", "110001.350000", "110001.810000", "110002.270000", "110002.730000", "110003.190000", "110003.650000", "110004.110000", "110004.570000", "110005.030000", "110005.490000", "110005.950000", "110006.410000", "110006.870000", "110007.330000", "110007.790000", "110008.250000", "110008.710000", "110009.170000", "110009.630000", "110010.090000", "110010.550000", "110011.010000", "110011.470000", "110011.930000", "110012.390000", "110012.850000", "110013.310000", "110013.770000", "110014.230000", "110014.690000", "110015.150000", "110015.610000", "110016.070000", "110016.530000", "110016.990000", "110017.450000", "110017.910000", "110018.370000", "110018.830000", "110019.290000", "110019.750000", "110020.210000", "110020.670000", "110021.130000", "110021.590000", "110022.050000", "110022.510000", "110022.970000", "110023.430000", "110023.890000", "110024.350000", "110024.810000", "110025.270000", "110025.730000", "110026.190000", "110026.650000", "110027.110000", "110027.570000", "110028.030000", "110028.490000", "110028.950000", "110029.410000", "110029.870000", "110030.330000", "110030.790000", "110031.250000", "110031.710000", "110032.170000", "110032.630000", "110033.090000", "110033.550000", "110034.010000", "110034.470000", "110034.930000", "110035.390000", "110035.850000", "110036.310000", "110036.770000", "110037.230000", "110037.690000", "110038.150000", "110038.610000", "110039.070000", "110039.530000", "110039.990000", "110040.450000", "110040.910000", "110041.370000", "110041.830000", "110042.290000", "110042.750000", "110043.210000", "110043.670000", "110044.130000", "110044.590000", "110045.050000", "110045.510000", "110045.970000", "110046.430000", "110046.890000", "110047.350000", "110047.810000", "110048.270000", "110048.730000", "110049.190000", "110049.650000", "110050.110000", "110050.570000", "110051.030000", "110051.490000", "110051.950000", "110052.410000", "110052.870000", "110053.330000", "110053.790000", "110054.250000", "110054.710000", "110055.170000", "110055.630000", "110056.090000", "110056.550000", "110057.010000", "110057.470000", "110057.930000", "110058.390000", "110058.850000", "110059.310000", "110059.770000", "110100.230000", "110100.690000", "110101.150000", "110101.610000", "110102.070000", "110102.530000", "110102.990000", "110103.450000", "110103.910000", "110104.370000", "110104.830000", "110105.290000", "110105.750000", "110106.210000", "110106.670000", "110107.130000", "110107.590000", "110108.050000", "110108.510000", "110108.970000", "110109.430000", "110109.890000", "110110.350000", "110110.810000", "110111.270000", "110111.730000", "110112.190000", "110112.650000", "110113.110000", "110113.570000", "110114.030000", "110114.490000", "110114.950000", "110115.410000", "110115.870000", "110116.330000", "110116.790000", "110117.250000", "110117.710000", "110118.170000", "110118.630000", "110119.090000", "110119.550000", "110120.010000", "110120.470000", "110120.930000", "110121.390000", "110121.850000", "110122.310000", "110122.770000", "110123.230000", "110123.690000", "110124.150000", "110124.610000", "110125.070000", "110125.530000", "110125.990000", "110126.450000", "110126.910000", "110127.370000", "110127.830000", "110128.290000", "110128.750000", "110129.210000", "110129.670000", "110130.130000", "110130.590000", "110131.050000", "110131.510000", "110131.970000", "110132.430000", "110132.890000", "110133.350000", "110133.810000", "110134.270000", "110134.730000", "110135.190000", "110135.650000", "110136.110000", "110136.570000", "110137.030000", "110137.490000", "110137.950000", "110138.410000", "110138.870000", "110139.330000", "110139.790000", "110140.250000", "110140.710000", "110141.170000", "110141.630000", "110142.090000", "110142.550000", "110143.010000", "110143.470000", "110143.930000", "110144.390000", "110144.850000", "110145.310000", "110145.770000", "110146.230000", "110146.690000", "110147.150000", "110147.610000", "110148.070000", "110148.530000", "110148.990000", "110149.450000", "110149.910000", "110150.370000", "110150.830000", "110151.290000", "110151.750000", "110152.210000", "110152.670000", "110153.130000", "110153.590000", "110154.050000", "110154.510000", "110154.970000", "110155.430000", "110155.890000", "110156.350000", "110156.810000", "110157.270000", "110157.730000", "110158.190000", "110158.650000", "110159.110000", "110159.570000", "110200.030000", "110200.490000", "110200.950000", "110201.410000", "110201.870000", "110202.330000", "110202.790000", "110203.250000", "110203.710000", "110204.170000", "110204.630000", "110205.090000", "110205.550000", "110206.010000", "110206.470000", "110206.930000", "110207.390000", "110207.850000", "110208.310000", "110208.770000", "110209.230000", "110209.690000", "110210.150000", "110210.610000", "110211.070000", "110211.530000", "110211.990000", "110212.450000", "110212.910000", "110213.370000", "110213.830000", "110214.290000", "110214.750000", "110215.210000", "110215.670000", "110216.130000", "110216.590000", "110217.050000", "110217.510000", "110217.970000", "110218.430000", "110218.890000", "110219.350000", "110219.810000", "110220.270000", "110220.730000", "110221.190000", "110221.650000", "110222.110000", "110222.570000", "110223.030000", "110223.490000", "110223.950000", "110224.410000", "110224.870000", "110225.330000", "110225.790000", "110226.250000", "110226.710000", "110227.170000", "110227.630000", "110228.090000", "110228.550000", "110229.010000", "110229.470000", "110229.930000", "110230.390000", "110230.850000", "110231.310000", "110231.770000", "110232.230000", "110232.690000", "110233.150000", "110233.610000", "110234.070000", "110234.530000", "110234.990000", "110235.450000", "110235.910000", "110236.370000", "110236.830000", "110237.290000", "110237.750000", "110238.210000", "110238.670000", "110239.130000", "110239.590000", "110240.050000", "110240.510000", "110240.970000", "110241.430000", "110241.890000", "110242.350000", "110242.810000", "110243.270000", "110243.730000", "110244.190000", "110244.650000", "110245.110000", "110245.570000", "110246.030000", "110246.490000", "110246.950000", "110247.410000", "110247.870000", "110248.330000", "110248.790000", "110249.250000", "110249.710000", "110250.170000", "110250.630000", "110251.090000", "110251.550000", "110252.010000", "110252.470000", "110252.930000", "110253.390000", "110253.850000", "110254.310000", "110254.770000", "110255.230000", "110255.690000", "110256.150000", "110256.610000", "110257.070000", "110257.530000", "110257.990000", "110258.450000", "110258.910000", "110259.370000", "110259.830000", "110300.290000", "110300.750000", "110301.210000", "110301.670000", "110302.130000", "110302.590000", "110303.050000", "110303.510000", "110303.970000", "110304.430000", "110304.890000", "110305.350000", "110305.810000", "110306.270000", "110306.730000", "110307.190000", "110307.650000", "110308.110000", "110308.570000", "110309.030000", "110309.490000", "110309.950000", "110310.410000", "110310.870000", "110311.330000", "110311.790000", "110312.250000", "110312.710000", "110313.170000", "110313.630000", "110314.090000", "110314.550000", "110315.010000", "110315.470000", "110315.930000", "110316.390000", "110316.850000", "110317.310000", "110317.770000", "110318.230000", "110318.690000", "110319.150000", "110319.610000", "110320.070000", "110320.530000", "110320.990000", "110321.450000", "110321.910000", "110322.370000", "110322.830000", "110323.290000", "110323.750000", "110324.210000", "110324.670000", "110325.130000", "110325.590000", "110326.050000", "110326.510000", "110326.970000", "110327.430000", "110327.890000", "110328.350000", "110328.810000", "110329.270000", "110329.730000", "110330.190000", "110330.650000", "110331.110000", "110331.570000", "110332.030000", "110332.490000", "110332.950000", "110333.410000", "110333.870000", "110334.330000", "110334.790000", "110335.250000", "110335.710000", "110336.170000", "110336.630000", "110337.090000", "110337.550000", "110338.010000", "110338.470000", "110338.930000", "110339.390000", "110339.850000", "110340.310000", "110340.770000", "110341.230000", "110341.690000", "110342.150000", "110342.610000", "110343.070000", "110343.530000", "110343.990000", "110344.450000", "110344.910000", "110345.370000", "110345.830000", "110346.290000", "110346.750000", "110347.210000", "110347.670000", "110348.130000", "110348.590000", "110349.050000", "110349.510000", "110349.970000", "110350.430000", "110350.890000", "110351.350000", "110351.810000", "110352.270000", "110352.730000", "110353.190000", "110353.650000", "110354.110000", "110354.570000", "110355.030000", "110355.490000", "110355.950000", "110356.410000", "110356.870000", "110357.330000", "110357.790000", "110358.250000", "110358.710000", "110359.170000", "110359.630000", "110400.090000", "110400.550000", "110401.010000", "110401.470000", "110401.930000", "110402.390000", "110402.850000", "110403.310000", "110403.770000", "110404.230000", "110404.690000", "110405.150000", "110405.610000", "110406.070000", "110406.530000", "110406.990000", "110407.450000", "110407.910000", "110408.370000", "110408.830000", "110409.290000", "110409.750000", "110410.210000", "110410.670000", "110411.130000", "110411.590000", "110412.050000", "110412.510000", "110412.970000", "110413.430000", "110413.890000", "110414.350000", "110414.810000", "110415.270000", "110415.730000", "110416.190000", "110416.650000", "110417.110000", "110417.570000", "110418.030000", "110418.490000", "110418.950000", "110419.410000", "110419.870000", "110420.330000", "110420.790000", "110421.250000", "110421.710000", "110422.170000", "110422.630000", "110423.090000", "110423.550000", "110424.010000", "110424.470000", "110424.930000", "110425.390000", "110425.850000", "110426.310000", "110426.770000", "110427.230000", "110427.690000", "110428.150000", "110428.610000", "110429.070000", "110429.530000", "110429.990000", "110430.450000", "110430.910000", "110431.370000", "110431.830000", "110432.290000", "110432.750000", "110433.210000", "110433.670000", "110434.130000", "110434.590000", "110435.050000", "110435.510000", "110435.970000", "110436.430000", "110436.890000", "110437.350000", "110437.810000", "110438.270000", "110438.730000", "110439.190000", "110439.650000", "110440.110000", "110440.570000", "110441.030000", "110441.490000", "110441.950000", "110442.410000", "110442.870000", "110443.330000", "110443.790000", "110444.250000", "110444.710000", "110445.170000", "110445.630000", "110446.090000", "110446.550000", "110447.010000", "110447.470000", "110447.930000", "110448.390000", "110448.850000", "110449.310000", "110449.770000", "110450.230000", "110450.690000", "110451.150000", "110451.610000", "110452.070000", "110452.530000", "110452.990000", "110453.450000", "110453.910000", "110454.370000", "110454.830000", "110455.290000", "110455.750000", "110456.210000", "110456.670000", "110457.130000", "110457.590000", "110458.050000", "110458.510000", "110458.970000", "110459.430000", "110459.890000", "110500.350000", "110500.810000", "110501.270000", "110501.730000", "110502.190000", "110502.650000", "110503.110000", "110503.570000", "110504.030000", "110504.490000", "110504.950000", "110505.410000", "110505.870000", "110506.330000", "110506.790000", "110507.250000", "110507.710000", "110508.170000", "110508.630000", "110509.090000", "110509.550000", "110510.010000", "110510.470000", "110510.930000", "110511.390000", "110511.850000", "110512.310000", "110512.770000", "110513.230000", "110513.690000", "110514.150000", "110514.610000", "110515.070000", "110515.530000", "110515.990000", "110516.450000", "110516.910000", "110517.370000", "110517.830000", "110518.290000", "110518.750000", "110519.210000", "110519.670000", "110520.130000", "110520.590000", "110521.050000", "110521.510000", "110521.970000", "110522.430000", "110522.890000", "110523.350000", "110523.810000", "110524.270000", "110524.730000", "110525.190000", "110525.650000", "110526.110000", "110526.570000", "110527.030000", "110527.490000", "110527.950000", "110528.410000", "110528.870000", "110529.330000", "110529.790000", "110530.250000", "110530.710000", "110531.170000", "110531.630000", "110532.090000", "110532.550000", "110533.010000", "110533.470000", "110533.930000", "110534.390000", "110534.850000", "110535.310000", "110535.770000", "110536.230000", "110536.690000", "110537.150000", "110537.610000", "110538.070000", "110538.530000", "110538.990000", "110539.450000", "110539.910000", "110540.370000", "110540.830000", "110541.290000", "110541.750000", "110542.210000", "110542.670000", "110543.130000", "110543.590000", "110544.050000", "110544.510000", "110544.970000", "110545.430000", "110545.890000", "110546.350000", "110546.810000", "110547.270000", "110547.730000", "110548.190000", "110548.650000", "110549.110000", "110549.570000", "110550.030000", "110550.490000", "110550.950000", "110551.410000", "110551.870000", "110552.330000", "110552.790000", "110553.250000", "110553.710000", "110554.170000", "110554.630000", "110555.090000", "110555.550000", "110556.010000", "110556.470000", "110556.930000", "110557.390000", "110557.850000", "110558.310000", "110558.770000", "110559.230000", "110559.690000", "110600.150000", "110600.610000", "110601.070000", "110601.530000", "110601.990000", "110602.450000", "110602.910000", "110603.370000", "110603.830000", "110604.290000", "110604.750000", "110605.210000", "110605.670000", "110606.130000", "110606.590000", "110607.050000", "110607.510000", "110607.970000", "110608.430000", "110608.890000", "110609.350000", "110609.810000", "110610.270000", "110610.730000", "110611.190000", "110611.650000", "110612.110000", "110612.570000", "110613.030000", "110613.490000", "110613.950000", "110614.410000", "110614.870000", "110615.330000", "110615.790000", "110616.250000", "110616.710000", "110617.170000", "110617.630000", "110618.090000", "110618.550000", "110619.010000", "110619.470000", "110619.930000", "110620.390000", "110620.850000", "110621.310000", "110621.770000", "110622.230000", "110622.690000", "110623.150000", "110623.610000", "110624.070000", "110624.530000", "110624.990000", "110625.450000", "110625.910000", "110626.370000", "110626.830000", "110627.290000", "110627.750000", "110628.210000", "110628.670000", "110629.130000", "110629.590000", "110630.050000", "110630.510000", "110630.970000", "110631.430000", "110631.890000", "110632.350000", "110632.810000", "110633.270000", "110633.730000", "110634.190000", "110634.650000", "110635.110000", "110635.570000", "110636.030000", "110636.490000", "110636.950000", "110637.410000", "110637.870000", "110638.330000", "110638.790000", "110639.250000", "110639.710000", "110640.170000", "110640.630000", "110641.090000", "110641.550000", "110642.010000", "110642.470000", "110642.930000", "110643.390000", "110643.850000", "110644.310000", "110644.770000", "110645.230000", "110645.690000", "110646.150000", "110646.610000", "110647.070000", "110647.530000", "110647.990000", "110648.450000", "110648.910000", "110649.370000"],
