{
  "AcquisitionMatrixPE": 82,
  "AcquisitionNumber": 1,
  "AcquisitionTime": "09:45:14.797500",
  "BandwidthPerPixelPhaseEncode": 24.888,
  "BaseResolution": 82,
  "BodyPartExamined": "BRAIN",
  "ConsistencyInfo": "N4_VE11C_LATEST_20160120",
  "ConversionSoftware": "dcm2niix",
  "ConversionSoftwareVersion": "v1.0.20201102",
  "DerivedVendorReportedEchoSpacing": 0.00049,
  "DeviceSerialNumber": "66112",
  "DwellTime": 2e-06,
  "EchoTime": 0.0272,
  "EchoTrainLength": 82,
  "EffectiveEchoSpacing": 0.00049,
  "FlipAngle": 44,
  "ImageComments": "Unaliased MB8/PE3",
  "ImageOrientationPatientDICOM": [0.998484, 0.00086061, 0.0550403, -0.00418251, 0.998174, 0.0602674],
  "ImageType": [
    "ORIGINAL",
    "PRIMARY",
    "M",
    "MB",
    "ND",
    "NORM",
    "MOSAIC"
],
  "ImagingFrequency": 123.252,
  "InPlanePhaseEncodingDirectionDICOM": "COL",
  "InstitutionAddress": "Maynard 3,Hanover,NH,US,03755",
  "InstitutionName": "Dartmouth College - PBS",
  "InstitutionalDepartmentName": "Department",
  "MRAcquisitionType": "2D",
  "MagneticFieldStrength": 3,
  "Manufacturer": "Siemens",
  "ManufacturersModelName": "Prisma",
  "Modality": "MR",
  "MultibandAccelerationFactor": 8,
  "PartialFourier": 1,
  "PatientPosition": "HFS",
  "PercentPhaseFOV": 100,
  "PercentSampling": 100,
  "PhaseEncodingDirection": "j-",
  "PhaseEncodingSteps": 82,
  "PhaseResolution": 1,
  "PixelBandwidth": 3050,
  "ProcedureStepDescription": "Wager_Wager^1076_spacetop",
  "ProtocolName": "func_run-02_task-social_acq-ap-mb8",
  "PulseSequenceDetails": "%CustomerSeq%\\cmrr_mbep2d_bold",
  "ReceiveCoilActiveElements": "HEA;HEP",
  "ReceiveCoilName": "Head_32",
  "ReconMatrixPE": 82,
  "RepetitionTime": 0.46,
  "SAR": 0.0961385,
  "ScanOptions": "FS",
  "ScanningSequence": "EP",
  "SequenceName": "epfid2d1_82",
  "SequenceVariant": "SK\\SS",
  "SeriesDescription": "func_run-02_task-social_acq-ap-mb8",
  "SeriesNumber": 10,
  "ShimSetting": [4163, -7746, -7273, 617, 5, -115, 15, 62],
  "SliceThickness": 2.7,
  "SliceTiming": [0, 0.2525, 0.0625, 0.315, 0.125, 0.3775, 0.19, 0, 0.2525, 0.0625, 0.315, 0.125, 0.3775, 0.19, 0, 0.2525, 0.0625, 0.315, 0.125, 0.3775, 0.19, 0, 0.2525, 0.0625, 0.315, 0.125, 0.3775, 0.19, 0, 0.2525, 0.0625, 0.315, 0.125, 0.3775, 0.19, 0, 0.2525, 0.0625, 0.315, 0.125, 0.3775, 0.19, 0, 0.2525, 0.0625, 0.315, 0.125, 0.3775, 0.19, 0, 0.2525, 0.0625, 0.315, 0.125, 0.3775, 0.19],
  "SoftwareVersions": "syngo MR E11",
  "SpacingBetweenSlices": 2.7,
  "StationName": "AWP66112",
  "TaskName": "social",
  "TotalReadoutTime": 0.03969,
  "TxRefAmp": 260.873,
  "WipMemBlock": "07dd93d2-fc1d-43d0-9232-a6b9e356e2ae||Sequence: R016 ve11c/master r/e634e98; Dec 19 2017 11:00:25 by eja",
  "dcmmeta_affine": [
    [-2.678858995437622, -0.01122137438505888, 0.14819729328155518, 110.10414123535156],
    [-0.0023089537862688303, 2.6780264377593994, 0.16309668123722076, -90.48316192626953],
    [0.14766906201839447, -0.16169290244579315, 2.6909918785095215, -60.41552734375],
    [0.0, 0.0, 0.0, 1.0]
],
  "dcmmeta_reorient_transform": [
    [0.0, -1.0, 0.0, 81.0],
    [1.0, 0.0, 0.0, 0.0],
    [0.0, 0.0, 1.0, 0.0],
    [0.0, 0.0, 0.0, 1.0]
],
  "dcmmeta_shape": [82, 82, 56, 872],
  "dcmmeta_slice_dim": 2,
  "dcmmeta_version": 0.6,
  "global": {
    "const": {
      "AccessionNumber": "A003767",
      "AcquisitionMatrix": [82, 0, 0, 82],
      "AngioFlag": "N",
      "BitsAllocated": 16,
      "BitsStored": 16,
      "BodyPartExamined": "BRAIN",
      "Columns": 656,
      "EchoNumbers": 1,
      "EchoTime": 27.2,
      "EchoTrainLength": 82,
      "FlipAngle": 44.0,
      "HighBit": 15,
      "ImageOrientationPatient": [0.998483763594, 0.00086061003808, 0.05504028696796, -0.004182512273, 0.99817350828523, 0.06026735392105],
      "ImagePositionPatient": [-874.80719511088, -895.69327895654, -162.29953804709],
      "ImageType": [
        "ORIGINAL",
        "PRIMARY",
        "M",
        "MB",
        "ND",
        "NORM",
        "MOSAIC"
],
      "ImagedNucleus": "1H",
      "ImagingFrequency": 123.25215,
      "InPlanePhaseEncodingDirection": "COL",
      "MRAcquisitionType": "2D",
      "MagneticFieldStrength": 3.0,
      "Manufacturer": "SIEMENS",
      "ManufacturerModelName": "Prisma",
      "Modality": "MR",
      "NumberOfAverages": 1.0,
      "NumberOfPhaseEncodingSteps": 82,
      "PercentPhaseFieldOfView": 100.0,
      "PercentSampling": 100.0,
      "PerformedProcedureStepStartTime": "090404.101000",
      "PhotometricInterpretation": "MONOCHROME2",
      "PixelBandwidth": 3050.0,
      "PixelRepresentation": 0,
      "PixelSpacing": [2.6829268932343, 2.6829268932343],
      "ProtocolName": "func_run-02_task-social_acq-ap-mb8",
      "RepetitionTime": 460.0,
      "Rows": 656,
      "SAR": 0.0961385204208,
      "SamplesPerPixel": 1,
      "ScanOptions": "FS",
      "ScanningSequence": "EP",
      "SequenceName": "epfid2d1_82",
      "SequenceVariant": [
        "SK",
        "SS"
],
      "SeriesDescription": "func_run-02_task-social_acq-ap-mb8",
      "SeriesNumber": 10,
      "SeriesTime": "094525.338000",
      "SliceLocation": -59.63631733173,
      "SliceThickness": 2.7000000476837,
      "SmallestImagePixelValue": 0,
      "SoftwareVersions": "syngo MR E11",
      "SpacingBetweenSlices": 2.6999999358598,
      "SpecificCharacterSet": "ISO_IR 100",
      "StudyID": "4",
      "StudyTime": "090403.976000",
      "TransmitCoilName": "Body",
      "VariableFlipAngleFlag": "N",
      "WindowCenterWidthExplanation": "Algo1",
      "dBdt": 0.0},
    "slices": {}
  },
  "time": {
    "samples": {
      "AcquisitionNumber": [1, 2, 3, 4, 5, 6, 7, 8, 9, 10, 11, 12, 13, 14, 15, 16, 17, 18, 19, 20, 21, 22, 23, 24, 25, 26, 27, 28, 29, 30, 31, 32, 33, 34, 35, 36, 37, 38, 39, 40, 41, 42, 43, 44, 45, 46, 47, 48, 49, 50, 51, 52, 53, 54, 55, 56, 57, 58, 59, 60, 61, 62, 63, 64, 65, 66, 67, 68, 69, 70, 71, 72, 73, 74, 75, 76, 77, 78, 79, 80, 81, 82, 83, 84, 85, 86, 87, 88, 89, 90, 91, 92, 93, 94, 95, 96, 97, 98, 99, 100, 101, 102, 103, 104, 105, 106, 107, 108, 109, 110, 111, 112, 113, 114, 115, 116, 117, 118, 119, 120, 121, 122, 123, 124, 125, 126, 127, 128, 129, 130, 131, 132, 133, 134, 135, 136, 137, 138, 139, 140, 141, 142, 143, 144, 145, 146, 147, 148, 149, 150, 151, 152, 153, 154, 155, 156, 157, 158, 159, 160, 161, 162, 163, 164, 165, 166, 167, 168, 169, 170, 171, 172, 173, 174, 175, 176, 177, 178, 179, 180, 181, 182, 183, 184, 185, 186, 187, 188, 189, 190, 191, 192, 193, 194, 195, 196, 197, 198, 199, 200, 201, 202, 203, 204, 205, 206, 207, 208, 209, 210, 211, 212, 213, 214, 215, 216, 217, 218, 219, 220, 221, 222, 223, 224, 225, 226, 227, 228, 229, 230, 231, 232, 233, 234, 235, 236, 237, 238, 239, 240, 241, 242, 243, 244, 245, 246, 247, 248, 249, 250, 251, 252, 253, 254, 255, 256, 257, 258, 259, 260, 261, 262, 263, 264, 265, 266, 267, 268, 269, 270, 271, 272, 273, 274, 275, 276, 277, 278, 279, 280, 281, 282, 283, 284, 285, 286, 287, 288, 289, 290, 291, 292, 293, 294, 295, 296, 297, 298, 299, 300, 301, 302, 303, 304, 305, 306, 307, 308, 309, 310, 311, 312, 313, 314, 315, 316, 317, 318, 319, 320, 321, 322, 323, 324, 325, 326, 327, 328, 329, 330, 331, 332, 333, 334, 335, 336, 337, 338, 339, 340, 341, 342, 343, 344, 345, 346, 347, 348, 349, 350, 351, 352, 353, 354, 355, 356, 357, 358, 359, 360, 361, 362, 363, 364, 365, 366, 367, 368, 369, 370, 371, 372, 373, 374, 375, 376, 377, 378, 379, 380, 381, 382, 383, 384, 385, 386, 387, 388, 389, 390, 391, 392, 393, 394, 395, 396, 397, 398, 399, 400, 401, 402, 403, 404, 405, 406, 407, 408, 409, 410, 411, 412, 413, 414, 415, 416, 417, 418, 419, 420, 421, 422, 423, 424, 425, 426, 427, 428, 429, 430, 431, 432, 433, 434, 435, 436, 437, 438, 439, 440, 441, 442, 443, 444, 445, 446, 447, 448, 449, 450, 451, 452, 453, 454, 455, 456, 457, 458, 459, 460, 461, 462, 463, 464, 465, 466, 467, 468, 469, 470, 471, 472, 473, 474, 475, 476, 477, 478, 479, 480, 481, 482, 483, 484, 485, 486, 487, 488, 489, 490, 491, 492, 493, 494, 495, 496, 497, 498, 499, 500, 501, 502, 503, 504, 505, 506, 507, 508, 509, 510, 511, 512, 513, 514, 515, 516, 517, 518, 519, 520, 521, 522, 523, 524, 525, 526, 527, 528, 529, 530, 531, 532, 533, 534, 535, 536, 537, 538, 539, 540, 541, 542, 543, 544, 545, 546, 547, 548, 549, 550, 551, 552, 553, 554, 555, 556, 557, 558, 559, 560, 561, 562, 563, 564, 565, 566, 567, 568, 569, 570, 571, 572, 573, 574, 575, 576, 577, 578, 579, 580, 581, 582, 583, 584, 585, 586, 587, 588, 589, 590, 591, 592, 593, 594, 595, 596, 597, 598, 599, 600, 601, 602, 603, 604, 605, 606, 607, 608, 609, 610, 611, 612, 613, 614, 615, 616, 617, 618, 619, 620, 621, 622, 623, 624, 625, 626, 627, 628, 629, 630, 631, 632, 633, 634, 635, 636, 637, 638, 639, 640, 641, 642, 643, 644, 645, 646, 647, 648, 649, 650, 651, 652, 653, 654, 655, 656, 657, 658, 659, 660, 661, 662, 663, 664, 665, 666, 667, 668, 669, 670, 671, 672, 673, 674, 675, 676, 677, 678, 679, 680, 681, 682, 683, 684, 685, 686, 687, 688, 689, 690, 691, 692, 693, 694, 695, 696, 697, 698, 699, 700, 701, 702, 703, 704, 705, 706, 707, 708, 709, 710, 711, 712, 713, 714, 715, 716, 717, 718, 719, 720, 721, 722, 723, 724, 725, 726, 727, 728, 729, 730, 731, 732, 733, 734, 735, 736, 737, 738, 739, 740, 741, 742, 743, 744, 745, 746, 747, 748, 749, 750, 751, 752, 753, 754, 755, 756, 757, 758, 759, 760, 761, 762, 763, 764, 765, 766, 767, 768, 769, 770, 771, 772, 773, 774, 775, 776, 777, 778, 779, 780, 781, 782, 783, 784, 785, 786, 787, 788, 789, 790, 791, 792, 793, 794, 795, 796, 797, 798, 799, 800, 801, 802, 803, 804, 805, 806, 807, 808, 809, 810, 811, 812, 813, 814, 815, 816, 817, 818, 819, 820, 821, 822, 823, 824, 825, 826, 827, 828, 829, 830, 831, 832, 833, 834, 835, 836, 837, 838, 839, 840, 841, 842, 843, 844, 845, 846, 847, 848, 849, 850, 851, 852, 853, 854, 855, 856, 857, 858, 859, 860, 861, 862, 863, 864, 865, 866, 867, 868, 869, 870, 871, 872],
      "AcquisitionTime": ["094514.797500", "094515.257500", "094515.717500", "094516.177500", "094516.637500", "094517.097500", "094517.557500", "094518.017500", "094518.477500", "094518.937500", "094519.397500", "094519.857500", "094520.317500", "094520.777500", "094521.237500", "094521.697500", "094522.157500", "094522.617500", "094523.077500", "094523.537500", "094523.997500", "094524.457500", "094524.917500", "094525.377500", "094525.837500", "094526.297500", "094526.757500", "094527.217500", "094527.677500", "094528.137500", "094528.597500", "094529.057500", "094529.517500", "094529.977500", "094530.437500", "094530.897500", "094531.357500", "094531.817500", "094532.277500", "094532.737500", "094533.197500", "094533.657500", "094534.117500", "094534.577500", "094535.037500", "094535.497500", "094535.957500", "094536.417500", "094536.877500", "094537.337500", "094537.797500", "094538.257500", "094538.717500", "094539.177500", "094539.637500", "094540.097500", "094540.557500", "094541.017500", "094541.477500", "094541.937500", "094542.397500", "094542.857500", "094543.317500", "094543.777500", "094544.237500", "094544.697500", "094545.157500", "094545.617500", "094546.077500", "094546.537500", "094546.997500", "094547.457500", "094547.917500", "094548.377500", "094548.837500", "094549.297500", "094549.757500", "094550.217500", "094550.677500", "094551.137500", "094551.597500", "094552.057500", "094552.517500", "094552.977500", "094553.437500", "094553.897500", "094554.357500", "094554.817500", "094555.277500", "094555.737500", "094556.197500", "094556.657500", "094557.117500", "094557.577500", "094558.037500", "094558.497500", "094558.957500", "094559.417500", "094559.877500", "094600.337500", "094600.797500", "094601.257500", "094601.717500", "094602.177500", "094602.637500", "094603.097500", "094603.557500", "094604.017500", "094604.477500", "094604.937500", "094605.397500", "094605.857500", "094606.317500", "094606.777500", "094607.237500", "094607.697500", "094608.157500", "094608.617500", "094609.077500", "094609.537500", "094609.997500", "094610.457500", "094610.917500", "094611.377500", "094611.837500", "094612.297500", "094612.757500", "094613.217500", "094613.677500", "094614.137500", "094614.597500", "094615.057500", "094615.517500", "094615.977500", "094616.437500", "094616.897500", "094617.357500", "094617.817500", "094618.277500", "094618.737500", "094619.197500", "094619.657500", "094620.117500", "094620.577500", "094621.037500", "094621.497500", "094621.957500", "094622.417500", "094622.877500", "094623.337500", "094623.797500", "094624.257500", "094624.717500", "094625.177500", "094625.637500", "094626.097500", "094626.557500", "094627.017500", "094627.477500", "094627.937500", "094628.397500", "094628.857500", "094629.317500", "094629.777500", "094630.237500", "094630.697500", "094631.157500", "094631.617500", "094632.077500", "094632.537500", "094632.997500", "094633.457500", "094633.917500", "094634.377500", "094634.837500", "094635.297500", "094635.757500", "094636.217500", "094636.677500", "094637.137500", "094637.597500", "094638.057500", "094638.517500", "094638.977500", "094639.437500", "094639.897500", "094640.357500", "094640.817500", "094641.277500", "094641.737500", "094642.197500", "094642.657500", "094643.117500", "094643.577500", "094644.037500", "094644.497500", "094644.957500", "094645.417500", "094645.877500", "094646.337500", "094646.797500", "094647.257500", "094647.717500", "094648.177500", "094648.637500", "094649.097500", "094649.557500", "094650.017500", "094650.477500", "094650.937500", "094651.397500", "094651.857500", "094652.317500", "094652.777500", "094653.237500", "094653.697500", "094654.157500", "094654.617500", "094655.077500", "094655.537500", "094655.997500", "094656.457500", "094656.917500", "094657.377500", "094657.837500", "094658.297500", "094658.757500", "094659.217500", "094659.677500", "094700.137500", "094700.597500", "094701.057500", "094701.517500", "094701.977500", "094702.437500", "094702.897500", "094703.357500", "094703.817500", "094704.277500", "094704.737500", "094705.197500", "094705.657500", "094706.117500", "094706.577500", "094707.037500", "094707.497500", "094707.957500", "094708.417500", "094708.877500", "094709.337500", "094709.797500", "094710.257500", "094710.717500", "094711.177500", "094711.637500", "094712.097500", "094712.557500", "094713.017500", "094713.477500", "094713.937500", "094714.397500", "094714.857500", "094715.317500", "094715.777500", "094716.237500", "094716.697500", "094717.157500", "094717.617500", "094718.077500", "094718.537500", "094718.997500", "094719.457500", "094719.917500", "094720.377500", "094720.837500", "094721.297500", "094721.757500", "094722.217500", "094722.677500", "094723.137500", "094723.597500", "094724.057500", "094724.517500", "094724.977500", "094725.437500", "094725.897500", "094726.357500", "094726.817500", "094727.277500", "094727.737500", "094728.197500", "094728.657500", "094729.117500", "094729.577500", "094730.037500", "094730.497500", "094730.957500", "094731.417500", "094731.877500", "094732.337500", "094732.797500", "094733.257500", "094733.717500", "094734.177500", "094734.637500", "094735.097500", "094735.557500", "094736.017500", "094736.477500", "094736.937500", "094737.397500", "094737.857500", "094738.317500", "094738.777500", "094739.237500", "094739.697500", "094740.157500", "094740.617500", "094741.077500", "094741.537500", "094741.997500", "094742.457500", "094742.917500", "094743.377500", "094743.837500", "094744.297500", "094744.757500", "094745.217500", "094745.677500", "094746.137500", "094746.597500", "094747.057500", "094747.517500", "094747.977500", "094748.437500", "094748.897500", "094749.357500", "094749.817500", "094750.277500", "094750.737500", "094751.197500", "094751.657500", "094752.117500", "094752.577500", "094753.037500", "094753.497500", "094753.957500", "094754.417500", "094754.877500", "094755.337500", "094755.797500", "094756.257500", "094756.717500", "094757.177500", "094757.637500", "094758.097500", "094758.557500", "094759.017500", "094759.477500", "094759.937500", "094800.397500", "094800.857500", "094801.317500", "094801.777500", "094802.237500", "094802.697500", "094803.157500", "094803.617500", "094804.077500", "094804.537500", "094804.997500", "094805.457500", "094805.917500", "094806.377500", "094806.837500", "094807.297500", "094807.757500", "094808.217500", "094808.677500", "094809.137500", "094809.597500", "094810.057500", "094810.517500", "094810.977500", "094811.437500", "094811.897500", "094812.357500", "094812.817500", "094813.277500", "094813.737500", "094814.197500", "094814.657500", "094815.117500", "094815.577500", "094816.037500", "094816.497500", "094816.957500", "094817.417500", "094817.877500", "094818.337500", "094818.797500", "094819.257500", "094819.717500", "094820.177500", "094820.637500", "094821.097500", "094821.557500", "094822.017500", "094822.477500", "094822.937500", "094823.397500", "094823.857500", "094824.317500", "094824.777500", "094825.237500", "094825.697500", "094826.157500", "094826.617500", "094827.077500", "094827.537500", "094827.997500", "094828.457500", "094828.917500", "094829.377500", "094829.837500", "094830.297500", "094830.757500", "094831.217500", "094831.677500", "094832.137500", "094832.597500", "094833.057500", "094833.517500", "094833.977500", "094834.437500", "094834.897500", "094835.357500", "094835.817500", "094836.277500", "094836.737500", "094837.197500", "094837.657500", "094838.117500", "094838.577500", "094839.037500", "094839.497500", "094839.957500", "094840.417500", "094840.877500", "094841.337500", "094841.797500", "094842.257500", "094842.717500", "094843.177500", "094843.637500", "094844.097500", "094844.557500", "094845.017500", "094845.477500", "094845.937500", "094846.397500", "094846.857500", "094847.317500", "094847.777500", "094848.237500", "094848.697500", "094849.157500", "094849.617500", "094850.077500", "094850.537500", "094850.997500", "094851.457500", "094851.917500", "094852.377500", "094852.837500", "094853.297500", "094853.757500", "094854.217500", "094854.677500", "094855.137500", "094855.597500", "094856.057500", "094856.517500", "094856.977500", "094857.437500", "094857.897500", "094858.357500", "094858.817500", "094859.277500", "094859.737500", "094900.197500", "094900.657500", "094901.117500", "094901.577500", "094902.037500", "094902.497500", "094902.957500", "094903.417500", "094903.877500", "094904.337500", "094904.797500", "094905.257500", "094905.717500", "094906.177500", "094906.637500", "094907.097500", "094907.557500", "094908.017500", "094908.477500", "094908.937500", "094909.397500", "094909.857500", "094910.317500", "094910.777500", "094911.237500", "094911.697500", "094912.157500", "094912.617500", "094913.077500", "094913.537500", "094913.997500", "094914.457500", "094914.917500", "094915.377500", "094915.837500", "094916.297500", "094916.757500", "094917.217500", "094917.677500", "094918.137500", "094918.597500", "094919.057500", "094919.517500", "094919.977500", "094920.437500", "094920.897500", "094921.357500", "094921.817500", "094922.277500", "094922.737500", "094923.197500", "094923.657500", "094924.117500", "094924.577500", "094925.037500", "094925.497500", "094925.957500", "094926.417500", "094926.877500", "094927.337500", "094927.797500", "094928.257500", "094928.717500", "094929.177500", "094929.637500", "094930.097500", "094930.557500", "094931.017500", "094931.477500", "094931.937500", "094932.397500", "094932.857500", "094933.317500", "094933.777500", "094934.237500", "094934.697500", "094935.157500", "094935.617500", "094936.077500", "094936.537500", "094936.997500", "094937.457500", "094937.917500", "094938.377500", "094938.837500", "094939.297500", "094939.757500", "094940.217500", "094940.677500", "094941.137500", "094941.597500", "094942.057500", "094942.517500", "094942.977500", "094943.437500", "094943.897500", "094944.357500", "094944.817500", "094945.277500", "094945.737500", "094946.197500", "094946.657500", "094947.117500", "094947.577500", "094948.037500", "094948.497500", "094948.957500", "094949.417500", "094949.877500", "094950.337500", "094950.797500", "094951.257500", "094951.717500", "094952.177500", "094952.637500", "094953.097500", "094953.557500", "094954.017500", "094954.477500", "094954.937500", "094955.397500", "094955.857500", "094956.317500", "094956.777500", "094957.237500", "094957.697500", "094958.157500", "094958.617500", "094959.077500", "094959.537500", "094959.997500", "095000.457500", "095000.917500", "095001.377500", "095001.837500", "095002.297500", "095002.757500", "095003.217500", "095003.677500", "095004.137500", "095004.597500", "095005.057500", "095005.517500", "095005.977500", "095006.437500", "095006.897500", "095007.357500", "095007.817500", "095008.277500", "095008.737500", "095009.197500", "095009.657500", "095010.117500", "095010.577500", "095011.037500", "095011.497500", "095011.957500", "095012.417500", "095012.877500", "095013.337500", "095013.797500", "095014.257500", "095014.717500", "095015.177500", "095015.637500", "095016.097500", "095016.557500", "095017.017500", "095017.477500", "095017.937500", "095018.397500", "095018.857500", "095019.317500", "095019.777500", "095020.237500", "095020.697500", "095021.157500", "095021.617500", "095022.077500", "095022.537500", "095022.997500", "095023.457500", "095023.917500", "095024.377500", "095024.837500", "095025.297500", "095025.757500", "095026.217500", "095026.677500", "095027.137500", "095027.597500", "095028.057500", "095028.517500", "095028.977500", "095029.437500", "095029.897500", "095030.357500", "095030.817500", "095031.277500", "095031.737500", "095032.197500", "095032.657500", "095033.117500", "095033.577500", "095034.037500", "095034.497500", "095034.957500", "095035.417500", "095035.877500", "095036.337500", "095036.797500", "095037.257500", "095037.717500", "095038.177500", "095038.637500", "095039.097500", "095039.557500", "095040.017500", "095040.477500", "095040.937500", "095041.397500", "095041.857500", "095042.317500", "095042.777500", "095043.237500", "095043.697500", "095044.157500", "095044.617500", "095045.077500", "095045.537500", "095045.997500", "095046.457500", "095046.917500", "095047.377500", "095047.837500", "095048.297500", "095048.757500", "095049.217500", "095049.677500", "095050.137500", "095050.597500", "095051.057500", "095051.517500", "095051.977500", "095052.437500", "095052.897500", "095053.357500", "095053.817500", "095054.277500", "095054.737500", "095055.197500", "095055.657500", "095056.117500", "095056.577500", "095057.037500", "095057.497500", "095057.957500", "095058.417500", "095058.877500", "095059.337500", "095059.797500", "095100.257500", "095100.717500", "095101.177500", "095101.637500", "095102.097500", "095102.557500", "095103.017500", "095103.477500", "095103.937500", "095104.397500", "095104.857500", "095105.317500", "095105.777500", "095106.237500", "095106.697500", "095107.157500", "095107.617500", "095108.077500", "095108.537500", "095108.997500", "095109.457500", "095109.917500", "095110.377500", "095110.837500", "095111.297500", "095111.757500", "095112.217500", "095112.677500", "095113.137500", "095113.597500", "095114.057500", "095114.517500", "095114.977500", "095115.437500", "095115.897500", "095116.357500", "095116.817500", "095117.277500", "095117.737500", "095118.197500", "095118.657500", "095119.117500", "095119.577500", "095120.037500", "095120.497500", "095120.957500", "095121.417500", "095121.877500", "095122.337500", "095122.797500", "095123.257500", "095123.717500", "095124.177500", "095124.637500", "095125.097500", "095125.557500", "095126.017500", "095126.477500", "095126.937500", "095127.397500", "095127.857500", "095128.317500", "095128.777500", "095129.237500", "095129.697500", "095130.157500", "095130.617500", "095131.077500", "095131.537500", "095131.997500", "095132.457500", "095132.917500", "095133.377500", "095133.837500", "095134.297500", "095134.757500", "095135.217500", "095135.677500", "095136.137500", "095136.597500", "095137.057500", "095137.517500", "095137.977500", "095138.437500", "095138.897500", "095139.357500", "095139.817500", "095140.277500", "095140.737500", "095141.197500", "095141.657500", "095142.117500", "095142.577500", "095143.037500", "095143.497500", "095143.957500", "095144.417500", "095144.877500", "095145.337500", "095145.797500", "095146.257500", "095146.717500", "095147.177500", "095147.637500", "095148.097500", "095148.557500", "095149.017500", "095149.477500", "095149.937500", "095150.397500", "095150.857500", "095151.317500", "095151.777500", "095152.237500", "095152.697500", "095153.157500", "095153.617500", "095154.077500", "095154.537500", "095154.997500", "095155.457500"],
