{
  "AcquisitionMatrixPE": 82,
  "AcquisitionNumber": 1,
  "AcquisitionTime": "12:57:31.062500",
  "BandwidthPerPixelPhaseEncode": 24.888,
  "BaseResolution": 82,
  "BodyPartExamined": "BRAIN",
  "ConsistencyInfo": "N4_VE11C_LATEST_20160120",
  "ConversionSoftware": "dcm2niix",
  "ConversionSoftwareVersion": "v1.0.20201102",
  "DerivedVendorReportedEchoSpacing": 0.00049,
  "DeviceSerialNumber": "66112",
  "DwellTime": 2e-06,
  "EchoTime": 0.0272,
  "EchoTrainLength": 82,
  "EffectiveEchoSpacing": 0.00049,
  "FlipAngle": 44,
  "ImageComments": "Unaliased MB8/PE3",
  "ImageOrientationPatientDICOM": [0.999594, -0.0200192, -0.0202672, 0.0211131, 0.998248, 0.0552821],
  "ImageType": [
    "ORIGINAL",
    "PRIMARY",
    "M",
    "MB",
    "ND",
    "NORM",
    "MOSAIC"
],
  "ImagingFrequency": 123.252,
  "InPlanePhaseEncodingDirectionDICOM": "COL",
  "InstitutionAddress": "Maynard 3,Hanover,NH,US,03755",
  "InstitutionName": "Dartmouth College - PBS",
  "InstitutionalDepartmentName": "Department",
  "MRAcquisitionType": "2D",
  "MagneticFieldStrength": 3,
  "Manufacturer": "Siemens",
  "ManufacturersModelName": "Prisma",
  "Modality": "MR",
  "MultibandAccelerationFactor": 8,
  "PartialFourier": 1,
  "PatientPosition": "HFS",
  "PercentPhaseFOV": 100,
  "PercentSampling": 100,
  "PhaseEncodingDirection": "j-",
  "PhaseEncodingSteps": 82,
  "PhaseResolution": 1,
  "PixelBandwidth": 3050,
  "ProcedureStepDescription": "Wager_Wager^1076_spacetop",
  "ProtocolName": "func_run-03_task-social_acq-ap-mb8",
  "PulseSequenceDetails": "%CustomerSeq%\\cmrr_mbep2d_bold",
  "ReceiveCoilActiveElements": "HEA;HEP",
  "ReceiveCoilName": "Head_32",
  "ReconMatrixPE": 82,
  "RepetitionTime": 0.46,
  "SAR": 0.0934135,
  "ScanOptions": "FS",
  "ScanningSequence": "EP",
  "SequenceName": "epfid2d1_82",
  "SequenceVariant": "SK\\SS",
  "SeriesDescription": "func_run-03_task-social_acq-ap-mb8",
  "SeriesNumber": 18,
  "ShimSetting": [4152, -7774, -7251, 586, -38, -177, -36, 98],
  "SliceThickness": 2.7,
  "SliceTiming": [0, 0.25, 0.0625, 0.3125, 0.125, 0.375, 0.1875, 0, 0.25, 0.0625, 0.3125, 0.125, 0.375, 0.1875, 0, 0.25, 0.0625, 0.3125, 0.125, 0.375, 0.1875, 0, 0.25, 0.0625, 0.3125, 0.125, 0.375, 0.1875, 0, 0.25, 0.0625, 0.3125, 0.125, 0.375, 0.1875, 0, 0.25, 0.0625, 0.3125, 0.125, 0.375, 0.1875, 0, 0.25, 0.0625, 0.3125, 0.125, 0.375, 0.1875, 0, 0.25, 0.0625, 0.3125, 0.125, 0.375, 0.1875],
  "SoftwareVersions": "syngo MR E11",
  "SpacingBetweenSlices": 2.7,
  "StationName": "AWP66112",
  "TaskName": "social",
  "TotalReadoutTime": 0.03969,
  "TxRefAmp": 236.691,
  "WipMemBlock": "6a74297a-bfd3-4e7c-82bf-9839e20811a4||Sequence: R016 ve11c/master r/e634e98; Dec 19 2017 11:00:25 by eja",
  "dcmmeta_affine": [
    [-2.681838035583496, 0.056644923985004425, -0.05163734778761864, 112.11214447021484],
    [0.053710080683231354, 2.678225040435791, 0.15035638213157654, -93.75604248046875],
    [-0.05437532067298889, -0.14831778407096863, 2.6953155994415283, -63.75754165649414],
    [0.0, 0.0, 0.0, 1.0]
],
  "dcmmeta_reorient_transform": [
    [0.0, -1.0, 0.0, 81.0],
    [1.0, 0.0, 0.0, 0.0],
    [0.0, 0.0, 1.0, 0.0],
    [0.0, 0.0, 0.0, 1.0]
],
  "dcmmeta_shape": [82, 82, 56, 335],
  "dcmmeta_slice_dim": 2,
  "dcmmeta_version": 0.6,
  "global": {
    "const": {
      "AccessionNumber": "A003547",
      "AcquisitionMatrix": [82, 0, 0, 82],
      "AngioFlag": "N",
      "BitsAllocated": 16,
      "BitsStored": 16,
      "BodyPartExamined": "BRAIN",
      "Columns": 656,
      "EchoNumbers": 1,
      "EchoTime": 27.2,
      "EchoTrainLength": 82,
      "FlipAngle": 44.0,
      "HighBit": 15,
      "ImageOrientationPatient": [0.99959415426232, -0.020019211367, -0.0202671641045, 0.02111310797362, 0.99824752842787, 0.05528208262492],
      "ImagePositionPatient": [-902.64499337874, -876.41601373351, -102.73276862002],
      "ImageType": [
        "ORIGINAL",
        "PRIMARY",
        "M",
        "MB",
        "ND",
        "NORM",
        "MOSAIC"
],
      "ImagedNucleus": "1H",
      "ImagingFrequency": 123.252165,
      "InPlanePhaseEncodingDirection": "COL",
      "MRAcquisitionType": "2D",
      "MagneticFieldStrength": 3.0,
      "Manufacturer": "SIEMENS",
      "ManufacturerModelName": "Prisma",
      "Modality": "MR",
      "NumberOfAverages": 1.0,
      "NumberOfPhaseEncodingSteps": 82,
      "PercentPhaseFieldOfView": 100.0,
      "PercentSampling": 100.0,
      "PerformedProcedureStepStartTime": "114447.661000",
      "PhotometricInterpretation": "MONOCHROME2",
      "PixelBandwidth": 3050.0,
      "PixelRepresentation": 0,
      "PixelSpacing": [2.6829268932343, 2.6829268932343],
      "ProtocolName": "func_run-03_task-social_acq-ap-mb8",
      "RepetitionTime": 460.0,
      "Rows": 656,
      "SAR": 0.09341351550066,
      "SamplesPerPixel": 1,
      "ScanOptions": "FS",
      "ScanningSequence": "EP",
      "SequenceName": "epfid2d1_82",
      "SequenceVariant": [
        "SK",
        "SS"
],
      "SeriesDescription": "func_run-03_task-social_acq-ap-mb8",
      "SeriesNumber": 18,
      "SeriesTime": "125745.603000",
      "SliceLocation": -71.012107347574,
      "SliceThickness": 2.7000000476837,
      "SmallestImagePixelValue": 0,
      "SoftwareVersions": "syngo MR E11",
      "SpacingBetweenSlices": 2.7000000238066,
      "SpecificCharacterSet": "ISO_IR 100",
      "StudyID": "1",
      "StudyTime": "114447.592000",
      "TransmitCoilName": "Body",
      "VariableFlipAngleFlag": "N",
      "WindowCenterWidthExplanation": "Algo1",
      "dBdt": 0.0},
    "slices": {}
  },
  "time": {
    "samples": {
      "AcquisitionNumber": [1, 2, 3, 4, 5, 6, 7, 8, 9, 10, 11, 12, 13, 14, 15, 16, 17, 18, 19, 20, 21, 22, 23, 24, 25, 26, 27, 28, 29, 30, 31, 32, 33, 34, 35, 36, 37, 38, 39, 40, 41, 42, 43, 44, 45, 46, 47, 48, 49, 50, 51, 52, 53, 54, 55, 56, 57, 58, 59, 60, 61, 62, 63, 64, 65, 66, 67, 68, 69, 70, 71, 72, 73, 74, 75, 76, 77, 78, 79, 80, 81, 82, 83, 84, 85, 86, 87, 88, 89, 90, 91, 92, 93, 94, 95, 96, 97, 98, 99, 100, 101, 102, 103, 104, 105, 106, 107, 108, 109, 110, 111, 112, 113, 114, 115, 116, 117, 118, 119, 120, 121, 122, 123, 124, 125, 126, 127, 128, 129, 130, 131, 132, 133, 134, 135, 136, 137, 138, 139, 140, 141, 142, 143, 144, 145, 146, 147, 148, 149, 150, 151, 152, 153, 154, 155, 156, 157, 158, 159, 160, 161, 162, 163, 164, 165, 166, 167, 168, 169, 170, 171, 172, 173, 174, 175, 176, 177, 178, 179, 180, 181, 182, 183, 184, 185, 186, 187, 188, 189, 190, 191, 192, 193, 194, 195, 196, 197, 198, 199, 200, 201, 202, 203, 204, 205, 206, 207, 208, 209, 210, 211, 212, 213, 214, 215, 216, 217, 218, 219, 220, 221, 222, 223, 224, 225, 226, 227, 228, 229, 230, 231, 232, 233, 234, 235, 236, 237, 238, 239, 240, 241, 242, 243, 244, 245, 246, 247, 248, 249, 250, 251, 252, 253, 254, 255, 256, 257, 258, 259, 260, 261, 262, 263, 264, 265, 266, 267, 268, 269, 270, 271, 272, 273, 274, 275, 276, 277, 278, 279, 280, 281, 282, 283, 284, 285, 286, 287, 288, 289, 290, 291, 292, 293, 294, 295, 296, 297, 298, 299, 300, 301, 302, 303, 304, 305, 306, 307, 308, 309, 310, 311, 312, 313, 314, 315, 316, 317, 318, 319, 320, 321, 322, 323, 324, 325, 326, 327, 328, 329, 330, 331, 332, 333, 334, 335],
      "AcquisitionTime": ["125731.062500", "125731.522500", "125731.982500", "125732.442500", "125732.902500", "125733.362500", "125733.822500", "125734.282500", "125734.742500", "125735.202500", "125735.662500", "125736.122500", "125736.582500", "125737.042500", "125737.502500", "125737.962500", "125738.422500", "125738.882500", "125739.342500", "125739.802500", "125740.262500", "125740.722500", "125741.182500", "125741.642500", "125742.102500", "125742.562500", "125743.022500", "125743.482500", "125743.942500", "125744.402500", "125744.862500", "125745.322500", "125745.782500", "125746.242500", "125746.702500", "125747.162500", "125747.622500", "125748.082500", "125748.542500", "125749.002500", "125749.462500", "125749.922500", "125750.382500", "125750.842500", "125751.302500", "125751.762500", "125752.222500", "125752.682500", "125753.142500", "125753.602500", "125754.062500", "125754.522500", "125754.982500", "125755.442500", "125755.902500", "125756.362500", "125756.822500", "125757.282500", "125757.742500", "125758.202500", "125758.662500", "125759.122500", "125759.582500", "125800.042500", "125800.502500", "125800.962500", "125801.422500", "125801.882500", "125802.342500", "125802.802500", "125803.262500", "125803.722500", "125804.182500", "125804.642500", "125805.102500", "125805.562500", "125806.022500", "125806.482500", "125806.942500", "125807.402500", "125807.862500", "125808.322500", "125808.782500", "125809.242500", "125809.702500", "125810.162500", "125810.622500", "125811.082500", "125811.542500", "125812.002500", "125812.462500", "125812.922500", "125813.382500", "125813.842500", "125814.302500", "125814.762500", "125815.222500", "125815.682500", "125816.142500", "125816.602500", "125817.062500", "125817.522500", "125817.982500", "125818.442500", "125818.902500", "125819.362500", "125819.822500", "125820.282500", "125820.742500", "125821.202500", "125821.662500", "125822.122500", "125822.582500", "125823.042500", "125823.502500", "125823.962500", "125824.422500", "125824.882500", "125825.342500", "125825.802500", "125826.262500", "125826.722500", "125827.182500", "125827.642500", "125828.102500", "125828.562500", "125829.022500", "125829.482500", "125829.942500", "125830.402500", "125830.862500", "125831.322500", "125831.782500", "125832.242500", "125832.702500", "125833.162500", "125833.622500", "125834.082500", "125834.542500", "125835.002500", "125835.462500", "125835.922500", "125836.382500", "125836.842500", "125837.302500", "125837.762500", "125838.222500", "125838.682500", "125839.142500", "125839.602500", "125840.062500", "125840.522500", "125840.982500", "125841.442500", "125841.902500", "125842.362500", "125842.822500", "125843.282500", "125843.742500", "125844.202500", "125844.662500", "125845.122500", "125845.582500", "125846.042500", "125846.502500", "125846.962500", "125847.422500", "125847.882500", "125848.342500", "125848.802500", "125849.262500", "125849.722500", "125850.182500", "125850.642500", "125851.102500", "125851.562500", "125852.022500", "125852.482500", "125852.942500", "125853.402500", "125853.862500", "125854.322500", "125854.782500", "125855.242500", "125855.702500", "125856.162500", "125856.622500", "125857.082500", "125857.542500", "125858.002500", "125858.462500", "125858.922500", "125859.382500", "125859.842500", "125900.302500", "125900.762500", "125901.222500", "125901.682500", "125902.142500", "125902.602500", "125903.062500", "125903.522500", "125903.982500", "125904.442500", "125904.902500", "125905.362500", "125905.822500", "125906.282500", "125906.742500", "125907.202500", "125907.662500", "125908.122500", "125908.582500", "125909.042500", "125909.502500", "125909.962500", "125910.422500", "125910.882500", "125911.342500", "125911.802500", "125912.262500", "125912.722500", "125913.182500", "125913.642500", "125914.102500", "125914.562500", "125915.022500", "125915.482500", "125915.942500", "125916.402500", "125916.862500", "125917.322500", "125917.782500", "125918.242500", "125918.702500", "125919.162500", "125919.622500", "125920.082500", "125920.542500", "125921.002500", "125921.462500", "125921.922500", "125922.382500", "125922.842500", "125923.302500", "125923.762500", "125924.222500", "125924.682500", "125925.142500", "125925.602500", "125926.062500", "125926.522500", "125926.982500", "125927.442500", "125927.902500", "125928.362500", "125928.822500", "125929.282500", "125929.742500", "125930.202500", "125930.662500", "125931.122500", "125931.582500", "125932.042500", "125932.502500", "125932.962500", "125933.422500", "125933.882500", "125934.342500", "125934.802500", "125935.262500", "125935.722500", "125936.182500", "125936.642500", "125937.102500", "125937.562500", "125938.022500", "125938.482500", "125938.942500", "125939.402500", "125939.862500", "125940.322500", "125940.782500", "125941.242500", "125941.702500", "125942.162500", "125942.622500", "125943.082500", "125943.542500", "125944.002500", "125944.462500", "125944.922500", "125945.382500", "125945.842500", "125946.302500", "125946.762500", "125947.222500", "125947.682500", "125948.142500", "125948.602500", "125949.062500", "125949.522500", "125949.982500", "125950.442500", "125950.902500", "125951.362500", "125951.822500", "125952.282500", "125952.742500", "125953.202500", "125953.662500", "125954.122500", "125954.582500", "125955.042500", "125955.502500", "125955.962500", "125956.422500", "125956.882500", "125957.342500", "125957.802500", "125958.262500", "125958.722500", "125959.182500", "125959.642500", "130000.102500", "130000.562500", "130001.022500", "130001.482500", "130001.942500", "130002.402500", "130002.862500", "130003.322500", "130003.782500", "130004.242500", "130004.702500"],
      "ContentTime": ["125745.606000", "125745.609000", "125745.612000", "125745.615000", "125745.618000", "125745.625000", "125745.628000", "125745.630000", "125745.633000", "125745.636000", "125745.639000", "125745.642000", "125745.645000", "125745.648000", "125745.651000", "125745.653000", "125745.656000", "125745.659000", "125745.662000", "125745.665000", "125745.668000", "125745.671000", "125745.674000", "125745.676000", "125745.679000", "125745.682000", "125745.693000", "125745.696000", "125745.699000", "125745.702000", "125805.573000", "125805.576000", "125805.579000", "125805.582000", "125805.585000", "125805.587000", "125805.590000", "125805.593000", "125805.596000", "125805.599000", "125805.602000", "125805.605000", "125805.608000", "125805.611000", "125805.613000", "125805.616000", "125805.619000", "125805.622000", "125805.625000", "125805.628000", "125805.631000", "125805.633000", "125805.636000", "125805.639000", "125805.642000", "125805.645000", "125805.648000", "125805.651000", "125805.654000", "125805.657000", "125805.659000", "125805.662000", "125805.665000", "125805.668000", "125805.671000", "125805.679000", "125805.682000", "125805.685000", "125805.688000", "125805.691000", "125805.694000", "125805.697000", "125805.700000", "125825.573000", "125825.576000", "125825.579000", "125825.582000", "125825.585000", "125825.588000", "125825.590000", "125825.593000", "125825.596000", "125825.599000", "125825.602000", "125825.605000", "125825.608000", "125825.611000", "125825.614000", "125825.617000", "125825.619000", "125825.622000", "125825.625000", "125825.628000", "125825.631000", "125825.634000", "125825.637000", "125825.640000", "125825.642000", "125825.645000", "125825.648000", "125825.651000", "125825.654000", "125825.657000", "125825.660000", "125825.663000", "125825.666000", "125825.668000", "125825.671000", "125825.674000", "125825.677000", "125825.680000", "125825.688000", "125825.691000", "125825.694000", "125825.697000", "125825.700000", "125825.703000", "125845.573000", "125845.576000", "125845.579000", "125845.582000", "125845.585000", "125845.588000", "125845.591000", "125845.594000", "125845.596000", "125845.599000", "125845.602000", "125845.605000", "125845.608000", "125845.611000", "125845.614000", "125845.616000", "125845.619000", "125845.622000", "125845.625000", "125845.628000", "125845.631000", "125845.634000", "125845.637000", "125845.640000", "125845.643000", "125845.645000", "125845.648000", "125845.651000", "125845.654000", "125845.657000", "125845.660000", "125845.663000", "125845.666000", "125845.669000", "125845.672000", "125845.674000", "125845.677000", "125845.680000", "125845.683000", "125845.687000", "125845.691000", "125845.693000", "125845.696000", "125905.574000", "125905.577000", "125905.580000", "125905.583000", "125905.586000", "125905.589000", "125905.592000", "125905.595000", "125905.598000", "125905.601000", "125905.604000", "125905.607000", "125905.609000", "125905.612000", "125905.615000", "125905.618000", "125905.621000", "125905.624000", "125905.627000", "125905.630000", "125905.632000", "125905.635000", "125905.638000", "125905.641000", "125905.644000", "125905.647000", "125905.650000", "125905.653000", "125905.656000", "125905.659000", "125905.662000", "125905.664000", "125905.686000", "125905.689000", "125905.692000", "125905.694000", "125905.697000", "125905.700000", "125905.703000", "125905.706000", "125905.709000", "125905.712000", "125905.715000", "125925.574000", "125925.577000", "125925.580000", "125925.583000", "125925.586000", "125925.589000", "125925.592000", "125925.594000", "125925.597000", "125925.600000", "125925.603000", "125925.606000", "125925.609000", "125925.612000", "125925.615000", "125925.618000", "125925.621000", "125925.624000", "125925.626000", "125925.629000", "125925.632000", "125925.635000", "125925.638000", "125925.641000", "125925.644000", "125925.647000", "125925.650000", "125925.652000", "125925.655000", "125925.658000", "125925.661000", "125925.664000", "125925.667000", "125925.670000", "125925.673000", "125925.676000", "125925.679000", "125925.681000", "125925.684000", "125925.687000", "125925.690000", "125925.693000", "125925.696000", "125925.699000", "125945.574000", "125945.577000", "125945.580000", "125945.583000", "125945.586000", "125945.589000", "125945.591000", "125945.594000", "125945.597000", "125945.600000", "125945.603000", "125945.606000", "125945.609000", "125945.612000", "125945.615000", "125945.618000", "125945.621000", "125945.624000", "125945.626000", "125945.629000", "125945.632000", "125945.635000", "125945.638000", "125945.641000", "125945.644000", "125945.647000", "125945.650000", "125945.653000", "125945.656000", "125945.659000", "125945.661000", "125945.664000", "125945.667000", "125945.670000", "125945.673000", "125945.676000", "125945.679000", "125945.682000", "125945.685000", "125945.688000", "125945.690000", "125945.693000", "125945.696000", "125945.699000", "130005.574000", "130005.577000", "130005.580000", "130005.583000", "130005.586000", "130005.589000", "130005.592000", "130005.594000", "130005.597000", "130005.600000", "130005.603000", "130005.606000", "130005.609000", "130005.612000", "130005.615000", "130005.618000", "130005.621000", "130005.624000", "130005.627000", "130005.630000", "130005.632000", "130005.635000", "130005.638000", "130005.641000", "130005.644000", "130005.647000", "130005.650000", "130005.653000", "130005.656000", "130005.659000", "130005.662000", "130005.664000", "130005.667000", "130005.670000", "130005.673000", "130005.676000", "130005.679000", "130005.682000", "130005.685000", "130005.688000", "130005.691000", "130005.693000", "130005.696000", "130005.955000"],
      "InstanceCreationTime": ["125745.606000", "125745.609000", "125745.612000", "125745.615000", "125745.618000", "125745.625000", "125745.628000", "125745.630000", "125745.633000", "125745.636000", "125745.639000", "125745.642000", "125745.645000", "125745.648000", "125745.651000", "125745.653000", "125745.656000", "125745.659000", "125745.662000", "125745.665000", "125745.668000", "125745.671000", "125745.674000", "125745.676000", "125745.679000", "125745.682000", "125745.693000", "125745.696000", "125745.699000", "125745.702000", "125805.573000", "125805.576000", "125805.579000", "125805.582000", "125805.585000", "125805.587000", "125805.590000", "125805.593000", "125805.596000", "125805.599000", "125805.602000", "125805.605000", "125805.608000", "125805.611000", "125805.613000", "125805.616000", "125805.619000", "125805.622000", "125805.625000", "125805.628000", "125805.631000", "125805.633000", "125805.636000", "125805.639000", "125805.642000", "125805.645000", "125805.648000", "125805.651000", "125805.654000", "125805.657000", "125805.659000", "125805.662000", "125805.665000", "125805.668000", "125805.671000", "125805.679000", "125805.682000", "125805.685000", "125805.688000", "125805.691000", "125805.694000", "125805.697000", "125805.700000", "125825.573000", "125825.576000", "125825.579000", "125825.582000", "125825.585000", "125825.588000", "125825.590000", "125825.593000", "125825.596000", "125825.599000", "125825.602000", "125825.605000", "125825.608000", "125825.611000", "125825.614000", "125825.617000", "125825.619000", "125825.622000", "125825.625000", "125825.628000", "125825.631000", "125825.634000", "125825.637000", "125825.640000", "125825.642000", "125825.645000", "125825.648000", "125825.651000", "125825.654000", "125825.657000", "125825.660000", "125825.663000", "125825.666000", "125825.668000", "125825.671000", "125825.674000", "125825.677000", "125825.680000", "125825.688000", "125825.691000", "125825.694000", "125825.697000", "125825.700000", "125825.703000", "125845.573000", "125845.576000", "125845.579000", "125845.582000", "125845.585000", "125845.588000", "125845.591000", "125845.594000", "125845.596000", "125845.599000", "125845.602000", "125845.605000", "125845.608000", "125845.611000", "125845.614000", "125845.616000", "125845.619000", "125845.622000", "125845.625000", "125845.628000", "125845.631000", "125845.634000", "125845.637000", "125845.640000", "125845.643000", "125845.645000", "125845.648000", "125845.651000", "125845.654000", "125845.657000", "125845.660000", "125845.663000", "125845.666000", "125845.669000", "125845.672000", "125845.674000", "125845.677000", "125845.680000", "125845.683000", "125845.687000", "125845.691000", "125845.693000", "125845.696000", "125905.574000", "125905.577000", "125905.580000", "125905.583000", "125905.586000", "125905.589000", "125905.592000", "125905.595000", "125905.598000", "125905.601000", "125905.604000", "125905.607000", "125905.609000", "125905.612000", "125905.615000", "125905.618000", "125905.621000", "125905.624000", "125905.627000", "125905.630000", "125905.632000", "125905.635000", "125905.638000", "125905.641000", "125905.644000", "125905.647000", "125905.650000", "125905.653000", "125905.656000", "125905.659000", "125905.662000", "125905.664000", "125905.686000", "125905.689000", "125905.692000", "125905.694000", "125905.697000", "125905.700000", "125905.703000", "125905.706000", "125905.709000", "125905.712000", "125905.715000", "125925.574000", "125925.577000", "125925.580000", "125925.583000", "125925.586000", "125925.589000", "125925.592000", "125925.594000", "125925.597000", "125925.600000", "125925.603000", "125925.606000", "125925.609000", "125925.612000", "125925.615000", "125925.618000", "125925.621000", "125925.624000", "125925.626000", "125925.629000", "125925.632000", "125925.635000", "125925.638000", "125925.641000", "125925.644000", "125925.647000", "125925.650000", "125925.652000", "125925.655000", "125925.658000", "125925.661000", "125925.664000", "125925.667000", "125925.670000", "125925.673000", "125925.676000", "125925.679000", "125925.681000", "125925.684000", "125925.687000", "125925.690000", "125925.693000", "125925.696000", "125925.699000", "125945.574000", "125945.577000", "125945.580000", "125945.583000", "125945.586000", "125945.589000", "125945.591000", "125945.594000", "125945.597000", "125945.600000", "125945.603000", "125945.606000", "125945.609000", "125945.612000", "125945.615000", "125945.618000", "125945.621000", "125945.624000", "125945.626000", "125945.629000", "125945.632000", "125945.635000", "125945.638000", "125945.641000", "125945.644000", "125945.647000", "125945.650000", "125945.653000", "125945.656000", "125945.659000", "125945.661000", "125945.664000", "125945.667000", "125945.670000", "125945.673000", "125945.676000", "125945.679000", "125945.682000", "125945.685000", "125945.688000", "125945.690000", "125945.693000", "125945.696000", "125945.699000", "130005.574000", "130005.577000", "130005.580000", "130005.583000", "130005.586000", "130005.589000", "130005.592000", "130005.594000", "130005.597000", "130005.600000", "130005.603000", "130005.606000", "130005.609000", "130005.612000", "130005.615000", "130005.618000", "130005.621000", "130005.624000", "130005.627000", "130005.630000", "130005.632000", "130005.635000", "130005.638000", "130005.641000", "130005.644000", "130005.647000", "130005.650000", "130005.653000", "130005.656000", "130005.659000", "130005.662000", "130005.664000", "130005.667000", "130005.670000", "130005.673000", "130005.676000", "130005.679000", "130005.682000", "130005.685000", "130005.688000", "130005.691000", "130005.693000", "130005.696000", "130005.955000"],
      "InstanceNumber": [1, 2, 3, 4, 5, 6, 7, 8, 9, 10, 11, 12, 13, 14, 15, 16, 17, 18, 19, 20, 21, 22, 23, 24, 25, 26, 27, 28, 29, 30, 31, 32, 33, 34, 35, 36, 37, 38, 39, 40, 41, 42, 43, 44, 45, 46, 47, 48, 49, 50, 51, 52, 53, 54, 55, 56, 57, 58, 59, 60, 61, 62, 63, 64, 65, 66, 67, 68, 69, 70, 71, 72, 73, 74, 75, 76, 77, 78, 79, 80, 81, 82, 83, 84, 85, 86, 87, 88, 89, 90, 91, 92, 93, 94, 95, 96, 97, 98, 99, 100, 101, 102, 103, 104, 105, 106, 107, 108, 109, 110, 111, 112, 113, 114, 115, 116, 117, 118, 119, 120, 121, 122, 123, 124, 125, 126, 127, 128, 129, 130, 131, 132, 133, 134, 135, 136, 137, 138, 139, 140, 141, 142, 143, 144, 145, 146, 147, 148, 149, 150, 151, 152, 153, 154, 155, 156, 157, 158, 159, 160, 161, 162, 163, 164, 165, 166, 167, 168, 169, 170, 171, 172, 173, 174, 175, 176, 177, 178, 179, 180, 181, 182, 183, 184, 185, 186, 187, 188, 189, 190, 191, 192, 193, 194, 195, 196, 197, 198, 199, 200, 201, 202, 203, 204, 205, 206, 207, 208, 209, 210, 211, 212, 213, 214, 215, 216, 217, 218, 219, 220, 221, 222, 223, 224, 225, 226, 227, 228, 229, 230, 231, 232, 233, 234, 235, 236, 237, 238, 239, 240, 241, 242, 243, 244, 245, 246, 247, 248, 249, 250, 251, 252, 253, 254, 255, 256, 257, 258, 259, 260, 261, 262, 263, 264, 265, 266, 267, 268, 269, 270, 271, 272, 273, 274, 275, 276, 277, 278, 279, 280, 281, 282, 283, 284, 285, 286, 287, 288, 289, 290, 291, 292, 293, 294, 295, 296, 297, 298, 299, 300, 301, 302, 303, 304, 305, 306, 307, 308, 309, 310, 311, 312, 313, 314, 315, 316, 317, 318, 319, 320, 321, 322, 323, 324, 325, 326, 327, 328, 329, 330, 331, 332, 333, 334, 335],
      "LargestImagePixelValue": [8362, 10158, 8121, 11579, 8628, 8681, 11850, 8411, 11701, 8208, 9678, 8469, 9821, 8269, 10057, 8161, 9863, 8245, 8087, 8518, 7872, 10837, 8369, 12899, 8275, 13692, 8383, 12902, 8388, 10195, 8311, 8247, 8677, 8541, 9754, 8119, 11630, 8102, 10914, 8392, 8642, 9187, 8519, 8733, 8858, 8553, 11428, 8548, 11265, 8407, 11158, 8313, 10737, 8316, 8438, 8307, 8235, 8799, 7775, 10141, 8499, 11972, 8370, 12267, 8309, 8131, 8288, 8253, 8699, 8375, 9061, 8793, 9136, 8467, 9215, 8317, 9912, 8524, 11025, 8446, 9999, 8566, 11432, 8440, 12252, 8314, 11850, 8540, 12292, 8386, 12079, 8419, 11539, 8279, 10655, 8426, 10561, 8582, 8556, 8466, 8053, 8466, 8588, 8435, 8647, 9356, 8620, 9448, 8401, 10173, 8430, 10749, 8376, 12744, 8500, 10130, 8466, 8754, 8780, 8780, 8847, 8930, 8755, 8727, 8871, 8239, 8951, 8535, 10657, 8414, 12468, 8460, 12057, 8451, 11521, 8632, 11254, 8570, 11022, 8585, 11213, 8520, 11338, 8381, 11695, 8592, 11955, 8338, 10706, 8462, 8427, 8353, 9098, 8475, 10484, 8383, 12381, 8467, 11510, 8420, 10159, 8503, 9860, 8141, 10227, 8589, 10327, 8810, 10950, 8727, 10447, 8672, 9211, 8685, 8908, 8533, 8431, 8115, 8428, 8352, 8114, 8501, 8315, 8425, 9023, 8506, 11433, 8569, 9347, 8611, 9285, 8658, 8697, 12043, 8799, 8383, 7969, 8502, 10057, 8840, 8454, 12623, 8631, 14035, 9412, 14263, 8368, 12281, 8384, 8393, 8346, 8333, 8452, 8559, 9489, 8453, 9644, 8550, 11510, 8312, 12270, 8510, 11155, 8802, 8924, 8461, 9091, 8628, 9186, 8252, 9172, 7798, 8733, 8134, 8263, 10083, 8323, 10248, 8269, 9822, 8189, 8808, 8243, 9133, 8165, 9134, 8370, 8047, 8505, 8271, 8284, 8606, 8885, 8879, 9528, 8628, 9521, 8706, 8493, 8486, 8245, 8227, 8201, 8067, 8208, 8622, 8431, 8148, 8356, 8611, 8360, 8208, 8334, 8092, 8410, 9530, 8532, 11709, 8292, 11549, 8197, 10929, 8256, 9936, 8681, 10838, 8659, 11533, 8507, 9357, 8618, 8634, 8423, 8992, 8318, 9616, 8388, 9785, 8480, 9646, 8616, 8683, 8732, 8255, 8598, 8569, 8223, 9273, 8410, 11541, 8290, 11720, 8309, 10911, 8350, 10026, 8462, 9673, 8434, 10149, 8329, 7771, 8442, 8104, 8366, 10769, 8326, 10359, 8547, 10197, 8345, 9856, 8501, 9333, 8196],
