{
  "AcquisitionMatrixPE": 82,
  "AcquisitionNumber": 1,
  "AcquisitionTime": "12:46:48.992500",
  "BandwidthPerPixelPhaseEncode": 24.888,
  "BaseResolution": 82,
  "BodyPartExamined": "BRAIN",
  "ConsistencyInfo": "N4_VE11C_LATEST_20160120",
  "ConversionSoftware": "dcm2niix",
  "ConversionSoftwareVersion": "v1.0.20201102",
  "DerivedVendorReportedEchoSpacing": 0.00049,
  "DeviceSerialNumber": "66112",
  "DwellTime": 2e-06,
  "EchoTime": 0.0272,
  "EchoTrainLength": 82,
  "EffectiveEchoSpacing": 0.00049,
  "FlipAngle": 44,
  "ImageComments": "Unaliased MB8/PE3",
  "ImageOrientationPatientDICOM": [0.999594, -0.0200192, -0.0202672, 0.0211131, 0.998248, 0.0552821],
  "ImageType": [
    "ORIGINAL",
    "PRIMARY",
    "M",
    "MB",
    "ND",
    "NORM",
    "MOSAIC"
],
  "ImagingFrequency": 123.252,
  "InPlanePhaseEncodingDirectionDICOM": "COL",
  "InstitutionAddress": "Maynard 3,Hanover,NH,US,03755",
  "InstitutionName": "Dartmouth College - PBS",
  "InstitutionalDepartmentName": "Department",
  "MRAcquisitionType": "2D",
  "MagneticFieldStrength": 3,
  "Manufacturer": "Siemens",
  "ManufacturersModelName": "Prisma",
  "Modality": "MR",
  "MultibandAccelerationFactor": 8,
  "PartialFourier": 1,
  "PatientPosition": "HFS",
  "PercentPhaseFOV": 100,
  "PercentSampling": 100,
  "PhaseEncodingDirection": "j-",
  "PhaseEncodingSteps": 82,
  "PhaseResolution": 1,
  "PixelBandwidth": 3050,
  "ProcedureStepDescription": "Wager_Wager^1076_spacetop",
  "ProtocolName": "func_run-02_task-social_acq-ap-mb8",
  "PulseSequenceDetails": "%CustomerSeq%\\cmrr_mbep2d_bold",
  "ReceiveCoilActiveElements": "HEA;HEP",
  "ReceiveCoilName": "Head_32",
  "ReconMatrixPE": 82,
  "RepetitionTime": 0.46,
  "SAR": 0.0934135,
  "ScanOptions": "FS",
  "ScanningSequence": "EP",
  "SequenceName": "epfid2d1_82",
  "SequenceVariant": "SK\\SS",
  "SeriesDescription": "func_run-02_task-social_acq-ap-mb8",
  "SeriesNumber": 14,
  "ShimSetting": [4152, -7774, -7251, 586, -38, -177, -36, 98],
  "SliceThickness": 2.7,
  "SliceTiming": [0, 0.2525, 0.0625, 0.315, 0.125, 0.3775, 0.1875, 0, 0.2525, 0.0625, 0.315, 0.125, 0.3775, 0.1875, 0, 0.2525, 0.0625, 0.315, 0.125, 0.3775, 0.1875, 0, 0.2525, 0.0625, 0.315, 0.125, 0.3775, 0.1875, 0, 0.2525, 0.0625, 0.315, 0.125, 0.3775, 0.1875, 0, 0.2525, 0.0625, 0.315, 0.125, 0.3775, 0.1875, 0, 0.2525, 0.0625, 0.315, 0.125, 0.3775, 0.1875, 0, 0.2525, 0.0625, 0.315, 0.125, 0.3775, 0.1875],
  "SoftwareVersions": "syngo MR E11",
  "SpacingBetweenSlices": 2.7,
  "StationName": "AWP66112",
  "TaskName": "social",
  "TotalReadoutTime": 0.03969,
  "TxRefAmp": 236.691,
  "WipMemBlock": "7360afe8-fbda-42f9-9d17-2e2f2be0a123||Sequence: R016 ve11c/master r/e634e98; Dec 19 2017 11:00:25 by eja",
  "dcmmeta_affine": [
    [-2.681838035583496, 0.056644923985004425, -0.05163734778761864, 112.11214447021484],
    [0.053710080683231354, 2.678225040435791, 0.15035638213157654, -93.75604248046875],
    [-0.05437532067298889, -0.14831778407096863, 2.6953155994415283, -63.75754165649414],
    [0.0, 0.0, 0.0, 1.0]
],
  "dcmmeta_reorient_transform": [
    [0.0, -1.0, 0.0, 81.0],
    [1.0, 0.0, 0.0, 0.0],
    [0.0, 0.0, 1.0, 0.0],
    [0.0, 0.0, 0.0, 1.0]
],
  "dcmmeta_shape": [82, 82, 56, 872],
  "dcmmeta_slice_dim": 2,
  "dcmmeta_version": 0.6,
  "global": {
    "const": {
      "AccessionNumber": "A003547",
      "AcquisitionMatrix": [82, 0, 0, 82],
      "AngioFlag": "N",
      "BitsAllocated": 16,
      "BitsStored": 16,
      "BodyPartExamined": "BRAIN",
      "Columns": 656,
      "EchoNumbers": 1,
      "EchoTime": 27.2,
      "EchoTrainLength": 82,
      "FlipAngle": 44.0,
      "HighBit": 15,
      "ImageOrientationPatient": [0.99959415426232, -0.020019211367, -0.0202671641045, 0.02111310797362, 0.99824752842787, 0.05528208262492],
      "ImagePositionPatient": [-902.64499337874, -876.41601373351, -102.73276862002],
      "ImageType": [
        "ORIGINAL",
        "PRIMARY",
        "M",
        "MB",
        "ND",
        "NORM",
        "MOSAIC"
],
      "ImagedNucleus": "1H",
      "ImagingFrequency": 123.252162,
      "InPlanePhaseEncodingDirection": "COL",
      "MRAcquisitionType": "2D",
      "MagneticFieldStrength": 3.0,
      "Manufacturer": "SIEMENS",
      "ManufacturerModelName": "Prisma",
      "Modality": "MR",
      "NumberOfAverages": 1.0,
      "NumberOfPhaseEncodingSteps": 82,
      "PercentPhaseFieldOfView": 100.0,
      "PercentSampling": 100.0,
      "PerformedProcedureStepStartTime": "114447.661000",
      "PhotometricInterpretation": "MONOCHROME2",
      "PixelBandwidth": 3050.0,
      "PixelRepresentation": 0,
      "PixelSpacing": [2.6829268932343, 2.6829268932343],
      "ProtocolName": "func_run-02_task-social_acq-ap-mb8",
      "RepetitionTime": 460.0,
      "Rows": 656,
      "SAR": 0.09341351550066,
      "SamplesPerPixel": 1,
      "ScanOptions": "FS",
      "ScanningSequence": "EP",
      "SequenceName": "epfid2d1_82",
      "SequenceVariant": [
        "SK",
        "SS"
],
      "SeriesDescription": "func_run-02_task-social_acq-ap-mb8",
      "SeriesNumber": 14,
      "SeriesTime": "124705.672000",
      "SliceLocation": -71.012107347574,
      "SliceThickness": 2.7000000476837,
      "SmallestImagePixelValue": 0,
      "SoftwareVersions": "syngo MR E11",
      "SpacingBetweenSlices": 2.7000000238066,
      "SpecificCharacterSet": "ISO_IR 100",
      "StudyID": "1",
      "StudyTime": "114447.592000",
      "TransmitCoilName": "Body",
      "VariableFlipAngleFlag": "N",
      "WindowCenterWidthExplanation": "Algo1",
      "dBdt": 0.0},
    "slices": {}
  },
  "time": {
    "samples": {
      "AcquisitionNumber": [1, 2, 3, 4, 5, 6, 7, 8, 9, 10, 11, 12, 13, 14, 15, 16, 17, 18, 19, 20, 21, 22, 23, 24, 25, 26, 27, 28, 29, 30, 31, 32, 33, 34, 35, 36, 37, 38, 39, 40, 41, 42, 43, 44, 45, 46, 47, 48, 49, 50, 51, 52, 53, 54, 55, 56, 57, 58, 59, 60, 61, 62, 63, 64, 65, 66, 67, 68, 69, 70, 71, 72, 73, 74, 75, 76, 77, 78, 79, 80, 81, 82, 83, 84, 85, 86, 87, 88, 89, 90, 91, 92, 93, 94, 95, 96, 97, 98, 99, 100, 101, 102, 103, 104, 105, 106, 107, 108, 109, 110, 111, 112, 113, 114, 115, 116, 117, 118, 119, 120, 121, 122, 123, 124, 125, 126, 127, 128, 129, 130, 131, 132, 133, 134, 135, 136, 137, 138, 139, 140, 141, 142, 143, 144, 145, 146, 147, 148, 149, 150, 151, 152, 153, 154, 155, 156, 157, 158, 159, 160, 161, 162, 163, 164, 165, 166, 167, 168, 169, 170, 171, 172, 173, 174, 175, 176, 177, 178, 179, 180, 181, 182, 183, 184, 185, 186, 187, 188, 189, 190, 191, 192, 193, 194, 195, 196, 197, 198, 199, 200, 201, 202, 203, 204, 205, 206, 207, 208, 209, 210, 211, 212, 213, 214, 215, 216, 217, 218, 219, 220, 221, 222, 223, 224, 225, 226, 227, 228, 229, 230, 231, 232, 233, 234, 235, 236, 237, 238, 239, 240, 241, 242, 243, 244, 245, 246, 247, 248, 249, 250, 251, 252, 253, 254, 255, 256, 257, 258, 259, 260, 261, 262, 263, 264, 265, 266, 267, 268, 269, 270, 271, 272, 273, 274, 275, 276, 277, 278, 279, 280, 281, 282, 283, 284, 285, 286, 287, 288, 289, 290, 291, 292, 293, 294, 295, 296, 297, 298, 299, 300, 301, 302, 303, 304, 305, 306, 307, 308, 309, 310, 311, 312, 313, 314, 315, 316, 317, 318, 319, 320, 321, 322, 323, 324, 325, 326, 327, 328, 329, 330, 331, 332, 333, 334, 335, 336, 337, 338, 339, 340, 341, 342, 343, 344, 345, 346, 347, 348, 349, 350, 351, 352, 353, 354, 355, 356, 357, 358, 359, 360, 361, 362, 363, 364, 365, 366, 367, 368, 369, 370, 371, 372, 373, 374, 375, 376, 377, 378, 379, 380, 381, 382, 383, 384, 385, 386, 387, 388, 389, 390, 391, 392, 393, 394, 395, 396, 397, 398, 399, 400, 401, 402, 403, 404, 405, 406, 407, 408, 409, 410, 411, 412, 413, 414, 415, 416, 417, 418, 419, 420, 421, 422, 423, 424, 425, 426, 427, 428, 429, 430, 431, 432, 433, 434, 435, 436, 437, 438, 439, 440, 441, 442, 443, 444, 445, 446, 447, 448, 449, 450, 451, 452, 453, 454, 455, 456, 457, 458, 459, 460, 461, 462, 463, 464, 465, 466, 467, 468, 469, 470, 471, 472, 473, 474, 475, 476, 477, 478, 479, 480, 481, 482, 483, 484, 485, 486, 487, 488, 489, 490, 491, 492, 493, 494, 495, 496, 497, 498, 499, 500, 501, 502, 503, 504, 505, 506, 507, 508, 509, 510, 511, 512, 513, 514, 515, 516, 517, 518, 519, 520, 521, 522, 523, 524, 525, 526, 527, 528, 529, 530, 531, 532, 533, 534, 535, 536, 537, 538, 539, 540, 541, 542, 543, 544, 545, 546, 547, 548, 549, 550, 551, 552, 553, 554, 555, 556, 557, 558, 559, 560, 561, 562, 563, 564, 565, 566, 567, 568, 569, 570, 571, 572, 573, 574, 575, 576, 577, 578, 579, 580, 581, 582, 583, 584, 585, 586, 587, 588, 589, 590, 591, 592, 593, 594, 595, 596, 597, 598, 599, 600, 601, 602, 603, 604, 605, 606, 607, 608, 609, 610, 611, 612, 613, 614, 615, 616, 617, 618, 619, 620, 621, 622, 623, 624, 625, 626, 627, 628, 629, 630, 631, 632, 633, 634, 635, 636, 637, 638, 639, 640, 641, 642, 643, 644, 645, 646, 647, 648, 649, 650, 651, 652, 653, 654, 655, 656, 657, 658, 659, 660, 661, 662, 663, 664, 665, 666, 667, 668, 669, 670, 671, 672, 673, 674, 675, 676, 677, 678, 679, 680, 681, 682, 683, 684, 685, 686, 687, 688, 689, 690, 691, 692, 693, 694, 695, 696, 697, 698, 699, 700, 701, 702, 703, 704, 705, 706, 707, 708, 709, 710, 711, 712, 713, 714, 715, 716, 717, 718, 719, 720, 721, 722, 723, 724, 725, 726, 727, 728, 729, 730, 731, 732, 733, 734, 735, 736, 737, 738, 739, 740, 741, 742, 743, 744, 745, 746, 747, 748, 749, 750, 751, 752, 753, 754, 755, 756, 757, 758, 759, 760, 761, 762, 763, 764, 765, 766, 767, 768, 769, 770, 771, 772, 773, 774, 775, 776, 777, 778, 779, 780, 781, 782, 783, 784, 785, 786, 787, 788, 789, 790, 791, 792, 793, 794, 795, 796, 797, 798, 799, 800, 801, 802, 803, 804, 805, 806, 807, 808, 809, 810, 811, 812, 813, 814, 815, 816, 817, 818, 819, 820, 821, 822, 823, 824, 825, 826, 827, 828, 829, 830, 831, 832, 833, 834, 835, 836, 837, 838, 839, 840, 841, 842, 843, 844, 845, 846, 847, 848, 849, 850, 851, 852, 853, 854, 855, 856, 857, 858, 859, 860, 861, 862, 863, 864, 865, 866, 867, 868, 869, 870, 871, 872],
      "AcquisitionTime": ["124648.992500", "124649.452500", "124649.912500", "124650.372500", "124650.832500", "124651.292500", "124651.752500", "124652.212500", "124652.672500", "124653.132500", "124653.592500", "124654.052500", "124654.512500", "124654.972500", "124655.432500", "124655.892500", "124656.352500", "124656.812500", "124657.272500", "124657.732500", "124658.192500", "124658.652500", "124659.112500", "124659.572500", "124700.032500", "124700.492500", "124700.952500", "124701.412500", "124701.872500", "124702.332500", "124702.792500", "124703.252500", "124703.712500", "124704.172500", "124704.632500", "124705.092500", "124705.552500", "124706.012500", "124706.472500", "124706.932500", "124707.392500", "124707.852500", "124708.312500", "124708.772500", "124709.232500", "124709.692500", "124710.152500", "124710.612500", "124711.072500", "124711.532500", "124711.992500", "124712.452500", "124712.912500", "124713.372500", "124713.832500", "124714.292500", "124714.752500", "124715.212500", "124715.672500", "124716.132500", "124716.592500", "124717.052500", "124717.512500", "124717.972500", "124718.432500", "124718.892500", "124719.352500", "124719.812500", "124720.272500", "124720.732500", "124721.192500", "124721.652500", "124722.112500", "124722.572500", "124723.032500", "124723.492500", "124723.952500", "124724.412500", "124724.872500", "124725.332500", "124725.792500", "124726.252500", "124726.712500", "124727.172500", "124727.632500", "124728.092500", "124728.552500", "124729.012500", "124729.472500", "124729.932500", "124730.392500", "124730.852500", "124731.312500", "124731.772500", "124732.232500", "124732.692500", "124733.152500", "124733.612500", "124734.072500", "124734.532500", "124734.992500", "124735.452500", "124735.912500", "124736.372500", "124736.832500", "124737.292500", "124737.752500", "124738.212500", "124738.672500", "124739.132500", "124739.592500", "124740.052500", "124740.512500", "124740.972500", "124741.432500", "124741.892500", "124742.352500", "124742.812500", "124743.272500", "124743.732500", "124744.192500", "124744.652500", "124745.112500", "124745.572500", "124746.032500", "124746.492500", "124746.952500", "124747.412500", "124747.872500", "124748.332500", "124748.792500", "124749.252500", "124749.712500", "124750.172500", "124750.632500", "124751.092500", "124751.552500", "124752.012500", "124752.472500", "124752.932500", "124753.392500", "124753.852500", "124754.312500", "124754.772500", "124755.232500", "124755.692500", "124756.152500", "124756.612500", "124757.072500", "124757.532500", "124757.992500", "124758.452500", "124758.912500", "124759.372500", "124759.832500", "124800.292500", "124800.752500", "124801.212500", "124801.672500", "124802.132500", "124802.592500", "124803.052500", "124803.512500", "124803.972500", "124804.432500", "124804.892500", "124805.352500", "124805.812500", "124806.272500", "124806.732500", "124807.192500", "124807.652500", "124808.112500", "124808.572500", "124809.032500", "124809.492500", "124809.952500", "124810.412500", "124810.872500", "124811.332500", "124811.792500", "124812.252500", "124812.712500", "124813.172500", "124813.632500", "124814.092500", "124814.552500", "124815.012500", "124815.472500", "124815.932500", "124816.392500", "124816.852500", "124817.312500", "124817.772500", "124818.232500", "124818.692500", "124819.152500", "124819.612500", "124820.072500", "124820.532500", "124820.992500", "124821.452500", "124821.912500", "124822.372500", "124822.832500", "124823.292500", "124823.752500", "124824.212500", "124824.672500", "124825.132500", "124825.592500", "124826.052500", "124826.512500", "124826.972500", "124827.432500", "124827.892500", "124828.352500", "124828.812500", "124829.272500", "124829.732500", "124830.192500", "124830.652500", "124831.112500", "124831.572500", "124832.032500", "124832.492500", "124832.952500", "124833.412500", "124833.872500", "124834.332500", "124834.792500", "124835.252500", "124835.712500", "124836.172500", "124836.632500", "124837.092500", "124837.552500", "124838.012500", "124838.472500", "124838.932500", "124839.392500", "124839.852500", "124840.312500", "124840.772500", "124841.232500", "124841.692500", "124842.152500", "124842.612500", "124843.072500", "124843.532500", "124843.992500", "124844.452500", "124844.912500", "124845.372500", "124845.832500", "124846.292500", "124846.752500", "124847.212500", "124847.672500", "124848.132500", "124848.592500", "124849.052500", "124849.512500", "124849.972500", "124850.432500", "124850.892500", "124851.352500", "124851.812500", "124852.272500", "124852.732500", "124853.192500", "124853.652500", "124854.112500", "124854.572500", "124855.032500", "124855.492500", "124855.952500", "124856.412500", "124856.872500", "124857.332500", "124857.792500", "124858.252500", "124858.712500", "124859.172500", "124859.632500", "124900.092500", "124900.552500", "124901.012500", "124901.472500", "124901.932500", "124902.392500", "124902.852500", "124903.312500", "124903.772500", "124904.232500", "124904.692500", "124905.152500", "124905.612500", "124906.072500", "124906.532500", "124906.992500", "124907.452500", "124907.912500", "124908.372500", "124908.832500", "124909.292500", "124909.752500", "124910.212500", "124910.672500", "124911.132500", "124911.592500", "124912.052500", "124912.512500", "124912.972500", "124913.432500", "124913.892500", "124914.352500", "124914.812500", "124915.272500", "124915.732500", "124916.192500", "124916.652500", "124917.112500", "124917.572500", "124918.032500", "124918.492500", "124918.952500", "124919.412500", "124919.872500", "124920.332500", "124920.792500", "124921.252500", "124921.712500", "124922.172500", "124922.632500", "124923.092500", "124923.552500", "124924.012500", "124924.472500", "124924.932500", "124925.392500", "124925.852500", "124926.312500", "124926.772500", "124927.232500", "124927.692500", "124928.152500", "124928.612500", "124929.072500", "124929.532500", "124929.992500", "124930.452500", "124930.912500", "124931.372500", "124931.832500", "124932.292500", "124932.752500", "124933.212500", "124933.672500", "124934.132500", "124934.592500", "124935.052500", "124935.512500", "124935.972500", "124936.432500", "124936.892500", "124937.352500", "124937.812500", "124938.272500", "124938.732500", "124939.192500", "124939.652500", "124940.112500", "124940.572500", "124941.032500", "124941.492500", "124941.952500", "124942.412500", "124942.872500", "124943.332500", "124943.792500", "124944.252500", "124944.712500", "124945.172500", "124945.632500", "124946.092500", "124946.552500", "124947.012500", "124947.472500", "124947.932500", "124948.392500", "124948.852500", "124949.312500", "124949.772500", "124950.232500", "124950.692500", "124951.152500", "124951.612500", "124952.072500", "124952.532500", "124952.992500", "124953.452500", "124953.912500", "124954.372500", "124954.832500", "124955.292500", "124955.752500", "124956.212500", "124956.672500", "124957.132500", "124957.592500", "124958.052500", "124958.512500", "124958.972500", "124959.432500", "124959.892500", "125000.352500", "125000.812500", "125001.272500", "125001.732500", "125002.192500", "125002.652500", "125003.112500", "125003.572500", "125004.032500", "125004.492500", "125004.952500", "125005.412500", "125005.872500", "125006.332500", "125006.792500", "125007.252500", "125007.712500", "125008.172500", "125008.632500", "125009.092500", "125009.552500", "125010.012500", "125010.472500", "125010.932500", "125011.392500", "125011.852500", "125012.312500", "125012.772500", "125013.232500", "125013.692500", "125014.152500", "125014.612500", "125015.072500", "125015.532500", "125015.992500", "125016.452500", "125016.912500", "125017.372500", "125017.832500", "125018.292500", "125018.752500", "125019.212500", "125019.672500", "125020.132500", "125020.592500", "125021.052500", "125021.512500", "125021.972500", "125022.432500", "125022.892500", "125023.352500", "125023.812500", "125024.272500", "125024.732500", "125025.192500", "125025.652500", "125026.112500", "125026.572500", "125027.032500", "125027.492500", "125027.952500", "125028.412500", "125028.872500", "125029.332500", "125029.792500", "125030.252500", "125030.712500", "125031.172500", "125031.632500", "125032.092500", "125032.552500", "125033.012500", "125033.472500", "125033.932500", "125034.392500", "125034.852500", "125035.312500", "125035.772500", "125036.232500", "125036.692500", "125037.152500", "125037.612500", "125038.072500", "125038.532500", "125038.992500", "125039.452500", "125039.912500", "125040.372500", "125040.832500", "125041.292500", "125041.752500", "125042.212500", "125042.672500", "125043.132500", "125043.592500", "125044.052500", "125044.512500", "125044.972500", "125045.432500", "125045.892500", "125046.352500", "125046.812500", "125047.272500", "125047.732500", "125048.192500", "125048.652500", "125049.112500", "125049.572500", "125050.032500", "125050.492500", "125050.952500", "125051.412500", "125051.872500", "125052.332500", "125052.792500", "125053.252500", "125053.712500", "125054.172500", "125054.632500", "125055.092500", "125055.552500", "125056.012500", "125056.472500", "125056.932500", "125057.392500", "125057.852500", "125058.312500", "125058.772500", "125059.232500", "125059.692500", "125100.152500", "125100.612500", "125101.072500", "125101.532500", "125101.992500", "125102.452500", "125102.912500", "125103.372500", "125103.832500", "125104.292500", "125104.752500", "125105.212500", "125105.672500", "125106.132500", "125106.592500", "125107.052500", "125107.512500", "125107.972500", "125108.432500", "125108.892500", "125109.352500", "125109.812500", "125110.272500", "125110.732500", "125111.192500", "125111.652500", "125112.112500", "125112.572500", "125113.032500", "125113.492500", "125113.952500", "125114.412500", "125114.872500", "125115.332500", "125115.792500", "125116.252500", "125116.712500", "125117.172500", "125117.632500", "125118.092500", "125118.552500", "125119.012500", "125119.472500", "125119.932500", "125120.392500", "125120.852500", "125121.312500", "125121.772500", "125122.232500", "125122.692500", "125123.152500", "125123.612500", "125124.072500", "125124.532500", "125124.992500", "125125.452500", "125125.912500", "125126.372500", "125126.832500", "125127.292500", "125127.752500", "125128.212500", "125128.672500", "125129.132500", "125129.592500", "125130.052500", "125130.512500", "125130.972500", "125131.432500", "125131.892500", "125132.352500", "125132.812500", "125133.272500", "125133.732500", "125134.192500", "125134.652500", "125135.112500", "125135.572500", "125136.032500", "125136.492500", "125136.952500", "125137.412500", "125137.872500", "125138.332500", "125138.792500", "125139.252500", "125139.712500", "125140.172500", "125140.632500", "125141.092500", "125141.552500", "125142.012500", "125142.472500", "125142.932500", "125143.392500", "125143.852500", "125144.312500", "125144.772500", "125145.232500", "125145.692500", "125146.152500", "125146.612500", "125147.072500", "125147.532500", "125147.992500", "125148.452500", "125148.912500", "125149.372500", "125149.832500", "125150.292500", "125150.752500", "125151.212500", "125151.672500", "125152.132500", "125152.592500", "125153.052500", "125153.512500", "125153.972500", "125154.432500", "125154.892500", "125155.352500", "125155.812500", "125156.272500", "125156.732500", "125157.192500", "125157.652500", "125158.112500", "125158.572500", "125159.032500", "125159.492500", "125159.952500", "125200.412500", "125200.872500", "125201.332500", "125201.792500", "125202.252500", "125202.712500", "125203.172500", "125203.632500", "125204.092500", "125204.552500", "125205.012500", "125205.472500", "125205.932500", "125206.392500", "125206.852500", "125207.312500", "125207.772500", "125208.232500", "125208.692500", "125209.152500", "125209.612500", "125210.072500", "125210.532500", "125210.992500", "125211.452500", "125211.912500", "125212.372500", "125212.832500", "125213.292500", "125213.752500", "125214.212500", "125214.672500", "125215.132500", "125215.592500", "125216.052500", "125216.512500", "125216.972500", "125217.432500", "125217.892500", "125218.352500", "125218.812500", "125219.272500", "125219.732500", "125220.192500", "125220.652500", "125221.112500", "125221.572500", "125222.032500", "125222.492500", "125222.952500", "125223.412500", "125223.872500", "125224.332500", "125224.792500", "125225.252500", "125225.712500", "125226.172500", "125226.632500", "125227.092500", "125227.552500", "125228.012500", "125228.472500", "125228.932500", "125229.392500", "125229.852500", "125230.312500", "125230.772500", "125231.232500", "125231.692500", "125232.152500", "125232.612500", "125233.072500", "125233.532500", "125233.992500", "125234.452500", "125234.912500", "125235.372500", "125235.832500", "125236.292500", "125236.752500", "125237.212500", "125237.672500", "125238.132500", "125238.592500", "125239.052500", "125239.512500", "125239.972500", "125240.432500", "125240.892500", "125241.352500", "125241.812500", "125242.272500", "125242.732500", "125243.192500", "125243.652500", "125244.112500", "125244.572500", "125245.032500", "125245.492500", "125245.952500", "125246.412500", "125246.872500", "125247.332500", "125247.792500", "125248.252500", "125248.712500", "125249.172500", "125249.632500", "125250.092500", "125250.552500", "125251.012500", "125251.472500", "125251.932500", "125252.392500", "125252.852500", "125253.312500", "125253.772500", "125254.232500", "125254.692500", "125255.152500", "125255.612500", "125256.072500", "125256.532500", "125256.992500", "125257.452500", "125257.912500", "125258.372500", "125258.832500", "125259.292500", "125259.752500", "125300.212500", "125300.672500", "125301.132500", "125301.592500", "125302.052500", "125302.512500", "125302.972500", "125303.432500", "125303.892500", "125304.352500", "125304.812500", "125305.272500", "125305.732500", "125306.192500", "125306.652500", "125307.112500", "125307.572500", "125308.032500", "125308.492500", "125308.952500", "125309.412500", "125309.872500", "125310.332500", "125310.792500", "125311.252500", "125311.712500", "125312.172500", "125312.632500", "125313.092500", "125313.552500", "125314.012500", "125314.472500", "125314.932500", "125315.392500", "125315.852500", "125316.312500", "125316.772500", "125317.232500", "125317.692500", "125318.152500", "125318.612500", "125319.072500", "125319.532500", "125319.992500", "125320.452500", "125320.912500", "125321.372500", "125321.832500", "125322.292500", "125322.752500", "125323.212500", "125323.672500", "125324.132500", "125324.592500", "125325.052500", "125325.512500", "125325.972500", "125326.432500", "125326.892500", "125327.352500", "125327.812500", "125328.272500", "125328.732500", "125329.192500", "125329.652500"],
