{
  "AcquisitionMatrixPE": 82,
  "AcquisitionNumber": 1,
  "AcquisitionTime": "13:12:49.872500",
  "BandwidthPerPixelPhaseEncode": 24.888,
  "BaseResolution": 82,
  "BodyPartExamined": "BRAIN",
  "ConsistencyInfo": "N4_VE11C_LATEST_20160120",
  "ConversionSoftware": "dcm2niix",
  "ConversionSoftwareVersion": "v1.0.20201102",
  "DerivedVendorReportedEchoSpacing": 0.00049,
  "DeviceSerialNumber": "66112",
  "DwellTime": 2e-06,
  "EchoTime": 0.0272,
  "EchoTrainLength": 82,
  "EffectiveEchoSpacing": 0.00049,
  "FlipAngle": 44,
  "ImageComments": "Unaliased MB8/PE3",
  "ImageOrientationPatientDICOM": [0.999594, -0.0200192, -0.0202672, 0.0211131, 0.998248, 0.0552821],
  "ImageType": [
    "ORIGINAL",
    "PRIMARY",
    "M",
    "MB",
    "ND",
    "NORM",
    "MOSAIC"
],
  "ImagingFrequency": 123.252,
  "InPlanePhaseEncodingDirectionDICOM": "COL",
  "InstitutionAddress": "Maynard 3,Hanover,NH,US,03755",
  "InstitutionName": "Dartmouth College - PBS",
  "InstitutionalDepartmentName": "Department",
  "MRAcquisitionType": "2D",
  "MagneticFieldStrength": 3,
  "Manufacturer": "Siemens",
  "ManufacturersModelName": "Prisma",
  "Modality": "MR",
  "MultibandAccelerationFactor": 8,
  "PartialFourier": 1,
  "PatientPosition": "HFS",
  "PercentPhaseFOV": 100,
  "PercentSampling": 100,
  "PhaseEncodingDirection": "j-",
  "PhaseEncodingSteps": 82,
  "PhaseResolution": 1,
  "PixelBandwidth": 3050,
  "ProcedureStepDescription": "Wager_Wager^1076_spacetop",
  "ProtocolName": "func_run-05_task-social_acq-ap-mb8",
  "PulseSequenceDetails": "%CustomerSeq%\\cmrr_mbep2d_bold",
  "ReceiveCoilActiveElements": "HEA;HEP",
  "ReceiveCoilName": "Head_32",
  "ReconMatrixPE": 82,
  "RepetitionTime": 0.46,
  "SAR": 0.0934135,
  "ScanOptions": "FS",
  "ScanningSequence": "EP",
  "SequenceName": "epfid2d1_82",
  "SequenceVariant": "SK\\SS",
  "SeriesDescription": "func_run-05_task-social_acq-ap-mb8",
  "SeriesNumber": 24,
  "ShimSetting": [4152, -7774, -7251, 586, -38, -177, -36, 98],
  "SliceThickness": 2.7,
  "SliceTiming": [0, 0.25, 0.0625, 0.3125, 0.125, 0.3775, 0.1875, 0, 0.25, 0.0625, 0.3125, 0.125, 0.3775, 0.1875, 0, 0.25, 0.0625, 0.3125, 0.125, 0.3775, 0.1875, 0, 0.25, 0.0625, 0.3125, 0.125, 0.3775, 0.1875, 0, 0.25, 0.0625, 0.3125, 0.125, 0.3775, 0.1875, 0, 0.25, 0.0625, 0.3125, 0.125, 0.3775, 0.1875, 0, 0.25, 0.0625, 0.3125, 0.125, 0.3775, 0.1875, 0, 0.25, 0.0625, 0.3125, 0.125, 0.3775, 0.1875],
  "SoftwareVersions": "syngo MR E11",
  "SpacingBetweenSlices": 2.7,
  "StationName": "AWP66112",
  "TaskName": "social",
  "TotalReadoutTime": 0.03969,
  "TxRefAmp": 236.691,
  "WipMemBlock": "996c4e78-c313-4862-816f-5aa781c163b3||Sequence: R016 ve11c/master r/e634e98; Dec 19 2017 11:00:25 by eja",
  "dcmmeta_affine": [
    [-2.681838035583496, 0.056644923985004425, -0.05163734778761864, 112.11214447021484],
    [0.053710080683231354, 2.678225040435791, 0.15035638213157654, -93.75604248046875],
    [-0.05437532067298889, -0.14831778407096863, 2.6953155994415283, -63.75754165649414],
    [0.0, 0.0, 0.0, 1.0]
],
  "dcmmeta_reorient_transform": [
    [0.0, -1.0, 0.0, 81.0],
    [1.0, 0.0, 0.0, 0.0],
    [0.0, 0.0, 1.0, 0.0],
    [0.0, 0.0, 0.0, 1.0]
],
  "dcmmeta_shape": [82, 82, 56, 872],
  "dcmmeta_slice_dim": 2,
  "dcmmeta_version": 0.6,
  "global": {
    "const": {
      "AccessionNumber": "A003547",
      "AcquisitionMatrix": [82, 0, 0, 82],
      "AngioFlag": "N",
      "BitsAllocated": 16,
      "BitsStored": 16,
      "BodyPartExamined": "BRAIN",
      "Columns": 656,
      "EchoNumbers": 1,
      "EchoTime": 27.2,
      "EchoTrainLength": 82,
      "FlipAngle": 44.0,
      "HighBit": 15,
      "ImageOrientationPatient": [0.99959415426232, -0.020019211367, -0.0202671641045, 0.02111310797362, 0.99824752842787, 0.05528208262492],
      "ImagePositionPatient": [-902.64499337874, -876.41601373351, -102.73276862002],
      "ImageType": [
        "ORIGINAL",
        "PRIMARY",
        "M",
        "MB",
        "ND",
        "NORM",
        "MOSAIC"
],
      "ImagedNucleus": "1H",
      "ImagingFrequency": 123.252168,
      "InPlanePhaseEncodingDirection": "COL",
      "MRAcquisitionType": "2D",
      "MagneticFieldStrength": 3.0,
      "Manufacturer": "SIEMENS",
      "ManufacturerModelName": "Prisma",
      "Modality": "MR",
      "NumberOfAverages": 1.0,
      "NumberOfPhaseEncodingSteps": 82,
      "PercentPhaseFieldOfView": 100.0,
      "PercentSampling": 100.0,
      "PerformedProcedureStepStartTime": "114447.661000",
      "PhotometricInterpretation": "MONOCHROME2",
      "PixelBandwidth": 3050.0,
      "PixelRepresentation": 0,
      "PixelSpacing": [2.6829268932343, 2.6829268932343],
      "ProtocolName": "func_run-05_task-social_acq-ap-mb8",
      "RepetitionTime": 460.0,
      "Rows": 656,
      "SAR": 0.09341351550066,
      "SamplesPerPixel": 1,
      "ScanOptions": "FS",
      "ScanningSequence": "EP",
      "SequenceName": "epfid2d1_82",
      "SequenceVariant": [
        "SK",
        "SS"
],
      "SeriesDescription": "func_run-05_task-social_acq-ap-mb8",
      "SeriesNumber": 24,
      "SeriesTime": "131305.601000",
      "SliceLocation": -71.012107347574,
      "SliceThickness": 2.7000000476837,
      "SmallestImagePixelValue": 0,
      "SoftwareVersions": "syngo MR E11",
      "SpacingBetweenSlices": 2.7000000238066,
      "SpecificCharacterSet": "ISO_IR 100",
      "StudyID": "1",
      "StudyTime": "114447.592000",
      "TransmitCoilName": "Body",
      "VariableFlipAngleFlag": "N",
      "WindowCenterWidthExplanation": "Algo1",
      "dBdt": 0.0},
    "slices": {}
  },
  "time": {
    "samples": {
      "AcquisitionNumber": [1, 2, 3, 4, 5, 6, 7, 8, 9, 10, 11, 12, 13, 14, 15, 16, 17, 18, 19, 20, 21, 22, 23, 24, 25, 26, 27, 28, 29, 30, 31, 32, 33, 34, 35, 36, 37, 38, 39, 40, 41, 42, 43, 44, 45, 46, 47, 48, 49, 50, 51, 52, 53, 54, 55, 56, 57, 58, 59, 60, 61, 62, 63, 64, 65, 66, 67, 68, 69, 70, 71, 72, 73, 74, 75, 76, 77, 78, 79, 80, 81, 82, 83, 84, 85, 86, 87, 88, 89, 90, 91, 92, 93, 94, 95, 96, 97, 98, 99, 100, 101, 102, 103, 104, 105, 106, 107, 108, 109, 110, 111, 112, 113, 114, 115, 116, 117, 118, 119, 120, 121, 122, 123, 124, 125, 126, 127, 128, 129, 130, 131, 132, 133, 134, 135, 136, 137, 138, 139, 140, 141, 142, 143, 144, 145, 146, 147, 148, 149, 150, 151, 152, 153, 154, 155, 156, 157, 158, 159, 160, 161, 162, 163, 164, 165, 166, 167, 168, 169, 170, 171, 172, 173, 174, 175, 176, 177, 178, 179, 180, 181, 182, 183, 184, 185, 186, 187, 188, 189, 190, 191, 192, 193, 194, 195, 196, 197, 198, 199, 200, 201, 202, 203, 204, 205, 206, 207, 208, 209, 210, 211, 212, 213, 214, 215, 216, 217, 218, 219, 220, 221, 222, 223, 224, 225, 226, 227, 228, 229, 230, 231, 232, 233, 234, 235, 236, 237, 238, 239, 240, 241, 242, 243, 244, 245, 246, 247, 248, 249, 250, 251, 252, 253, 254, 255, 256, 257, 258, 259, 260, 261, 262, 263, 264, 265, 266, 267, 268, 269, 270, 271, 272, 273, 274, 275, 276, 277, 278, 279, 280, 281, 282, 283, 284, 285, 286, 287, 288, 289, 290, 291, 292, 293, 294, 295, 296, 297, 298, 299, 300, 301, 302, 303, 304, 305, 306, 307, 308, 309, 310, 311, 312, 313, 314, 315, 316, 317, 318, 319, 320, 321, 322, 323, 324, 325, 326, 327, 328, 329, 330, 331, 332, 333, 334, 335, 336, 337, 338, 339, 340, 341, 342, 343, 344, 345, 346, 347, 348, 349, 350, 351, 352, 353, 354, 355, 356, 357, 358, 359, 360, 361, 362, 363, 364, 365, 366, 367, 368, 369, 370, 371, 372, 373, 374, 375, 376, 377, 378, 379, 380, 381, 382, 383, 384, 385, 386, 387, 388, 389, 390, 391, 392, 393, 394, 395, 396, 397, 398, 399, 400, 401, 402, 403, 404, 405, 406, 407, 408, 409, 410, 411, 412, 413, 414, 415, 416, 417, 418, 419, 420, 421, 422, 423, 424, 425, 426, 427, 428, 429, 430, 431, 432, 433, 434, 435, 436, 437, 438, 439, 440, 441, 442, 443, 444, 445, 446, 447, 448, 449, 450, 451, 452, 453, 454, 455, 456, 457, 458, 459, 460, 461, 462, 463, 464, 465, 466, 467, 468, 469, 470, 471, 472, 473, 474, 475, 476, 477, 478, 479, 480, 481, 482, 483, 484, 485, 486, 487, 488, 489, 490, 491, 492, 493, 494, 495, 496, 497, 498, 499, 500, 501, 502, 503, 504, 505, 506, 507, 508, 509, 510, 511, 512, 513, 514, 515, 516, 517, 518, 519, 520, 521, 522, 523, 524, 525, 526, 527, 528, 529, 530, 531, 532, 533, 534, 535, 536, 537, 538, 539, 540, 541, 542, 543, 544, 545, 546, 547, 548, 549, 550, 551, 552, 553, 554, 555, 556, 557, 558, 559, 560, 561, 562, 563, 564, 565, 566, 567, 568, 569, 570, 571, 572, 573, 574, 575, 576, 577, 578, 579, 580, 581, 582, 583, 584, 585, 586, 587, 588, 589, 590, 591, 592, 593, 594, 595, 596, 597, 598, 599, 600, 601, 602, 603, 604, 605, 606, 607, 608, 609, 610, 611, 612, 613, 614, 615, 616, 617, 618, 619, 620, 621, 622, 623, 624, 625, 626, 627, 628, 629, 630, 631, 632, 633, 634, 635, 636, 637, 638, 639, 640, 641, 642, 643, 644, 645, 646, 647, 648, 649, 650, 651, 652, 653, 654, 655, 656, 657, 658, 659, 660, 661, 662, 663, 664, 665, 666, 667, 668, 669, 670, 671, 672, 673, 674, 675, 676, 677, 678, 679, 680, 681, 682, 683, 684, 685, 686, 687, 688, 689, 690, 691, 692, 693, 694, 695, 696, 697, 698, 699, 700, 701, 702, 703, 704, 705, 706, 707, 708, 709, 710, 711, 712, 713, 714, 715, 716, 717, 718, 719, 720, 721, 722, 723, 724, 725, 726, 727, 728, 729, 730, 731, 732, 733, 734, 735, 736, 737, 738, 739, 740, 741, 742, 743, 744, 745, 746, 747, 748, 749, 750, 751, 752, 753, 754, 755, 756, 757, 758, 759, 760, 761, 762, 763, 764, 765, 766, 767, 768, 769, 770, 771, 772, 773, 774, 775, 776, 777, 778, 779, 780, 781, 782, 783, 784, 785, 786, 787, 788, 789, 790, 791, 792, 793, 794, 795, 796, 797, 798, 799, 800, 801, 802, 803, 804, 805, 806, 807, 808, 809, 810, 811, 812, 813, 814, 815, 816, 817, 818, 819, 820, 821, 822, 823, 824, 825, 826, 827, 828, 829, 830, 831, 832, 833, 834, 835, 836, 837, 838, 839, 840, 841, 842, 843, 844, 845, 846, 847, 848, 849, 850, 851, 852, 853, 854, 855, 856, 857, 858, 859, 860, 861, 862, 863, 864, 865, 866, 867, 868, 869, 870, 871, 872],
      "AcquisitionTime": ["131249.872500", "131250.332500", "131250.792500", "131251.252500", "131251.712500", "131252.172500", "131252.632500", "131253.092500", "131253.552500", "131254.012500", "131254.472500", "131254.932500", "131255.392500", "131255.852500", "131256.312500", "131256.772500", "131257.232500", "131257.692500", "131258.152500", "131258.612500", "131259.072500", "131259.532500", "131259.992500", "131300.452500", "131300.912500", "131301.372500", "131301.832500", "131302.292500", "131302.752500", "131303.212500", "131303.672500", "131304.132500", "131304.592500", "131305.052500", "131305.512500", "131305.972500", "131306.432500", "131306.892500", "131307.352500", "131307.812500", "131308.272500", "131308.732500", "131309.192500", "131309.652500", "131310.112500", "131310.572500", "131311.032500", "131311.492500", "131311.952500", "131312.412500", "131312.872500", "131313.332500", "131313.792500", "131314.252500", "131314.712500", "131315.172500", "131315.632500", "131316.092500", "131316.552500", "131317.012500", "131317.472500", "131317.932500", "131318.392500", "131318.852500", "131319.312500", "131319.772500", "131320.232500", "131320.692500", "131321.152500", "131321.612500", "131322.072500", "131322.532500", "131322.992500", "131323.452500", "131323.912500", "131324.372500", "131324.832500", "131325.292500", "131325.752500", "131326.212500", "131326.672500", "131327.132500", "131327.592500", "131328.052500", "131328.512500", "131328.972500", "131329.432500", "131329.892500", "131330.352500", "131330.812500", "131331.272500", "131331.732500", "131332.192500", "131332.652500", "131333.112500", "131333.572500", "131334.032500", "131334.492500", "131334.952500", "131335.412500", "131335.872500", "131336.332500", "131336.792500", "131337.252500", "131337.712500", "131338.172500", "131338.632500", "131339.092500", "131339.552500", "131340.012500", "131340.472500", "131340.932500", "131341.392500", "131341.852500", "131342.312500", "131342.772500", "131343.232500", "131343.692500", "131344.152500", "131344.612500", "131345.072500", "131345.532500", "131345.992500", "131346.452500", "131346.912500", "131347.372500", "131347.832500", "131348.292500", "131348.752500", "131349.212500", "131349.672500", "131350.132500", "131350.592500", "131351.052500", "131351.512500", "131351.972500", "131352.432500", "131352.892500", "131353.352500", "131353.812500", "131354.272500", "131354.732500", "131355.192500", "131355.652500", "131356.112500", "131356.572500", "131357.032500", "131357.492500", "131357.952500", "131358.412500", "131358.872500", "131359.332500", "131359.792500", "131400.252500", "131400.712500", "131401.172500", "131401.632500", "131402.092500", "131402.552500", "131403.012500", "131403.472500", "131403.932500", "131404.392500", "131404.852500", "131405.312500", "131405.772500", "131406.232500", "131406.692500", "131407.152500", "131407.612500", "131408.072500", "131408.532500", "131408.992500", "131409.452500", "131409.912500", "131410.372500", "131410.832500", "131411.292500", "131411.752500", "131412.212500", "131412.672500", "131413.132500", "131413.592500", "131414.052500", "131414.512500", "131414.972500", "131415.432500", "131415.892500", "131416.352500", "131416.812500", "131417.272500", "131417.732500", "131418.192500", "131418.652500", "131419.112500", "131419.572500", "131420.032500", "131420.492500", "131420.952500", "131421.412500", "131421.872500", "131422.332500", "131422.792500", "131423.252500", "131423.712500", "131424.172500", "131424.632500", "131425.092500", "131425.552500", "131426.012500", "131426.472500", "131426.932500", "131427.392500", "131427.852500", "131428.312500", "131428.772500", "131429.232500", "131429.692500", "131430.152500", "131430.612500", "131431.072500", "131431.532500", "131431.992500", "131432.452500", "131432.912500", "131433.372500", "131433.832500", "131434.292500", "131434.752500", "131435.212500", "131435.672500", "131436.132500", "131436.592500", "131437.052500", "131437.512500", "131437.972500", "131438.432500", "131438.892500", "131439.352500", "131439.812500", "131440.272500", "131440.732500", "131441.192500", "131441.652500", "131442.112500", "131442.572500", "131443.032500", "131443.492500", "131443.952500", "131444.412500", "131444.872500", "131445.332500", "131445.792500", "131446.252500", "131446.712500", "131447.172500", "131447.632500", "131448.092500", "131448.552500", "131449.012500", "131449.472500", "131449.932500", "131450.392500", "131450.852500", "131451.312500", "131451.772500", "131452.232500", "131452.692500", "131453.152500", "131453.612500", "131454.072500", "131454.532500", "131454.992500", "131455.452500", "131455.912500", "131456.372500", "131456.832500", "131457.292500", "131457.752500", "131458.212500", "131458.672500", "131459.132500", "131459.592500", "131500.052500", "131500.512500", "131500.972500", "131501.432500", "131501.892500", "131502.352500", "131502.812500", "131503.272500", "131503.732500", "131504.192500", "131504.652500", "131505.112500", "131505.572500", "131506.032500", "131506.492500", "131506.952500", "131507.412500", "131507.872500", "131508.332500", "131508.792500", "131509.252500", "131509.712500", "131510.172500", "131510.632500", "131511.092500", "131511.552500", "131512.012500", "131512.472500", "131512.932500", "131513.392500", "131513.852500", "131514.312500", "131514.772500", "131515.232500", "131515.692500", "131516.152500", "131516.612500", "131517.072500", "131517.532500", "131517.992500", "131518.452500", "131518.912500", "131519.372500", "131519.832500", "131520.292500", "131520.752500", "131521.212500", "131521.672500", "131522.132500", "131522.592500", "131523.052500", "131523.512500", "131523.972500", "131524.432500", "131524.892500", "131525.352500", "131525.812500", "131526.272500", "131526.732500", "131527.192500", "131527.652500", "131528.112500", "131528.572500", "131529.032500", "131529.492500", "131529.952500", "131530.412500", "131530.872500", "131531.332500", "131531.792500", "131532.252500", "131532.712500", "131533.172500", "131533.632500", "131534.092500", "131534.552500", "131535.012500", "131535.472500", "131535.932500", "131536.392500", "131536.852500", "131537.312500", "131537.772500", "131538.232500", "131538.692500", "131539.152500", "131539.612500", "131540.072500", "131540.532500", "131540.992500", "131541.452500", "131541.912500", "131542.372500", "131542.832500", "131543.292500", "131543.752500", "131544.212500", "131544.672500", "131545.132500", "131545.592500", "131546.052500", "131546.512500", "131546.972500", "131547.432500", "131547.892500", "131548.352500", "131548.812500", "131549.272500", "131549.732500", "131550.192500", "131550.652500", "131551.112500", "131551.572500", "131552.032500", "131552.492500", "131552.952500", "131553.412500", "131553.872500", "131554.332500", "131554.792500", "131555.252500", "131555.712500", "131556.172500", "131556.632500", "131557.092500", "131557.552500", "131558.012500", "131558.472500", "131558.932500", "131559.392500", "131559.852500", "131600.312500", "131600.772500", "131601.232500", "131601.692500", "131602.152500", "131602.612500", "131603.072500", "131603.532500", "131603.992500", "131604.452500", "131604.912500", "131605.372500", "131605.832500", "131606.292500", "131606.752500", "131607.212500", "131607.672500", "131608.132500", "131608.592500", "131609.052500", "131609.512500", "131609.972500", "131610.432500", "131610.892500", "131611.352500", "131611.812500", "131612.272500", "131612.732500", "131613.192500", "131613.652500", "131614.112500", "131614.572500", "131615.032500", "131615.492500", "131615.952500", "131616.412500", "131616.872500", "131617.332500", "131617.792500", "131618.252500", "131618.712500", "131619.172500", "131619.632500", "131620.092500", "131620.552500", "131621.012500", "131621.472500", "131621.932500", "131622.392500", "131622.852500", "131623.312500", "131623.772500", "131624.232500", "131624.692500", "131625.152500", "131625.612500", "131626.072500", "131626.532500", "131626.992500", "131627.452500", "131627.912500", "131628.372500", "131628.832500", "131629.292500", "131629.752500", "131630.212500", "131630.672500", "131631.132500", "131631.592500", "131632.052500", "131632.512500", "131632.972500", "131633.432500", "131633.892500", "131634.352500", "131634.812500", "131635.272500", "131635.732500", "131636.192500", "131636.652500", "131637.112500", "131637.572500", "131638.032500", "131638.492500", "131638.952500", "131639.412500", "131639.872500", "131640.332500", "131640.792500", "131641.252500", "131641.712500", "131642.172500", "131642.632500", "131643.092500", "131643.552500", "131644.012500", "131644.472500", "131644.932500", "131645.392500", "131645.852500", "131646.312500", "131646.772500", "131647.232500", "131647.692500", "131648.152500", "131648.612500", "131649.072500", "131649.532500", "131649.992500", "131650.452500", "131650.912500", "131651.372500", "131651.832500", "131652.292500", "131652.752500", "131653.212500", "131653.672500", "131654.132500", "131654.592500", "131655.052500", "131655.512500", "131655.972500", "131656.432500", "131656.892500", "131657.352500", "131657.812500", "131658.272500", "131658.732500", "131659.192500", "131659.652500", "131700.112500", "131700.572500", "131701.032500", "131701.492500", "131701.952500", "131702.412500", "131702.872500", "131703.332500", "131703.792500", "131704.252500", "131704.712500", "131705.172500", "131705.632500", "131706.092500", "131706.552500", "131707.012500", "131707.472500", "131707.932500", "131708.392500", "131708.852500", "131709.312500", "131709.772500", "131710.232500", "131710.692500", "131711.152500", "131711.612500", "131712.072500", "131712.532500", "131712.992500", "131713.452500", "131713.912500", "131714.372500", "131714.832500", "131715.292500", "131715.752500", "131716.212500", "131716.672500", "131717.132500", "131717.592500", "131718.052500", "131718.512500", "131718.972500", "131719.432500", "131719.892500", "131720.352500", "131720.812500", "131721.272500", "131721.732500", "131722.192500", "131722.652500", "131723.112500", "131723.572500", "131724.032500", "131724.492500", "131724.952500", "131725.412500", "131725.872500", "131726.332500", "131726.792500", "131727.252500", "131727.712500", "131728.172500", "131728.632500", "131729.092500", "131729.552500", "131730.012500", "131730.472500", "131730.932500", "131731.392500", "131731.852500", "131732.312500", "131732.772500", "131733.232500", "131733.692500", "131734.152500", "131734.612500", "131735.072500", "131735.532500", "131735.992500", "131736.452500", "131736.912500", "131737.372500", "131737.832500", "131738.292500", "131738.752500", "131739.212500", "131739.672500", "131740.132500", "131740.592500", "131741.052500", "131741.512500", "131741.972500", "131742.432500", "131742.892500", "131743.352500", "131743.812500", "131744.272500", "131744.732500", "131745.192500", "131745.652500", "131746.112500", "131746.572500", "131747.032500", "131747.492500", "131747.952500", "131748.412500", "131748.872500", "131749.332500", "131749.792500", "131750.252500", "131750.712500", "131751.172500", "131751.632500", "131752.092500", "131752.552500", "131753.012500", "131753.472500", "131753.932500", "131754.392500", "131754.852500", "131755.312500", "131755.772500", "131756.232500", "131756.692500", "131757.152500", "131757.612500", "131758.072500", "131758.532500", "131758.992500", "131759.452500", "131759.912500", "131800.372500", "131800.832500", "131801.292500", "131801.752500", "131802.212500", "131802.672500", "131803.132500", "131803.592500", "131804.052500", "131804.512500", "131804.972500", "131805.432500", "131805.892500", "131806.352500", "131806.812500", "131807.272500", "131807.732500", "131808.192500", "131808.652500", "131809.112500", "131809.572500", "131810.032500", "131810.492500", "131810.952500", "131811.412500", "131811.872500", "131812.332500", "131812.792500", "131813.252500", "131813.712500", "131814.172500", "131814.632500", "131815.092500", "131815.552500", "131816.012500", "131816.472500", "131816.932500", "131817.392500", "131817.852500", "131818.312500", "131818.772500", "131819.232500", "131819.692500", "131820.152500", "131820.612500", "131821.072500", "131821.532500", "131821.992500", "131822.452500", "131822.912500", "131823.372500", "131823.832500", "131824.292500", "131824.752500", "131825.212500", "131825.672500", "131826.132500", "131826.592500", "131827.052500", "131827.512500", "131827.972500", "131828.432500", "131828.892500", "131829.352500", "131829.812500", "131830.272500", "131830.732500", "131831.192500", "131831.652500", "131832.112500", "131832.572500", "131833.032500", "131833.492500", "131833.952500", "131834.412500", "131834.872500", "131835.332500", "131835.792500", "131836.252500", "131836.712500", "131837.172500", "131837.632500", "131838.092500", "131838.552500", "131839.012500", "131839.472500", "131839.932500", "131840.392500", "131840.852500", "131841.312500", "131841.772500", "131842.232500", "131842.692500", "131843.152500", "131843.612500", "131844.072500", "131844.532500", "131844.992500", "131845.452500", "131845.912500", "131846.372500", "131846.832500", "131847.292500", "131847.752500", "131848.212500", "131848.672500", "131849.132500", "131849.592500", "131850.052500", "131850.512500", "131850.972500", "131851.432500", "131851.892500", "131852.352500", "131852.812500", "131853.272500", "131853.732500", "131854.192500", "131854.652500", "131855.112500", "131855.572500", "131856.032500", "131856.492500", "131856.952500", "131857.412500", "131857.872500", "131858.332500", "131858.792500", "131859.252500", "131859.712500", "131900.172500", "131900.632500", "131901.092500", "131901.552500", "131902.012500", "131902.472500", "131902.932500", "131903.392500", "131903.852500", "131904.312500", "131904.772500", "131905.232500", "131905.692500", "131906.152500", "131906.612500", "131907.072500", "131907.532500", "131907.992500", "131908.452500", "131908.912500", "131909.372500", "131909.832500", "131910.292500", "131910.752500", "131911.212500", "131911.672500", "131912.132500", "131912.592500", "131913.052500", "131913.512500", "131913.972500", "131914.432500", "131914.892500", "131915.352500", "131915.812500", "131916.272500", "131916.732500", "131917.192500", "131917.652500", "131918.112500", "131918.572500", "131919.032500", "131919.492500", "131919.952500", "131920.412500", "131920.872500", "131921.332500", "131921.792500", "131922.252500", "131922.712500", "131923.172500", "131923.632500", "131924.092500", "131924.552500", "131925.012500", "131925.472500", "131925.932500", "131926.392500", "131926.852500", "131927.312500", "131927.772500", "131928.232500", "131928.692500", "131929.152500", "131929.612500", "131930.072500", "131930.532500"],
