{
  "AcquisitionMatrixPE": 82,
  "AcquisitionNumber": 1,
  "AcquisitionTime": "13:39:10.625000",
  "BandwidthPerPixelPhaseEncode": 24.888,
  "BaseResolution": 82,
  "BodyPartExamined": "BRAIN",
  "ConsistencyInfo": "N4_VE11C_LATEST_20160120",
  "ConversionSoftware": "dcm2niix",
  "ConversionSoftwareVersion": "v1.0.20201102",
  "DerivedVendorReportedEchoSpacing": 0.00049,
  "DeviceSerialNumber": "66112",
  "DwellTime": 2e-06,
  "EchoTime": 0.0272,
  "EchoTrainLength": 82,
  "EffectiveEchoSpacing": 0.00049,
  "FlipAngle": 44,
  "ImageComments": "Unaliased MB8/PE3",
  "ImageOrientationPatientDICOM": [0.995965, 0.0886999, 0.0136412, -0.0894132, 0.993792, 0.0662069],
  "ImageType": [
    "ORIGINAL",
    "PRIMARY",
    "M",
    "MB",
    "ND",
    "NORM",
    "MOSAIC"
],
  "ImagingFrequency": 123.252,
  "InPlanePhaseEncodingDirectionDICOM": "COL",
  "InstitutionAddress": "Maynard 3,Hanover,NH,US,03755",
  "InstitutionName": "Dartmouth College - PBS",
  "InstitutionalDepartmentName": "Department",
  "MRAcquisitionType": "2D",
  "MagneticFieldStrength": 3,
  "Manufacturer": "Siemens",
  "ManufacturersModelName": "Prisma",
  "Modality": "MR",
  "MultibandAccelerationFactor": 8,
  "PartialFourier": 1,
  "PatientPosition": "HFS",
  "PercentPhaseFOV": 100,
  "PercentSampling": 100,
  "PhaseEncodingDirection": "j-",
  "PhaseEncodingSteps": 82,
  "PhaseResolution": 1,
  "PixelBandwidth": 3050,
  "ProcedureStepDescription": "Wager_Wager^1076_spacetop",
  "ProtocolName": "func_run-02_task-alignvideo_acq-ap-mb8",
  "PulseSequenceDetails": "%CustomerSeq%\\cmrr_mbep2d_bold",
  "ReceiveCoilActiveElements": "HEA;HEP",
  "ReceiveCoilName": "Head_32",
  "ReconMatrixPE": 82,
  "RepetitionTime": 0.46,
  "SAR": 0.0934473,
  "ScanOptions": "FS",
  "ScanningSequence": "EP",
  "SequenceName": "epfid2d1_82",
  "SequenceVariant": "SK\\SS",
  "SeriesDescription": "func_run-02_task-alignvideo_acq-ap-mb8",
  "SeriesNumber": 36,
  "ShimSetting": [4152, -7777, -7250, 593, -37, -201, -38, 98],
  "SliceThickness": 2.7,
  "SliceTiming": [0, 0.2525, 0.0625, 0.315, 0.125, 0.3775, 0.1875, 0, 0.2525, 0.0625, 0.315, 0.125, 0.3775, 0.1875, 0, 0.2525, 0.0625, 0.315, 0.125, 0.3775, 0.1875, 0, 0.2525, 0.0625, 0.315, 0.125, 0.3775, 0.1875, 0, 0.2525, 0.0625, 0.315, 0.125, 0.3775, 0.1875, 0, 0.2525, 0.0625, 0.315, 0.125, 0.3775, 0.1875, 0, 0.2525, 0.0625, 0.315, 0.125, 0.3775, 0.1875, 0, 0.2525, 0.0625, 0.315, 0.125, 0.3775, 0.1875],
  "SoftwareVersions": "syngo MR E11",
  "SpacingBetweenSlices": 2.7,
  "StationName": "AWP66112",
  "TaskName": "alignvideo",
  "TotalReadoutTime": 0.03969,
  "TxRefAmp": 236.691,
  "WipMemBlock": "d6880060-e46a-453c-b9e7-2e91891c06a3||Sequence: R016 ve11c/master r/e634e98; Dec 19 2017 11:00:25 by eja",
  "dcmmeta_affine": [
    [-2.6721012592315674, -0.23988904058933258, 0.020746616646647453, 121.69859313964844],
    [-0.23797546327114105, 2.6662704944610596, 0.181330606341362, -79.85896301269531],
    [0.036598265171051025, -0.17762835323810577, 2.693824291229248, -69.6558837890625],
    [0.0, 0.0, 0.0, 1.0]
],
  "dcmmeta_reorient_transform": [
    [0.0, -1.0, 0.0, 81.0],
    [1.0, 0.0, 0.0, 0.0],
    [0.0, 0.0, 1.0, 0.0],
    [0.0, 0.0, 0.0, 1.0]
],
  "dcmmeta_shape": [82, 82, 56, 926],
  "dcmmeta_slice_dim": 2,
  "dcmmeta_version": 0.6,
  "global": {
    "const": {
      "AccessionNumber": "A003547",
      "AcquisitionMatrix": [82, 0, 0, 82],
      "AngioFlag": "N",
      "BitsAllocated": 16,
      "BitsStored": 16,
      "BodyPartExamined": "BRAIN",
      "Columns": 656,
      "EchoNumbers": 1,
      "EchoTime": 27.2,
      "EchoTrainLength": 82,
      "FlipAngle": 44.0,
      "HighBit": 15,
      "ImageOrientationPatient": [0.99596497878366, 0.08869994072054, 0.01364117123416, -0.0894131882063, 0.99379169066496, 0.06620692818785],
      "ImagePositionPatient": [-800.31247401984, -969.62751703443, -145.52681958412],
      "ImageType": [
        "ORIGINAL",
        "PRIMARY",
        "M",
        "MB",
        "ND",
        "NORM",
        "MOSAIC"
],
      "ImagedNucleus": "1H",
      "ImagingFrequency": 123.252176,
      "InPlanePhaseEncodingDirection": "COL",
      "MRAcquisitionType": "2D",
      "MagneticFieldStrength": 3.0,
      "Manufacturer": "SIEMENS",
      "ManufacturerModelName": "Prisma",
      "Modality": "MR",
      "NumberOfAverages": 1.0,
      "NumberOfPhaseEncodingSteps": 82,
      "PercentPhaseFieldOfView": 100.0,
      "PercentSampling": 100.0,
      "PerformedProcedureStepStartTime": "114447.661000",
      "PhotometricInterpretation": "MONOCHROME2",
      "PixelBandwidth": 3050.0,
      "PixelRepresentation": 0,
      "PixelSpacing": [2.6829268932343, 2.6829268932343],
      "ProtocolName": "func_run-02_task-alignvideo_acq-ap-mb8",
      "RepetitionTime": 460.0,
      "Rows": 656,
      "SAR": 0.09344735120028,
      "SamplesPerPixel": 1,
      "ScanOptions": "FS",
      "ScanningSequence": "EP",
      "SequenceName": "epfid2d1_82",
      "SequenceVariant": [
        "SK",
        "SS"
],
      "SeriesDescription": "func_run-02_task-alignvideo_acq-ap-mb8",
      "SeriesNumber": 36,
      "SeriesTime": "133925.604000",
      "SliceLocation": -73.924722092393,
      "SliceThickness": 2.7000000476837,
      "SmallestImagePixelValue": 0,
      "SoftwareVersions": "syngo MR E11",
      "SpacingBetweenSlices": 2.7000000205321,
      "SpecificCharacterSet": "ISO_IR 100",
      "StudyID": "1",
      "StudyTime": "114447.592000",
      "TransmitCoilName": "Body",
      "VariableFlipAngleFlag": "N",
      "WindowCenterWidthExplanation": "Algo1",
      "dBdt": 0.0},
    "slices": {}
  },
  "time": {
    "samples": {
      "AcquisitionNumber": [1, 2, 3, 4, 5, 6, 7, 8, 9, 10, 11, 12, 13, 14, 15, 16, 17, 18, 19, 20, 21, 22, 23, 24, 25, 26, 27, 28, 29, 30, 31, 32, 33, 34, 35, 36, 37, 38, 39, 40, 41, 42, 43, 44, 45, 46, 47, 48, 49, 50, 51, 52, 53, 54, 55, 56, 57, 58, 59, 60, 61, 62, 63, 64, 65, 66, 67, 68, 69, 70, 71, 72, 73, 74, 75, 76, 77, 78, 79, 80, 81, 82, 83, 84, 85, 86, 87, 88, 89, 90, 91, 92, 93, 94, 95, 96, 97, 98, 99, 100, 101, 102, 103, 104, 105, 106, 107, 108, 109, 110, 111, 112, 113, 114, 115, 116, 117, 118, 119, 120, 121, 122, 123, 124, 125, 126, 127, 128, 129, 130, 131, 132, 133, 134, 135, 136, 137, 138, 139, 140, 141, 142, 143, 144, 145, 146, 147, 148, 149, 150, 151, 152, 153, 154, 155, 156, 157, 158, 159, 160, 161, 162, 163, 164, 165, 166, 167, 168, 169, 170, 171, 172, 173, 174, 175, 176, 177, 178, 179, 180, 181, 182, 183, 184, 185, 186, 187, 188, 189, 190, 191, 192, 193, 194, 195, 196, 197, 198, 199, 200, 201, 202, 203, 204, 205, 206, 207, 208, 209, 210, 211, 212, 213, 214, 215, 216, 217, 218, 219, 220, 221, 222, 223, 224, 225, 226, 227, 228, 229, 230, 231, 232, 233, 234, 235, 236, 237, 238, 239, 240, 241, 242, 243, 244, 245, 246, 247, 248, 249, 250, 251, 252, 253, 254, 255, 256, 257, 258, 259, 260, 261, 262, 263, 264, 265, 266, 267, 268, 269, 270, 271, 272, 273, 274, 275, 276, 277, 278, 279, 280, 281, 282, 283, 284, 285, 286, 287, 288, 289, 290, 291, 292, 293, 294, 295, 296, 297, 298, 299, 300, 301, 302, 303, 304, 305, 306, 307, 308, 309, 310, 311, 312, 313, 314, 315, 316, 317, 318, 319, 320, 321, 322, 323, 324, 325, 326, 327, 328, 329, 330, 331, 332, 333, 334, 335, 336, 337, 338, 339, 340, 341, 342, 343, 344, 345, 346, 347, 348, 349, 350, 351, 352, 353, 354, 355, 356, 357, 358, 359, 360, 361, 362, 363, 364, 365, 366, 367, 368, 369, 370, 371, 372, 373, 374, 375, 376, 377, 378, 379, 380, 381, 382, 383, 384, 385, 386, 387, 388, 389, 390, 391, 392, 393, 394, 395, 396, 397, 398, 399, 400, 401, 402, 403, 404, 405, 406, 407, 408, 409, 410, 411, 412, 413, 414, 415, 416, 417, 418, 419, 420, 421, 422, 423, 424, 425, 426, 427, 428, 429, 430, 431, 432, 433, 434, 435, 436, 437, 438, 439, 440, 441, 442, 443, 444, 445, 446, 447, 448, 449, 450, 451, 452, 453, 454, 455, 456, 457, 458, 459, 460, 461, 462, 463, 464, 465, 466, 467, 468, 469, 470, 471, 472, 473, 474, 475, 476, 477, 478, 479, 480, 481, 482, 483, 484, 485, 486, 487, 488, 489, 490, 491, 492, 493, 494, 495, 496, 497, 498, 499, 500, 501, 502, 503, 504, 505, 506, 507, 508, 509, 510, 511, 512, 513, 514, 515, 516, 517, 518, 519, 520, 521, 522, 523, 524, 525, 526, 527, 528, 529, 530, 531, 532, 533, 534, 535, 536, 537, 538, 539, 540, 541, 542, 543, 544, 545, 546, 547, 548, 549, 550, 551, 552, 553, 554, 555, 556, 557, 558, 559, 560, 561, 562, 563, 564, 565, 566, 567, 568, 569, 570, 571, 572, 573, 574, 575, 576, 577, 578, 579, 580, 581, 582, 583, 584, 585, 586, 587, 588, 589, 590, 591, 592, 593, 594, 595, 596, 597, 598, 599, 600, 601, 602, 603, 604, 605, 606, 607, 608, 609, 610, 611, 612, 613, 614, 615, 616, 617, 618, 619, 620, 621, 622, 623, 624, 625, 626, 627, 628, 629, 630, 631, 632, 633, 634, 635, 636, 637, 638, 639, 640, 641, 642, 643, 644, 645, 646, 647, 648, 649, 650, 651, 652, 653, 654, 655, 656, 657, 658, 659, 660, 661, 662, 663, 664, 665, 666, 667, 668, 669, 670, 671, 672, 673, 674, 675, 676, 677, 678, 679, 680, 681, 682, 683, 684, 685, 686, 687, 688, 689, 690, 691, 692, 693, 694, 695, 696, 697, 698, 699, 700, 701, 702, 703, 704, 705, 706, 707, 708, 709, 710, 711, 712, 713, 714, 715, 716, 717, 718, 719, 720, 721, 722, 723, 724, 725, 726, 727, 728, 729, 730, 731, 732, 733, 734, 735, 736, 737, 738, 739, 740, 741, 742, 743, 744, 745, 746, 747, 748, 749, 750, 751, 752, 753, 754, 755, 756, 757, 758, 759, 760, 761, 762, 763, 764, 765, 766, 767, 768, 769, 770, 771, 772, 773, 774, 775, 776, 777, 778, 779, 780, 781, 782, 783, 784, 785, 786, 787, 788, 789, 790, 791, 792, 793, 794, 795, 796, 797, 798, 799, 800, 801, 802, 803, 804, 805, 806, 807, 808, 809, 810, 811, 812, 813, 814, 815, 816, 817, 818, 819, 820, 821, 822, 823, 824, 825, 826, 827, 828, 829, 830, 831, 832, 833, 834, 835, 836, 837, 838, 839, 840, 841, 842, 843, 844, 845, 846, 847, 848, 849, 850, 851, 852, 853, 854, 855, 856, 857, 858, 859, 860, 861, 862, 863, 864, 865, 866, 867, 868, 869, 870, 871, 872, 873, 874, 875, 876, 877, 878, 879, 880, 881, 882, 883, 884, 885, 886, 887, 888, 889, 890, 891, 892, 893, 894, 895, 896, 897, 898, 899, 900, 901, 902, 903, 904, 905, 906, 907, 908, 909, 910, 911, 912, 913, 914, 915, 916, 917, 918, 919, 920, 921, 922, 923, 924, 925, 926],
      "AcquisitionTime": ["133910.625000", "133911.085000", "133911.545000", "133912.005000", "133912.465000", "133912.925000", "133913.385000", "133913.845000", "133914.305000", "133914.765000", "133915.225000", "133915.685000", "133916.145000", "133916.605000", "133917.065000", "133917.525000", "133917.985000", "133918.445000", "133918.905000", "133919.365000", "133919.825000", "133920.285000", "133920.745000", "133921.205000", "133921.665000", "133922.125000", "133922.585000", "133923.045000", "133923.505000", "133923.965000", "133924.425000", "133924.885000", "133925.345000", "133925.805000", "133926.265000", "133926.725000", "133927.185000", "133927.645000", "133928.105000", "133928.565000", "133929.025000", "133929.485000", "133929.945000", "133930.405000", "133930.865000", "133931.325000", "133931.785000", "133932.245000", "133932.705000", "133933.165000", "133933.625000", "133934.085000", "133934.545000", "133935.005000", "133935.465000", "133935.925000", "133936.385000", "133936.845000", "133937.305000", "133937.765000", "133938.225000", "133938.685000", "133939.145000", "133939.605000", "133940.065000", "133940.525000", "133940.985000", "133941.445000", "133941.905000", "133942.365000", "133942.825000", "133943.285000", "133943.745000", "133944.205000", "133944.665000", "133945.125000", "133945.585000", "133946.045000", "133946.505000", "133946.965000", "133947.425000", "133947.885000", "133948.345000", "133948.805000", "133949.265000", "133949.725000", "133950.185000", "133950.645000", "133951.105000", "133951.565000", "133952.025000", "133952.485000", "133952.945000", "133953.405000", "133953.865000", "133954.325000", "133954.785000", "133955.245000", "133955.705000", "133956.165000", "133956.625000", "133957.085000", "133957.545000", "133958.005000", "133958.465000", "133958.925000", "133959.385000", "133959.845000", "134000.305000", "134000.765000", "134001.225000", "134001.685000", "134002.145000", "134002.605000", "134003.065000", "134003.525000", "134003.985000", "134004.445000", "134004.905000", "134005.365000", "134005.825000", "134006.285000", "134006.745000", "134007.205000", "134007.665000", "134008.125000", "134008.585000", "134009.045000", "134009.505000", "134009.965000", "134010.425000", "134010.885000", "134011.345000", "134011.805000", "134012.265000", "134012.725000", "134013.185000", "134013.645000", "134014.105000", "134014.565000", "134015.025000", "134015.485000", "134015.945000", "134016.405000", "134016.865000", "134017.325000", "134017.785000", "134018.245000", "134018.705000", "134019.165000", "134019.625000", "134020.085000", "134020.545000", "134021.005000", "134021.465000", "134021.925000", "134022.385000", "134022.845000", "134023.305000", "134023.765000", "134024.225000", "134024.685000", "134025.145000", "134025.605000", "134026.065000", "134026.525000", "134026.985000", "134027.445000", "134027.905000", "134028.365000", "134028.825000", "134029.285000", "134029.745000", "134030.205000", "134030.665000", "134031.125000", "134031.585000", "134032.045000", "134032.505000", "134032.965000", "134033.425000", "134033.885000", "134034.345000", "134034.805000", "134035.265000", "134035.725000", "134036.185000", "134036.645000", "134037.105000", "134037.565000", "134038.025000", "134038.485000", "134038.945000", "134039.405000", "134039.865000", "134040.325000", "134040.785000", "134041.245000", "134041.705000", "134042.165000", "134042.625000", "134043.085000", "134043.545000", "134044.005000", "134044.465000", "134044.925000", "134045.385000", "134045.845000", "134046.305000", "134046.765000", "134047.225000", "134047.685000", "134048.145000", "134048.605000", "134049.065000", "134049.525000", "134049.985000", "134050.445000", "134050.905000", "134051.365000", "134051.825000", "134052.285000", "134052.745000", "134053.205000", "134053.665000", "134054.125000", "134054.585000", "134055.045000", "134055.505000", "134055.965000", "134056.425000", "134056.885000", "134057.345000", "134057.805000", "134058.265000", "134058.725000", "134059.185000", "134059.645000", "134100.105000", "134100.565000", "134101.025000", "134101.485000", "134101.945000", "134102.405000", "134102.865000", "134103.325000", "134103.785000", "134104.245000", "134104.705000", "134105.165000", "134105.625000", "134106.085000", "134106.545000", "134107.005000", "134107.465000", "134107.925000", "134108.385000", "134108.845000", "134109.305000", "134109.765000", "134110.225000", "134110.685000", "134111.145000", "134111.605000", "134112.065000", "134112.525000", "134112.985000", "134113.445000", "134113.905000", "134114.365000", "134114.825000", "134115.285000", "134115.745000", "134116.205000", "134116.665000", "134117.125000", "134117.585000", "134118.045000", "134118.505000", "134118.965000", "134119.425000", "134119.885000", "134120.345000", "134120.805000", "134121.265000", "134121.725000", "134122.185000", "134122.645000", "134123.105000", "134123.565000", "134124.025000", "134124.485000", "134124.945000", "134125.405000", "134125.865000", "134126.325000", "134126.785000", "134127.245000", "134127.705000", "134128.165000", "134128.625000", "134129.085000", "134129.545000", "134130.005000", "134130.465000", "134130.925000", "134131.385000", "134131.845000", "134132.305000", "134132.765000", "134133.225000", "134133.685000", "134134.145000", "134134.605000", "134135.065000", "134135.525000", "134135.985000", "134136.445000", "134136.905000", "134137.365000", "134137.825000", "134138.285000", "134138.745000", "134139.205000", "134139.665000", "134140.125000", "134140.585000", "134141.045000", "134141.505000", "134141.965000", "134142.425000", "134142.885000", "134143.345000", "134143.805000", "134144.265000", "134144.725000", "134145.185000", "134145.645000", "134146.105000", "134146.565000", "134147.025000", "134147.485000", "134147.945000", "134148.405000", "134148.865000", "134149.325000", "134149.785000", "134150.245000", "134150.705000", "134151.165000", "134151.625000", "134152.085000", "134152.545000", "134153.005000", "134153.465000", "134153.925000", "134154.385000", "134154.845000", "134155.305000", "134155.765000", "134156.225000", "134156.685000", "134157.145000", "134157.605000", "134158.065000", "134158.525000", "134158.985000", "134159.445000", "134159.905000", "134200.365000", "134200.825000", "134201.285000", "134201.745000", "134202.205000", "134202.665000", "134203.125000", "134203.585000", "134204.045000", "134204.505000", "134204.965000", "134205.425000", "134205.885000", "134206.345000", "134206.805000", "134207.265000", "134207.725000", "134208.185000", "134208.645000", "134209.105000", "134209.565000", "134210.025000", "134210.485000", "134210.945000", "134211.405000", "134211.865000", "134212.325000", "134212.785000", "134213.245000", "134213.705000", "134214.165000", "134214.625000", "134215.085000", "134215.545000", "134216.005000", "134216.465000", "134216.925000", "134217.385000", "134217.845000", "134218.305000", "134218.765000", "134219.225000", "134219.685000", "134220.145000", "134220.605000", "134221.065000", "134221.525000", "134221.985000", "134222.445000", "134222.905000", "134223.365000", "134223.825000", "134224.285000", "134224.745000", "134225.205000", "134225.665000", "134226.125000", "134226.585000", "134227.045000", "134227.505000", "134227.965000", "134228.425000", "134228.885000", "134229.345000", "134229.805000", "134230.265000", "134230.725000", "134231.185000", "134231.645000", "134232.105000", "134232.565000", "134233.025000", "134233.485000", "134233.945000", "134234.405000", "134234.865000", "134235.325000", "134235.785000", "134236.245000", "134236.705000", "134237.165000", "134237.625000", "134238.085000", "134238.545000", "134239.005000", "134239.465000", "134239.925000", "134240.385000", "134240.845000", "134241.305000", "134241.765000", "134242.225000", "134242.685000", "134243.145000", "134243.605000", "134244.065000", "134244.525000", "134244.985000", "134245.445000", "134245.905000", "134246.365000", "134246.825000", "134247.285000", "134247.745000", "134248.205000", "134248.665000", "134249.125000", "134249.585000", "134250.045000", "134250.505000", "134250.965000", "134251.425000", "134251.885000", "134252.345000", "134252.805000", "134253.265000", "134253.725000", "134254.185000", "134254.645000", "134255.105000", "134255.565000", "134256.025000", "134256.485000", "134256.945000", "134257.405000", "134257.865000", "134258.325000", "134258.785000", "134259.245000", "134259.705000", "134300.165000", "134300.625000", "134301.085000", "134301.545000", "134302.005000", "134302.465000", "134302.925000", "134303.385000", "134303.845000", "134304.305000", "134304.765000", "134305.225000", "134305.685000", "134306.145000", "134306.605000", "134307.065000", "134307.525000", "134307.985000", "134308.445000", "134308.905000", "134309.365000", "134309.825000", "134310.285000", "134310.745000", "134311.205000", "134311.665000", "134312.125000", "134312.585000", "134313.045000", "134313.505000", "134313.965000", "134314.425000", "134314.885000", "134315.345000", "134315.805000", "134316.265000", "134316.725000", "134317.185000", "134317.645000", "134318.105000", "134318.565000", "134319.025000", "134319.485000", "134319.945000", "134320.405000", "134320.865000", "134321.325000", "134321.785000", "134322.245000", "134322.705000", "134323.165000", "134323.625000", "134324.085000", "134324.545000", "134325.005000", "134325.465000", "134325.925000", "134326.385000", "134326.845000", "134327.305000", "134327.765000", "134328.225000", "134328.685000", "134329.145000", "134329.605000", "134330.065000", "134330.525000", "134330.985000", "134331.445000", "134331.905000", "134332.365000", "134332.825000", "134333.285000", "134333.745000", "134334.205000", "134334.665000", "134335.125000", "134335.585000", "134336.045000", "134336.505000", "134336.965000", "134337.425000", "134337.885000", "134338.345000", "134338.805000", "134339.265000", "134339.725000", "134340.185000", "134340.645000", "134341.105000", "134341.565000", "134342.025000", "134342.485000", "134342.945000", "134343.405000", "134343.865000", "134344.325000", "134344.785000", "134345.245000", "134345.705000", "134346.165000", "134346.625000", "134347.085000", "134347.545000", "134348.005000", "134348.465000", "134348.925000", "134349.385000", "134349.845000", "134350.305000", "134350.765000", "134351.225000", "134351.685000", "134352.145000", "134352.605000", "134353.065000", "134353.525000", "134353.985000", "134354.445000", "134354.905000", "134355.365000", "134355.825000", "134356.285000", "134356.745000", "134357.205000", "134357.665000", "134358.125000", "134358.585000", "134359.045000", "134359.505000", "134359.965000", "134400.425000", "134400.885000", "134401.345000", "134401.805000", "134402.265000", "134402.725000", "134403.185000", "134403.645000", "134404.105000", "134404.565000", "134405.025000", "134405.485000", "134405.945000", "134406.405000", "134406.865000", "134407.325000", "134407.785000", "134408.245000", "134408.705000", "134409.165000", "134409.625000", "134410.085000", "134410.545000", "134411.005000", "134411.465000", "134411.925000", "134412.385000", "134412.845000", "134413.305000", "134413.765000", "134414.225000", "134414.685000", "134415.145000", "134415.605000", "134416.065000", "134416.525000", "134416.985000", "134417.445000", "134417.905000", "134418.365000", "134418.825000", "134419.285000", "134419.745000", "134420.205000", "134420.665000", "134421.125000", "134421.585000", "134422.045000", "134422.505000", "134422.965000", "134423.425000", "134423.885000", "134424.345000", "134424.805000", "134425.265000", "134425.725000", "134426.185000", "134426.645000", "134427.105000", "134427.565000", "134428.025000", "134428.485000", "134428.945000", "134429.405000", "134429.865000", "134430.325000", "134430.785000", "134431.245000", "134431.705000", "134432.165000", "134432.625000", "134433.085000", "134433.545000", "134434.005000", "134434.465000", "134434.925000", "134435.385000", "134435.845000", "134436.305000", "134436.765000", "134437.225000", "134437.685000", "134438.145000", "134438.605000", "134439.065000", "134439.525000", "134439.985000", "134440.445000", "134440.905000", "134441.365000", "134441.825000", "134442.285000", "134442.745000", "134443.205000", "134443.665000", "134444.125000", "134444.585000", "134445.045000", "134445.505000", "134445.965000", "134446.425000", "134446.885000", "134447.345000", "134447.805000", "134448.265000", "134448.725000", "134449.185000", "134449.645000", "134450.105000", "134450.565000", "134451.025000", "134451.485000", "134451.945000", "134452.405000", "134452.865000", "134453.325000", "134453.785000", "134454.245000", "134454.705000", "134455.165000", "134455.625000", "134456.085000", "134456.545000", "134457.005000", "134457.465000", "134457.925000", "134458.385000", "134458.845000", "134459.305000", "134459.765000", "134500.225000", "134500.685000", "134501.145000", "134501.605000", "134502.065000", "134502.525000", "134502.985000", "134503.445000", "134503.905000", "134504.365000", "134504.825000", "134505.285000", "134505.745000", "134506.205000", "134506.665000", "134507.125000", "134507.585000", "134508.045000", "134508.505000", "134508.965000", "134509.425000", "134509.885000", "134510.345000", "134510.805000", "134511.265000", "134511.725000", "134512.185000", "134512.645000", "134513.105000", "134513.565000", "134514.025000", "134514.485000", "134514.945000", "134515.405000", "134515.865000", "134516.325000", "134516.785000", "134517.245000", "134517.705000", "134518.165000", "134518.625000", "134519.085000", "134519.545000", "134520.005000", "134520.465000", "134520.925000", "134521.385000", "134521.845000", "134522.305000", "134522.765000", "134523.225000", "134523.685000", "134524.145000", "134524.605000", "134525.065000", "134525.525000", "134525.985000", "134526.445000", "134526.905000", "134527.365000", "134527.825000", "134528.285000", "134528.745000", "134529.205000", "134529.665000", "134530.125000", "134530.585000", "134531.045000", "134531.505000", "134531.965000", "134532.425000", "134532.885000", "134533.345000", "134533.805000", "134534.265000", "134534.725000", "134535.185000", "134535.645000", "134536.105000", "134536.565000", "134537.025000", "134537.485000", "134537.945000", "134538.405000", "134538.865000", "134539.325000", "134539.785000", "134540.245000", "134540.705000", "134541.165000", "134541.625000", "134542.085000", "134542.545000", "134543.005000", "134543.465000", "134543.925000", "134544.385000", "134544.845000", "134545.305000", "134545.765000", "134546.225000", "134546.685000", "134547.145000", "134547.605000", "134548.065000", "134548.525000", "134548.985000", "134549.445000", "134549.905000", "134550.365000", "134550.825000", "134551.285000", "134551.745000", "134552.205000", "134552.665000", "134553.125000", "134553.585000", "134554.045000", "134554.505000", "134554.965000", "134555.425000", "134555.885000", "134556.345000", "134556.805000", "134557.265000", "134557.725000", "134558.185000", "134558.645000", "134559.105000", "134559.565000", "134600.025000", "134600.485000", "134600.945000", "134601.405000", "134601.865000", "134602.325000", "134602.785000", "134603.245000", "134603.705000", "134604.165000", "134604.625000", "134605.085000", "134605.545000", "134606.005000", "134606.465000", "134606.925000", "134607.385000", "134607.845000", "134608.305000", "134608.765000", "134609.225000", "134609.685000", "134610.145000", "134610.605000", "134611.065000", "134611.525000", "134611.985000", "134612.445000", "134612.905000", "134613.365000", "134613.825000", "134614.285000", "134614.745000", "134615.205000", "134615.665000", "134616.125000"],
