{
  "AcquisitionMatrixPE": 82,
  "AcquisitionNumber": 1,
  "AcquisitionTime": "12:39:49.712500",
  "BandwidthPerPixelPhaseEncode": 24.888,
  "BaseResolution": 82,
  "BodyPartExamined": "BRAIN",
  "ConsistencyInfo": "N4_VE11C_LATEST_20160120",
  "ConversionSoftware": "dcm2niix",
  "ConversionSoftwareVersion": "v1.0.20201102",
  "DerivedVendorReportedEchoSpacing": 0.00049,
  "DeviceSerialNumber": "66112",
  "DwellTime": 2e-06,
  "EchoTime": 0.0272,
  "EchoTrainLength": 82,
  "EffectiveEchoSpacing": 0.00049,
  "FlipAngle": 44,
  "ImageComments": "Unaliased MB8/PE3",
  "ImageOrientationPatientDICOM": [0.999594, -0.0200192, -0.0202672, 0.0211131, 0.998248, 0.0552821],
  "ImageType": [
    "ORIGINAL",
    "PRIMARY",
    "M",
    "MB",
    "ND",
    "NORM",
    "MOSAIC"
],
  "ImagingFrequency": 123.252,
  "InPlanePhaseEncodingDirectionDICOM": "COL",
  "InstitutionAddress": "Maynard 3,Hanover,NH,US,03755",
  "InstitutionName": "Dartmouth College - PBS",
  "InstitutionalDepartmentName": "Department",
  "MRAcquisitionType": "2D",
  "MagneticFieldStrength": 3,
  "Manufacturer": "Siemens",
  "ManufacturersModelName": "Prisma",
  "Modality": "MR",
  "MultibandAccelerationFactor": 8,
  "PartialFourier": 1,
  "PatientPosition": "HFS",
  "PercentPhaseFOV": 100,
  "PercentSampling": 100,
  "PhaseEncodingDirection": "j-",
  "PhaseEncodingSteps": 82,
  "PhaseResolution": 1,
  "PixelBandwidth": 3050,
  "ProcedureStepDescription": "Wager_Wager^1076_spacetop",
  "ProtocolName": "func_run-01_task-social_acq-ap-mb8",
  "PulseSequenceDetails": "%CustomerSeq%\\cmrr_mbep2d_bold",
  "ReceiveCoilActiveElements": "HEA;HEP",
  "ReceiveCoilName": "Head_32",
  "ReconMatrixPE": 82,
  "RepetitionTime": 0.46,
  "SAR": 0.0934135,
  "ScanOptions": "FS",
  "ScanningSequence": "EP",
  "SequenceName": "epfid2d1_82",
  "SequenceVariant": "SK\\SS",
  "SeriesDescription": "func_run-01_task-social_acq-ap-mb8",
  "SeriesNumber": 12,
  "ShimSetting": [4152, -7774, -7251, 586, -38, -177, -36, 98],
  "SliceThickness": 2.7,
  "SliceTiming": [0, 0.2525, 0.0625, 0.315, 0.125, 0.3775, 0.19, 0, 0.2525, 0.0625, 0.315, 0.125, 0.3775, 0.19, 0, 0.2525, 0.0625, 0.315, 0.125, 0.3775, 0.19, 0, 0.2525, 0.0625, 0.315, 0.125, 0.3775, 0.19, 0, 0.2525, 0.0625, 0.315, 0.125, 0.3775, 0.19, 0, 0.2525, 0.0625, 0.315, 0.125, 0.3775, 0.19, 0, 0.2525, 0.0625, 0.315, 0.125, 0.3775, 0.19, 0, 0.2525, 0.0625, 0.315, 0.125, 0.3775, 0.19],
  "SoftwareVersions": "syngo MR E11",
  "SpacingBetweenSlices": 2.7,
  "StationName": "AWP66112",
  "TaskName": "social",
  "TotalReadoutTime": 0.03969,
  "TxRefAmp": 236.691,
  "WipMemBlock": "84457588-19e2-4e4b-9e69-bfe5ebd79dbf||Sequence: R016 ve11c/master r/e634e98; Dec 19 2017 11:00:25 by eja",
  "dcmmeta_affine": [
    [-2.681838035583496, 0.056644923985004425, -0.05163734778761864, 112.11214447021484],
    [0.053710080683231354, 2.678225040435791, 0.15035638213157654, -93.75604248046875],
    [-0.05437532067298889, -0.14831778407096863, 2.6953155994415283, -63.75754165649414],
    [0.0, 0.0, 0.0, 1.0]
],
  "dcmmeta_reorient_transform": [
    [0.0, -1.0, 0.0, 81.0],
    [1.0, 0.0, 0.0, 0.0],
    [0.0, 0.0, 1.0, 0.0],
    [0.0, 0.0, 0.0, 1.0]
],
  "dcmmeta_shape": [82, 82, 56, 872],
  "dcmmeta_slice_dim": 2,
  "dcmmeta_version": 0.6,
  "global": {
    "const": {
      "AccessionNumber": "A003547",
      "AcquisitionMatrix": [82, 0, 0, 82],
      "AngioFlag": "N",
      "BitsAllocated": 16,
      "BitsStored": 16,
      "BodyPartExamined": "BRAIN",
      "Columns": 656,
      "EchoNumbers": 1,
      "EchoTime": 27.2,
      "EchoTrainLength": 82,
      "FlipAngle": 44.0,
      "HighBit": 15,
      "ImageOrientationPatient": [0.99959415426232, -0.020019211367, -0.0202671641045, 0.02111310797362, 0.99824752842787, 0.05528208262492],
      "ImagePositionPatient": [-902.64499337874, -876.41601373351, -102.73276862002],
      "ImageType": [
        "ORIGINAL",
        "PRIMARY",
        "M",
        "MB",
        "ND",
        "NORM",
        "MOSAIC"
],
      "ImagedNucleus": "1H",
      "ImagingFrequency": 123.252158,
      "InPlanePhaseEncodingDirection": "COL",
      "MRAcquisitionType": "2D",
      "MagneticFieldStrength": 3.0,
      "Manufacturer": "SIEMENS",
      "ManufacturerModelName": "Prisma",
      "Modality": "MR",
      "NumberOfAverages": 1.0,
      "NumberOfPhaseEncodingSteps": 82,
      "PercentPhaseFieldOfView": 100.0,
      "PercentSampling": 100.0,
      "PerformedProcedureStepStartTime": "114447.661000",
      "PhotometricInterpretation": "MONOCHROME2",
      "PixelBandwidth": 3050.0,
      "PixelRepresentation": 0,
      "PixelSpacing": [2.6829268932343, 2.6829268932343],
      "ProtocolName": "func_run-01_task-social_acq-ap-mb8",
      "RepetitionTime": 460.0,
      "Rows": 656,
      "SAR": 0.09341351550066,
      "SamplesPerPixel": 1,
      "ScanOptions": "FS",
      "ScanningSequence": "EP",
      "SequenceName": "epfid2d1_82",
      "SequenceVariant": [
        "SK",
        "SS"
],
      "SeriesDescription": "func_run-01_task-social_acq-ap-mb8",
      "SeriesNumber": 12,
      "SeriesTime": "124005.603000",
      "SliceLocation": -71.012107347574,
      "SliceThickness": 2.7000000476837,
      "SmallestImagePixelValue": 0,
      "SoftwareVersions": "syngo MR E11",
      "SpacingBetweenSlices": 2.7000000238066,
      "SpecificCharacterSet": "ISO_IR 100",
      "StudyID": "1",
      "StudyTime": "114447.592000",
      "TransmitCoilName": "Body",
      "VariableFlipAngleFlag": "N",
      "WindowCenterWidthExplanation": "Algo1",
      "dBdt": 0.0},
    "slices": {}
  },
  "time": {
    "samples": {
      "AcquisitionNumber": [1, 2, 3, 4, 5, 6, 7, 8, 9, 10, 11, 12, 13, 14, 15, 16, 17, 18, 19, 20, 21, 22, 23, 24, 25, 26, 27, 28, 29, 30, 31, 32, 33, 34, 35, 36, 37, 38, 39, 40, 41, 42, 43, 44, 45, 46, 47, 48, 49, 50, 51, 52, 53, 54, 55, 56, 57, 58, 59, 60, 61, 62, 63, 64, 65, 66, 67, 68, 69, 70, 71, 72, 73, 74, 75, 76, 77, 78, 79, 80, 81, 82, 83, 84, 85, 86, 87, 88, 89, 90, 91, 92, 93, 94, 95, 96, 97, 98, 99, 100, 101, 102, 103, 104, 105, 106, 107, 108, 109, 110, 111, 112, 113, 114, 115, 116, 117, 118, 119, 120, 121, 122, 123, 124, 125, 126, 127, 128, 129, 130, 131, 132, 133, 134, 135, 136, 137, 138, 139, 140, 141, 142, 143, 144, 145, 146, 147, 148, 149, 150, 151, 152, 153, 154, 155, 156, 157, 158, 159, 160, 161, 162, 163, 164, 165, 166, 167, 168, 169, 170, 171, 172, 173, 174, 175, 176, 177, 178, 179, 180, 181, 182, 183, 184, 185, 186, 187, 188, 189, 190, 191, 192, 193, 194, 195, 196, 197, 198, 199, 200, 201, 202, 203, 204, 205, 206, 207, 208, 209, 210, 211, 212, 213, 214, 215, 216, 217, 218, 219, 220, 221, 222, 223, 224, 225, 226, 227, 228, 229, 230, 231, 232, 233, 234, 235, 236, 237, 238, 239, 240, 241, 242, 243, 244, 245, 246, 247, 248, 249, 250, 251, 252, 253, 254, 255, 256, 257, 258, 259, 260, 261, 262, 263, 264, 265, 266, 267, 268, 269, 270, 271, 272, 273, 274, 275, 276, 277, 278, 279, 280, 281, 282, 283, 284, 285, 286, 287, 288, 289, 290, 291, 292, 293, 294, 295, 296, 297, 298, 299, 300, 301, 302, 303, 304, 305, 306, 307, 308, 309, 310, 311, 312, 313, 314, 315, 316, 317, 318, 319, 320, 321, 322, 323, 324, 325, 326, 327, 328, 329, 330, 331, 332, 333, 334, 335, 336, 337, 338, 339, 340, 341, 342, 343, 344, 345, 346, 347, 348, 349, 350, 351, 352, 353, 354, 355, 356, 357, 358, 359, 360, 361, 362, 363, 364, 365, 366, 367, 368, 369, 370, 371, 372, 373, 374, 375, 376, 377, 378, 379, 380, 381, 382, 383, 384, 385, 386, 387, 388, 389, 390, 391, 392, 393, 394, 395, 396, 397, 398, 399, 400, 401, 402, 403, 404, 405, 406, 407, 408, 409, 410, 411, 412, 413, 414, 415, 416, 417, 418, 419, 420, 421, 422, 423, 424, 425, 426, 427, 428, 429, 430, 431, 432, 433, 434, 435, 436, 437, 438, 439, 440, 441, 442, 443, 444, 445, 446, 447, 448, 449, 450, 451, 452, 453, 454, 455, 456, 457, 458, 459, 460, 461, 462, 463, 464, 465, 466, 467, 468, 469, 470, 471, 472, 473, 474, 475, 476, 477, 478, 479, 480, 481, 482, 483, 484, 485, 486, 487, 488, 489, 490, 491, 492, 493, 494, 495, 496, 497, 498, 499, 500, 501, 502, 503, 504, 505, 506, 507, 508, 509, 510, 511, 512, 513, 514, 515, 516, 517, 518, 519, 520, 521, 522, 523, 524, 525, 526, 527, 528, 529, 530, 531, 532, 533, 534, 535, 536, 537, 538, 539, 540, 541, 542, 543, 544, 545, 546, 547, 548, 549, 550, 551, 552, 553, 554, 555, 556, 557, 558, 559, 560, 561, 562, 563, 564, 565, 566, 567, 568, 569, 570, 571, 572, 573, 574, 575, 576, 577, 578, 579, 580, 581, 582, 583, 584, 585, 586, 587, 588, 589, 590, 591, 592, 593, 594, 595, 596, 597, 598, 599, 600, 601, 602, 603, 604, 605, 606, 607, 608, 609, 610, 611, 612, 613, 614, 615, 616, 617, 618, 619, 620, 621, 622, 623, 624, 625, 626, 627, 628, 629, 630, 631, 632, 633, 634, 635, 636, 637, 638, 639, 640, 641, 642, 643, 644, 645, 646, 647, 648, 649, 650, 651, 652, 653, 654, 655, 656, 657, 658, 659, 660, 661, 662, 663, 664, 665, 666, 667, 668, 669, 670, 671, 672, 673, 674, 675, 676, 677, 678, 679, 680, 681, 682, 683, 684, 685, 686, 687, 688, 689, 690, 691, 692, 693, 694, 695, 696, 697, 698, 699, 700, 701, 702, 703, 704, 705, 706, 707, 708, 709, 710, 711, 712, 713, 714, 715, 716, 717, 718, 719, 720, 721, 722, 723, 724, 725, 726, 727, 728, 729, 730, 731, 732, 733, 734, 735, 736, 737, 738, 739, 740, 741, 742, 743, 744, 745, 746, 747, 748, 749, 750, 751, 752, 753, 754, 755, 756, 757, 758, 759, 760, 761, 762, 763, 764, 765, 766, 767, 768, 769, 770, 771, 772, 773, 774, 775, 776, 777, 778, 779, 780, 781, 782, 783, 784, 785, 786, 787, 788, 789, 790, 791, 792, 793, 794, 795, 796, 797, 798, 799, 800, 801, 802, 803, 804, 805, 806, 807, 808, 809, 810, 811, 812, 813, 814, 815, 816, 817, 818, 819, 820, 821, 822, 823, 824, 825, 826, 827, 828, 829, 830, 831, 832, 833, 834, 835, 836, 837, 838, 839, 840, 841, 842, 843, 844, 845, 846, 847, 848, 849, 850, 851, 852, 853, 854, 855, 856, 857, 858, 859, 860, 861, 862, 863, 864, 865, 866, 867, 868, 869, 870, 871, 872],
      "AcquisitionTime": ["123949.712500", "123950.172500", "123950.632500", "123951.092500", "123951.552500", "123952.012500", "123952.472500", "123952.932500", "123953.392500", "123953.852500", "123954.312500", "123954.772500", "123955.232500", "123955.692500", "123956.152500", "123956.612500", "123957.072500", "123957.532500", "123957.992500", "123958.452500", "123958.912500", "123959.372500", "123959.832500", "124000.292500", "124000.752500", "124001.212500", "124001.672500", "124002.132500", "124002.592500", "124003.052500", "124003.512500", "124003.972500", "124004.432500", "124004.892500", "124005.352500", "124005.812500", "124006.272500", "124006.732500", "124007.192500", "124007.652500", "124008.112500", "124008.572500", "124009.032500", "124009.492500", "124009.952500", "124010.412500", "124010.872500", "124011.332500", "124011.792500", "124012.252500", "124012.712500", "124013.172500", "124013.632500", "124014.092500", "124014.552500", "124015.012500", "124015.472500", "124015.932500", "124016.392500", "124016.852500", "124017.312500", "124017.772500", "124018.232500", "124018.692500", "124019.152500", "124019.612500", "124020.072500", "124020.532500", "124020.992500", "124021.452500", "124021.912500", "124022.372500", "124022.832500", "124023.292500", "124023.752500", "124024.212500", "124024.672500", "124025.132500", "124025.592500", "124026.052500", "124026.512500", "124026.972500", "124027.432500", "124027.892500", "124028.352500", "124028.812500", "124029.272500", "124029.732500", "124030.192500", "124030.652500", "124031.112500", "124031.572500", "124032.032500", "124032.492500", "124032.952500", "124033.412500", "124033.872500", "124034.332500", "124034.792500", "124035.252500", "124035.712500", "124036.172500", "124036.632500", "124037.092500", "124037.552500", "124038.012500", "124038.472500", "124038.932500", "124039.392500", "124039.852500", "124040.312500", "124040.772500", "124041.232500", "124041.692500", "124042.152500", "124042.612500", "124043.072500", "124043.532500", "124043.992500", "124044.452500", "124044.912500", "124045.372500", "124045.832500", "124046.292500", "124046.752500", "124047.212500", "124047.672500", "124048.132500", "124048.592500", "124049.052500", "124049.512500", "124049.972500", "124050.432500", "124050.892500", "124051.352500", "124051.812500", "124052.272500", "124052.732500", "124053.192500", "124053.652500", "124054.112500", "124054.572500", "124055.032500", "124055.492500", "124055.952500", "124056.412500", "124056.872500", "124057.332500", "124057.792500", "124058.252500", "124058.712500", "124059.172500", "124059.632500", "124100.092500", "124100.552500", "124101.012500", "124101.472500", "124101.932500", "124102.392500", "124102.852500", "124103.312500", "124103.772500", "124104.232500", "124104.692500", "124105.152500", "124105.612500", "124106.072500", "124106.532500", "124106.992500", "124107.452500", "124107.912500", "124108.372500", "124108.832500", "124109.292500", "124109.752500", "124110.212500", "124110.672500", "124111.132500", "124111.592500", "124112.052500", "124112.512500", "124112.972500", "124113.432500", "124113.892500", "124114.352500", "124114.812500", "124115.272500", "124115.732500", "124116.192500", "124116.652500", "124117.112500", "124117.572500", "124118.032500", "124118.492500", "124118.952500", "124119.412500", "124119.872500", "124120.332500", "124120.792500", "124121.252500", "124121.712500", "124122.172500", "124122.632500", "124123.092500", "124123.552500", "124124.012500", "124124.472500", "124124.932500", "124125.392500", "124125.852500", "124126.312500", "124126.772500", "124127.232500", "124127.692500", "124128.152500", "124128.612500", "124129.072500", "124129.532500", "124129.992500", "124130.452500", "124130.912500", "124131.372500", "124131.832500", "124132.292500", "124132.752500", "124133.212500", "124133.672500", "124134.132500", "124134.592500", "124135.052500", "124135.512500", "124135.972500", "124136.432500", "124136.892500", "124137.352500", "124137.812500", "124138.272500", "124138.732500", "124139.192500", "124139.652500", "124140.112500", "124140.572500", "124141.032500", "124141.492500", "124141.952500", "124142.412500", "124142.872500", "124143.332500", "124143.792500", "124144.252500", "124144.712500", "124145.172500", "124145.632500", "124146.092500", "124146.552500", "124147.012500", "124147.472500", "124147.932500", "124148.392500", "124148.852500", "124149.312500", "124149.772500", "124150.232500", "124150.692500", "124151.152500", "124151.612500", "124152.072500", "124152.532500", "124152.992500", "124153.452500", "124153.912500", "124154.372500", "124154.832500", "124155.292500", "124155.752500", "124156.212500", "124156.672500", "124157.132500", "124157.592500", "124158.052500", "124158.512500", "124158.972500", "124159.432500", "124159.892500", "124200.352500", "124200.812500", "124201.272500", "124201.732500", "124202.192500", "124202.652500", "124203.112500", "124203.572500", "124204.032500", "124204.492500", "124204.952500", "124205.412500", "124205.872500", "124206.332500", "124206.792500", "124207.252500", "124207.712500", "124208.172500", "124208.632500", "124209.092500", "124209.552500", "124210.012500", "124210.472500", "124210.932500", "124211.392500", "124211.852500", "124212.312500", "124212.772500", "124213.232500", "124213.692500", "124214.152500", "124214.612500", "124215.072500", "124215.532500", "124215.992500", "124216.452500", "124216.912500", "124217.372500", "124217.832500", "124218.292500", "124218.752500", "124219.212500", "124219.672500", "124220.132500", "124220.592500", "124221.052500", "124221.512500", "124221.972500", "124222.432500", "124222.892500", "124223.352500", "124223.812500", "124224.272500", "124224.732500", "124225.192500", "124225.652500", "124226.112500", "124226.572500", "124227.032500", "124227.492500", "124227.952500", "124228.412500", "124228.872500", "124229.332500", "124229.792500", "124230.252500", "124230.712500", "124231.172500", "124231.632500", "124232.092500", "124232.552500", "124233.012500", "124233.472500", "124233.932500", "124234.392500", "124234.852500", "124235.312500", "124235.772500", "124236.232500", "124236.692500", "124237.152500", "124237.612500", "124238.072500", "124238.532500", "124238.992500", "124239.452500", "124239.912500", "124240.372500", "124240.832500", "124241.292500", "124241.752500", "124242.212500", "124242.672500", "124243.132500", "124243.592500", "124244.052500", "124244.512500", "124244.972500", "124245.432500", "124245.892500", "124246.352500", "124246.812500", "124247.272500", "124247.732500", "124248.192500", "124248.652500", "124249.112500", "124249.572500", "124250.032500", "124250.492500", "124250.952500", "124251.412500", "124251.872500", "124252.332500", "124252.792500", "124253.252500", "124253.712500", "124254.172500", "124254.632500", "124255.092500", "124255.552500", "124256.012500", "124256.472500", "124256.932500", "124257.392500", "124257.852500", "124258.312500", "124258.772500", "124259.232500", "124259.692500", "124300.152500", "124300.612500", "124301.072500", "124301.532500", "124301.992500", "124302.452500", "124302.912500", "124303.372500", "124303.832500", "124304.292500", "124304.752500", "124305.212500", "124305.672500", "124306.132500", "124306.592500", "124307.052500", "124307.512500", "124307.972500", "124308.432500", "124308.892500", "124309.352500", "124309.812500", "124310.272500", "124310.732500", "124311.192500", "124311.652500", "124312.112500", "124312.572500", "124313.032500", "124313.492500", "124313.952500", "124314.412500", "124314.872500", "124315.332500", "124315.792500", "124316.252500", "124316.712500", "124317.172500", "124317.632500", "124318.092500", "124318.552500", "124319.012500", "124319.472500", "124319.932500", "124320.392500", "124320.852500", "124321.312500", "124321.772500", "124322.232500", "124322.692500", "124323.152500", "124323.612500", "124324.072500", "124324.532500", "124324.992500", "124325.452500", "124325.912500", "124326.372500", "124326.832500", "124327.292500", "124327.752500", "124328.212500", "124328.672500", "124329.132500", "124329.592500", "124330.052500", "124330.512500", "124330.972500", "124331.432500", "124331.892500", "124332.352500", "124332.812500", "124333.272500", "124333.732500", "124334.192500", "124334.652500", "124335.112500", "124335.572500", "124336.032500", "124336.492500", "124336.952500", "124337.412500", "124337.872500", "124338.332500", "124338.792500", "124339.252500", "124339.712500", "124340.172500", "124340.632500", "124341.092500", "124341.552500", "124342.012500", "124342.472500", "124342.932500", "124343.392500", "124343.852500", "124344.312500", "124344.772500", "124345.232500", "124345.692500", "124346.152500", "124346.612500", "124347.072500", "124347.532500", "124347.992500", "124348.452500", "124348.912500", "124349.372500", "124349.832500", "124350.292500", "124350.752500", "124351.212500", "124351.672500", "124352.132500", "124352.592500", "124353.052500", "124353.512500", "124353.972500", "124354.432500", "124354.892500", "124355.352500", "124355.812500", "124356.272500", "124356.732500", "124357.192500", "124357.652500", "124358.112500", "124358.572500", "124359.032500", "124359.492500", "124359.952500", "124400.412500", "124400.872500", "124401.332500", "124401.792500", "124402.252500", "124402.712500", "124403.172500", "124403.632500", "124404.092500", "124404.552500", "124405.012500", "124405.472500", "124405.932500", "124406.392500", "124406.852500", "124407.312500", "124407.772500", "124408.232500", "124408.692500", "124409.152500", "124409.612500", "124410.072500", "124410.532500", "124410.992500", "124411.452500", "124411.912500", "124412.372500", "124412.832500", "124413.292500", "124413.752500", "124414.212500", "124414.672500", "124415.132500", "124415.592500", "124416.052500", "124416.512500", "124416.972500", "124417.432500", "124417.892500", "124418.352500", "124418.812500", "124419.272500", "124419.732500", "124420.192500", "124420.652500", "124421.112500", "124421.572500", "124422.032500", "124422.492500", "124422.952500", "124423.412500", "124423.872500", "124424.332500", "124424.792500", "124425.252500", "124425.712500", "124426.172500", "124426.632500", "124427.092500", "124427.552500", "124428.012500", "124428.472500", "124428.932500", "124429.392500", "124429.852500", "124430.312500", "124430.772500", "124431.232500", "124431.692500", "124432.152500", "124432.612500", "124433.072500", "124433.532500", "124433.992500", "124434.452500", "124434.912500", "124435.372500", "124435.832500", "124436.292500", "124436.752500", "124437.212500", "124437.672500", "124438.132500", "124438.592500", "124439.052500", "124439.512500", "124439.972500", "124440.432500", "124440.892500", "124441.352500", "124441.812500", "124442.272500", "124442.732500", "124443.192500", "124443.652500", "124444.112500", "124444.572500", "124445.032500", "124445.492500", "124445.952500", "124446.412500", "124446.872500", "124447.332500", "124447.792500", "124448.252500", "124448.712500", "124449.172500", "124449.632500", "124450.092500", "124450.552500", "124451.012500", "124451.472500", "124451.932500", "124452.392500", "124452.852500", "124453.312500", "124453.772500", "124454.232500", "124454.692500", "124455.152500", "124455.612500", "124456.072500", "124456.532500", "124456.992500", "124457.452500", "124457.912500", "124458.372500", "124458.832500", "124459.292500", "124459.752500", "124500.212500", "124500.672500", "124501.132500", "124501.592500", "124502.052500", "124502.512500", "124502.972500", "124503.432500", "124503.892500", "124504.352500", "124504.812500", "124505.272500", "124505.732500", "124506.192500", "124506.652500", "124507.112500", "124507.572500", "124508.032500", "124508.492500", "124508.952500", "124509.412500", "124509.872500", "124510.332500", "124510.792500", "124511.252500", "124511.712500", "124512.172500", "124512.632500", "124513.092500", "124513.552500", "124514.012500", "124514.472500", "124514.932500", "124515.392500", "124515.852500", "124516.312500", "124516.772500", "124517.232500", "124517.692500", "124518.152500", "124518.612500", "124519.072500", "124519.532500", "124519.992500", "124520.452500", "124520.912500", "124521.372500", "124521.832500", "124522.292500", "124522.752500", "124523.212500", "124523.672500", "124524.132500", "124524.592500", "124525.052500", "124525.512500", "124525.972500", "124526.432500", "124526.892500", "124527.352500", "124527.812500", "124528.272500", "124528.732500", "124529.192500", "124529.652500", "124530.112500", "124530.572500", "124531.032500", "124531.492500", "124531.952500", "124532.412500", "124532.872500", "124533.332500", "124533.792500", "124534.252500", "124534.712500", "124535.172500", "124535.632500", "124536.092500", "124536.552500", "124537.012500", "124537.472500", "124537.932500", "124538.392500", "124538.852500", "124539.312500", "124539.772500", "124540.232500", "124540.692500", "124541.152500", "124541.612500", "124542.072500", "124542.532500", "124542.992500", "124543.452500", "124543.912500", "124544.372500", "124544.832500", "124545.292500", "124545.752500", "124546.212500", "124546.672500", "124547.132500", "124547.592500", "124548.052500", "124548.512500", "124548.972500", "124549.432500", "124549.892500", "124550.352500", "124550.812500", "124551.272500", "124551.732500", "124552.192500", "124552.652500", "124553.112500", "124553.572500", "124554.032500", "124554.492500", "124554.952500", "124555.412500", "124555.872500", "124556.332500", "124556.792500", "124557.252500", "124557.712500", "124558.172500", "124558.632500", "124559.092500", "124559.552500", "124600.012500", "124600.472500", "124600.932500", "124601.392500", "124601.852500", "124602.312500", "124602.772500", "124603.232500", "124603.692500", "124604.152500", "124604.612500", "124605.072500", "124605.532500", "124605.992500", "124606.452500", "124606.912500", "124607.372500", "124607.832500", "124608.292500", "124608.752500", "124609.212500", "124609.672500", "124610.132500", "124610.592500", "124611.052500", "124611.512500", "124611.972500", "124612.432500", "124612.892500", "124613.352500", "124613.812500", "124614.272500", "124614.732500", "124615.192500", "124615.652500", "124616.112500", "124616.572500", "124617.032500", "124617.492500", "124617.952500", "124618.412500", "124618.872500", "124619.332500", "124619.792500", "124620.252500", "124620.712500", "124621.172500", "124621.632500", "124622.092500", "124622.552500", "124623.012500", "124623.472500", "124623.932500", "124624.392500", "124624.852500", "124625.312500", "124625.772500", "124626.232500", "124626.692500", "124627.152500", "124627.612500", "124628.072500", "124628.532500", "124628.992500", "124629.452500", "124629.912500", "124630.372500"],
