{
  "AcquisitionMatrixPE": 82,
  "AcquisitionNumber": 1,
  "AcquisitionTime": "16:29:25.725000",
  "BandwidthPerPixelPhaseEncode": 24.888,
  "BaseResolution": 82,
  "BodyPartExamined": "BRAIN",
  "ConsistencyInfo": "N4_VE11E_LATEST_20181129",
  "ConversionSoftware": "dcm2niix",
  "ConversionSoftwareVersion": "v1.0.20201102",
  "DerivedVendorReportedEchoSpacing": 0.00049,
  "DeviceSerialNumber": "66112",
  "DwellTime": 2e-06,
  "EchoTime": 0.0272,
  "EchoTrainLength": 82,
  "EffectiveEchoSpacing": 0.00049,
  "FlipAngle": 44,
  "ImageComments": "Unaliased MB8/PE3",
  "ImageOrientationPatientDICOM": [0.999343, 0.0279715, 0.0230273, -0.0293107, 0.997766, 0.060037],
  "ImageType": [
    "ORIGINAL",
    "PRIMARY",
    "M",
    "MB",
    "ND",
    "NORM",
    "MOSAIC"
],
  "ImagingFrequency": 123.252,
  "InPlanePhaseEncodingDirectionDICOM": "COL",
  "InstitutionAddress": "Maynard 3,Hanover,NH,US,03755",
  "InstitutionName": "Dartmouth College - PBS",
  "InstitutionalDepartmentName": "Department",
  "MRAcquisitionType": "2D",
  "MagneticFieldStrength": 3,
  "Manufacturer": "Siemens",
  "ManufacturersModelName": "Prisma",
  "Modality": "MR",
  "MultibandAccelerationFactor": 8,
  "PartialFourier": 1,
  "PatientPosition": "HFS",
  "PercentPhaseFOV": 100,
  "PercentSampling": 100,
  "PhaseEncodingDirection": "j-",
  "PhaseEncodingSteps": 82,
  "PhaseResolution": 1,
  "PixelBandwidth": 3050,
  "ProcedureStepDescription": "Wager_Wager^1076_spacetop",
  "ProtocolName": "func_run-03_task-social_acq-ap-mb8",
  "PulseSequenceDetails": "%CustomerSeq%\\cmrr_mbep2d_bold",
  "ReceiveCoilActiveElements": "HEA;HEP",
  "ReceiveCoilName": "Head_32",
  "ReconMatrixPE": 82,
  "RepetitionTime": 0.46,
  "SAR": 0.0773535,
  "ScanOptions": "FS",
  "ScanningSequence": "EP",
  "SequenceName": "epfid2d1_82",
  "SequenceVariant": "SK\\SS",
  "SeriesDescription": "func_run-03_task-social_acq-ap-mb8",
  "SeriesNumber": 26,
  "ShimSetting": [4150, -7766, -7347, 661, -41, -196, 58, 60],
  "SliceThickness": 2.7,
  "SliceTiming": [0, 0.25, 0.0625, 0.315, 0.125, 0.3775, 0.1875, 0, 0.25, 0.0625, 0.315, 0.125, 0.3775, 0.1875, 0, 0.25, 0.0625, 0.315, 0.125, 0.3775, 0.1875, 0, 0.25, 0.0625, 0.315, 0.125, 0.3775, 0.1875, 0, 0.25, 0.0625, 0.315, 0.125, 0.3775, 0.1875, 0, 0.25, 0.0625, 0.315, 0.125, 0.3775, 0.1875, 0, 0.25, 0.0625, 0.315, 0.125, 0.3775, 0.1875, 0, 0.25, 0.0625, 0.315, 0.125, 0.3775, 0.1875],
  "SoftwareVersions": "syngo MR E11",
  "SpacingBetweenSlices": 2.7,
  "StationName": "AWP66112",
  "TaskName": "social",
  "TotalReadoutTime": 0.03969,
  "TxRefAmp": 236.835,
  "WipMemBlock": "2ab3d890-2c27-4f5b-a21a-cbf62f13d33c||Sequence: R016 ve11e/master r/434b28f1; Aug  7 2019 18:53:46 by eja",
  "dcmmeta_affine": [
    [-2.6811654567718506, -0.07863844186067581, 0.0575006902217865, 113.99659729003906],
    [-0.07504536211490631, 2.6769325733184814, 0.16381585597991943, -99.17743682861328],
    [0.06178062781691551, -0.1610749065876007, 2.6944124698638916, -84.87752532958984],
    [0.0, 0.0, 0.0, 1.0]
],
  "dcmmeta_reorient_transform": [
    [0.0, -1.0, 0.0, 81.0],
    [1.0, 0.0, 0.0, 0.0],
    [0.0, 0.0, 1.0, 0.0],
    [0.0, 0.0, 0.0, 1.0]
],
  "dcmmeta_shape": [82, 82, 56, 872],
  "dcmmeta_slice_dim": 2,
  "dcmmeta_version": 0.6,
  "global": {
    "const": {
      "AccessionNumber": "A003979",
      "AcquisitionMatrix": [82, 0, 0, 82],
      "AngioFlag": "N",
      "BitsAllocated": 16,
      "BitsStored": 16,
      "BodyPartExamined": "BRAIN",
      "Columns": 656,
      "EchoNumbers": 1,
      "EchoTime": 27.2,
      "EchoTrainLength": 82,
      "FlipAngle": 44.0,
      "HighBit": 15,
      "ImageOrientationPatient": [0.99934345460361, 0.0279714511292, 0.02302732426174, -0.029310690643, 0.9977657245758, 0.06003700755163],
      "ImagePositionPatient": [-854.55212840623, -907.471743248, -161.88412747143],
      "ImageType": [
        "ORIGINAL",
        "PRIMARY",
        "M",
        "MB",
        "ND",
        "NORM",
        "MOSAIC"
],
      "ImagedNucleus": "1H",
      "ImagingFrequency": 123.252234,
      "InPlanePhaseEncodingDirection": "COL",
      "MRAcquisitionType": "2D",
      "MagneticFieldStrength": 3.0,
      "Manufacturer": "SIEMENS",
      "ManufacturerModelName": "Prisma",
      "Modality": "MR",
      "NumberOfAverages": 1.0,
      "NumberOfPhaseEncodingSteps": 82,
      "PercentPhaseFieldOfView": 100.0,
      "PercentSampling": 100.0,
      "PerformedProcedureStepStartTime": "150123.292000",
      "PhotometricInterpretation": "MONOCHROME2",
      "PixelBandwidth": 3050.0,
      "PixelRepresentation": 0,
      "PixelSpacing": [2.6829268932343, 2.6829268932343],
      "ProtocolName": "func_run-03_task-social_acq-ap-mb8",
      "RepetitionTime": 460.0,
      "Rows": 656,
      "SAR": 0.07735354669712,
      "SamplesPerPixel": 1,
      "ScanOptions": "FS",
      "ScanningSequence": "EP",
      "SequenceName": "epfid2d1_82",
      "SequenceVariant": [
        "SK",
        "SS"
],
      "SeriesDescription": "func_run-03_task-social_acq-ap-mb8",
      "SeriesNumber": 26,
      "SeriesTime": "162953.512000",
      "SliceLocation": -88.291482070141,
      "SliceThickness": 2.7000000476837,
      "SmallestImagePixelValue": 0,
      "SoftwareVersions": "syngo MR E11",
      "SpacingBetweenSlices": 2.6999999958702,
      "SpecificCharacterSet": "ISO_IR 100",
      "StudyID": "1",
      "StudyTime": "150123.223000",
      "TransmitCoilName": "Body",
      "VariableFlipAngleFlag": "N",
      "WindowCenterWidthExplanation": "Algo1"
    },
    "slices": {}
  },
  "time": {
    "samples": {
      "AcquisitionNumber": [1, 2, 3, 4, 5, 6, 7, 8, 9, 10, 11, 12, 13, 14, 15, 16, 17, 18, 19, 20, 21, 22, 23, 24, 25, 26, 27, 28, 29, 30, 31, 32, 33, 34, 35, 36, 37, 38, 39, 40, 41, 42, 43, 44, 45, 46, 47, 48, 49, 50, 51, 52, 53, 54, 55, 56, 57, 58, 59, 60, 61, 62, 63, 64, 65, 66, 67, 68, 69, 70, 71, 72, 73, 74, 75, 76, 77, 78, 79, 80, 81, 82, 83, 84, 85, 86, 87, 88, 89, 90, 91, 92, 93, 94, 95, 96, 97, 98, 99, 100, 101, 102, 103, 104, 105, 106, 107, 108, 109, 110, 111, 112, 113, 114, 115, 116, 117, 118, 119, 120, 121, 122, 123, 124, 125, 126, 127, 128, 129, 130, 131, 132, 133, 134, 135, 136, 137, 138, 139, 140, 141, 142, 143, 144, 145, 146, 147, 148, 149, 150, 151, 152, 153, 154, 155, 156, 157, 158, 159, 160, 161, 162, 163, 164, 165, 166, 167, 168, 169, 170, 171, 172, 173, 174, 175, 176, 177, 178, 179, 180, 181, 182, 183, 184, 185, 186, 187, 188, 189, 190, 191, 192, 193, 194, 195, 196, 197, 198, 199, 200, 201, 202, 203, 204, 205, 206, 207, 208, 209, 210, 211, 212, 213, 214, 215, 216, 217, 218, 219, 220, 221, 222, 223, 224, 225, 226, 227, 228, 229, 230, 231, 232, 233, 234, 235, 236, 237, 238, 239, 240, 241, 242, 243, 244, 245, 246, 247, 248, 249, 250, 251, 252, 253, 254, 255, 256, 257, 258, 259, 260, 261, 262, 263, 264, 265, 266, 267, 268, 269, 270, 271, 272, 273, 274, 275, 276, 277, 278, 279, 280, 281, 282, 283, 284, 285, 286, 287, 288, 289, 290, 291, 292, 293, 294, 295, 296, 297, 298, 299, 300, 301, 302, 303, 304, 305, 306, 307, 308, 309, 310, 311, 312, 313, 314, 315, 316, 317, 318, 319, 320, 321, 322, 323, 324, 325, 326, 327, 328, 329, 330, 331, 332, 333, 334, 335, 336, 337, 338, 339, 340, 341, 342, 343, 344, 345, 346, 347, 348, 349, 350, 351, 352, 353, 354, 355, 356, 357, 358, 359, 360, 361, 362, 363, 364, 365, 366, 367, 368, 369, 370, 371, 372, 373, 374, 375, 376, 377, 378, 379, 380, 381, 382, 383, 384, 385, 386, 387, 388, 389, 390, 391, 392, 393, 394, 395, 396, 397, 398, 399, 400, 401, 402, 403, 404, 405, 406, 407, 408, 409, 410, 411, 412, 413, 414, 415, 416, 417, 418, 419, 420, 421, 422, 423, 424, 425, 426, 427, 428, 429, 430, 431, 432, 433, 434, 435, 436, 437, 438, 439, 440, 441, 442, 443, 444, 445, 446, 447, 448, 449, 450, 451, 452, 453, 454, 455, 456, 457, 458, 459, 460, 461, 462, 463, 464, 465, 466, 467, 468, 469, 470, 471, 472, 473, 474, 475, 476, 477, 478, 479, 480, 481, 482, 483, 484, 485, 486, 487, 488, 489, 490, 491, 492, 493, 494, 495, 496, 497, 498, 499, 500, 501, 502, 503, 504, 505, 506, 507, 508, 509, 510, 511, 512, 513, 514, 515, 516, 517, 518, 519, 520, 521, 522, 523, 524, 525, 526, 527, 528, 529, 530, 531, 532, 533, 534, 535, 536, 537, 538, 539, 540, 541, 542, 543, 544, 545, 546, 547, 548, 549, 550, 551, 552, 553, 554, 555, 556, 557, 558, 559, 560, 561, 562, 563, 564, 565, 566, 567, 568, 569, 570, 571, 572, 573, 574, 575, 576, 577, 578, 579, 580, 581, 582, 583, 584, 585, 586, 587, 588, 589, 590, 591, 592, 593, 594, 595, 596, 597, 598, 599, 600, 601, 602, 603, 604, 605, 606, 607, 608, 609, 610, 611, 612, 613, 614, 615, 616, 617, 618, 619, 620, 621, 622, 623, 624, 625, 626, 627, 628, 629, 630, 631, 632, 633, 634, 635, 636, 637, 638, 639, 640, 641, 642, 643, 644, 645, 646, 647, 648, 649, 650, 651, 652, 653, 654, 655, 656, 657, 658, 659, 660, 661, 662, 663, 664, 665, 666, 667, 668, 669, 670, 671, 672, 673, 674, 675, 676, 677, 678, 679, 680, 681, 682, 683, 684, 685, 686, 687, 688, 689, 690, 691, 692, 693, 694, 695, 696, 697, 698, 699, 700, 701, 702, 703, 704, 705, 706, 707, 708, 709, 710, 711, 712, 713, 714, 715, 716, 717, 718, 719, 720, 721, 722, 723, 724, 725, 726, 727, 728, 729, 730, 731, 732, 733, 734, 735, 736, 737, 738, 739, 740, 741, 742, 743, 744, 745, 746, 747, 748, 749, 750, 751, 752, 753, 754, 755, 756, 757, 758, 759, 760, 761, 762, 763, 764, 765, 766, 767, 768, 769, 770, 771, 772, 773, 774, 775, 776, 777, 778, 779, 780, 781, 782, 783, 784, 785, 786, 787, 788, 789, 790, 791, 792, 793, 794, 795, 796, 797, 798, 799, 800, 801, 802, 803, 804, 805, 806, 807, 808, 809, 810, 811, 812, 813, 814, 815, 816, 817, 818, 819, 820, 821, 822, 823, 824, 825, 826, 827, 828, 829, 830, 831, 832, 833, 834, 835, 836, 837, 838, 839, 840, 841, 842, 843, 844, 845, 846, 847, 848, 849, 850, 851, 852, 853, 854, 855, 856, 857, 858, 859, 860, 861, 862, 863, 864, 865, 866, 867, 868, 869, 870, 871, 872],
      "AcquisitionTime": ["162925.725000", "162926.185000", "162926.645000", "162927.105000", "162927.565000", "162928.025000", "162928.485000", "162928.945000", "162929.405000", "162929.865000", "162930.325000", "162930.785000", "162931.245000", "162931.705000", "162932.165000", "162932.625000", "162933.085000", "162933.545000", "162934.005000", "162934.465000", "162934.925000", "162935.385000", "162935.845000", "162936.305000", "162936.765000", "162937.225000", "162937.685000", "162938.145000", "162938.605000", "162939.065000", "162939.525000", "162939.985000", "162940.445000", "162940.905000", "162941.365000", "162941.825000", "162942.285000", "162942.745000", "162943.205000", "162943.665000", "162944.125000", "162944.585000", "162945.045000", "162945.505000", "162945.965000", "162946.425000", "162946.885000", "162947.345000", "162947.805000", "162948.265000", "162948.725000", "162949.185000", "162949.645000", "162950.105000", "162950.565000", "162951.025000", "162951.485000", "162951.945000", "162952.405000", "162952.865000", "162953.325000", "162953.785000", "162954.245000", "162954.705000", "162955.165000", "162955.625000", "162956.085000", "162956.545000", "162957.005000", "162957.465000", "162957.925000", "162958.385000", "162958.845000", "162959.305000", "162959.765000", "163000.225000", "163000.685000", "163001.145000", "163001.605000", "163002.065000", "163002.525000", "163002.985000", "163003.445000", "163003.905000", "163004.365000", "163004.825000", "163005.285000", "163005.745000", "163006.205000", "163006.665000", "163007.125000", "163007.585000", "163008.045000", "163008.505000", "163008.965000", "163009.425000", "163009.885000", "163010.345000", "163010.805000", "163011.265000", "163011.725000", "163012.185000", "163012.645000", "163013.105000", "163013.565000", "163014.025000", "163014.485000", "163014.945000", "163015.405000", "163015.865000", "163016.325000", "163016.785000", "163017.245000", "163017.705000", "163018.165000", "163018.625000", "163019.085000", "163019.545000", "163020.005000", "163020.465000", "163020.925000", "163021.385000", "163021.845000", "163022.305000", "163022.765000", "163023.225000", "163023.685000", "163024.145000", "163024.605000", "163025.065000", "163025.525000", "163025.985000", "163026.445000", "163026.905000", "163027.365000", "163027.825000", "163028.285000", "163028.745000", "163029.205000", "163029.665000", "163030.125000", "163030.585000", "163031.045000", "163031.505000", "163031.965000", "163032.425000", "163032.885000", "163033.345000", "163033.805000", "163034.265000", "163034.725000", "163035.185000", "163035.645000", "163036.105000", "163036.565000", "163037.025000", "163037.485000", "163037.945000", "163038.405000", "163038.865000", "163039.325000", "163039.785000", "163040.245000", "163040.705000", "163041.165000", "163041.625000", "163042.085000", "163042.545000", "163043.005000", "163043.465000", "163043.925000", "163044.385000", "163044.845000", "163045.305000", "163045.765000", "163046.225000", "163046.685000", "163047.145000", "163047.605000", "163048.065000", "163048.525000", "163048.985000", "163049.445000", "163049.905000", "163050.365000", "163050.825000", "163051.285000", "163051.745000", "163052.205000", "163052.665000", "163053.125000", "163053.585000", "163054.045000", "163054.505000", "163054.965000", "163055.425000", "163055.885000", "163056.345000", "163056.805000", "163057.265000", "163057.725000", "163058.185000", "163058.645000", "163059.105000", "163059.565000", "163100.025000", "163100.485000", "163100.945000", "163101.405000", "163101.865000", "163102.325000", "163102.785000", "163103.245000", "163103.705000", "163104.165000", "163104.625000", "163105.085000", "163105.545000", "163106.005000", "163106.465000", "163106.925000", "163107.385000", "163107.845000", "163108.305000", "163108.765000", "163109.225000", "163109.685000", "163110.145000", "163110.605000", "163111.065000", "163111.525000", "163111.985000", "163112.445000", "163112.905000", "163113.365000", "163113.825000", "163114.285000", "163114.745000", "163115.205000", "163115.665000", "163116.125000", "163116.585000", "163117.045000", "163117.505000", "163117.965000", "163118.425000", "163118.885000", "163119.345000", "163119.805000", "163120.265000", "163120.725000", "163121.185000", "163121.645000", "163122.105000", "163122.565000", "163123.025000", "163123.485000", "163123.945000", "163124.405000", "163124.865000", "163125.325000", "163125.785000", "163126.245000", "163126.705000", "163127.165000", "163127.625000", "163128.085000", "163128.545000", "163129.005000", "163129.465000", "163129.925000", "163130.385000", "163130.845000", "163131.305000", "163131.765000", "163132.225000", "163132.685000", "163133.145000", "163133.605000", "163134.065000", "163134.525000", "163134.985000", "163135.445000", "163135.905000", "163136.365000", "163136.825000", "163137.285000", "163137.745000", "163138.205000", "163138.665000", "163139.125000", "163139.585000", "163140.045000", "163140.505000", "163140.965000", "163141.425000", "163141.885000", "163142.345000", "163142.805000", "163143.265000", "163143.725000", "163144.185000", "163144.645000", "163145.105000", "163145.565000", "163146.025000", "163146.485000", "163146.945000", "163147.405000", "163147.865000", "163148.325000", "163148.785000", "163149.245000", "163149.705000", "163150.165000", "163150.625000", "163151.085000", "163151.545000", "163152.005000", "163152.465000", "163152.925000", "163153.385000", "163153.845000", "163154.305000", "163154.765000", "163155.225000", "163155.685000", "163156.145000", "163156.605000", "163157.065000", "163157.525000", "163157.985000", "163158.445000", "163158.905000", "163159.365000", "163159.825000", "163200.285000", "163200.745000", "163201.205000", "163201.665000", "163202.125000", "163202.585000", "163203.045000", "163203.505000", "163203.965000", "163204.425000", "163204.885000", "163205.345000", "163205.805000", "163206.265000", "163206.725000", "163207.185000", "163207.645000", "163208.105000", "163208.565000", "163209.025000", "163209.485000", "163209.945000", "163210.405000", "163210.865000", "163211.325000", "163211.785000", "163212.245000", "163212.705000", "163213.165000", "163213.625000", "163214.085000", "163214.545000", "163215.005000", "163215.465000", "163215.925000", "163216.385000", "163216.845000", "163217.305000", "163217.765000", "163218.225000", "163218.685000", "163219.145000", "163219.605000", "163220.065000", "163220.525000", "163220.985000", "163221.445000", "163221.905000", "163222.365000", "163222.825000", "163223.285000", "163223.745000", "163224.205000", "163224.665000", "163225.125000", "163225.585000", "163226.045000", "163226.505000", "163226.965000", "163227.425000", "163227.885000", "163228.345000", "163228.805000", "163229.265000", "163229.725000", "163230.185000", "163230.645000", "163231.105000", "163231.565000", "163232.025000", "163232.485000", "163232.945000", "163233.405000", "163233.865000", "163234.325000", "163234.785000", "163235.245000", "163235.705000", "163236.165000", "163236.625000", "163237.085000", "163237.545000", "163238.005000", "163238.465000", "163238.925000", "163239.385000", "163239.845000", "163240.305000", "163240.765000", "163241.225000", "163241.685000", "163242.145000", "163242.605000", "163243.065000", "163243.525000", "163243.985000", "163244.445000", "163244.905000", "163245.365000", "163245.825000", "163246.285000", "163246.745000", "163247.205000", "163247.665000", "163248.125000", "163248.585000", "163249.045000", "163249.505000", "163249.965000", "163250.425000", "163250.885000", "163251.345000", "163251.805000", "163252.265000", "163252.725000", "163253.185000", "163253.645000", "163254.105000", "163254.565000", "163255.025000", "163255.485000", "163255.945000", "163256.405000", "163256.865000", "163257.325000", "163257.785000", "163258.245000", "163258.705000", "163259.165000", "163259.625000", "163300.085000", "163300.545000", "163301.005000", "163301.465000", "163301.925000", "163302.385000", "163302.845000", "163303.305000", "163303.765000", "163304.225000", "163304.685000", "163305.145000", "163305.605000", "163306.065000", "163306.525000", "163306.985000", "163307.445000", "163307.905000", "163308.365000", "163308.825000", "163309.285000", "163309.745000", "163310.205000", "163310.665000", "163311.125000", "163311.585000", "163312.045000", "163312.505000", "163312.965000", "163313.425000", "163313.885000", "163314.345000", "163314.805000", "163315.265000", "163315.725000", "163316.185000", "163316.645000", "163317.105000", "163317.565000", "163318.025000", "163318.485000", "163318.945000", "163319.405000", "163319.865000", "163320.325000", "163320.785000", "163321.245000", "163321.705000", "163322.165000", "163322.625000", "163323.085000", "163323.545000", "163324.005000", "163324.465000", "163324.925000", "163325.385000", "163325.845000", "163326.305000", "163326.765000", "163327.225000", "163327.685000", "163328.145000", "163328.605000", "163329.065000", "163329.525000", "163329.985000", "163330.445000", "163330.905000", "163331.365000", "163331.825000", "163332.285000", "163332.745000", "163333.205000", "163333.665000", "163334.125000", "163334.585000", "163335.045000", "163335.505000", "163335.965000", "163336.425000", "163336.885000", "163337.345000", "163337.805000", "163338.265000", "163338.725000", "163339.185000", "163339.645000", "163340.105000", "163340.565000", "163341.025000", "163341.485000", "163341.945000", "163342.405000", "163342.865000", "163343.325000", "163343.785000", "163344.245000", "163344.705000", "163345.165000", "163345.625000", "163346.085000", "163346.545000", "163347.005000", "163347.465000", "163347.925000", "163348.385000", "163348.845000", "163349.305000", "163349.765000", "163350.225000", "163350.685000", "163351.145000", "163351.605000", "163352.065000", "163352.525000", "163352.985000", "163353.445000", "163353.905000", "163354.365000", "163354.825000", "163355.285000", "163355.745000", "163356.205000", "163356.665000", "163357.125000", "163357.585000", "163358.045000", "163358.505000", "163358.965000", "163359.425000", "163359.885000", "163400.345000", "163400.805000", "163401.265000", "163401.725000", "163402.185000", "163402.645000", "163403.105000", "163403.565000", "163404.025000", "163404.485000", "163404.945000", "163405.405000", "163405.865000", "163406.325000", "163406.785000", "163407.245000", "163407.705000", "163408.165000", "163408.625000", "163409.085000", "163409.545000", "163410.005000", "163410.465000", "163410.925000", "163411.385000", "163411.845000", "163412.305000", "163412.765000", "163413.225000", "163413.685000", "163414.145000", "163414.605000", "163415.065000", "163415.525000", "163415.985000", "163416.445000", "163416.905000", "163417.365000", "163417.825000", "163418.285000", "163418.745000", "163419.205000", "163419.665000", "163420.125000", "163420.585000", "163421.045000", "163421.505000", "163421.965000", "163422.425000", "163422.885000", "163423.345000", "163423.805000", "163424.265000", "163424.725000", "163425.185000", "163425.645000", "163426.105000", "163426.565000", "163427.025000", "163427.485000", "163427.945000", "163428.405000", "163428.865000", "163429.325000", "163429.785000", "163430.245000", "163430.705000", "163431.165000", "163431.625000", "163432.085000", "163432.545000", "163433.005000", "163433.465000", "163433.925000", "163434.385000", "163434.845000", "163435.305000", "163435.765000", "163436.225000", "163436.685000", "163437.145000", "163437.605000", "163438.065000", "163438.525000", "163438.985000", "163439.445000", "163439.905000", "163440.365000", "163440.825000", "163441.285000", "163441.745000", "163442.205000", "163442.665000", "163443.125000", "163443.585000", "163444.045000", "163444.505000", "163444.965000", "163445.425000", "163445.885000", "163446.345000", "163446.805000", "163447.265000", "163447.725000", "163448.185000", "163448.645000", "163449.105000", "163449.565000", "163450.025000", "163450.485000", "163450.945000", "163451.405000", "163451.865000", "163452.325000", "163452.785000", "163453.245000", "163453.705000", "163454.165000", "163454.625000", "163455.085000", "163455.545000", "163456.005000", "163456.465000", "163456.925000", "163457.385000", "163457.845000", "163458.305000", "163458.765000", "163459.225000", "163459.685000", "163500.145000", "163500.605000", "163501.065000", "163501.525000", "163501.985000", "163502.445000", "163502.905000", "163503.365000", "163503.825000", "163504.285000", "163504.745000", "163505.205000", "163505.665000", "163506.125000", "163506.585000", "163507.045000", "163507.505000", "163507.965000", "163508.425000", "163508.885000", "163509.345000", "163509.805000", "163510.265000", "163510.725000", "163511.185000", "163511.645000", "163512.105000", "163512.565000", "163513.025000", "163513.485000", "163513.945000", "163514.405000", "163514.865000", "163515.325000", "163515.785000", "163516.245000", "163516.705000", "163517.165000", "163517.625000", "163518.085000", "163518.545000", "163519.005000", "163519.465000", "163519.925000", "163520.385000", "163520.845000", "163521.305000", "163521.765000", "163522.225000", "163522.685000", "163523.145000", "163523.605000", "163524.065000", "163524.525000", "163524.985000", "163525.445000", "163525.905000", "163526.365000", "163526.825000", "163527.285000", "163527.745000", "163528.205000", "163528.665000", "163529.125000", "163529.585000", "163530.045000", "163530.505000", "163530.965000", "163531.425000", "163531.885000", "163532.345000", "163532.805000", "163533.265000", "163533.725000", "163534.185000", "163534.645000", "163535.105000", "163535.565000", "163536.025000", "163536.485000", "163536.945000", "163537.405000", "163537.865000", "163538.325000", "163538.785000", "163539.245000", "163539.705000", "163540.165000", "163540.625000", "163541.085000", "163541.545000", "163542.005000", "163542.465000", "163542.925000", "163543.385000", "163543.845000", "163544.305000", "163544.765000", "163545.225000", "163545.685000", "163546.145000", "163546.605000", "163547.065000", "163547.525000", "163547.985000", "163548.445000", "163548.905000", "163549.365000", "163549.825000", "163550.285000", "163550.745000", "163551.205000", "163551.665000", "163552.125000", "163552.585000", "163553.045000", "163553.505000", "163553.965000", "163554.425000", "163554.885000", "163555.345000", "163555.805000", "163556.265000", "163556.725000", "163557.185000", "163557.645000", "163558.105000", "163558.565000", "163559.025000", "163559.485000", "163559.945000", "163600.405000", "163600.865000", "163601.325000", "163601.785000", "163602.245000", "163602.705000", "163603.165000", "163603.625000", "163604.085000", "163604.545000", "163605.005000", "163605.465000", "163605.925000", "163606.385000"],
