{
  "AcquisitionMatrixPE": 82,
  "AcquisitionNumber": 1,
  "AcquisitionTime": "17:04:8.170000",
  "BandwidthPerPixelPhaseEncode": 24.888,
  "BaseResolution": 82,
  "BodyPartExamined": "BRAIN",
  "ConsistencyInfo": "N4_VE11E_LATEST_20181129",
  "ConversionSoftware": "dcm2niix",
  "ConversionSoftwareVersion": "v1.0.20201102",
  "DerivedVendorReportedEchoSpacing": 0.00049,
  "DeviceSerialNumber": "66112",
  "DwellTime": 2e-06,
  "EchoTime": 0.0272,
  "EchoTrainLength": 82,
  "EffectiveEchoSpacing": 0.00049,
  "FlipAngle": 44,
  "ImageComments": "Unaliased MB8/PE3",
  "ImageOrientationPatientDICOM": [0.99929, 0.0297138, 0.0231522, -0.0312294, 0.997189, 0.0681142],
  "ImageType": [
    "ORIGINAL",
    "PRIMARY",
    "M",
    "MB",
    "ND",
    "NORM",
    "MOSAIC"
],
  "ImagingFrequency": 123.252,
  "InPlanePhaseEncodingDirectionDICOM": "COL",
  "InstitutionAddress": "Maynard 3,Hanover,NH,US,03755",
  "InstitutionName": "Dartmouth College - PBS",
  "InstitutionalDepartmentName": "Department",
  "MRAcquisitionType": "2D",
  "MagneticFieldStrength": 3,
  "Manufacturer": "Siemens",
  "ManufacturersModelName": "Prisma",
  "Modality": "MR",
  "MultibandAccelerationFactor": 8,
  "PartialFourier": 1,
  "PatientPosition": "HFS",
  "PercentPhaseFOV": 100,
  "PercentSampling": 100,
  "PhaseEncodingDirection": "j-",
  "PhaseEncodingSteps": 82,
  "PhaseResolution": 1,
  "PixelBandwidth": 3050,
  "ProcedureStepDescription": "Wager_Wager^1076_spacetop",
  "ProtocolName": "func_run-01_task-alignvideo_acq-ap-mb8",
  "PulseSequenceDetails": "%CustomerSeq%\\cmrr_mbep2d_bold",
  "ReceiveCoilActiveElements": "HEA;HEP",
  "ReceiveCoilName": "Head_32",
  "ReconMatrixPE": 82,
  "RepetitionTime": 0.46,
  "SAR": 0.0774438,
  "ScanOptions": "FS",
  "ScanningSequence": "EP",
  "SequenceName": "epfid2d1_82",
  "SequenceVariant": "SK\\SS",
  "SeriesDescription": "func_run-01_task-alignvideo_acq-ap-mb8",
  "SeriesNumber": 50,
  "ShimSetting": [4150, -7765, -7347, 661, -42, -203, 60, 60],
  "SliceThickness": 2.7,
  "SliceTiming": [0, 0.25, 0.0625, 0.3125, 0.125, 0.375, 0.1875, 0, 0.25, 0.0625, 0.3125, 0.125, 0.375, 0.1875, 0, 0.25, 0.0625, 0.3125, 0.125, 0.375, 0.1875, 0, 0.25, 0.0625, 0.3125, 0.125, 0.375, 0.1875, 0, 0.25, 0.0625, 0.3125, 0.125, 0.375, 0.1875, 0, 0.25, 0.0625, 0.3125, 0.125, 0.375, 0.1875, 0, 0.25, 0.0625, 0.3125, 0.125, 0.375, 0.1875, 0, 0.25, 0.0625, 0.3125, 0.125, 0.375, 0.1875],
  "SoftwareVersions": "syngo MR E11",
  "SpacingBetweenSlices": 2.7,
  "StationName": "AWP66112",
  "TaskName": "alignvideo",
  "TotalReadoutTime": 0.03969,
  "TxRefAmp": 236.835,
  "WipMemBlock": "aa6622ad-0fba-4cd6-b366-dc624e609a3d||Sequence: R016 ve11e/master r/434b28f1; Aug  7 2019 18:53:46 by eja",
  "dcmmeta_affine": [
    [-2.681022882461548, -0.08378628641366959, 0.056870654225349426, 114.41546630859375],
    [-0.07971998304128647, 2.675384283065796, 0.18573009967803955, -100.2589111328125],
    [0.062115736305713654, -0.18274551630020142, 2.6930038928985596, -86.65815734863281],
    [0.0, 0.0, 0.0, 1.0]
],
  "dcmmeta_reorient_transform": [
    [0.0, -1.0, 0.0, 81.0],
    [1.0, 0.0, 0.0, 0.0],
    [0.0, 0.0, 1.0, 0.0],
    [0.0, 0.0, 0.0, 1.0]
],
  "dcmmeta_shape": [82, 82, 56, 1073],
  "dcmmeta_slice_dim": 2,
  "dcmmeta_version": 0.6,
  "global": {
    "const": {
      "AccessionNumber": "A003979",
      "AcquisitionMatrix": [82, 0, 0, 82],
      "AngioFlag": "N",
      "BitsAllocated": 16,
      "BitsStored": 16,
      "BodyPartExamined": "BRAIN",
      "Columns": 656,
      "EchoNumbers": 1,
      "EchoTime": 27.2,
      "EchoTrainLength": 82,
      "FlipAngle": 44.0,
      "HighBit": 15,
      "ImageOrientationPatient": [0.9992902800514, 0.02971381040887, 0.02315222809554, -0.0312294345363, 0.99718863468304, 0.06811423696637],
      "ImagePositionPatient": [-853.03564812807, -907.16210924605, -171.73572530018],
      "ImageType": [
        "ORIGINAL",
        "PRIMARY",
        "M",
        "MB",
        "ND",
        "NORM",
        "MOSAIC"
],
      "ImagedNucleus": "1H",
      "ImagingFrequency": 123.252242,
      "InPlanePhaseEncodingDirection": "COL",
      "MRAcquisitionType": "2D",
      "MagneticFieldStrength": 3.0,
      "Manufacturer": "SIEMENS",
      "ManufacturerModelName": "Prisma",
      "Modality": "MR",
      "NumberOfAverages": 1.0,
      "NumberOfPhaseEncodingSteps": 82,
      "PercentPhaseFieldOfView": 100.0,
      "PercentSampling": 100.0,
      "PerformedProcedureStepStartTime": "150123.292000",
      "PhotometricInterpretation": "MONOCHROME2",
      "PixelBandwidth": 3050.0,
      "PixelRepresentation": 0,
      "PixelSpacing": [2.6829268932343, 2.6829268932343],
      "ProtocolName": "func_run-01_task-alignvideo_acq-ap-mb8",
      "RepetitionTime": 460.0,
      "Rows": 656,
      "SAR": 0.07744375964657,
      "SamplesPerPixel": 1,
      "ScanOptions": "FS",
      "ScanningSequence": "EP",
      "SequenceName": "epfid2d1_82",
      "SequenceVariant": [
        "SK",
        "SS"
],
      "SeriesDescription": "func_run-01_task-alignvideo_acq-ap-mb8",
      "SeriesNumber": 50,
      "SeriesTime": "170433.679000",
      "SliceLocation": -90.920361186906,
      "SliceThickness": 2.7000000476837,
      "SmallestImagePixelValue": 0,
      "SoftwareVersions": "syngo MR E11",
      "SpacingBetweenSlices": 2.6999999357011,
      "SpecificCharacterSet": "ISO_IR 100",
      "StudyID": "1",
      "StudyTime": "150123.223000",
      "TransmitCoilName": "Body",
      "VariableFlipAngleFlag": "N",
      "WindowCenterWidthExplanation": "Algo1"
    },
    "slices": {}
  },
  "time": {
    "samples": {
      "AcquisitionNumber": [1, 2, 3, 4, 5, 6, 7, 8, 9, 10, 11, 12, 13, 14, 15, 16, 17, 18, 19, 20, 21, 22, 23, 24, 25, 26, 27, 28, 29, 30, 31, 32, 33, 34, 35, 36, 37, 38, 39, 40, 41, 42, 43, 44, 45, 46, 47, 48, 49, 50, 51, 52, 53, 54, 55, 56, 57, 58, 59, 60, 61, 62, 63, 64, 65, 66, 67, 68, 69, 70, 71, 72, 73, 74, 75, 76, 77, 78, 79, 80, 81, 82, 83, 84, 85, 86, 87, 88, 89, 90, 91, 92, 93, 94, 95, 96, 97, 98, 99, 100, 101, 102, 103, 104, 105, 106, 107, 108, 109, 110, 111, 112, 113, 114, 115, 116, 117, 118, 119, 120, 121, 122, 123, 124, 125, 126, 127, 128, 129, 130, 131, 132, 133, 134, 135, 136, 137, 138, 139, 140, 141, 142, 143, 144, 145, 146, 147, 148, 149, 150, 151, 152, 153, 154, 155, 156, 157, 158, 159, 160, 161, 162, 163, 164, 165, 166, 167, 168, 169, 170, 171, 172, 173, 174, 175, 176, 177, 178, 179, 180, 181, 182, 183, 184, 185, 186, 187, 188, 189, 190, 191, 192, 193, 194, 195, 196, 197, 198, 199, 200, 201, 202, 203, 204, 205, 206, 207, 208, 209, 210, 211, 212, 213, 214, 215, 216, 217, 218, 219, 220, 221, 222, 223, 224, 225, 226, 227, 228, 229, 230, 231, 232, 233, 234, 235, 236, 237, 238, 239, 240, 241, 242, 243, 244, 245, 246, 247, 248, 249, 250, 251, 252, 253, 254, 255, 256, 257, 258, 259, 260, 261, 262, 263, 264, 265, 266, 267, 268, 269, 270, 271, 272, 273, 274, 275, 276, 277, 278, 279, 280, 281, 282, 283, 284, 285, 286, 287, 288, 289, 290, 291, 292, 293, 294, 295, 296, 297, 298, 299, 300, 301, 302, 303, 304, 305, 306, 307, 308, 309, 310, 311, 312, 313, 314, 315, 316, 317, 318, 319, 320, 321, 322, 323, 324, 325, 326, 327, 328, 329, 330, 331, 332, 333, 334, 335, 336, 337, 338, 339, 340, 341, 342, 343, 344, 345, 346, 347, 348, 349, 350, 351, 352, 353, 354, 355, 356, 357, 358, 359, 360, 361, 362, 363, 364, 365, 366, 367, 368, 369, 370, 371, 372, 373, 374, 375, 376, 377, 378, 379, 380, 381, 382, 383, 384, 385, 386, 387, 388, 389, 390, 391, 392, 393, 394, 395, 396, 397, 398, 399, 400, 401, 402, 403, 404, 405, 406, 407, 408, 409, 410, 411, 412, 413, 414, 415, 416, 417, 418, 419, 420, 421, 422, 423, 424, 425, 426, 427, 428, 429, 430, 431, 432, 433, 434, 435, 436, 437, 438, 439, 440, 441, 442, 443, 444, 445, 446, 447, 448, 449, 450, 451, 452, 453, 454, 455, 456, 457, 458, 459, 460, 461, 462, 463, 464, 465, 466, 467, 468, 469, 470, 471, 472, 473, 474, 475, 476, 477, 478, 479, 480, 481, 482, 483, 484, 485, 486, 487, 488, 489, 490, 491, 492, 493, 494, 495, 496, 497, 498, 499, 500, 501, 502, 503, 504, 505, 506, 507, 508, 509, 510, 511, 512, 513, 514, 515, 516, 517, 518, 519, 520, 521, 522, 523, 524, 525, 526, 527, 528, 529, 530, 531, 532, 533, 534, 535, 536, 537, 538, 539, 540, 541, 542, 543, 544, 545, 546, 547, 548, 549, 550, 551, 552, 553, 554, 555, 556, 557, 558, 559, 560, 561, 562, 563, 564, 565, 566, 567, 568, 569, 570, 571, 572, 573, 574, 575, 576, 577, 578, 579, 580, 581, 582, 583, 584, 585, 586, 587, 588, 589, 590, 591, 592, 593, 594, 595, 596, 597, 598, 599, 600, 601, 602, 603, 604, 605, 606, 607, 608, 609, 610, 611, 612, 613, 614, 615, 616, 617, 618, 619, 620, 621, 622, 623, 624, 625, 626, 627, 628, 629, 630, 631, 632, 633, 634, 635, 636, 637, 638, 639, 640, 641, 642, 643, 644, 645, 646, 647, 648, 649, 650, 651, 652, 653, 654, 655, 656, 657, 658, 659, 660, 661, 662, 663, 664, 665, 666, 667, 668, 669, 670, 671, 672, 673, 674, 675, 676, 677, 678, 679, 680, 681, 682, 683, 684, 685, 686, 687, 688, 689, 690, 691, 692, 693, 694, 695, 696, 697, 698, 699, 700, 701, 702, 703, 704, 705, 706, 707, 708, 709, 710, 711, 712, 713, 714, 715, 716, 717, 718, 719, 720, 721, 722, 723, 724, 725, 726, 727, 728, 729, 730, 731, 732, 733, 734, 735, 736, 737, 738, 739, 740, 741, 742, 743, 744, 745, 746, 747, 748, 749, 750, 751, 752, 753, 754, 755, 756, 757, 758, 759, 760, 761, 762, 763, 764, 765, 766, 767, 768, 769, 770, 771, 772, 773, 774, 775, 776, 777, 778, 779, 780, 781, 782, 783, 784, 785, 786, 787, 788, 789, 790, 791, 792, 793, 794, 795, 796, 797, 798, 799, 800, 801, 802, 803, 804, 805, 806, 807, 808, 809, 810, 811, 812, 813, 814, 815, 816, 817, 818, 819, 820, 821, 822, 823, 824, 825, 826, 827, 828, 829, 830, 831, 832, 833, 834, 835, 836, 837, 838, 839, 840, 841, 842, 843, 844, 845, 846, 847, 848, 849, 850, 851, 852, 853, 854, 855, 856, 857, 858, 859, 860, 861, 862, 863, 864, 865, 866, 867, 868, 869, 870, 871, 872, 873, 874, 875, 876, 877, 878, 879, 880, 881, 882, 883, 884, 885, 886, 887, 888, 889, 890, 891, 892, 893, 894, 895, 896, 897, 898, 899, 900, 901, 902, 903, 904, 905, 906, 907, 908, 909, 910, 911, 912, 913, 914, 915, 916, 917, 918, 919, 920, 921, 922, 923, 924, 925, 926, 927, 928, 929, 930, 931, 932, 933, 934, 935, 936, 937, 938, 939, 940, 941, 942, 943, 944, 945, 946, 947, 948, 949, 950, 951, 952, 953, 954, 955, 956, 957, 958, 959, 960, 961, 962, 963, 964, 965, 966, 967, 968, 969, 970, 971, 972, 973, 974, 975, 976, 977, 978, 979, 980, 981, 982, 983, 984, 985, 986, 987, 988, 989, 990, 991, 992, 993, 994, 995, 996, 997, 998, 999, 1000, 1001, 1002, 1003, 1004, 1005, 1006, 1007, 1008, 1009, 1010, 1011, 1012, 1013, 1014, 1015, 1016, 1017, 1018, 1019, 1020, 1021, 1022, 1023, 1024, 1025, 1026, 1027, 1028, 1029, 1030, 1031, 1032, 1033, 1034, 1035, 1036, 1037, 1038, 1039, 1040, 1041, 1042, 1043, 1044, 1045, 1046, 1047, 1048, 1049, 1050, 1051, 1052, 1053, 1054, 1055, 1056, 1057, 1058, 1059, 1060, 1061, 1062, 1063, 1064, 1065, 1066, 1067, 1068, 1069, 1070, 1071, 1072, 1073],
      "AcquisitionTime": ["170408.170000", "170408.630000", "170409.090000", "170409.550000", "170410.010000", "170410.470000", "170410.930000", "170411.390000", "170411.850000", "170412.310000", "170412.770000", "170413.230000", "170413.690000", "170414.150000", "170414.610000", "170415.070000", "170415.530000", "170415.990000", "170416.450000", "170416.910000", "170417.370000", "170417.830000", "170418.290000", "170418.750000", "170419.210000", "170419.670000", "170420.130000", "170420.590000", "170421.050000", "170421.510000", "170421.970000", "170422.430000", "170422.890000", "170423.350000", "170423.810000", "170424.270000", "170424.730000", "170425.190000", "170425.650000", "170426.110000", "170426.570000", "170427.030000", "170427.490000", "170427.950000", "170428.410000", "170428.870000", "170429.330000", "170429.790000", "170430.250000", "170430.710000", "170431.170000", "170431.630000", "170432.090000", "170432.550000", "170433.010000", "170433.470000", "170433.930000", "170434.390000", "170434.850000", "170435.310000", "170435.770000", "170436.230000", "170436.690000", "170437.150000", "170437.610000", "170438.070000", "170438.530000", "170438.990000", "170439.450000", "170439.910000", "170440.370000", "170440.830000", "170441.290000", "170441.750000", "170442.210000", "170442.670000", "170443.130000", "170443.590000", "170444.050000", "170444.510000", "170444.970000", "170445.430000", "170445.890000", "170446.350000", "170446.810000", "170447.270000", "170447.730000", "170448.190000", "170448.650000", "170449.110000", "170449.570000", "170450.030000", "170450.490000", "170450.950000", "170451.410000", "170451.870000", "170452.330000", "170452.790000", "170453.250000", "170453.710000", "170454.170000", "170454.630000", "170455.090000", "170455.550000", "170456.010000", "170456.470000", "170456.930000", "170457.390000", "170457.850000", "170458.310000", "170458.770000", "170459.230000", "170459.690000", "170500.150000", "170500.610000", "170501.070000", "170501.530000", "170501.990000", "170502.450000", "170502.910000", "170503.370000", "170503.830000", "170504.290000", "170504.750000", "170505.210000", "170505.670000", "170506.130000", "170506.590000", "170507.050000", "170507.510000", "170507.970000", "170508.430000", "170508.890000", "170509.350000", "170509.810000", "170510.270000", "170510.730000", "170511.190000", "170511.650000", "170512.110000", "170512.570000", "170513.030000", "170513.490000", "170513.950000", "170514.410000", "170514.870000", "170515.330000", "170515.790000", "170516.250000", "170516.710000", "170517.170000", "170517.630000", "170518.090000", "170518.550000", "170519.010000", "170519.470000", "170519.930000", "170520.390000", "170520.850000", "170521.310000", "170521.770000", "170522.230000", "170522.690000", "170523.150000", "170523.610000", "170524.070000", "170524.530000", "170524.990000", "170525.450000", "170525.910000", "170526.370000", "170526.830000", "170527.290000", "170527.750000", "170528.210000", "170528.670000", "170529.130000", "170529.590000", "170530.050000", "170530.510000", "170530.970000", "170531.430000", "170531.890000", "170532.350000", "170532.810000", "170533.270000", "170533.730000", "170534.190000", "170534.650000", "170535.110000", "170535.570000", "170536.030000", "170536.490000", "170536.950000", "170537.410000", "170537.870000", "170538.330000", "170538.790000", "170539.250000", "170539.710000", "170540.170000", "170540.630000", "170541.090000", "170541.550000", "170542.010000", "170542.470000", "170542.930000", "170543.390000", "170543.850000", "170544.310000", "170544.770000", "170545.230000", "170545.690000", "170546.150000", "170546.610000", "170547.070000", "170547.530000", "170547.990000", "170548.450000", "170548.910000", "170549.370000", "170549.830000", "170550.290000", "170550.750000", "170551.210000", "170551.670000", "170552.130000", "170552.590000", "170553.050000", "170553.510000", "170553.970000", "170554.430000", "170554.890000", "170555.350000", "170555.810000", "170556.270000", "170556.730000", "170557.190000", "170557.650000", "170558.110000", "170558.570000", "170559.030000", "170559.490000", "170559.950000", "170600.410000", "170600.870000", "170601.330000", "170601.790000", "170602.250000", "170602.710000", "170603.170000", "170603.630000", "170604.090000", "170604.550000", "170605.010000", "170605.470000", "170605.930000", "170606.390000", "170606.850000", "170607.310000", "170607.770000", "170608.230000", "170608.690000", "170609.150000", "170609.610000", "170610.070000", "170610.530000", "170610.990000", "170611.450000", "170611.910000", "170612.370000", "170612.830000", "170613.290000", "170613.750000", "170614.210000", "170614.670000", "170615.130000", "170615.590000", "170616.050000", "170616.510000", "170616.970000", "170617.430000", "170617.890000", "170618.350000", "170618.810000", "170619.270000", "170619.730000", "170620.190000", "170620.650000", "170621.110000", "170621.570000", "170622.030000", "170622.490000", "170622.950000", "170623.410000", "170623.870000", "170624.330000", "170624.790000", "170625.250000", "170625.710000", "170626.170000", "170626.630000", "170627.090000", "170627.550000", "170628.010000", "170628.470000", "170628.930000", "170629.390000", "170629.850000", "170630.310000", "170630.770000", "170631.230000", "170631.690000", "170632.150000", "170632.610000", "170633.070000", "170633.530000", "170633.990000", "170634.450000", "170634.910000", "170635.370000", "170635.830000", "170636.290000", "170636.750000", "170637.210000", "170637.670000", "170638.130000", "170638.590000", "170639.050000", "170639.510000", "170639.970000", "170640.430000", "170640.890000", "170641.350000", "170641.810000", "170642.270000", "170642.730000", "170643.190000", "170643.650000", "170644.110000", "170644.570000", "170645.030000", "170645.490000", "170645.950000", "170646.410000", "170646.870000", "170647.330000", "170647.790000", "170648.250000", "170648.710000", "170649.170000", "170649.630000", "170650.090000", "170650.550000", "170651.010000", "170651.470000", "170651.930000", "170652.390000", "170652.850000", "170653.310000", "170653.770000", "170654.230000", "170654.690000", "170655.150000", "170655.610000", "170656.070000", "170656.530000", "170656.990000", "170657.450000", "170657.910000", "170658.370000", "170658.830000", "170659.290000", "170659.750000", "170700.210000", "170700.670000", "170701.130000", "170701.590000", "170702.050000", "170702.510000", "170702.970000", "170703.430000", "170703.890000", "170704.350000", "170704.810000", "170705.270000", "170705.730000", "170706.190000", "170706.650000", "170707.110000", "170707.570000", "170708.030000", "170708.490000", "170708.950000", "170709.410000", "170709.870000", "170710.330000", "170710.790000", "170711.250000", "170711.710000", "170712.170000", "170712.630000", "170713.090000", "170713.550000", "170714.010000", "170714.470000", "170714.930000", "170715.390000", "170715.850000", "170716.310000", "170716.770000", "170717.230000", "170717.690000", "170718.150000", "170718.610000", "170719.070000", "170719.530000", "170719.990000", "170720.450000", "170720.910000", "170721.370000", "170721.830000", "170722.290000", "170722.750000", "170723.210000", "170723.670000", "170724.130000", "170724.590000", "170725.050000", "170725.510000", "170725.970000", "170726.430000", "170726.890000", "170727.350000", "170727.810000", "170728.270000", "170728.730000", "170729.190000", "170729.650000", "170730.110000", "170730.570000", "170731.030000", "170731.490000", "170731.950000", "170732.410000", "170732.870000", "170733.330000", "170733.790000", "170734.250000", "170734.710000", "170735.170000", "170735.630000", "170736.090000", "170736.550000", "170737.010000", "170737.470000", "170737.930000", "170738.390000", "170738.850000", "170739.310000", "170739.770000", "170740.230000", "170740.690000", "170741.150000", "170741.610000", "170742.070000", "170742.530000", "170742.990000", "170743.450000", "170743.910000", "170744.370000", "170744.830000", "170745.290000", "170745.750000", "170746.210000", "170746.670000", "170747.130000", "170747.590000", "170748.050000", "170748.510000", "170748.970000", "170749.430000", "170749.890000", "170750.350000", "170750.810000", "170751.270000", "170751.730000", "170752.190000", "170752.650000", "170753.110000", "170753.570000", "170754.030000", "170754.490000", "170754.950000", "170755.410000", "170755.870000", "170756.330000", "170756.790000", "170757.250000", "170757.710000", "170758.170000", "170758.630000", "170759.090000", "170759.550000", "170800.010000", "170800.470000", "170800.930000", "170801.390000", "170801.850000", "170802.310000", "170802.770000", "170803.230000", "170803.690000", "170804.150000", "170804.610000", "170805.070000", "170805.530000", "170805.990000", "170806.450000", "170806.910000", "170807.370000", "170807.830000", "170808.290000", "170808.750000", "170809.210000", "170809.670000", "170810.130000", "170810.590000", "170811.050000", "170811.510000", "170811.970000", "170812.430000", "170812.890000", "170813.350000", "170813.810000", "170814.270000", "170814.730000", "170815.190000", "170815.650000", "170816.110000", "170816.570000", "170817.030000", "170817.490000", "170817.950000", "170818.410000", "170818.870000", "170819.330000", "170819.790000", "170820.250000", "170820.710000", "170821.170000", "170821.630000", "170822.090000", "170822.550000", "170823.010000", "170823.470000", "170823.930000", "170824.390000", "170824.850000", "170825.310000", "170825.770000", "170826.230000", "170826.690000", "170827.150000", "170827.610000", "170828.070000", "170828.530000", "170828.990000", "170829.450000", "170829.910000", "170830.370000", "170830.830000", "170831.290000", "170831.750000", "170832.210000", "170832.670000", "170833.130000", "170833.590000", "170834.050000", "170834.510000", "170834.970000", "170835.430000", "170835.890000", "170836.350000", "170836.810000", "170837.270000", "170837.730000", "170838.190000", "170838.650000", "170839.110000", "170839.570000", "170840.030000", "170840.490000", "170840.950000", "170841.410000", "170841.870000", "170842.330000", "170842.790000", "170843.250000", "170843.710000", "170844.170000", "170844.630000", "170845.090000", "170845.550000", "170846.010000", "170846.470000", "170846.930000", "170847.390000", "170847.850000", "170848.310000", "170848.770000", "170849.230000", "170849.690000", "170850.150000", "170850.610000", "170851.070000", "170851.530000", "170851.990000", "170852.450000", "170852.910000", "170853.370000", "170853.830000", "170854.290000", "170854.750000", "170855.210000", "170855.670000", "170856.130000", "170856.590000", "170857.050000", "170857.510000", "170857.970000", "170858.430000", "170858.890000", "170859.350000", "170859.810000", "170900.270000", "170900.730000", "170901.190000", "170901.650000", "170902.110000", "170902.570000", "170903.030000", "170903.490000", "170903.950000", "170904.410000", "170904.870000", "170905.330000", "170905.790000", "170906.250000", "170906.710000", "170907.170000", "170907.630000", "170908.090000", "170908.550000", "170909.010000", "170909.470000", "170909.930000", "170910.390000", "170910.850000", "170911.310000", "170911.770000", "170912.230000", "170912.690000", "170913.150000", "170913.610000", "170914.070000", "170914.530000", "170914.990000", "170915.450000", "170915.910000", "170916.370000", "170916.830000", "170917.290000", "170917.750000", "170918.210000", "170918.670000", "170919.130000", "170919.590000", "170920.050000", "170920.510000", "170920.970000", "170921.430000", "170921.890000", "170922.350000", "170922.810000", "170923.270000", "170923.730000", "170924.190000", "170924.650000", "170925.110000", "170925.570000", "170926.030000", "170926.490000", "170926.950000", "170927.410000", "170927.870000", "170928.330000", "170928.790000", "170929.250000", "170929.710000", "170930.170000", "170930.630000", "170931.090000", "170931.550000", "170932.010000", "170932.470000", "170932.930000", "170933.390000", "170933.850000", "170934.310000", "170934.770000", "170935.230000", "170935.690000", "170936.150000", "170936.610000", "170937.070000", "170937.530000", "170937.990000", "170938.450000", "170938.910000", "170939.370000", "170939.830000", "170940.290000", "170940.750000", "170941.210000", "170941.670000", "170942.130000", "170942.590000", "170943.050000", "170943.510000", "170943.970000", "170944.430000", "170944.890000", "170945.350000", "170945.810000", "170946.270000", "170946.730000", "170947.190000", "170947.650000", "170948.110000", "170948.570000", "170949.030000", "170949.490000", "170949.950000", "170950.410000", "170950.870000", "170951.330000", "170951.790000", "170952.250000", "170952.710000", "170953.170000", "170953.630000", "170954.090000", "170954.550000", "170955.010000", "170955.470000", "170955.930000", "170956.390000", "170956.850000", "170957.310000", "170957.770000", "170958.230000", "170958.690000", "170959.150000", "170959.610000", "171000.070000", "171000.530000", "171000.990000", "171001.450000", "171001.910000", "171002.370000", "171002.830000", "171003.290000", "171003.750000", "171004.210000", "171004.670000", "171005.130000", "171005.590000", "171006.050000", "171006.510000", "171006.970000", "171007.430000", "171007.890000", "171008.350000", "171008.810000", "171009.270000", "171009.730000", "171010.190000", "171010.650000", "171011.110000", "171011.570000", "171012.030000", "171012.490000", "171012.950000", "171013.410000", "171013.870000", "171014.330000", "171014.790000", "171015.250000", "171015.710000", "171016.170000", "171016.630000", "171017.090000", "171017.550000", "171018.010000", "171018.470000", "171018.930000", "171019.390000", "171019.850000", "171020.310000", "171020.770000", "171021.230000", "171021.690000", "171022.150000", "171022.610000", "171023.070000", "171023.530000", "171023.990000", "171024.450000", "171024.910000", "171025.370000", "171025.830000", "171026.290000", "171026.750000", "171027.210000", "171027.670000", "171028.130000", "171028.590000", "171029.050000", "171029.510000", "171029.970000", "171030.430000", "171030.890000", "171031.350000", "171031.810000", "171032.270000", "171032.730000", "171033.190000", "171033.650000", "171034.110000", "171034.570000", "171035.030000", "171035.490000", "171035.950000", "171036.410000", "171036.870000", "171037.330000", "171037.790000", "171038.250000", "171038.710000", "171039.170000", "171039.630000", "171040.090000", "171040.550000", "171041.010000", "171041.470000", "171041.930000", "171042.390000", "171042.850000", "171043.310000", "171043.770000", "171044.230000", "171044.690000", "171045.150000", "171045.610000", "171046.070000", "171046.530000", "171046.990000", "171047.450000", "171047.910000", "171048.370000", "171048.830000", "171049.290000", "171049.750000", "171050.210000", "171050.670000", "171051.130000", "171051.590000", "171052.050000", "171052.510000", "171052.970000", "171053.430000", "171053.890000", "171054.350000", "171054.810000", "171055.270000", "171055.730000", "171056.190000", "171056.650000", "171057.110000", "171057.570000", "171058.030000", "171058.490000", "171058.950000", "171059.410000", "171059.870000", "171100.330000", "171100.790000", "171101.250000", "171101.710000", "171102.170000", "171102.630000", "171103.090000", "171103.550000", "171104.010000", "171104.470000", "171104.930000", "171105.390000", "171105.850000", "171106.310000", "171106.770000", "171107.230000", "171107.690000", "171108.150000", "171108.610000", "171109.070000", "171109.530000", "171109.990000", "171110.450000", "171110.910000", "171111.370000", "171111.830000", "171112.290000", "171112.750000", "171113.210000", "171113.670000", "171114.130000", "171114.590000", "171115.050000", "171115.510000", "171115.970000", "171116.430000", "171116.890000", "171117.350000", "171117.810000", "171118.270000", "171118.730000", "171119.190000", "171119.650000", "171120.110000", "171120.570000", "171121.030000", "171121.490000", "171121.950000", "171122.410000", "171122.870000", "171123.330000", "171123.790000", "171124.250000", "171124.710000", "171125.170000", "171125.630000", "171126.090000", "171126.550000", "171127.010000", "171127.470000", "171127.930000", "171128.390000", "171128.850000", "171129.310000", "171129.770000", "171130.230000", "171130.690000", "171131.150000", "171131.610000", "171132.070000", "171132.530000", "171132.990000", "171133.450000", "171133.910000", "171134.370000", "171134.830000", "171135.290000", "171135.750000", "171136.210000", "171136.670000", "171137.130000", "171137.590000", "171138.050000", "171138.510000", "171138.970000", "171139.430000", "171139.890000", "171140.350000", "171140.810000", "171141.270000", "171141.730000", "171142.190000", "171142.650000", "171143.110000", "171143.570000", "171144.030000", "171144.490000", "171144.950000", "171145.410000", "171145.870000", "171146.330000", "171146.790000", "171147.250000", "171147.710000", "171148.170000", "171148.630000", "171149.090000", "171149.550000", "171150.010000", "171150.470000", "171150.930000", "171151.390000", "171151.850000", "171152.310000", "171152.770000", "171153.230000", "171153.690000", "171154.150000", "171154.610000", "171155.070000", "171155.530000", "171155.990000", "171156.450000", "171156.910000", "171157.370000", "171157.830000", "171158.290000", "171158.750000", "171159.210000", "171159.670000", "171200.130000", "171200.590000", "171201.050000", "171201.510000", "171201.970000", "171202.430000", "171202.890000", "171203.350000", "171203.810000", "171204.270000", "171204.730000", "171205.190000", "171205.650000", "171206.110000", "171206.570000", "171207.030000", "171207.490000", "171207.950000", "171208.410000", "171208.870000", "171209.330000", "171209.790000", "171210.250000", "171210.710000", "171211.170000", "171211.630000", "171212.090000", "171212.550000", "171213.010000", "171213.470000", "171213.930000", "171214.390000", "171214.850000", "171215.310000", "171215.770000", "171216.230000", "171216.690000", "171217.150000", "171217.610000", "171218.070000", "171218.530000", "171218.990000", "171219.450000", "171219.910000", "171220.370000", "171220.830000", "171221.290000"],
