{
  "AcquisitionMatrixPE": 140,
  "AcquisitionNumber": 1,
  "AcquisitionTime": "17:51:35.462500",
  "BandwidthPerPixelPhaseEncode": 10.352,
  "BaseResolution": 140,
  "BodyPartExamined": "BRAIN",
  "ConsistencyInfo": "N4_VE11E_LATEST_20181129",
  "ConversionSoftware": "dcm2niix",
  "ConversionSoftwareVersion": "v1.0.20201102",
  "DerivedVendorReportedEchoSpacing": 0.000689998,
  "DeviceSerialNumber": "66112",
  "DiffusionScheme": "Monopolar",
  "DwellTime": 2.1e-06,
  "EchoTime": 0.088,
  "EchoTrainLength": 105,
  "EffectiveEchoSpacing": 0.000689998,
  "FlipAngle": 90,
  "ImageComments": "Unaliased MB3/PE3",
  "ImageOrientationPatientDICOM": [0.998976, -0.0452389, 0.000620834, 0.0451886, 0.998351, 0.0354023],
  "ImageType": [
    "ORIGINAL",
    "PRIMARY",
    "DIFFUSION",
    "NONE",
    "MB",
    "ND"
],
  "ImagingFrequency": 123.259,
  "InPlanePhaseEncodingDirectionDICOM": "COL",
  "InstitutionAddress": "Maynard 3,Hanover,NH,US,03755",
  "InstitutionName": "Dartmouth College - PBS",
  "InstitutionalDepartmentName": "Department",
  "IntendedFor": [
    "ses-01/dwi/sub-0115_ses-01_acq-96dirX6b0Xmb_dwi.nii.gz"
],
  "MRAcquisitionType": "2D",
  "MagneticFieldStrength": 3,
  "Manufacturer": "Siemens",
  "ManufacturersModelName": "Prisma",
  "Modality": "MR",
  "MultibandAccelerationFactor": 3,
  "PartialFourier": 0.75,
  "PatientPosition": "HFS",
  "PercentPhaseFOV": 100,
  "PercentSampling": 100,
  "PhaseEncodingDirection": "j",
  "PhaseEncodingSteps": 105,
  "PhaseResolution": 1,
  "PixelBandwidth": 1700,
  "ProcedureStepDescription": "Wager_Wager^1076_spacetop",
  "ProtocolName": "dwi_acq-discorr-PA",
  "PulseSequenceDetails": "%CustomerSeq%\\cmrr_mbep2d_diff",
  "ReceiveCoilActiveElements": "HEA;HEP",
  "ReceiveCoilName": "Head_32",
  "ReconMatrixPE": 140,
  "RepetitionTime": 4.1,
  "SAR": 0.141617,
  "ScanOptions": "PFP\\FS",
  "ScanningSequence": "EP",
  "SequenceName": "ep_b0",
  "SequenceVariant": "SK\\SS",
  "SeriesDescription": "dwi_acq-discorr-PA",
  "SeriesNumber": 6,
  "ShimSetting": [4229, -7759, -7287, 104, -111, -125, -71, 91],
  "SliceThickness": 1.7,
  "SliceTiming": [0, 2.10938, 0.14062, 2.26562, 0.29688, 2.40625, 0.45312, 2.5625, 0.59375, 2.71875, 0.75, 2.85938, 0.90625, 3.01562, 1.04688, 3.17188, 1.20312, 3.3125, 1.35938, 3.46875, 1.5, 3.625, 1.65625, 3.76562, 1.8125, 3.92188, 1.95312, 0, 2.10938, 0.14062, 2.26562, 0.29688, 2.40625, 0.45312, 2.5625, 0.59375, 2.71875, 0.75, 2.85938, 0.90625, 3.01562, 1.04688, 3.17188, 1.20312, 3.3125, 1.35938, 3.46875, 1.5, 3.625, 1.65625, 3.76562, 1.8125, 3.92188, 1.95312, 0, 2.10938, 0.14062, 2.26562, 0.29688, 2.40625, 0.45312, 2.5625, 0.59375, 2.71875, 0.75, 2.85938, 0.90625, 3.01562, 1.04688, 3.17188, 1.20312, 3.3125, 1.35938, 3.46875, 1.5, 3.625, 1.65625, 3.76562, 1.8125, 3.92188, 1.95312],
  "SoftwareVersions": "syngo MR E11",
  "SpacingBetweenSlices": 1.7,
  "StationName": "AWP66112",
  "TotalReadoutTime": 0.0959097,
  "TxRefAmp": 237.023,
  "WipMemBlock": "2a787ea6-8bc3-45b7-90ea-1254f1ee6065||Sequence: R016 ve11e/master r/434b28f1; Aug  7 2019 19:06:17 by eja",
  "dcmmeta_affine": [
    [-1.712530255317688, 0.07746617496013641, 0.0037763118743896484, 117.66454315185547],
    [0.0775524154305458, 1.7114588022232056, 0.06007575988769531, -97.08946228027344],
    [0.0010642865672707558, -0.06068968400359154, 1.6989326477050781, -79.14989471435547],
    [0.0, 0.0, 0.0, 1.0]
],
  "dcmmeta_reorient_transform": [
    [0.0, -1.0, 0.0, 139.0],
    [1.0, 0.0, 0.0, 0.0],
    [0.0, 0.0, -1.0, 80.0],
    [0.0, 0.0, 0.0, 1.0]
],
  "dcmmeta_shape": [140, 140, 81],
  "dcmmeta_slice_dim": 2,
  "dcmmeta_version": 0.6,
  "global": {
    "const": {
      "AccessionNumber": "A004477",
      "AcquisitionMatrix": [140, 0, 0, 140],
      "AcquisitionNumber": 1,
      "AngioFlag": "N",
      "BitsAllocated": 16,
      "BitsStored": 16,
      "BodyPartExamined": "BRAIN",
      "Columns": 140,
      "EchoNumbers": 1,
      "EchoTime": 88.0,
      "EchoTrainLength": 105,
      "FlipAngle": 90.0,
      "HighBit": 15,
      "ImageOrientationPatient": [0.99897600352557, -0.0452389096399, 0.00062083384389, 0.04518860349411, 0.99835097348282, 0.03540231433328],
      "ImageType": [
        "ORIGINAL",
        "PRIMARY",
        "DIFFUSION",
        "NONE",
        "MB",
        "ND"
],
      "ImagedNucleus": "1H",
      "ImagingFrequency": 123.259102,
      "InPlanePhaseEncodingDirection": "COL",
      "MRAcquisitionType": "2D",
      "MagneticFieldStrength": 3.0,
      "Manufacturer": "SIEMENS",
      "ManufacturerModelName": "Prisma",
      "Modality": "MR",
      "NumberOfAverages": 1.0,
      "NumberOfPhaseEncodingSteps": 105,
      "PercentPhaseFieldOfView": 100.0,
      "PercentSampling": 100.0,
      "PerformedProcedureStepStartTime": "172338.285000",
      "PhotometricInterpretation": "MONOCHROME2",
      "PixelBandwidth": 1700.0,
      "PixelRepresentation": 0,
      "PixelSpacing": [1.7142857313156, 1.7142857313156],
      "ProtocolName": "dwi_acq-discorr-PA",
      "RepetitionTime": 4100.0,
      "Rows": 140,
      "SAR": 0.14161721937611,
      "SamplesPerPixel": 1,
      "ScanOptions": [
        "PFP",
        "FS"
],
      "ScanningSequence": "EP",
      "SequenceName": "ep_b0",
      "SequenceVariant": [
        "SK",
        "SS"
],
      "SeriesDescription": "dwi_acq-discorr-PA",
      "SeriesNumber": 6,
      "SeriesTime": "175139.920000",
      "SliceThickness": 1.7000000476837,
      "SmallestImagePixelValue": 0,
      "SoftwareVersions": "syngo MR E11",
      "SpacingBetweenSlices": 1.7,
      "SpecificCharacterSet": "ISO_IR 100",
      "StudyID": "1",
      "StudyTime": "172338.221000",
      "TransmitCoilName": "Body",
      "VariableFlipAngleFlag": "N",
      "WindowCenterWidthExplanation": "Algo1"
    },
    "slices": {
      "AcquisitionTime": ["175135.462500", "175137.577500", "175135.612500", "175137.727500", "175135.765000", "175137.880000", "175135.915000", "175138.030000", "175136.067500", "175138.182500", "175136.217500", "175138.332500", "175136.367500", "175138.485000", "175136.520000", "175138.635000", "175136.670000", "175138.787500", "175136.822500", "175138.937500", "175136.972500", "175139.087500", "175137.125000", "175139.240000", "175137.275000", "175139.390000", "175137.427500", "175135.462500", "175137.577500", "175135.612500", "175137.727500", "175135.765000", "175137.880000", "175135.915000", "175138.030000", "175136.067500", "175138.182500", "175136.217500", "175138.332500", "175136.367500", "175138.485000", "175136.520000", "175138.635000", "175136.670000", "175138.787500", "175136.822500", "175138.937500", "175136.972500", "175139.087500", "175137.125000", "175139.240000", "175137.275000", "175139.390000", "175137.427500", "175135.462500", "175137.577500", "175135.612500", "175137.727500", "175135.765000", "175137.880000", "175135.915000", "175138.030000", "175136.067500", "175138.182500", "175136.217500", "175138.332500", "175136.367500", "175138.485000", "175136.520000", "175138.635000", "175136.670000", "175138.787500", "175136.822500", "175138.937500", "175136.972500", "175139.087500", "175137.125000", "175139.240000", "175137.275000", "175139.390000", "175137.427500"],
      "ContentTime": ["175139.923000", "175140.030000", "175139.930000", "175140.037000", "175139.936000", "175140.044000", "175139.942000", "175140.051000", "175139.948000", "175140.057000", "175139.955000", "175140.064000", "175139.961000", "175140.071000", "175139.982000", "175140.078000", "175139.988000", "175140.086000", "175139.994000", "175140.092000", "175140.001000", "175140.098000", "175140.007000", "175140.104000", "175140.013000", "175140.112000", "175140.019000", "175139.926000", "175140.032000", "175139.932000", "175140.039000", "175139.938000", "175140.046000", "175139.944000", "175140.053000", "175139.950000", "175140.060000", "175139.957000", "175140.066000", "175139.978000", "175140.073000", "175139.984000", "175140.080000", "175139.990000", "175140.088000", "175139.996000", "175140.094000", "175140.003000", "175140.100000", "175140.009000", "175140.107000", "175140.015000", "175140.115000", "175140.025000", "175139.928000", "175140.035000", "175139.934000", "175140.041000", "175139.940000", "175140.048000", "175139.946000", "175140.055000", "175139.953000", "175140.062000", "175139.959000", "175140.069000", "175139.980000", "175140.075000", "175139.986000", "175140.083000", "175139.992000", "175140.090000", "175139.998000", "175140.096000", "175140.005000", "175140.102000", "175140.011000", "175140.110000", "175140.017000", "175140.118000", "175140.027000"],
      "CsaImage.GSWDDataType": [
        "predicted",
        "predicted",
        "predicted",
        "predicted",
        "predicted",
        "predicted",
        "predicted",
        "predicted",
        "predicted",
        "predicted",
        "predicted",
        "predicted",
        "predicted",
        "predicted",
        "predicted",
        "predicted",
        "predicted",
        "predicted",
        "predicted",
        "predicted",
        "predicted",
        "predicted",
        "predicted",
        "measured",
        "predicted",
        "measured",
        "predicted",
        "predicted",
        "predicted",
        "predicted",
        "predicted",
        "predicted",
        "predicted",
        "predicted",
        "predicted",
        "predicted",
        "predicted",
        "predicted",
        "predicted",
        "predicted",
        "predicted",
        "predicted",
        "predicted",
        "predicted",
        "predicted",
        "predicted",
        "predicted",
        "predicted",
        "predicted",
        "predicted",
        "measured",
        "predicted",
        "measured",
        "predicted",
        "predicted",
        "predicted",
        "predicted",
        "predicted",
        "predicted",
        "predicted",
        "predicted",
        "predicted",
        "predicted",
        "predicted",
        "predicted",
        "predicted",
        "predicted",
        "predicted",
        "predicted",
        "predicted",
        "predicted",
        "predicted",
        "predicted",
        "predicted",
        "predicted",
        "predicted",
        "predicted",
        "measured",
        "predicted",
        "measured",
        "predicted"
],
      "CsaImage.ICE_Dims": [
        "X_1_1_1_1_1_1_1_1_1_1_1_174",
        "X_1_1_1_1_1_1_42_1_1_2_1_174",
        "X_1_1_1_1_1_1_2_1_1_3_1_174",
        "X_1_1_1_1_1_1_43_1_1_4_1_174",
        "X_1_1_1_1_1_1_3_1_1_5_1_174",
        "X_1_1_1_1_1_1_44_1_1_6_1_174",
        "X_1_1_1_1_1_1_4_1_1_7_1_174",
        "X_1_1_1_1_1_1_45_1_1_8_1_174",
        "X_1_1_1_1_1_1_5_1_1_9_1_174",
        "X_1_1_1_1_1_1_46_1_1_10_1_174",
        "X_1_1_1_1_1_1_6_1_1_11_1_174",
        "X_1_1_1_1_1_1_47_1_1_12_1_174",
        "X_1_1_1_1_1_1_7_1_1_13_1_174",
        "X_1_1_1_1_1_1_48_1_1_14_1_174",
        "X_1_1_1_1_1_1_8_1_1_15_1_174",
        "X_1_1_1_1_1_1_49_1_1_16_1_174",
        "X_1_1_1_1_1_1_9_1_1_17_1_174",
        "X_1_1_1_1_1_1_50_1_1_18_1_174",
        "X_1_1_1_1_1_1_10_1_1_19_1_174",
        "X_1_1_1_1_1_1_51_1_1_20_1_174",
        "X_1_1_1_1_1_1_11_1_1_21_1_174",
        "X_1_1_1_1_1_1_52_1_1_22_1_174",
        "X_1_1_1_1_1_1_12_1_1_23_1_174",
        "X_1_1_1_1_1_1_53_1_1_24_1_174",
        "X_1_1_1_1_1_1_13_1_1_25_1_174",
        "X_1_1_1_1_1_1_54_1_1_26_1_174",
        "X_1_1_1_1_1_1_14_1_1_27_1_174",
        "X_1_1_1_1_1_1_55_1_1_28_1_174",
        "X_1_1_1_1_1_1_15_1_1_29_1_174",
        "X_1_1_1_1_1_1_56_1_1_30_1_174",
        "X_1_1_1_1_1_1_16_1_1_31_1_174",
        "X_1_1_1_1_1_1_57_1_1_32_1_174",
        "X_1_1_1_1_1_1_17_1_1_33_1_174",
        "X_1_1_1_1_1_1_58_1_1_34_1_174",
        "X_1_1_1_1_1_1_18_1_1_35_1_174",
        "X_1_1_1_1_1_1_59_1_1_36_1_174",
        "X_1_1_1_1_1_1_19_1_1_37_1_174",
        "X_1_1_1_1_1_1_60_1_1_38_1_174",
        "X_1_1_1_1_1_1_20_1_1_39_1_174",
        "X_1_1_1_1_1_1_61_1_1_40_1_174",
        "X_1_1_1_1_1_1_21_1_1_41_1_174",
        "X_1_1_1_1_1_1_62_1_1_42_1_174",
        "X_1_1_1_1_1_1_22_1_1_43_1_174",
        "X_1_1_1_1_1_1_63_1_1_44_1_174",
        "X_1_1_1_1_1_1_23_1_1_45_1_174",
        "X_1_1_1_1_1_1_64_1_1_46_1_174",
        "X_1_1_1_1_1_1_24_1_1_47_1_174",
        "X_1_1_1_1_1_1_65_1_1_48_1_174",
        "X_1_1_1_1_1_1_25_1_1_49_1_174",
        "X_1_1_1_1_1_1_66_1_1_50_1_174",
        "X_1_1_1_1_1_1_26_1_1_51_1_174",
        "X_1_1_1_1_1_1_67_1_1_52_1_174",
        "X_1_1_1_1_1_1_27_1_1_53_1_174",
        "X_1_1_1_1_1_1_68_1_1_54_1_174",
        "X_1_1_1_1_1_1_28_1_1_55_1_174",
        "X_1_1_1_1_1_1_69_1_1_56_1_174",
        "X_1_1_1_1_1_1_29_1_1_57_1_174",
        "X_1_1_1_1_1_1_70_1_1_58_1_174",
        "X_1_1_1_1_1_1_30_1_1_59_1_174",
        "X_1_1_1_1_1_1_71_1_1_60_1_174",
        "X_1_1_1_1_1_1_31_1_1_61_1_174",
        "X_1_1_1_1_1_1_72_1_1_62_1_174",
        "X_1_1_1_1_1_1_32_1_1_63_1_174",
        "X_1_1_1_1_1_1_73_1_1_64_1_174",
        "X_1_1_1_1_1_1_33_1_1_65_1_174",
        "X_1_1_1_1_1_1_74_1_1_66_1_174",
        "X_1_1_1_1_1_1_34_1_1_67_1_174",
        "X_1_1_1_1_1_1_75_1_1_68_1_174",
        "X_1_1_1_1_1_1_35_1_1_69_1_174",
        "X_1_1_1_1_1_1_76_1_1_70_1_174",
        "X_1_1_1_1_1_1_36_1_1_71_1_174",
        "X_1_1_1_1_1_1_77_1_1_72_1_174",
        "X_1_1_1_1_1_1_37_1_1_73_1_174",
        "X_1_1_1_1_1_1_78_1_1_74_1_174",
        "X_1_1_1_1_1_1_38_1_1_75_1_174",
        "X_1_1_1_1_1_1_79_1_1_76_1_174",
        "X_1_1_1_1_1_1_39_1_1_77_1_174",
        "X_1_1_1_1_1_1_80_1_1_78_1_174",
        "X_1_1_1_1_1_1_40_1_1_79_1_174",
        "X_1_1_1_1_1_1_81_1_1_80_1_174",
        "X_1_1_1_1_1_1_41_1_1_81_1_174"
],
      "CsaImage.ProtocolSliceNumber": [0, 1, 2, 3, 4, 5, 6, 7, 8, 9, 10, 11, 12, 13, 14, 15, 16, 17, 18, 19, 20, 21, 22, 23, 24, 25, 26, 27, 28, 29, 30, 31, 32, 33, 34, 35, 36, 37, 38, 39, 40, 41, 42, 43, 44, 45, 46, 47, 48, 49, 50, 51, 52, 53, 54, 55, 56, 57, 58, 59, 60, 61, 62, 63, 64, 65, 66, 67, 68, 69, 70, 71, 72, 73, 74, 75, 76, 77, 78, 79, 80],
      "CsaImage.RFSWDDataType": [
        "predicted",
        "predicted",
        "predicted",
        "predicted",
        "predicted",
        "predicted",
        "predicted",
        "predicted",
        "predicted",
        "predicted",
        "predicted",
        "predicted",
        "predicted",
        "predicted",
        "predicted",
        "predicted",
        "predicted",
        "predicted",
        "predicted",
        "predicted",
        "predicted",
        "predicted",
        "predicted",
        "measured",
        "predicted",
        "measured",
        "predicted",
        "predicted",
        "predicted",
        "predicted",
        "predicted",
        "predicted",
        "predicted",
        "predicted",
        "predicted",
        "predicted",
        "predicted",
        "predicted",
        "predicted",
        "predicted",
        "predicted",
        "predicted",
        "predicted",
        "predicted",
        "predicted",
        "predicted",
        "predicted",
        "predicted",
        "predicted",
        "predicted",
        "measured",
        "predicted",
        "measured",
        "predicted",
        "predicted",
        "predicted",
        "predicted",
        "predicted",
        "predicted",
        "predicted",
        "predicted",
        "predicted",
        "predicted",
        "predicted",
        "predicted",
        "predicted",
        "predicted",
        "predicted",
        "predicted",
        "predicted",
        "predicted",
        "predicted",
        "predicted",
        "predicted",
        "predicted",
        "predicted",
        "predicted",
        "measured",
        "predicted",
        "measured",
        "predicted"
],
      "CsaImage.SlicePosition_PCS": [
        [-128.43234295, -140.80340905, -87.58586987],
        [-128.43611926, -140.8634829, -85.88694103],
        [-128.43989557, -140.92355866, -84.18800457],
        [-128.44367189, -140.98363251, -82.48906811],
        [-128.4474482, -141.04370637, -80.79013165],
        [-128.45122475, -141.10378213, -79.09120281],
        [-128.45500106, -141.16385598, -77.39226635],
        [-128.45877737, -141.22393174, -75.69332989],
        [-128.46255368, -141.28400559, -73.99440105],
        [-128.46633, -141.34407944, -72.29546459],
        [-128.47010631, -141.4041552, -70.59652813],
        [-128.47388262, -141.46422906, -68.8975993],
        [-128.47765893, -141.52430482, -67.19866283],
        [-128.48143524, -141.58437867, -65.49973019],
        [-128.48521156, -141.64445252, -63.80079372],
        [-128.48898787, -141.70452828, -62.10186108],
        [-128.49276418, -141.76460213, -60.40292843],
        [-128.49654049, -141.82467789, -58.70399197],
        [-128.5003168, -141.88475175, -57.00505932],
        [-128.50409335, -141.9448256, -55.30612667],
        [-128.50786966, -142.00490136, -53.60719021],
        [-128.51164598, -142.06497521, -51.90825756],
        [-128.51542229, -142.12505097, -50.20932491],
        [-128.5191986, -142.18512482, -48.51038845],
        [-128.52297491, -142.24519868, -46.8114558],
        [-128.52675122, -142.30527444, -45.11251934],
        [-128.53052754, -142.36534829, -43.41358669],
        [-128.53430385, -142.42542405, -41.71465404],
        [-128.53808016, -142.4854979, -40.01571758],
        [-128.54185647, -142.54557175, -38.31678493],
        [-128.54563278, -142.60564751, -36.61785229],
        [-128.5494091, -142.66572137, -34.91891773],
        [-128.55318541, -142.72579712, -33.21998318],
        [-128.55696196, -142.78587098, -31.52104862],
        [-128.56073827, -142.84594483, -29.82211407],
        [-128.56451458, -142.90602059, -28.12318142],
        [-128.56829089, -142.96609444, -26.42424686],
        [-128.57206721, -143.0261702, -24.72531231],
        [-128.57584352, -143.08624405, -23.02637966],
        [-128.57961983, -143.14631791, -21.32744511],
        [-128.58339614, -143.20639367, -19.62851055],
        [-128.58717245, -143.26646752, -17.92957695],
        [-128.59094876, -143.32654328, -16.23064239],
        [-128.59472508, -143.38661713, -14.53170879],
        [-128.59850139, -143.44669098, -12.83277519],
        [-128.6022777, -143.50676674, -11.13384064],
        [-128.60605425, -143.5668406, -9.43490656],
        [-128.60983056, -143.62691636, -7.73597272],
        [-128.61360687, -143.68699021, -6.03703876],
        [-128.61738319, -143.74706406, -4.33810472],
        [-128.6211595, -143.80713982, -2.63917072],
        [-128.62493581, -143.86721367, -0.94023664],
        [-128.62871212, -143.92728943, 0.75869743],
        [-128.63248843, -143.98736329, 2.45763151],
        [-128.63626475, -144.04743714, 4.15656559],
        [-128.64004106, -144.1075129, 5.85549919],
        [-128.64381737, -144.16758675, 7.55443375],
        [-128.64759368, -144.22766251, 9.25336735],
        [-128.65136999, -144.28773636, 10.95230095],
        [-128.6551463, -144.34781022, 12.65123455],
        [-128.65892286, -144.40788598, 14.35016911],
        [-128.66269917, -144.46795983, 16.04910366],
        [-128.66647548, -144.52803559, 17.74803822],
        [-128.67025179, -144.58810944, 19.44697086],
        [-128.6740281, -144.64818329, 21.14590542],
        [-128.67780441, -144.70825905, 22.84483997],
        [-128.68158073, -144.76833291, 24.54377262],
        [-128.68535704, -144.82840867, 26.24270718],
        [-128.68913335, -144.88848252, 27.94164173],
        [-128.69290966, -144.94855637, 29.64057438],
        [-128.69668597, -145.00863213, 31.33951084],
        [-128.70046229, -145.06870598, 33.03844349],
        [-128.7042386, -145.12878174, 34.73737614],
        [-128.70801491, -145.1888556, 36.4363126],
        [-128.71179146, -145.24892945, 38.13524525],
        [-128.71556777, -145.30900521, 39.83417789],
        [-128.71934408, -145.36907906, 41.53311436],
        [-128.7231204, -145.42915482, 43.232047],
        [-128.72689671, -145.48922867, 44.93098347],
        [-128.73067302, -145.54930253, 46.62991612],
        [-128.73444933, -145.60937829, 48.32884876]
],
      "CsaImage.TimeAfterStart": [16.4, 18.515, 16.55, 18.665, 16.7025, 18.8175, 16.8525, 18.9675, 17.0025, 19.12, 17.155, 19.27, 17.305, 19.42, 17.4575, 19.5725, 17.6075, 19.7225, 17.76, 19.875, 17.91, 20.025, 18.06, 20.1775, 18.2125, 20.3275, 18.3625, 16.4, 18.515, 16.55, 18.665, 16.7025, 18.8175, 16.8525, 18.9675, 17.0025, 19.12, 17.155, 19.27, 17.305, 19.42, 17.4575, 19.5725, 17.6075, 19.7225, 17.76, 19.875, 17.91, 20.025, 18.06, 20.1775, 18.2125, 20.3275, 18.3625, 16.4, 18.515, 16.55, 18.665, 16.7025, 18.8175, 16.8525, 18.9675, 17.0025, 19.12, 17.155, 19.27, 17.305, 19.42, 17.4575, 19.5725, 17.6075, 19.7225, 17.76, 19.875, 17.91, 20.025, 18.06, 20.1775, 18.2125, 20.3275, 18.3625],
      "ImagePositionPatient": [
        [-128.43234295048, -140.8034090482, -87.585869865219],
        [-128.43611926235, -140.86348290074, -85.886941032212],
        [-128.43989557422, -140.92355866062, -84.188004569809],
        [-128.4436718861, -140.98363251316, -82.489068107407],
        [-128.44744819797, -141.0437063657, -80.790131645005],
        [-128.45122474827, -141.10378212559, -79.091202811997],
        [-128.45500106014, -141.16385597813, -77.392266349594],
        [-128.45877737201, -141.22393173802, -75.693329887192],
        [-128.46255368389, -141.28400559056, -73.994401054184],
        [-128.46632999576, -141.3440794431, -72.295464591782],
        [-128.47010630764, -141.40415520298, -70.59652812938],
        [-128.47388261951, -141.46422905552, -68.897599296372],
        [-128.47765893139, -141.52430481541, -67.198662833969],
        [-128.48143524326, -141.58437866795, -65.499730186264],
        [-128.48521155514, -141.64445252049, -63.800793723862],
        [-128.48898786701, -141.70452828038, -62.101861076157],
        [-128.49276417888, -141.76460213292, -60.402928428452],
        [-128.49654049076, -141.8246778928, -58.70399196605],
        [-128.50031680263, -141.88475174534, -57.005059318344],
        [-128.50409335293, -141.94482559788, -55.306126670639],
        [-128.5078696648, -142.00490135777, -53.607190208237],
        [-128.51164597667, -142.06497521031, -51.908257560532],
        [-128.51542228855, -142.1250509702, -50.209324912827],
        [-128.51919860042, -142.18512482273, -48.510388450425],
        [-128.5229749123, -142.24519867527, -46.811455802719],
        [-128.52675122417, -142.30527443516, -45.112519340317],
        [-128.53052753605, -142.3653482877, -43.413586692612],
        [-128.53430384792, -142.42542404759, -41.714654044907],
        [-128.5380801598, -142.48549790013, -40.015717582505],
        [-128.54185647167, -142.54557175267, -38.3167849348],
        [-128.54563278354, -142.60564751255, -36.617852287094],
        [-128.54940909542, -142.66572136509, -34.918917732041],
        [-128.55318540729, -142.72579712498, -33.219983176987],
        [-128.55696195759, -142.78587097752, -31.521048621933],
        [-128.56073826946, -142.84594483006, -29.82211406688],
        [-128.56451458133, -142.90602058995, -28.123181419175],
        [-128.56829089321, -142.96609444249, -26.424246864121],
        [-128.57206720508, -143.02617020237, -24.725312309067],
        [-128.57584351696, -143.08624405491, -23.026379661362],
        [-128.57961982883, -143.14631790745, -21.327445106308],
        [-128.58339614071, -143.20639366734, -19.628510551255],
        [-128.58717245258, -143.26646751988, -17.929576949875],
        [-128.59094876446, -143.32654327977, -16.230642394821],
        [-128.59472507633, -143.3866171323, -14.531708793442],
        [-128.5985013882, -143.44669098484, -12.832775192063],
        [-128.60227770008, -143.50676674473, -11.133840637009],
        [-128.60605425037, -143.56684059727, -9.4349065587924],
        [-128.60983056225, -143.62691635716, -7.7359727189945],
        [-128.61360687412, -143.6869902097, -6.0370387599872],
        [-128.61738318599, -143.74706406224, -4.3381047171609],
        [-128.62115949787, -143.80713982212, -2.6391707227634],
        [-128.62493580974, -143.86721367466, -0.9402366445468],
        [-128.62871212162, -143.92728943455, 0.75869743366972],
        [-128.63248843349, -143.98736328709, 2.4576315118863],
        [-128.63626474537, -144.04743713963, 4.1565655901028],
        [-128.64004105724, -144.10751289952, 5.8554991914822],
        [-128.64381736912, -144.16758675206, 7.5544337465359],
        [-128.64759368099, -144.22766251194, 9.2533673479153],
        [-128.65136999286, -144.28773636448, 10.952300949295],
        [-128.65514630474, -144.34781021702, 12.651234550674],
        [-128.65892285503, -144.40788597691, 14.350169105728],
        [-128.66269916691, -144.46795982945, 16.049103660782],
        [-128.66647547878, -144.52803558934, 17.748038215835],
        [-128.67025179065, -144.58810944187, 19.44697086354],
        [-128.67402810253, -144.64818329441, 21.145905418594],
        [-128.6778044144, -144.7082590543, 22.844839973648],
        [-128.68158072628, -144.76833290684, 24.543772621353],
        [-128.68535703815, -144.82840866673, 26.242707176407],
        [-128.68913335003, -144.88848251927, 27.94164173146],
        [-128.6929096619, -144.94855637181, 29.640574379165],
        [-128.69668597378, -145.00863213169, 31.339510841568],
        [-128.70046228565, -145.06870598423, 33.038443489273],
        [-128.70423859752, -145.12878174412, 34.737376136978],
        [-128.7080149094, -145.18885559666, 36.43631259938],
        [-128.71179145969, -145.2489294492, 38.135245247085],
        [-128.71556777157, -145.30900520909, 39.83417789479],
        [-128.71934408344, -145.36907906163, 41.533114357193],
        [-128.72312039531, -145.42915482151, 43.232047004898],
        [-128.72689670719, -145.48922867405, 44.9309834673],
        [-128.73067301906, -145.54930252659, 46.629916115005],
        [-128.73444933094, -145.60937828648, 48.32884876271]
],
      "InstanceCreationTime": ["175139.923000", "175140.030000", "175139.930000", "175140.037000", "175139.936000", "175140.044000", "175139.942000", "175140.051000", "175139.948000", "175140.057000", "175139.955000", "175140.064000", "175139.961000", "175140.071000", "175139.982000", "175140.078000", "175139.988000", "175140.086000", "175139.994000", "175140.092000", "175140.001000", "175140.098000", "175140.007000", "175140.104000", "175140.013000", "175140.112000", "175140.019000", "175139.926000", "175140.032000", "175139.932000", "175140.039000", "175139.938000", "175140.046000", "175139.944000", "175140.053000", "175139.950000", "175140.060000", "175139.957000", "175140.066000", "175139.978000", "175140.073000", "175139.984000", "175140.080000", "175139.990000", "175140.088000", "175139.996000", "175140.094000", "175140.003000", "175140.100000", "175140.009000", "175140.107000", "175140.015000", "175140.115000", "175140.025000", "175139.928000", "175140.035000", "175139.934000", "175140.041000", "175139.940000", "175140.048000", "175139.946000", "175140.055000", "175139.953000", "175140.062000", "175139.959000", "175140.069000", "175139.980000", "175140.075000", "175139.986000", "175140.083000", "175139.992000", "175140.090000", "175139.998000", "175140.096000", "175140.005000", "175140.102000", "175140.011000", "175140.110000", "175140.017000", "175140.118000", "175140.027000"],
      "InstanceNumber": [1, 2, 3, 4, 5, 6, 7, 8, 9, 10, 11, 12, 13, 14, 15, 16, 17, 18, 19, 20, 21, 22, 23, 24, 25, 26, 27, 28, 29, 30, 31, 32, 33, 34, 35, 36, 37, 38, 39, 40, 41, 42, 43, 44, 45, 46, 47, 48, 49, 50, 51, 52, 53, 54, 55, 56, 57, 58, 59, 60, 61, 62, 63, 64, 65, 66, 67, 68, 69, 70, 71, 72, 73, 74, 75, 76, 77, 78, 79, 80, 81],
      "LargestImagePixelValue": [25515, 22113, 30776, 34567, 30523, 29618, 25889, 26008, 26146, 26866, 32071, 32198, 34659, 31076, 36613, 37265, 33294, 31376, 25868, 43968, 65535, 65535, 65535, 65535, 65535, 65535, 65535, 65535, 65535, 65535, 65535, 65535, 65535, 65535, 65535, 40174, 36563, 50077, 60165, 55550, 49371, 59734, 65535, 59069, 48345, 50485, 54476, 51428, 54824, 60059, 43369, 55047, 44935, 42829, 44784, 41598, 39451, 49550, 42070, 47427, 51973, 45297, 45234, 51101, 49050, 44720, 45364, 40264, 42321, 42175, 38445, 40030, 43358, 34392, 48165, 45177, 47416, 44888, 49845, 58898, 31449],
      "SliceLocation": [-82.269941026394, -80.569946229956, -78.869943741506, -77.169941320458, -75.469938899409, -73.76994403504, -72.069941613992, -70.369939125542, -68.669944329104, -66.969941908056, -65.269939419606, -63.569944623168, -61.869942134718, -60.169943525975, -58.469941104927, -56.769942428782, -55.069943820039, -53.369941331589, -51.669942722846, -49.969944113574, -48.269941625123, -46.569943016381, -44.869944340236, -43.169941919188, -41.469943310445, -39.769940821994, -38.069942213252, -36.369943537107, -34.669941116058, -32.969942507316, -31.269943831171, -29.569943316275, -27.869942733978, -26.169942218552, -24.469941703657, -22.769943027512, -21.069942512617, -19.369941930319, -17.669943321576, -15.969942806681, -14.269942224383, -12.569942662564, -10.869942080266, -9.1699425184471, -7.4699429566278, -5.7699423743303, -4.0699423354433, -2.3699424679531, -0.6699425487302, 1.0300574542591, 2.730057476252, 4.4300575146094, 6.1300576203687, 7.8300576587261, 9.5300576970835, 11.230057326305, 12.9300578412, 14.630057470421, 16.330057032241, 18.03005659406, 19.730057176887, 21.430057691783, 23.13005827408, 24.830056882823, 26.530057397719, 28.230057980016, 29.930056588759, 31.630057171056, 33.330057685952, 35.030056294695, 36.730058783145, 38.430057391888, 40.130056068033, 41.830058489081, 43.530057098354, 45.230055774498, 46.930058195547, 48.630056871691, 50.33005929274, 52.030057901483, 53.730056577627],
