{
  "AcquisitionMatrixPE": 82,
  "AcquisitionNumber": 1,
  "AcquisitionTime": "13:13:52.085000",
  "BandwidthPerPixelPhaseEncode": 24.888,
  "BaseResolution": 82,
  "BodyPartExamined": "BRAIN",
  "ConsistencyInfo": "N4_VE11E_LATEST_20181129",
  "ConversionSoftware": "dcm2niix",
  "ConversionSoftwareVersion": "v1.0.20201102",
  "DerivedVendorReportedEchoSpacing": 0.00049,
  "DeviceSerialNumber": "66112",
  "DwellTime": 2e-06,
  "EchoTime": 0.0272,
  "EchoTrainLength": 82,
  "EffectiveEchoSpacing": 0.00049,
  "FlipAngle": 44,
  "ImageComments": "Unaliased MB8/PE3",
  "ImageOrientationPatientDICOM": [0.99768, -0.0677909, -0.00618284, 0.068015, 0.988996, 0.13138],
  "ImageType": [
    "ORIGINAL",
    "PRIMARY",
    "M",
    "MB",
    "ND",
    "NORM",
    "MOSAIC"
],
  "ImagingFrequency": 123.259,
  "InPlanePhaseEncodingDirectionDICOM": "COL",
  "InstitutionAddress": "Maynard 3,Hanover,NH,US,03755",
  "InstitutionName": "Dartmouth College - PBS",
  "InstitutionalDepartmentName": "Department",
  "MRAcquisitionType": "2D",
  "MagneticFieldStrength": 3,
  "Manufacturer": "Siemens",
  "ManufacturersModelName": "Prisma",
  "Modality": "MR",
  "MultibandAccelerationFactor": 8,
  "PartialFourier": 1,
  "PatientPosition": "HFS",
  "PercentPhaseFOV": 100,
  "PercentSampling": 100,
  "PhaseEncodingDirection": "j-",
  "PhaseEncodingSteps": 82,
  "PhaseResolution": 1,
  "PixelBandwidth": 3050,
  "ProcedureStepDescription": "Wager_Wager^1076_spacetop",
  "ProtocolName": "func_run-02_task-narratives_acq-ap-mb8",
  "PulseSequenceDetails": "%CustomerSeq%\\cmrr_mbep2d_bold",
  "ReceiveCoilActiveElements": "HEA;HEP",
  "ReceiveCoilName": "Head_32",
  "ReconMatrixPE": 82,
  "RepetitionTime": 0.46,
  "SAR": 0.112454,
  "ScanOptions": "FS",
  "ScanningSequence": "EP",
  "SequenceName": "epfid2d1_82",
  "SequenceVariant": "SK\\SS",
  "SeriesDescription": "func_run-02_task-narratives_acq-ap-mb8",
  "SeriesNumber": 12,
  "ShimSetting": [4236, -7798, -7165, 235, -102, 72, -39, 85],
  "SliceThickness": 2.7,
  "SliceTiming": [0, 0.25, 0.0625, 0.3125, 0.125, 0.3775, 0.1875, 0, 0.25, 0.0625, 0.3125, 0.125, 0.3775, 0.1875, 0, 0.25, 0.0625, 0.3125, 0.125, 0.3775, 0.1875, 0, 0.25, 0.0625, 0.3125, 0.125, 0.3775, 0.1875, 0, 0.25, 0.0625, 0.3125, 0.125, 0.3775, 0.1875, 0, 0.25, 0.0625, 0.3125, 0.125, 0.3775, 0.1875, 0, 0.25, 0.0625, 0.3125, 0.125, 0.3775, 0.1875, 0, 0.25, 0.0625, 0.3125, 0.125, 0.3775, 0.1875],
  "SoftwareVersions": "syngo MR E11",
  "SpacingBetweenSlices": 2.7,
  "StationName": "AWP66112",
  "TaskName": "narratives",
  "TotalReadoutTime": 0.03969,
  "TxRefAmp": 254.074,
  "WipMemBlock": "13d34beb-751c-4487-877c-09c180231e6f||Sequence: R016 ve11e/master r/434b28f1; Aug  7 2019 18:53:46 by eja",
  "dcmmeta_affine": [
    [-2.676703453063965, 0.18247941136360168, 0.00753721734508872, 105.40565490722656],
    [0.18187814950942993, 2.6534042358398438, 0.3550384044647217, -107.4439926147461],
    [-0.0165881160646677, -0.35248273611068726, 2.676544427871704, -25.00989532470703],
    [0.0, 0.0, 0.0, 1.0]
],
  "dcmmeta_reorient_transform": [
    [0.0, -1.0, 0.0, 81.0],
    [1.0, 0.0, 0.0, 0.0],
    [0.0, 0.0, 1.0, 0.0],
    [0.0, 0.0, 0.0, 1.0]
],
  "dcmmeta_shape": [82, 82, 56, 1098],
  "dcmmeta_slice_dim": 2,
  "dcmmeta_version": 0.6,
  "global": {
    "const": {
      "AccessionNumber": "A004301",
      "AcquisitionMatrix": [82, 0, 0, 82],
      "AngioFlag": "N",
      "BitsAllocated": 16,
      "BitsStored": 16,
      "BodyPartExamined": "BRAIN",
      "Columns": 656,
      "EchoNumbers": 1,
      "EchoTime": 27.2,
      "EchoTrainLength": 82,
      "FlipAngle": 44.0,
      "HighBit": 15,
      "ImageOrientationPatient": [0.99768038984782, -0.0677909445711, -0.0061828429761, 0.0680150490285, 0.98899609045212, 0.13137993064423],
      "ImagePositionPatient": [-940.77199430337, -816.80972573105, -149.96275785937],
      "ImageType": [
        "ORIGINAL",
        "PRIMARY",
        "M",
        "MB",
        "ND",
        "NORM",
        "MOSAIC"
],
      "ImagedNucleus": "1H",
      "ImagingFrequency": 123.259116,
      "InPlanePhaseEncodingDirection": "COL",
      "MRAcquisitionType": "2D",
      "MagneticFieldStrength": 3.0,
      "Manufacturer": "SIEMENS",
      "ManufacturerModelName": "Prisma",
      "Modality": "MR",
      "NumberOfAverages": 1.0,
      "NumberOfPhaseEncodingSteps": 82,
      "PercentPhaseFieldOfView": 100.0,
      "PercentSampling": 100.0,
      "PerformedProcedureStepStartTime": "125558.973000",
      "PhotometricInterpretation": "MONOCHROME2",
      "PixelBandwidth": 3050.0,
      "PixelRepresentation": 0,
      "PixelSpacing": [2.6829268932343, 2.6829268932343],
      "ProtocolName": "func_run-02_task-narratives_acq-ap-mb8",
      "RepetitionTime": 460.0,
      "Rows": 656,
      "SAR": 0.11245417178228,
      "SamplesPerPixel": 1,
      "ScanOptions": "FS",
      "ScanningSequence": "EP",
      "SequenceName": "epfid2d1_82",
      "SequenceVariant": [
        "SK",
        "SS"
],
      "SeriesDescription": "func_run-02_task-narratives_acq-ap-mb8",
      "SeriesNumber": 12,
      "SeriesTime": "131402.580000",
      "SliceLocation": -38.62680720373,
      "SliceThickness": 2.7000000476837,
      "SmallestImagePixelValue": 0,
      "SoftwareVersions": "syngo MR E11",
      "SpacingBetweenSlices": 2.6999999510625,
      "SpecificCharacterSet": "ISO_IR 100",
      "StudyID": "2",
      "StudyTime": "125558.856000",
      "TransmitCoilName": "Body",
      "VariableFlipAngleFlag": "N",
      "WindowCenterWidthExplanation": "Algo1"
    },
    "slices": {}
  },
  "time": {
    "samples": {
      "AcquisitionNumber": [1, 2, 3, 4, 5, 6, 7, 8, 9, 10, 11, 12, 13, 14, 15, 16, 17, 18, 19, 20, 21, 22, 23, 24, 25, 26, 27, 28, 29, 30, 31, 32, 33, 34, 35, 36, 37, 38, 39, 40, 41, 42, 43, 44, 45, 46, 47, 48, 49, 50, 51, 52, 53, 54, 55, 56, 57, 58, 59, 60, 61, 62, 63, 64, 65, 66, 67, 68, 69, 70, 71, 72, 73, 74, 75, 76, 77, 78, 79, 80, 81, 82, 83, 84, 85, 86, 87, 88, 89, 90, 91, 92, 93, 94, 95, 96, 97, 98, 99, 100, 101, 102, 103, 104, 105, 106, 107, 108, 109, 110, 111, 112, 113, 114, 115, 116, 117, 118, 119, 120, 121, 122, 123, 124, 125, 126, 127, 128, 129, 130, 131, 132, 133, 134, 135, 136, 137, 138, 139, 140, 141, 142, 143, 144, 145, 146, 147, 148, 149, 150, 151, 152, 153, 154, 155, 156, 157, 158, 159, 160, 161, 162, 163, 164, 165, 166, 167, 168, 169, 170, 171, 172, 173, 174, 175, 176, 177, 178, 179, 180, 181, 182, 183, 184, 185, 186, 187, 188, 189, 190, 191, 192, 193, 194, 195, 196, 197, 198, 199, 200, 201, 202, 203, 204, 205, 206, 207, 208, 209, 210, 211, 212, 213, 214, 215, 216, 217, 218, 219, 220, 221, 222, 223, 224, 225, 226, 227, 228, 229, 230, 231, 232, 233, 234, 235, 236, 237, 238, 239, 240, 241, 242, 243, 244, 245, 246, 247, 248, 249, 250, 251, 252, 253, 254, 255, 256, 257, 258, 259, 260, 261, 262, 263, 264, 265, 266, 267, 268, 269, 270, 271, 272, 273, 274, 275, 276, 277, 278, 279, 280, 281, 282, 283, 284, 285, 286, 287, 288, 289, 290, 291, 292, 293, 294, 295, 296, 297, 298, 299, 300, 301, 302, 303, 304, 305, 306, 307, 308, 309, 310, 311, 312, 313, 314, 315, 316, 317, 318, 319, 320, 321, 322, 323, 324, 325, 326, 327, 328, 329, 330, 331, 332, 333, 334, 335, 336, 337, 338, 339, 340, 341, 342, 343, 344, 345, 346, 347, 348, 349, 350, 351, 352, 353, 354, 355, 356, 357, 358, 359, 360, 361, 362, 363, 364, 365, 366, 367, 368, 369, 370, 371, 372, 373, 374, 375, 376, 377, 378, 379, 380, 381, 382, 383, 384, 385, 386, 387, 388, 389, 390, 391, 392, 393, 394, 395, 396, 397, 398, 399, 400, 401, 402, 403, 404, 405, 406, 407, 408, 409, 410, 411, 412, 413, 414, 415, 416, 417, 418, 419, 420, 421, 422, 423, 424, 425, 426, 427, 428, 429, 430, 431, 432, 433, 434, 435, 436, 437, 438, 439, 440, 441, 442, 443, 444, 445, 446, 447, 448, 449, 450, 451, 452, 453, 454, 455, 456, 457, 458, 459, 460, 461, 462, 463, 464, 465, 466, 467, 468, 469, 470, 471, 472, 473, 474, 475, 476, 477, 478, 479, 480, 481, 482, 483, 484, 485, 486, 487, 488, 489, 490, 491, 492, 493, 494, 495, 496, 497, 498, 499, 500, 501, 502, 503, 504, 505, 506, 507, 508, 509, 510, 511, 512, 513, 514, 515, 516, 517, 518, 519, 520, 521, 522, 523, 524, 525, 526, 527, 528, 529, 530, 531, 532, 533, 534, 535, 536, 537, 538, 539, 540, 541, 542, 543, 544, 545, 546, 547, 548, 549, 550, 551, 552, 553, 554, 555, 556, 557, 558, 559, 560, 561, 562, 563, 564, 565, 566, 567, 568, 569, 570, 571, 572, 573, 574, 575, 576, 577, 578, 579, 580, 581, 582, 583, 584, 585, 586, 587, 588, 589, 590, 591, 592, 593, 594, 595, 596, 597, 598, 599, 600, 601, 602, 603, 604, 605, 606, 607, 608, 609, 610, 611, 612, 613, 614, 615, 616, 617, 618, 619, 620, 621, 622, 623, 624, 625, 626, 627, 628, 629, 630, 631, 632, 633, 634, 635, 636, 637, 638, 639, 640, 641, 642, 643, 644, 645, 646, 647, 648, 649, 650, 651, 652, 653, 654, 655, 656, 657, 658, 659, 660, 661, 662, 663, 664, 665, 666, 667, 668, 669, 670, 671, 672, 673, 674, 675, 676, 677, 678, 679, 680, 681, 682, 683, 684, 685, 686, 687, 688, 689, 690, 691, 692, 693, 694, 695, 696, 697, 698, 699, 700, 701, 702, 703, 704, 705, 706, 707, 708, 709, 710, 711, 712, 713, 714, 715, 716, 717, 718, 719, 720, 721, 722, 723, 724, 725, 726, 727, 728, 729, 730, 731, 732, 733, 734, 735, 736, 737, 738, 739, 740, 741, 742, 743, 744, 745, 746, 747, 748, 749, 750, 751, 752, 753, 754, 755, 756, 757, 758, 759, 760, 761, 762, 763, 764, 765, 766, 767, 768, 769, 770, 771, 772, 773, 774, 775, 776, 777, 778, 779, 780, 781, 782, 783, 784, 785, 786, 787, 788, 789, 790, 791, 792, 793, 794, 795, 796, 797, 798, 799, 800, 801, 802, 803, 804, 805, 806, 807, 808, 809, 810, 811, 812, 813, 814, 815, 816, 817, 818, 819, 820, 821, 822, 823, 824, 825, 826, 827, 828, 829, 830, 831, 832, 833, 834, 835, 836, 837, 838, 839, 840, 841, 842, 843, 844, 845, 846, 847, 848, 849, 850, 851, 852, 853, 854, 855, 856, 857, 858, 859, 860, 861, 862, 863, 864, 865, 866, 867, 868, 869, 870, 871, 872, 873, 874, 875, 876, 877, 878, 879, 880, 881, 882, 883, 884, 885, 886, 887, 888, 889, 890, 891, 892, 893, 894, 895, 896, 897, 898, 899, 900, 901, 902, 903, 904, 905, 906, 907, 908, 909, 910, 911, 912, 913, 914, 915, 916, 917, 918, 919, 920, 921, 922, 923, 924, 925, 926, 927, 928, 929, 930, 931, 932, 933, 934, 935, 936, 937, 938, 939, 940, 941, 942, 943, 944, 945, 946, 947, 948, 949, 950, 951, 952, 953, 954, 955, 956, 957, 958, 959, 960, 961, 962, 963, 964, 965, 966, 967, 968, 969, 970, 971, 972, 973, 974, 975, 976, 977, 978, 979, 980, 981, 982, 983, 984, 985, 986, 987, 988, 989, 990, 991, 992, 993, 994, 995, 996, 997, 998, 999, 1000, 1001, 1002, 1003, 1004, 1005, 1006, 1007, 1008, 1009, 1010, 1011, 1012, 1013, 1014, 1015, 1016, 1017, 1018, 1019, 1020, 1021, 1022, 1023, 1024, 1025, 1026, 1027, 1028, 1029, 1030, 1031, 1032, 1033, 1034, 1035, 1036, 1037, 1038, 1039, 1040, 1041, 1042, 1043, 1044, 1045, 1046, 1047, 1048, 1049, 1050, 1051, 1052, 1053, 1054, 1055, 1056, 1057, 1058, 1059, 1060, 1061, 1062, 1063, 1064, 1065, 1066, 1067, 1068, 1069, 1070, 1071, 1072, 1073, 1074, 1075, 1076, 1077, 1078, 1079, 1080, 1081, 1082, 1083, 1084, 1085, 1086, 1087, 1088, 1089, 1090, 1091, 1092, 1093, 1094, 1095, 1096, 1097, 1098],
      "AcquisitionTime": ["131352.085000", "131352.545000", "131353.005000", "131353.465000", "131353.925000", "131354.385000", "131354.845000", "131355.305000", "131355.765000", "131356.225000", "131356.685000", "131357.145000", "131357.605000", "131358.065000", "131358.525000", "131358.985000", "131359.445000", "131359.905000", "131400.365000", "131400.825000", "131401.285000", "131401.745000", "131402.205000", "131402.665000", "131403.125000", "131403.585000", "131404.045000", "131404.505000", "131404.965000", "131405.425000", "131405.885000", "131406.345000", "131406.805000", "131407.265000", "131407.725000", "131408.185000", "131408.645000", "131409.105000", "131409.565000", "131410.025000", "131410.485000", "131410.945000", "131411.405000", "131411.865000", "131412.325000", "131412.785000", "131413.245000", "131413.705000", "131414.165000", "131414.625000", "131415.085000", "131415.545000", "131416.005000", "131416.465000", "131416.925000", "131417.385000", "131417.845000", "131418.305000", "131418.765000", "131419.225000", "131419.685000", "131420.145000", "131420.605000", "131421.065000", "131421.525000", "131421.985000", "131422.445000", "131422.905000", "131423.365000", "131423.825000", "131424.285000", "131424.745000", "131425.205000", "131425.665000", "131426.125000", "131426.585000", "131427.045000", "131427.505000", "131427.965000", "131428.425000", "131428.885000", "131429.345000", "131429.805000", "131430.265000", "131430.725000", "131431.185000", "131431.645000", "131432.105000", "131432.565000", "131433.025000", "131433.485000", "131433.945000", "131434.405000", "131434.865000", "131435.325000", "131435.785000", "131436.245000", "131436.705000", "131437.165000", "131437.625000", "131438.085000", "131438.545000", "131439.005000", "131439.465000", "131439.925000", "131440.385000", "131440.845000", "131441.305000", "131441.765000", "131442.225000", "131442.685000", "131443.145000", "131443.605000", "131444.065000", "131444.525000", "131444.985000", "131445.445000", "131445.905000", "131446.365000", "131446.825000", "131447.285000", "131447.745000", "131448.205000", "131448.665000", "131449.125000", "131449.585000", "131450.045000", "131450.505000", "131450.965000", "131451.425000", "131451.885000", "131452.345000", "131452.805000", "131453.265000", "131453.725000", "131454.185000", "131454.645000", "131455.105000", "131455.565000", "131456.025000", "131456.485000", "131456.945000", "131457.405000", "131457.865000", "131458.325000", "131458.785000", "131459.245000", "131459.705000", "131500.165000", "131500.625000", "131501.085000", "131501.545000", "131502.005000", "131502.465000", "131502.925000", "131503.385000", "131503.845000", "131504.305000", "131504.765000", "131505.225000", "131505.685000", "131506.145000", "131506.605000", "131507.065000", "131507.525000", "131507.985000", "131508.445000", "131508.905000", "131509.365000", "131509.825000", "131510.285000", "131510.745000", "131511.205000", "131511.665000", "131512.125000", "131512.585000", "131513.045000", "131513.505000", "131513.965000", "131514.425000", "131514.885000", "131515.345000", "131515.805000", "131516.265000", "131516.725000", "131517.185000", "131517.645000", "131518.105000", "131518.565000", "131519.025000", "131519.485000", "131519.945000", "131520.405000", "131520.865000", "131521.325000", "131521.785000", "131522.245000", "131522.705000", "131523.165000", "131523.625000", "131524.085000", "131524.545000", "131525.005000", "131525.465000", "131525.925000", "131526.385000", "131526.845000", "131527.305000", "131527.765000", "131528.225000", "131528.685000", "131529.145000", "131529.605000", "131530.065000", "131530.525000", "131530.985000", "131531.445000", "131531.905000", "131532.365000", "131532.825000", "131533.285000", "131533.745000", "131534.205000", "131534.665000", "131535.125000", "131535.585000", "131536.045000", "131536.505000", "131536.965000", "131537.425000", "131537.885000", "131538.345000", "131538.805000", "131539.265000", "131539.725000", "131540.185000", "131540.645000", "131541.105000", "131541.565000", "131542.025000", "131542.485000", "131542.945000", "131543.405000", "131543.865000", "131544.325000", "131544.785000", "131545.245000", "131545.705000", "131546.165000", "131546.625000", "131547.085000", "131547.545000", "131548.005000", "131548.465000", "131548.925000", "131549.385000", "131549.845000", "131550.305000", "131550.765000", "131551.225000", "131551.685000", "131552.145000", "131552.605000", "131553.065000", "131553.525000", "131553.985000", "131554.445000", "131554.905000", "131555.365000", "131555.825000", "131556.285000", "131556.745000", "131557.205000", "131557.665000", "131558.125000", "131558.585000", "131559.045000", "131559.505000", "131559.965000", "131600.425000", "131600.885000", "131601.345000", "131601.805000", "131602.265000", "131602.725000", "131603.185000", "131603.645000", "131604.105000", "131604.565000", "131605.025000", "131605.485000", "131605.945000", "131606.405000", "131606.865000", "131607.325000", "131607.785000", "131608.245000", "131608.705000", "131609.165000", "131609.625000", "131610.085000", "131610.545000", "131611.005000", "131611.465000", "131611.925000", "131612.385000", "131612.845000", "131613.305000", "131613.765000", "131614.225000", "131614.685000", "131615.145000", "131615.605000", "131616.065000", "131616.525000", "131616.985000", "131617.445000", "131617.905000", "131618.365000", "131618.825000", "131619.285000", "131619.745000", "131620.205000", "131620.665000", "131621.125000", "131621.585000", "131622.045000", "131622.505000", "131622.965000", "131623.425000", "131623.885000", "131624.345000", "131624.805000", "131625.265000", "131625.725000", "131626.185000", "131626.645000", "131627.105000", "131627.565000", "131628.025000", "131628.485000", "131628.945000", "131629.405000", "131629.865000", "131630.325000", "131630.785000", "131631.245000", "131631.705000", "131632.165000", "131632.625000", "131633.085000", "131633.545000", "131634.005000", "131634.465000", "131634.925000", "131635.385000", "131635.845000", "131636.305000", "131636.765000", "131637.225000", "131637.685000", "131638.145000", "131638.605000", "131639.065000", "131639.525000", "131639.985000", "131640.445000", "131640.905000", "131641.365000", "131641.825000", "131642.285000", "131642.745000", "131643.205000", "131643.665000", "131644.125000", "131644.585000", "131645.045000", "131645.505000", "131645.965000", "131646.425000", "131646.885000", "131647.345000", "131647.805000", "131648.265000", "131648.725000", "131649.185000", "131649.645000", "131650.105000", "131650.565000", "131651.025000", "131651.485000", "131651.945000", "131652.405000", "131652.865000", "131653.325000", "131653.785000", "131654.245000", "131654.705000", "131655.165000", "131655.625000", "131656.085000", "131656.545000", "131657.005000", "131657.465000", "131657.925000", "131658.385000", "131658.845000", "131659.305000", "131659.765000", "131700.225000", "131700.685000", "131701.145000", "131701.605000", "131702.065000", "131702.525000", "131702.985000", "131703.445000", "131703.905000", "131704.365000", "131704.825000", "131705.285000", "131705.745000", "131706.205000", "131706.665000", "131707.125000", "131707.585000", "131708.045000", "131708.505000", "131708.965000", "131709.425000", "131709.885000", "131710.345000", "131710.805000", "131711.265000", "131711.725000", "131712.185000", "131712.645000", "131713.105000", "131713.565000", "131714.025000", "131714.485000", "131714.945000", "131715.405000", "131715.865000", "131716.325000", "131716.785000", "131717.245000", "131717.705000", "131718.165000", "131718.625000", "131719.085000", "131719.545000", "131720.005000", "131720.465000", "131720.925000", "131721.385000", "131721.845000", "131722.305000", "131722.765000", "131723.225000", "131723.685000", "131724.145000", "131724.605000", "131725.065000", "131725.525000", "131725.985000", "131726.445000", "131726.905000", "131727.365000", "131727.825000", "131728.285000", "131728.745000", "131729.205000", "131729.665000", "131730.125000", "131730.585000", "131731.045000", "131731.505000", "131731.965000", "131732.425000", "131732.885000", "131733.345000", "131733.805000", "131734.265000", "131734.725000", "131735.185000", "131735.645000", "131736.105000", "131736.565000", "131737.025000", "131737.485000", "131737.945000", "131738.405000", "131738.865000", "131739.325000", "131739.785000", "131740.245000", "131740.705000", "131741.165000", "131741.625000", "131742.085000", "131742.545000", "131743.005000", "131743.465000", "131743.925000", "131744.385000", "131744.845000", "131745.305000", "131745.765000", "131746.225000", "131746.685000", "131747.145000", "131747.605000", "131748.065000", "131748.525000", "131748.985000", "131749.445000", "131749.905000", "131750.365000", "131750.825000", "131751.285000", "131751.745000", "131752.205000", "131752.665000", "131753.125000", "131753.585000", "131754.045000", "131754.505000", "131754.965000", "131755.425000", "131755.885000", "131756.345000", "131756.805000", "131757.265000", "131757.725000", "131758.185000", "131758.645000", "131759.105000", "131759.565000", "131800.025000", "131800.485000", "131800.945000", "131801.405000", "131801.865000", "131802.325000", "131802.785000", "131803.245000", "131803.705000", "131804.165000", "131804.625000", "131805.085000", "131805.545000", "131806.005000", "131806.465000", "131806.925000", "131807.385000", "131807.845000", "131808.305000", "131808.765000", "131809.225000", "131809.685000", "131810.145000", "131810.605000", "131811.065000", "131811.525000", "131811.985000", "131812.445000", "131812.905000", "131813.365000", "131813.825000", "131814.285000", "131814.745000", "131815.205000", "131815.665000", "131816.125000", "131816.585000", "131817.045000", "131817.505000", "131817.965000", "131818.425000", "131818.885000", "131819.345000", "131819.805000", "131820.265000", "131820.725000", "131821.185000", "131821.645000", "131822.105000", "131822.565000", "131823.025000", "131823.485000", "131823.945000", "131824.405000", "131824.865000", "131825.325000", "131825.785000", "131826.245000", "131826.705000", "131827.165000", "131827.625000", "131828.085000", "131828.545000", "131829.005000", "131829.465000", "131829.925000", "131830.385000", "131830.845000", "131831.305000", "131831.765000", "131832.225000", "131832.685000", "131833.145000", "131833.605000", "131834.065000", "131834.525000", "131834.985000", "131835.445000", "131835.905000", "131836.365000", "131836.825000", "131837.285000", "131837.745000", "131838.205000", "131838.665000", "131839.125000", "131839.585000", "131840.045000", "131840.505000", "131840.965000", "131841.425000", "131841.885000", "131842.345000", "131842.805000", "131843.265000", "131843.725000", "131844.185000", "131844.645000", "131845.105000", "131845.565000", "131846.025000", "131846.485000", "131846.945000", "131847.405000", "131847.865000", "131848.325000", "131848.785000", "131849.245000", "131849.705000", "131850.165000", "131850.625000", "131851.085000", "131851.545000", "131852.005000", "131852.465000", "131852.925000", "131853.385000", "131853.845000", "131854.305000", "131854.765000", "131855.225000", "131855.685000", "131856.145000", "131856.605000", "131857.065000", "131857.525000", "131857.985000", "131858.445000", "131858.905000", "131859.365000", "131859.825000", "131900.285000", "131900.745000", "131901.205000", "131901.665000", "131902.125000", "131902.585000", "131903.045000", "131903.505000", "131903.965000", "131904.425000", "131904.885000", "131905.345000", "131905.805000", "131906.265000", "131906.725000", "131907.185000", "131907.645000", "131908.105000", "131908.565000", "131909.025000", "131909.485000", "131909.945000", "131910.405000", "131910.865000", "131911.325000", "131911.785000", "131912.245000", "131912.705000", "131913.165000", "131913.625000", "131914.085000", "131914.545000", "131915.005000", "131915.465000", "131915.925000", "131916.385000", "131916.845000", "131917.305000", "131917.765000", "131918.225000", "131918.685000", "131919.145000", "131919.605000", "131920.065000", "131920.525000", "131920.985000", "131921.445000", "131921.905000", "131922.365000", "131922.825000", "131923.285000", "131923.745000", "131924.205000", "131924.665000", "131925.125000", "131925.585000", "131926.045000", "131926.505000", "131926.965000", "131927.425000", "131927.885000", "131928.345000", "131928.805000", "131929.265000", "131929.725000", "131930.185000", "131930.645000", "131931.105000", "131931.565000", "131932.025000", "131932.485000", "131932.945000", "131933.405000", "131933.865000", "131934.325000", "131934.785000", "131935.245000", "131935.705000", "131936.165000", "131936.625000", "131937.085000", "131937.545000", "131938.005000", "131938.465000", "131938.925000", "131939.385000", "131939.845000", "131940.305000", "131940.765000", "131941.225000", "131941.685000", "131942.145000", "131942.605000", "131943.065000", "131943.525000", "131943.985000", "131944.445000", "131944.905000", "131945.365000", "131945.825000", "131946.285000", "131946.745000", "131947.205000", "131947.665000", "131948.125000", "131948.585000", "131949.045000", "131949.505000", "131949.965000", "131950.425000", "131950.885000", "131951.345000", "131951.805000", "131952.265000", "131952.725000", "131953.185000", "131953.645000", "131954.105000", "131954.565000", "131955.025000", "131955.485000", "131955.945000", "131956.405000", "131956.865000", "131957.325000", "131957.785000", "131958.245000", "131958.705000", "131959.165000", "131959.625000", "132000.085000", "132000.545000", "132001.005000", "132001.465000", "132001.925000", "132002.385000", "132002.845000", "132003.305000", "132003.765000", "132004.225000", "132004.685000", "132005.145000", "132005.605000", "132006.065000", "132006.525000", "132006.985000", "132007.445000", "132007.905000", "132008.365000", "132008.825000", "132009.285000", "132009.745000", "132010.205000", "132010.665000", "132011.125000", "132011.585000", "132012.045000", "132012.505000", "132012.965000", "132013.425000", "132013.885000", "132014.345000", "132014.805000", "132015.265000", "132015.725000", "132016.185000", "132016.645000", "132017.105000", "132017.565000", "132018.025000", "132018.485000", "132018.945000", "132019.405000", "132019.865000", "132020.325000", "132020.785000", "132021.245000", "132021.705000", "132022.165000", "132022.625000", "132023.085000", "132023.545000", "132024.005000", "132024.465000", "132024.925000", "132025.385000", "132025.845000", "132026.305000", "132026.765000", "132027.225000", "132027.685000", "132028.145000", "132028.605000", "132029.065000", "132029.525000", "132029.985000", "132030.445000", "132030.905000", "132031.365000", "132031.825000", "132032.285000", "132032.745000", "132033.205000", "132033.665000", "132034.125000", "132034.585000", "132035.045000", "132035.505000", "132035.965000", "132036.425000", "132036.885000", "132037.345000", "132037.805000", "132038.265000", "132038.725000", "132039.185000", "132039.645000", "132040.105000", "132040.565000", "132041.025000", "132041.485000", "132041.945000", "132042.405000", "132042.865000", "132043.325000", "132043.785000", "132044.245000", "132044.705000", "132045.165000", "132045.625000", "132046.085000", "132046.545000", "132047.005000", "132047.465000", "132047.925000", "132048.385000", "132048.845000", "132049.305000", "132049.765000", "132050.225000", "132050.685000", "132051.145000", "132051.605000", "132052.065000", "132052.525000", "132052.985000", "132053.445000", "132053.905000", "132054.365000", "132054.825000", "132055.285000", "132055.745000", "132056.205000", "132056.665000", "132057.125000", "132057.585000", "132058.045000", "132058.505000", "132058.965000", "132059.425000", "132059.885000", "132100.345000", "132100.805000", "132101.265000", "132101.725000", "132102.185000", "132102.645000", "132103.105000", "132103.565000", "132104.025000", "132104.485000", "132104.945000", "132105.405000", "132105.865000", "132106.325000", "132106.785000", "132107.245000", "132107.705000", "132108.165000", "132108.625000", "132109.085000", "132109.545000", "132110.005000", "132110.465000", "132110.925000", "132111.385000", "132111.845000", "132112.305000", "132112.765000", "132113.225000", "132113.685000", "132114.145000", "132114.605000", "132115.065000", "132115.525000", "132115.985000", "132116.445000", "132116.905000", "132117.365000", "132117.825000", "132118.285000", "132118.745000", "132119.205000", "132119.665000", "132120.125000", "132120.585000", "132121.045000", "132121.505000", "132121.965000", "132122.425000", "132122.885000", "132123.345000", "132123.805000", "132124.265000", "132124.725000", "132125.185000", "132125.645000", "132126.105000", "132126.565000", "132127.025000", "132127.485000", "132127.945000", "132128.405000", "132128.865000", "132129.325000", "132129.785000", "132130.245000", "132130.705000", "132131.165000", "132131.625000", "132132.085000", "132132.545000", "132133.005000", "132133.465000", "132133.925000", "132134.385000", "132134.845000", "132135.305000", "132135.765000", "132136.225000", "132136.685000", "132137.145000", "132137.605000", "132138.065000", "132138.525000", "132138.985000", "132139.445000", "132139.905000", "132140.365000", "132140.825000", "132141.285000", "132141.745000", "132142.205000", "132142.665000", "132143.125000", "132143.585000", "132144.045000", "132144.505000", "132144.965000", "132145.425000", "132145.885000", "132146.345000", "132146.805000", "132147.265000", "132147.725000", "132148.185000", "132148.645000", "132149.105000", "132149.565000", "132150.025000", "132150.485000", "132150.945000", "132151.405000", "132151.865000", "132152.325000", "132152.785000", "132153.245000", "132153.705000", "132154.165000", "132154.625000", "132155.085000", "132155.545000", "132156.005000", "132156.465000", "132156.925000", "132157.385000", "132157.845000", "132158.305000", "132158.765000", "132159.225000", "132159.685000", "132200.145000", "132200.605000", "132201.065000", "132201.525000", "132201.985000", "132202.445000", "132202.905000", "132203.365000", "132203.825000", "132204.285000", "132204.745000", "132205.205000", "132205.665000", "132206.125000", "132206.585000", "132207.045000", "132207.505000", "132207.965000", "132208.425000", "132208.885000", "132209.345000", "132209.805000", "132210.265000", "132210.725000", "132211.185000", "132211.645000", "132212.105000", "132212.565000", "132213.025000", "132213.485000", "132213.945000", "132214.405000", "132214.865000", "132215.325000", "132215.785000", "132216.245000", "132216.705000"],
