{
  "AcquisitionMatrixPE": 82,
  "AcquisitionNumber": 1,
  "AcquisitionTime": "12:53:6.705000",
  "BandwidthPerPixelPhaseEncode": 24.888,
  "BaseResolution": 82,
  "BodyPartExamined": "BRAIN",
  "ConsistencyInfo": "N4_VE11E_LATEST_20181129",
  "ConversionSoftware": "dcm2niix",
  "ConversionSoftwareVersion": "v1.0.20201102",
  "DerivedVendorReportedEchoSpacing": 0.00049,
  "DeviceSerialNumber": "66112",
  "DwellTime": 2e-06,
  "EchoTime": 0.0272,
  "EchoTrainLength": 82,
  "EffectiveEchoSpacing": 0.00049,
  "FlipAngle": 44,
  "ImageComments": "Unaliased MB8/PE3",
  "ImageOrientationPatientDICOM": [0.999898, 0.0119927, 0.0076995, -0.00994769, 0.974186, -0.225527],
  "ImageType": [
    "ORIGINAL",
    "PRIMARY",
    "M",
    "MB",
    "ND",
    "NORM",
    "MOSAIC"
],
  "ImagingFrequency": 123.252,
  "InPlanePhaseEncodingDirectionDICOM": "COL",
  "InstitutionAddress": "Maynard 3,Hanover,NH,US,03755",
  "InstitutionName": "Dartmouth College - PBS",
  "InstitutionalDepartmentName": "Department",
  "MRAcquisitionType": "2D",
  "MagneticFieldStrength": 3,
  "Manufacturer": "Siemens",
  "ManufacturersModelName": "Prisma",
  "Modality": "MR",
  "MultibandAccelerationFactor": 8,
  "PartialFourier": 1,
  "PatientPosition": "HFS",
  "PercentPhaseFOV": 100,
  "PercentSampling": 100,
  "PhaseEncodingDirection": "j-",
  "PhaseEncodingSteps": 82,
  "PhaseResolution": 1,
  "PixelBandwidth": 3050,
  "ProcedureStepDescription": "Wager_Wager^1076_spacetop",
  "ProtocolName": "func_run-01_task-social_acq-ap-mb8",
  "PulseSequenceDetails": "%CustomerSeq%\\cmrr_mbep2d_bold",
  "ReceiveCoilActiveElements": "HEA;HEP",
  "ReceiveCoilName": "Head_32",
  "ReconMatrixPE": 82,
  "RepetitionTime": 0.46,
  "SAR": 0.109651,
  "ScanOptions": "FS",
  "ScanningSequence": "EP",
  "SequenceName": "epfid2d1_82",
  "SequenceVariant": "SK\\SS",
  "SeriesDescription": "func_run-01_task-social_acq-ap-mb8",
  "SeriesNumber": 8,
  "ShimSetting": [4141, -7708, -7264, 586, -100, -187, -92, 76],
  "SliceThickness": 2.7,
  "SliceTiming": [0, 0.2525, 0.065, 0.315, 0.1275, 0.3775, 0.19, 0, 0.2525, 0.065, 0.315, 0.1275, 0.3775, 0.19, 0, 0.2525, 0.065, 0.315, 0.1275, 0.3775, 0.19, 0, 0.2525, 0.065, 0.315, 0.1275, 0.3775, 0.19, 0, 0.2525, 0.065, 0.315, 0.1275, 0.3775, 0.19, 0, 0.2525, 0.065, 0.315, 0.1275, 0.3775, 0.19, 0, 0.2525, 0.065, 0.315, 0.1275, 0.3775, 0.19, 0, 0.2525, 0.065, 0.315, 0.1275, 0.3775, 0.19],
  "SoftwareVersions": "syngo MR E11",
  "SpacingBetweenSlices": 2.7,
  "StationName": "AWP66112",
  "TaskName": "social",
  "TotalReadoutTime": 0.03969,
  "TxRefAmp": 265.939,
  "WipMemBlock": "797d9630-4be4-49ec-9e6f-fd96d5ffa0d0||Sequence: R016 ve11e/master r/434b28f1; Aug  7 2019 18:53:46 by eja",
  "dcmmeta_affine": [
    [-2.68265438079834, -0.026688937097787857, 0.027554631233215332, 112.75200653076172],
    [-0.032175544649362564, 2.6136703491210938, -0.6086530089378357, -75.23147583007812],
    [0.020657192915678024, 0.6050711870193481, 2.6303579807281494, -100.48424530029297],
    [0.0, 0.0, 0.0, 1.0]
],
  "dcmmeta_reorient_transform": [
    [0.0, -1.0, 0.0, 81.0],
    [1.0, 0.0, 0.0, 0.0],
    [0.0, 0.0, 1.0, 0.0],
    [0.0, 0.0, 0.0, 1.0]
],
  "dcmmeta_shape": [82, 82, 56, 872],
  "dcmmeta_slice_dim": 2,
  "dcmmeta_version": 0.6,
  "global": {
    "const": {
      "AccessionNumber": "A004236",
      "AcquisitionMatrix": [82, 0, 0, 82],
      "AngioFlag": "N",
      "BitsAllocated": 16,
      "BitsStored": 16,
      "BodyPartExamined": "BRAIN",
      "Columns": 656,
      "EchoNumbers": 1,
      "EchoTime": 27.2,
      "EchoTrainLength": 82,
      "FlipAngle": 44.0,
      "HighBit": 15,
      "ImageOrientationPatient": [0.99989844124342, 0.01199270241398, 0.00769949919114, -0.0099476945614, 0.97418623790704, -0.2255265333513],
      "ImagePositionPatient": [-872.85229481071, -895.83363151442, 116.25333875952],
      "ImageType": [
        "ORIGINAL",
        "PRIMARY",
        "M",
        "MB",
        "ND",
        "NORM",
        "MOSAIC"
],
      "ImagedNucleus": "1H",
      "ImagingFrequency": 123.252194,
      "InPlanePhaseEncodingDirection": "COL",
      "MRAcquisitionType": "2D",
      "MagneticFieldStrength": 3.0,
      "Manufacturer": "SIEMENS",
      "ManufacturerModelName": "Prisma",
      "Modality": "MR",
      "NumberOfAverages": 1.0,
      "NumberOfPhaseEncodingSteps": 82,
      "PercentPhaseFieldOfView": 100.0,
      "PercentSampling": 100.0,
      "PerformedProcedureStepStartTime": "123846.793000",
      "PhotometricInterpretation": "MONOCHROME2",
      "PixelBandwidth": 3050.0,
      "PixelRepresentation": 0,
      "PixelSpacing": [2.6829268932343, 2.6829268932343],
      "ProtocolName": "func_run-01_task-social_acq-ap-mb8",
      "RepetitionTime": 460.0,
      "Rows": 656,
      "SAR": 0.10965059058773,
      "SamplesPerPixel": 1,
      "ScanOptions": "FS",
      "ScanningSequence": "EP",
      "SequenceName": "epfid2d1_82",
      "SequenceVariant": [
        "SK",
        "SS"
],
      "SeriesDescription": "func_run-01_task-social_acq-ap-mb8",
      "SeriesNumber": 8,
      "SeriesTime": "125330.613000",
      "SliceLocation": -79.782527972189,
      "SliceThickness": 2.7000000476837,
      "SmallestImagePixelValue": 0,
      "SoftwareVersions": "syngo MR E11",
      "SpacingBetweenSlices": 2.7000000818493,
      "SpecificCharacterSet": "ISO_IR 100",
      "StudyID": "4",
      "StudyTime": "123846.746000",
      "TransmitCoilName": "Body",
      "VariableFlipAngleFlag": "N",
      "WindowCenterWidthExplanation": "Algo1"
    },
    "slices": {}
  },
  "time": {
    "samples": {
      "AcquisitionNumber": [1, 2, 3, 4, 5, 6, 7, 8, 9, 10, 11, 12, 13, 14, 15, 16, 17, 18, 19, 20, 21, 22, 23, 24, 25, 26, 27, 28, 29, 30, 31, 32, 33, 34, 35, 36, 37, 38, 39, 40, 41, 42, 43, 44, 45, 46, 47, 48, 49, 50, 51, 52, 53, 54, 55, 56, 57, 58, 59, 60, 61, 62, 63, 64, 65, 66, 67, 68, 69, 70, 71, 72, 73, 74, 75, 76, 77, 78, 79, 80, 81, 82, 83, 84, 85, 86, 87, 88, 89, 90, 91, 92, 93, 94, 95, 96, 97, 98, 99, 100, 101, 102, 103, 104, 105, 106, 107, 108, 109, 110, 111, 112, 113, 114, 115, 116, 117, 118, 119, 120, 121, 122, 123, 124, 125, 126, 127, 128, 129, 130, 131, 132, 133, 134, 135, 136, 137, 138, 139, 140, 141, 142, 143, 144, 145, 146, 147, 148, 149, 150, 151, 152, 153, 154, 155, 156, 157, 158, 159, 160, 161, 162, 163, 164, 165, 166, 167, 168, 169, 170, 171, 172, 173, 174, 175, 176, 177, 178, 179, 180, 181, 182, 183, 184, 185, 186, 187, 188, 189, 190, 191, 192, 193, 194, 195, 196, 197, 198, 199, 200, 201, 202, 203, 204, 205, 206, 207, 208, 209, 210, 211, 212, 213, 214, 215, 216, 217, 218, 219, 220, 221, 222, 223, 224, 225, 226, 227, 228, 229, 230, 231, 232, 233, 234, 235, 236, 237, 238, 239, 240, 241, 242, 243, 244, 245, 246, 247, 248, 249, 250, 251, 252, 253, 254, 255, 256, 257, 258, 259, 260, 261, 262, 263, 264, 265, 266, 267, 268, 269, 270, 271, 272, 273, 274, 275, 276, 277, 278, 279, 280, 281, 282, 283, 284, 285, 286, 287, 288, 289, 290, 291, 292, 293, 294, 295, 296, 297, 298, 299, 300, 301, 302, 303, 304, 305, 306, 307, 308, 309, 310, 311, 312, 313, 314, 315, 316, 317, 318, 319, 320, 321, 322, 323, 324, 325, 326, 327, 328, 329, 330, 331, 332, 333, 334, 335, 336, 337, 338, 339, 340, 341, 342, 343, 344, 345, 346, 347, 348, 349, 350, 351, 352, 353, 354, 355, 356, 357, 358, 359, 360, 361, 362, 363, 364, 365, 366, 367, 368, 369, 370, 371, 372, 373, 374, 375, 376, 377, 378, 379, 380, 381, 382, 383, 384, 385, 386, 387, 388, 389, 390, 391, 392, 393, 394, 395, 396, 397, 398, 399, 400, 401, 402, 403, 404, 405, 406, 407, 408, 409, 410, 411, 412, 413, 414, 415, 416, 417, 418, 419, 420, 421, 422, 423, 424, 425, 426, 427, 428, 429, 430, 431, 432, 433, 434, 435, 436, 437, 438, 439, 440, 441, 442, 443, 444, 445, 446, 447, 448, 449, 450, 451, 452, 453, 454, 455, 456, 457, 458, 459, 460, 461, 462, 463, 464, 465, 466, 467, 468, 469, 470, 471, 472, 473, 474, 475, 476, 477, 478, 479, 480, 481, 482, 483, 484, 485, 486, 487, 488, 489, 490, 491, 492, 493, 494, 495, 496, 497, 498, 499, 500, 501, 502, 503, 504, 505, 506, 507, 508, 509, 510, 511, 512, 513, 514, 515, 516, 517, 518, 519, 520, 521, 522, 523, 524, 525, 526, 527, 528, 529, 530, 531, 532, 533, 534, 535, 536, 537, 538, 539, 540, 541, 542, 543, 544, 545, 546, 547, 548, 549, 550, 551, 552, 553, 554, 555, 556, 557, 558, 559, 560, 561, 562, 563, 564, 565, 566, 567, 568, 569, 570, 571, 572, 573, 574, 575, 576, 577, 578, 579, 580, 581, 582, 583, 584, 585, 586, 587, 588, 589, 590, 591, 592, 593, 594, 595, 596, 597, 598, 599, 600, 601, 602, 603, 604, 605, 606, 607, 608, 609, 610, 611, 612, 613, 614, 615, 616, 617, 618, 619, 620, 621, 622, 623, 624, 625, 626, 627, 628, 629, 630, 631, 632, 633, 634, 635, 636, 637, 638, 639, 640, 641, 642, 643, 644, 645, 646, 647, 648, 649, 650, 651, 652, 653, 654, 655, 656, 657, 658, 659, 660, 661, 662, 663, 664, 665, 666, 667, 668, 669, 670, 671, 672, 673, 674, 675, 676, 677, 678, 679, 680, 681, 682, 683, 684, 685, 686, 687, 688, 689, 690, 691, 692, 693, 694, 695, 696, 697, 698, 699, 700, 701, 702, 703, 704, 705, 706, 707, 708, 709, 710, 711, 712, 713, 714, 715, 716, 717, 718, 719, 720, 721, 722, 723, 724, 725, 726, 727, 728, 729, 730, 731, 732, 733, 734, 735, 736, 737, 738, 739, 740, 741, 742, 743, 744, 745, 746, 747, 748, 749, 750, 751, 752, 753, 754, 755, 756, 757, 758, 759, 760, 761, 762, 763, 764, 765, 766, 767, 768, 769, 770, 771, 772, 773, 774, 775, 776, 777, 778, 779, 780, 781, 782, 783, 784, 785, 786, 787, 788, 789, 790, 791, 792, 793, 794, 795, 796, 797, 798, 799, 800, 801, 802, 803, 804, 805, 806, 807, 808, 809, 810, 811, 812, 813, 814, 815, 816, 817, 818, 819, 820, 821, 822, 823, 824, 825, 826, 827, 828, 829, 830, 831, 832, 833, 834, 835, 836, 837, 838, 839, 840, 841, 842, 843, 844, 845, 846, 847, 848, 849, 850, 851, 852, 853, 854, 855, 856, 857, 858, 859, 860, 861, 862, 863, 864, 865, 866, 867, 868, 869, 870, 871, 872],
      "AcquisitionTime": ["125306.705000", "125307.165000", "125307.625000", "125308.085000", "125308.545000", "125309.005000", "125309.465000", "125309.925000", "125310.385000", "125310.845000", "125311.305000", "125311.765000", "125312.225000", "125312.685000", "125313.145000", "125313.605000", "125314.065000", "125314.525000", "125314.985000", "125315.445000", "125315.905000", "125316.365000", "125316.825000", "125317.285000", "125317.745000", "125318.205000", "125318.665000", "125319.125000", "125319.585000", "125320.045000", "125320.505000", "125320.965000", "125321.425000", "125321.885000", "125322.345000", "125322.805000", "125323.265000", "125323.725000", "125324.185000", "125324.645000", "125325.105000", "125325.565000", "125326.025000", "125326.485000", "125326.945000", "125327.405000", "125327.865000", "125328.325000", "125328.785000", "125329.245000", "125329.705000", "125330.165000", "125330.625000", "125331.085000", "125331.545000", "125332.005000", "125332.465000", "125332.925000", "125333.385000", "125333.845000", "125334.305000", "125334.765000", "125335.225000", "125335.685000", "125336.145000", "125336.605000", "125337.065000", "125337.525000", "125337.985000", "125338.445000", "125338.905000", "125339.365000", "125339.825000", "125340.285000", "125340.745000", "125341.205000", "125341.665000", "125342.125000", "125342.585000", "125343.045000", "125343.505000", "125343.965000", "125344.425000", "125344.885000", "125345.345000", "125345.805000", "125346.265000", "125346.725000", "125347.185000", "125347.645000", "125348.105000", "125348.565000", "125349.025000", "125349.485000", "125349.945000", "125350.405000", "125350.865000", "125351.325000", "125351.785000", "125352.245000", "125352.705000", "125353.165000", "125353.625000", "125354.085000", "125354.545000", "125355.005000", "125355.465000", "125355.925000", "125356.385000", "125356.845000", "125357.305000", "125357.765000", "125358.225000", "125358.685000", "125359.145000", "125359.605000", "125400.065000", "125400.525000", "125400.985000", "125401.445000", "125401.905000", "125402.365000", "125402.825000", "125403.285000", "125403.745000", "125404.205000", "125404.665000", "125405.125000", "125405.585000", "125406.045000", "125406.505000", "125406.965000", "125407.425000", "125407.885000", "125408.345000", "125408.805000", "125409.265000", "125409.725000", "125410.185000", "125410.645000", "125411.105000", "125411.565000", "125412.025000", "125412.485000", "125412.945000", "125413.405000", "125413.865000", "125414.325000", "125414.785000", "125415.245000", "125415.705000", "125416.165000", "125416.625000", "125417.085000", "125417.545000", "125418.005000", "125418.465000", "125418.925000", "125419.385000", "125419.845000", "125420.305000", "125420.765000", "125421.225000", "125421.685000", "125422.145000", "125422.605000", "125423.065000", "125423.525000", "125423.985000", "125424.445000", "125424.905000", "125425.365000", "125425.825000", "125426.285000", "125426.745000", "125427.205000", "125427.665000", "125428.125000", "125428.585000", "125429.045000", "125429.505000", "125429.965000", "125430.425000", "125430.885000", "125431.345000", "125431.805000", "125432.265000", "125432.725000", "125433.185000", "125433.645000", "125434.105000", "125434.565000", "125435.025000", "125435.485000", "125435.945000", "125436.405000", "125436.865000", "125437.325000", "125437.785000", "125438.245000", "125438.705000", "125439.165000", "125439.625000", "125440.085000", "125440.545000", "125441.005000", "125441.465000", "125441.925000", "125442.385000", "125442.845000", "125443.305000", "125443.765000", "125444.225000", "125444.685000", "125445.145000", "125445.605000", "125446.065000", "125446.525000", "125446.985000", "125447.445000", "125447.905000", "125448.365000", "125448.825000", "125449.285000", "125449.745000", "125450.205000", "125450.665000", "125451.125000", "125451.585000", "125452.045000", "125452.505000", "125452.965000", "125453.425000", "125453.885000", "125454.345000", "125454.805000", "125455.265000", "125455.725000", "125456.185000", "125456.645000", "125457.105000", "125457.565000", "125458.025000", "125458.485000", "125458.945000", "125459.405000", "125459.865000", "125500.325000", "125500.785000", "125501.245000", "125501.705000", "125502.165000", "125502.625000", "125503.085000", "125503.545000", "125504.005000", "125504.465000", "125504.925000", "125505.385000", "125505.845000", "125506.305000", "125506.765000", "125507.225000", "125507.685000", "125508.145000", "125508.605000", "125509.065000", "125509.525000", "125509.985000", "125510.445000", "125510.905000", "125511.365000", "125511.825000", "125512.285000", "125512.745000", "125513.205000", "125513.665000", "125514.125000", "125514.585000", "125515.045000", "125515.505000", "125515.965000", "125516.425000", "125516.885000", "125517.345000", "125517.805000", "125518.265000", "125518.725000", "125519.185000", "125519.645000", "125520.105000", "125520.565000", "125521.025000", "125521.485000", "125521.945000", "125522.405000", "125522.865000", "125523.325000", "125523.785000", "125524.245000", "125524.705000", "125525.165000", "125525.625000", "125526.085000", "125526.545000", "125527.005000", "125527.465000", "125527.925000", "125528.385000", "125528.845000", "125529.305000", "125529.765000", "125530.225000", "125530.685000", "125531.145000", "125531.605000", "125532.065000", "125532.525000", "125532.985000", "125533.445000", "125533.905000", "125534.365000", "125534.825000", "125535.285000", "125535.745000", "125536.205000", "125536.665000", "125537.125000", "125537.585000", "125538.045000", "125538.505000", "125538.965000", "125539.425000", "125539.885000", "125540.345000", "125540.805000", "125541.265000", "125541.725000", "125542.185000", "125542.645000", "125543.105000", "125543.565000", "125544.025000", "125544.485000", "125544.945000", "125545.405000", "125545.865000", "125546.325000", "125546.785000", "125547.245000", "125547.705000", "125548.165000", "125548.625000", "125549.085000", "125549.545000", "125550.005000", "125550.465000", "125550.925000", "125551.385000", "125551.845000", "125552.305000", "125552.765000", "125553.225000", "125553.685000", "125554.145000", "125554.605000", "125555.065000", "125555.525000", "125555.985000", "125556.445000", "125556.905000", "125557.365000", "125557.825000", "125558.285000", "125558.745000", "125559.205000", "125559.665000", "125600.125000", "125600.585000", "125601.045000", "125601.505000", "125601.965000", "125602.425000", "125602.885000", "125603.345000", "125603.805000", "125604.265000", "125604.725000", "125605.185000", "125605.645000", "125606.105000", "125606.565000", "125607.025000", "125607.485000", "125607.945000", "125608.405000", "125608.865000", "125609.325000", "125609.785000", "125610.245000", "125610.705000", "125611.165000", "125611.625000", "125612.085000", "125612.545000", "125613.005000", "125613.465000", "125613.925000", "125614.385000", "125614.845000", "125615.305000", "125615.765000", "125616.225000", "125616.685000", "125617.145000", "125617.605000", "125618.065000", "125618.525000", "125618.985000", "125619.445000", "125619.905000", "125620.365000", "125620.825000", "125621.285000", "125621.745000", "125622.205000", "125622.665000", "125623.125000", "125623.585000", "125624.045000", "125624.505000", "125624.965000", "125625.425000", "125625.885000", "125626.345000", "125626.805000", "125627.265000", "125627.725000", "125628.185000", "125628.645000", "125629.105000", "125629.565000", "125630.025000", "125630.485000", "125630.945000", "125631.405000", "125631.865000", "125632.325000", "125632.785000", "125633.245000", "125633.705000", "125634.165000", "125634.625000", "125635.085000", "125635.545000", "125636.005000", "125636.465000", "125636.925000", "125637.385000", "125637.845000", "125638.305000", "125638.765000", "125639.225000", "125639.685000", "125640.145000", "125640.605000", "125641.065000", "125641.525000", "125641.985000", "125642.445000", "125642.905000", "125643.365000", "125643.825000", "125644.285000", "125644.745000", "125645.205000", "125645.665000", "125646.125000", "125646.585000", "125647.045000", "125647.505000", "125647.965000", "125648.425000", "125648.885000", "125649.345000", "125649.805000", "125650.265000", "125650.725000", "125651.185000", "125651.645000", "125652.105000", "125652.565000", "125653.025000", "125653.485000", "125653.945000", "125654.405000", "125654.865000", "125655.325000", "125655.785000", "125656.245000", "125656.705000", "125657.165000", "125657.625000", "125658.085000", "125658.545000", "125659.005000", "125659.465000", "125659.925000", "125700.385000", "125700.845000", "125701.305000", "125701.765000", "125702.225000", "125702.685000", "125703.145000", "125703.605000", "125704.065000", "125704.525000", "125704.985000", "125705.445000", "125705.905000", "125706.365000", "125706.825000", "125707.285000", "125707.745000", "125708.205000", "125708.665000", "125709.125000", "125709.585000", "125710.045000", "125710.505000", "125710.965000", "125711.425000", "125711.885000", "125712.345000", "125712.805000", "125713.265000", "125713.725000", "125714.185000", "125714.645000", "125715.105000", "125715.565000", "125716.025000", "125716.485000", "125716.945000", "125717.405000", "125717.865000", "125718.325000", "125718.785000", "125719.245000", "125719.705000", "125720.165000", "125720.625000", "125721.085000", "125721.545000", "125722.005000", "125722.465000", "125722.925000", "125723.385000", "125723.845000", "125724.305000", "125724.765000", "125725.225000", "125725.685000", "125726.145000", "125726.605000", "125727.065000", "125727.525000", "125727.985000", "125728.445000", "125728.905000", "125729.365000", "125729.825000", "125730.285000", "125730.745000", "125731.205000", "125731.665000", "125732.125000", "125732.585000", "125733.045000", "125733.505000", "125733.965000", "125734.425000", "125734.885000", "125735.345000", "125735.805000", "125736.265000", "125736.725000", "125737.185000", "125737.645000", "125738.105000", "125738.565000", "125739.025000", "125739.485000", "125739.945000", "125740.405000", "125740.865000", "125741.325000", "125741.785000", "125742.245000", "125742.705000", "125743.165000", "125743.625000", "125744.085000", "125744.545000", "125745.005000", "125745.465000", "125745.925000", "125746.385000", "125746.845000", "125747.305000", "125747.765000", "125748.225000", "125748.685000", "125749.145000", "125749.605000", "125750.065000", "125750.525000", "125750.985000", "125751.445000", "125751.905000", "125752.365000", "125752.825000", "125753.285000", "125753.745000", "125754.205000", "125754.665000", "125755.125000", "125755.585000", "125756.045000", "125756.505000", "125756.965000", "125757.425000", "125757.885000", "125758.345000", "125758.805000", "125759.265000", "125759.725000", "125800.185000", "125800.645000", "125801.105000", "125801.565000", "125802.025000", "125802.485000", "125802.945000", "125803.405000", "125803.865000", "125804.325000", "125804.785000", "125805.245000", "125805.705000", "125806.165000", "125806.625000", "125807.085000", "125807.545000", "125808.005000", "125808.465000", "125808.925000", "125809.385000", "125809.845000", "125810.305000", "125810.765000", "125811.225000", "125811.685000", "125812.145000", "125812.605000", "125813.065000", "125813.525000", "125813.985000", "125814.445000", "125814.905000", "125815.365000", "125815.825000", "125816.285000", "125816.745000", "125817.205000", "125817.665000", "125818.125000", "125818.585000", "125819.045000", "125819.505000", "125819.965000", "125820.425000", "125820.885000", "125821.345000", "125821.805000", "125822.265000", "125822.725000", "125823.185000", "125823.645000", "125824.105000", "125824.565000", "125825.025000", "125825.485000", "125825.945000", "125826.405000", "125826.865000", "125827.325000", "125827.785000", "125828.245000", "125828.705000", "125829.165000", "125829.625000", "125830.085000", "125830.545000", "125831.005000", "125831.465000", "125831.925000", "125832.385000", "125832.845000", "125833.305000", "125833.765000", "125834.225000", "125834.685000", "125835.145000", "125835.605000", "125836.065000", "125836.525000", "125836.985000", "125837.445000", "125837.905000", "125838.365000", "125838.825000", "125839.285000", "125839.745000", "125840.205000", "125840.665000", "125841.125000", "125841.585000", "125842.045000", "125842.505000", "125842.965000", "125843.425000", "125843.885000", "125844.345000", "125844.805000", "125845.265000", "125845.725000", "125846.185000", "125846.645000", "125847.105000", "125847.565000", "125848.025000", "125848.485000", "125848.945000", "125849.405000", "125849.865000", "125850.325000", "125850.785000", "125851.245000", "125851.705000", "125852.165000", "125852.625000", "125853.085000", "125853.545000", "125854.005000", "125854.465000", "125854.925000", "125855.385000", "125855.845000", "125856.305000", "125856.765000", "125857.225000", "125857.685000", "125858.145000", "125858.605000", "125859.065000", "125859.525000", "125859.985000", "125900.445000", "125900.905000", "125901.365000", "125901.825000", "125902.285000", "125902.745000", "125903.205000", "125903.665000", "125904.125000", "125904.585000", "125905.045000", "125905.505000", "125905.965000", "125906.425000", "125906.885000", "125907.345000", "125907.805000", "125908.265000", "125908.725000", "125909.185000", "125909.645000", "125910.105000", "125910.565000", "125911.025000", "125911.485000", "125911.945000", "125912.405000", "125912.865000", "125913.325000", "125913.785000", "125914.245000", "125914.705000", "125915.165000", "125915.625000", "125916.085000", "125916.545000", "125917.005000", "125917.465000", "125917.925000", "125918.385000", "125918.845000", "125919.305000", "125919.765000", "125920.225000", "125920.685000", "125921.145000", "125921.605000", "125922.065000", "125922.525000", "125922.985000", "125923.445000", "125923.905000", "125924.365000", "125924.825000", "125925.285000", "125925.745000", "125926.205000", "125926.665000", "125927.125000", "125927.585000", "125928.045000", "125928.505000", "125928.965000", "125929.425000", "125929.885000", "125930.345000", "125930.805000", "125931.265000", "125931.725000", "125932.185000", "125932.645000", "125933.105000", "125933.565000", "125934.025000", "125934.485000", "125934.945000", "125935.405000", "125935.865000", "125936.325000", "125936.785000", "125937.245000", "125937.705000", "125938.165000", "125938.625000", "125939.085000", "125939.545000", "125940.005000", "125940.465000", "125940.925000", "125941.385000", "125941.845000", "125942.305000", "125942.765000", "125943.225000", "125943.685000", "125944.145000", "125944.605000", "125945.065000", "125945.525000", "125945.985000", "125946.445000", "125946.905000", "125947.365000"],
