{
  "AcquisitionMatrixPE": 82,
  "AcquisitionNumber": 1,
  "AcquisitionTime": "13:22:14.090000",
  "BandwidthPerPixelPhaseEncode": 24.888,
  "BaseResolution": 82,
  "BodyPartExamined": "BRAIN",
  "ConsistencyInfo": "N4_VE11E_LATEST_20181129",
  "ConversionSoftware": "dcm2niix",
  "ConversionSoftwareVersion": "v1.0.20201102",
  "DerivedVendorReportedEchoSpacing": 0.00049,
  "DeviceSerialNumber": "66112",
  "DwellTime": 2e-06,
  "EchoTime": 0.0272,
  "EchoTrainLength": 82,
  "EffectiveEchoSpacing": 0.00049,
  "FlipAngle": 44,
  "ImageComments": "Unaliased MB8/PE3",
  "ImageOrientationPatientDICOM": [0.999898, 0.0119927, 0.0076995, -0.00994769, 0.974186, -0.225527],
  "ImageType": [
    "ORIGINAL",
    "PRIMARY",
    "M",
    "MB",
    "ND",
    "NORM",
    "MOSAIC"
],
  "ImagingFrequency": 123.252,
  "InPlanePhaseEncodingDirectionDICOM": "COL",
  "InstitutionAddress": "Maynard 3,Hanover,NH,US,03755",
  "InstitutionName": "Dartmouth College - PBS",
  "InstitutionalDepartmentName": "Department",
  "MRAcquisitionType": "2D",
  "MagneticFieldStrength": 3,
  "Manufacturer": "Siemens",
  "ManufacturersModelName": "Prisma",
  "Modality": "MR",
  "MultibandAccelerationFactor": 8,
  "PartialFourier": 1,
  "PatientPosition": "HFS",
  "PercentPhaseFOV": 100,
  "PercentSampling": 100,
  "PhaseEncodingDirection": "j-",
  "PhaseEncodingSteps": 82,
  "PhaseResolution": 1,
  "PixelBandwidth": 3050,
  "ProcedureStepDescription": "Wager_Wager^1076_spacetop",
  "ProtocolName": "func_run-05_task-social_acq-ap-mb8",
  "PulseSequenceDetails": "%CustomerSeq%\\cmrr_mbep2d_bold",
  "ReceiveCoilActiveElements": "HEA;HEP",
  "ReceiveCoilName": "Head_32",
  "ReconMatrixPE": 82,
  "RepetitionTime": 0.46,
  "SAR": 0.109651,
  "ScanOptions": "FS",
  "ScanningSequence": "EP",
  "SequenceName": "epfid2d1_82",
  "SequenceVariant": "SK\\SS",
  "SeriesDescription": "func_run-05_task-social_acq-ap-mb8",
  "SeriesNumber": 16,
  "ShimSetting": [4141, -7708, -7264, 586, -100, -187, -92, 76],
  "SliceThickness": 2.7,
  "SliceTiming": [0, 0.2525, 0.0625, 0.315, 0.125, 0.3775, 0.19, 0, 0.2525, 0.0625, 0.315, 0.125, 0.3775, 0.19, 0, 0.2525, 0.0625, 0.315, 0.125, 0.3775, 0.19, 0, 0.2525, 0.0625, 0.315, 0.125, 0.3775, 0.19, 0, 0.2525, 0.0625, 0.315, 0.125, 0.3775, 0.19, 0, 0.2525, 0.0625, 0.315, 0.125, 0.3775, 0.19, 0, 0.2525, 0.0625, 0.315, 0.125, 0.3775, 0.19, 0, 0.2525, 0.0625, 0.315, 0.125, 0.3775, 0.19],
  "SoftwareVersions": "syngo MR E11",
  "SpacingBetweenSlices": 2.7,
  "StationName": "AWP66112",
  "TaskName": "social",
  "TotalReadoutTime": 0.03969,
  "TxRefAmp": 265.939,
  "WipMemBlock": "e87f5512-0a89-49c1-aa48-c8f7febf3dd5||Sequence: R016 ve11e/master r/434b28f1; Aug  7 2019 18:53:46 by eja",
  "dcmmeta_affine": [
    [-2.68265438079834, -0.026688937097787857, 0.027554631233215332, 112.75200653076172],
    [-0.032175544649362564, 2.6136703491210938, -0.6086530089378357, -75.23147583007812],
    [0.020657192915678024, 0.6050711870193481, 2.6303579807281494, -100.48424530029297],
    [0.0, 0.0, 0.0, 1.0]
],
  "dcmmeta_reorient_transform": [
    [0.0, -1.0, 0.0, 81.0],
    [1.0, 0.0, 0.0, 0.0],
    [0.0, 0.0, 1.0, 0.0],
    [0.0, 0.0, 0.0, 1.0]
],
  "dcmmeta_shape": [82, 82, 56, 872],
  "dcmmeta_slice_dim": 2,
  "dcmmeta_version": 0.6,
  "global": {
    "const": {
      "AccessionNumber": "A004236",
      "AcquisitionMatrix": [82, 0, 0, 82],
      "AngioFlag": "N",
      "BitsAllocated": 16,
      "BitsStored": 16,
      "BodyPartExamined": "BRAIN",
      "Columns": 656,
      "EchoNumbers": 1,
      "EchoTime": 27.2,
      "EchoTrainLength": 82,
      "FlipAngle": 44.0,
      "HighBit": 15,
      "ImageOrientationPatient": [0.99989844124342, 0.01199270241398, 0.00769949919114, -0.0099476945614, 0.97418623790704, -0.2255265333513],
      "ImagePositionPatient": [-872.85229481071, -895.83363151442, 116.25333875952],
      "ImageType": [
        "ORIGINAL",
        "PRIMARY",
        "M",
        "MB",
        "ND",
        "NORM",
        "MOSAIC"
],
      "ImagedNucleus": "1H",
      "ImagingFrequency": 123.25221,
      "InPlanePhaseEncodingDirection": "COL",
      "MRAcquisitionType": "2D",
      "MagneticFieldStrength": 3.0,
      "Manufacturer": "SIEMENS",
      "ManufacturerModelName": "Prisma",
      "Modality": "MR",
      "NumberOfAverages": 1.0,
      "NumberOfPhaseEncodingSteps": 82,
      "PercentPhaseFieldOfView": 100.0,
      "PercentSampling": 100.0,
      "PerformedProcedureStepStartTime": "123846.793000",
      "PhotometricInterpretation": "MONOCHROME2",
      "PixelBandwidth": 3050.0,
      "PixelRepresentation": 0,
      "PixelSpacing": [2.6829268932343, 2.6829268932343],
      "ProtocolName": "func_run-05_task-social_acq-ap-mb8",
      "RepetitionTime": 460.0,
      "Rows": 656,
      "SAR": 0.10965059058773,
      "SamplesPerPixel": 1,
      "ScanOptions": "FS",
      "ScanningSequence": "EP",
      "SequenceName": "epfid2d1_82",
      "SequenceVariant": [
        "SK",
        "SS"
],
      "SeriesDescription": "func_run-05_task-social_acq-ap-mb8",
      "SeriesNumber": 16,
      "SeriesTime": "132230.707000",
      "SliceLocation": -79.782527972189,
      "SliceThickness": 2.7000000476837,
      "SmallestImagePixelValue": 0,
      "SoftwareVersions": "syngo MR E11",
      "SpacingBetweenSlices": 2.7000000818493,
      "SpecificCharacterSet": "ISO_IR 100",
      "StudyID": "4",
      "StudyTime": "123846.746000",
      "TransmitCoilName": "Body",
      "VariableFlipAngleFlag": "N",
      "WindowCenterWidthExplanation": "Algo1"
    },
    "slices": {}
  },
  "time": {
    "samples": {
      "AcquisitionNumber": [1, 2, 3, 4, 5, 6, 7, 8, 9, 10, 11, 12, 13, 14, 15, 16, 17, 18, 19, 20, 21, 22, 23, 24, 25, 26, 27, 28, 29, 30, 31, 32, 33, 34, 35, 36, 37, 38, 39, 40, 41, 42, 43, 44, 45, 46, 47, 48, 49, 50, 51, 52, 53, 54, 55, 56, 57, 58, 59, 60, 61, 62, 63, 64, 65, 66, 67, 68, 69, 70, 71, 72, 73, 74, 75, 76, 77, 78, 79, 80, 81, 82, 83, 84, 85, 86, 87, 88, 89, 90, 91, 92, 93, 94, 95, 96, 97, 98, 99, 100, 101, 102, 103, 104, 105, 106, 107, 108, 109, 110, 111, 112, 113, 114, 115, 116, 117, 118, 119, 120, 121, 122, 123, 124, 125, 126, 127, 128, 129, 130, 131, 132, 133, 134, 135, 136, 137, 138, 139, 140, 141, 142, 143, 144, 145, 146, 147, 148, 149, 150, 151, 152, 153, 154, 155, 156, 157, 158, 159, 160, 161, 162, 163, 164, 165, 166, 167, 168, 169, 170, 171, 172, 173, 174, 175, 176, 177, 178, 179, 180, 181, 182, 183, 184, 185, 186, 187, 188, 189, 190, 191, 192, 193, 194, 195, 196, 197, 198, 199, 200, 201, 202, 203, 204, 205, 206, 207, 208, 209, 210, 211, 212, 213, 214, 215, 216, 217, 218, 219, 220, 221, 222, 223, 224, 225, 226, 227, 228, 229, 230, 231, 232, 233, 234, 235, 236, 237, 238, 239, 240, 241, 242, 243, 244, 245, 246, 247, 248, 249, 250, 251, 252, 253, 254, 255, 256, 257, 258, 259, 260, 261, 262, 263, 264, 265, 266, 267, 268, 269, 270, 271, 272, 273, 274, 275, 276, 277, 278, 279, 280, 281, 282, 283, 284, 285, 286, 287, 288, 289, 290, 291, 292, 293, 294, 295, 296, 297, 298, 299, 300, 301, 302, 303, 304, 305, 306, 307, 308, 309, 310, 311, 312, 313, 314, 315, 316, 317, 318, 319, 320, 321, 322, 323, 324, 325, 326, 327, 328, 329, 330, 331, 332, 333, 334, 335, 336, 337, 338, 339, 340, 341, 342, 343, 344, 345, 346, 347, 348, 349, 350, 351, 352, 353, 354, 355, 356, 357, 358, 359, 360, 361, 362, 363, 364, 365, 366, 367, 368, 369, 370, 371, 372, 373, 374, 375, 376, 377, 378, 379, 380, 381, 382, 383, 384, 385, 386, 387, 388, 389, 390, 391, 392, 393, 394, 395, 396, 397, 398, 399, 400, 401, 402, 403, 404, 405, 406, 407, 408, 409, 410, 411, 412, 413, 414, 415, 416, 417, 418, 419, 420, 421, 422, 423, 424, 425, 426, 427, 428, 429, 430, 431, 432, 433, 434, 435, 436, 437, 438, 439, 440, 441, 442, 443, 444, 445, 446, 447, 448, 449, 450, 451, 452, 453, 454, 455, 456, 457, 458, 459, 460, 461, 462, 463, 464, 465, 466, 467, 468, 469, 470, 471, 472, 473, 474, 475, 476, 477, 478, 479, 480, 481, 482, 483, 484, 485, 486, 487, 488, 489, 490, 491, 492, 493, 494, 495, 496, 497, 498, 499, 500, 501, 502, 503, 504, 505, 506, 507, 508, 509, 510, 511, 512, 513, 514, 515, 516, 517, 518, 519, 520, 521, 522, 523, 524, 525, 526, 527, 528, 529, 530, 531, 532, 533, 534, 535, 536, 537, 538, 539, 540, 541, 542, 543, 544, 545, 546, 547, 548, 549, 550, 551, 552, 553, 554, 555, 556, 557, 558, 559, 560, 561, 562, 563, 564, 565, 566, 567, 568, 569, 570, 571, 572, 573, 574, 575, 576, 577, 578, 579, 580, 581, 582, 583, 584, 585, 586, 587, 588, 589, 590, 591, 592, 593, 594, 595, 596, 597, 598, 599, 600, 601, 602, 603, 604, 605, 606, 607, 608, 609, 610, 611, 612, 613, 614, 615, 616, 617, 618, 619, 620, 621, 622, 623, 624, 625, 626, 627, 628, 629, 630, 631, 632, 633, 634, 635, 636, 637, 638, 639, 640, 641, 642, 643, 644, 645, 646, 647, 648, 649, 650, 651, 652, 653, 654, 655, 656, 657, 658, 659, 660, 661, 662, 663, 664, 665, 666, 667, 668, 669, 670, 671, 672, 673, 674, 675, 676, 677, 678, 679, 680, 681, 682, 683, 684, 685, 686, 687, 688, 689, 690, 691, 692, 693, 694, 695, 696, 697, 698, 699, 700, 701, 702, 703, 704, 705, 706, 707, 708, 709, 710, 711, 712, 713, 714, 715, 716, 717, 718, 719, 720, 721, 722, 723, 724, 725, 726, 727, 728, 729, 730, 731, 732, 733, 734, 735, 736, 737, 738, 739, 740, 741, 742, 743, 744, 745, 746, 747, 748, 749, 750, 751, 752, 753, 754, 755, 756, 757, 758, 759, 760, 761, 762, 763, 764, 765, 766, 767, 768, 769, 770, 771, 772, 773, 774, 775, 776, 777, 778, 779, 780, 781, 782, 783, 784, 785, 786, 787, 788, 789, 790, 791, 792, 793, 794, 795, 796, 797, 798, 799, 800, 801, 802, 803, 804, 805, 806, 807, 808, 809, 810, 811, 812, 813, 814, 815, 816, 817, 818, 819, 820, 821, 822, 823, 824, 825, 826, 827, 828, 829, 830, 831, 832, 833, 834, 835, 836, 837, 838, 839, 840, 841, 842, 843, 844, 845, 846, 847, 848, 849, 850, 851, 852, 853, 854, 855, 856, 857, 858, 859, 860, 861, 862, 863, 864, 865, 866, 867, 868, 869, 870, 871, 872],
      "AcquisitionTime": ["132214.090000", "132214.550000", "132215.010000", "132215.470000", "132215.930000", "132216.390000", "132216.850000", "132217.310000", "132217.770000", "132218.230000", "132218.690000", "132219.150000", "132219.610000", "132220.070000", "132220.530000", "132220.990000", "132221.450000", "132221.910000", "132222.370000", "132222.830000", "132223.290000", "132223.750000", "132224.210000", "132224.670000", "132225.130000", "132225.590000", "132226.050000", "132226.510000", "132226.970000", "132227.430000", "132227.890000", "132228.350000", "132228.810000", "132229.270000", "132229.730000", "132230.190000", "132230.650000", "132231.110000", "132231.570000", "132232.030000", "132232.490000", "132232.950000", "132233.410000", "132233.870000", "132234.330000", "132234.790000", "132235.250000", "132235.710000", "132236.170000", "132236.630000", "132237.090000", "132237.550000", "132238.010000", "132238.470000", "132238.930000", "132239.390000", "132239.850000", "132240.310000", "132240.770000", "132241.230000", "132241.690000", "132242.150000", "132242.610000", "132243.070000", "132243.530000", "132243.990000", "132244.450000", "132244.910000", "132245.370000", "132245.830000", "132246.290000", "132246.750000", "132247.210000", "132247.670000", "132248.130000", "132248.590000", "132249.050000", "132249.510000", "132249.970000", "132250.430000", "132250.890000", "132251.350000", "132251.810000", "132252.270000", "132252.730000", "132253.190000", "132253.650000", "132254.110000", "132254.570000", "132255.030000", "132255.490000", "132255.950000", "132256.410000", "132256.870000", "132257.330000", "132257.790000", "132258.250000", "132258.710000", "132259.170000", "132259.630000", "132300.090000", "132300.550000", "132301.010000", "132301.470000", "132301.930000", "132302.390000", "132302.850000", "132303.310000", "132303.770000", "132304.230000", "132304.690000", "132305.150000", "132305.610000", "132306.070000", "132306.530000", "132306.990000", "132307.450000", "132307.910000", "132308.370000", "132308.830000", "132309.290000", "132309.750000", "132310.210000", "132310.670000", "132311.130000", "132311.590000", "132312.050000", "132312.510000", "132312.970000", "132313.430000", "132313.890000", "132314.350000", "132314.810000", "132315.270000", "132315.730000", "132316.190000", "132316.650000", "132317.110000", "132317.570000", "132318.030000", "132318.490000", "132318.950000", "132319.410000", "132319.870000", "132320.330000", "132320.790000", "132321.250000", "132321.710000", "132322.170000", "132322.630000", "132323.090000", "132323.550000", "132324.010000", "132324.470000", "132324.930000", "132325.390000", "132325.850000", "132326.310000", "132326.770000", "132327.230000", "132327.690000", "132328.150000", "132328.610000", "132329.070000", "132329.530000", "132329.990000", "132330.450000", "132330.910000", "132331.370000", "132331.830000", "132332.290000", "132332.750000", "132333.210000", "132333.670000", "132334.130000", "132334.590000", "132335.050000", "132335.510000", "132335.970000", "132336.430000", "132336.890000", "132337.350000", "132337.810000", "132338.270000", "132338.730000", "132339.190000", "132339.650000", "132340.110000", "132340.570000", "132341.030000", "132341.490000", "132341.950000", "132342.410000", "132342.870000", "132343.330000", "132343.790000", "132344.250000", "132344.710000", "132345.170000", "132345.630000", "132346.090000", "132346.550000", "132347.010000", "132347.470000", "132347.930000", "132348.390000", "132348.850000", "132349.310000", "132349.770000", "132350.230000", "132350.690000", "132351.150000", "132351.610000", "132352.070000", "132352.530000", "132352.990000", "132353.450000", "132353.910000", "132354.370000", "132354.830000", "132355.290000", "132355.750000", "132356.210000", "132356.670000", "132357.130000", "132357.590000", "132358.050000", "132358.510000", "132358.970000", "132359.430000", "132359.890000", "132400.350000", "132400.810000", "132401.270000", "132401.730000", "132402.190000", "132402.650000", "132403.110000", "132403.570000", "132404.030000", "132404.490000", "132404.950000", "132405.410000", "132405.870000", "132406.330000", "132406.790000", "132407.250000", "132407.710000", "132408.170000", "132408.630000", "132409.090000", "132409.550000", "132410.010000", "132410.470000", "132410.930000", "132411.390000", "132411.850000", "132412.310000", "132412.770000", "132413.230000", "132413.690000", "132414.150000", "132414.610000", "132415.070000", "132415.530000", "132415.990000", "132416.450000", "132416.910000", "132417.370000", "132417.830000", "132418.290000", "132418.750000", "132419.210000", "132419.670000", "132420.130000", "132420.590000", "132421.050000", "132421.510000", "132421.970000", "132422.430000", "132422.890000", "132423.350000", "132423.810000", "132424.270000", "132424.730000", "132425.190000", "132425.650000", "132426.110000", "132426.570000", "132427.030000", "132427.490000", "132427.950000", "132428.410000", "132428.870000", "132429.330000", "132429.790000", "132430.250000", "132430.710000", "132431.170000", "132431.630000", "132432.090000", "132432.550000", "132433.010000", "132433.470000", "132433.930000", "132434.390000", "132434.850000", "132435.310000", "132435.770000", "132436.230000", "132436.690000", "132437.150000", "132437.610000", "132438.070000", "132438.530000", "132438.990000", "132439.450000", "132439.910000", "132440.370000", "132440.830000", "132441.290000", "132441.750000", "132442.210000", "132442.670000", "132443.130000", "132443.590000", "132444.050000", "132444.510000", "132444.970000", "132445.430000", "132445.890000", "132446.350000", "132446.810000", "132447.270000", "132447.730000", "132448.190000", "132448.650000", "132449.110000", "132449.570000", "132450.030000", "132450.490000", "132450.950000", "132451.410000", "132451.870000", "132452.330000", "132452.790000", "132453.250000", "132453.710000", "132454.170000", "132454.630000", "132455.090000", "132455.550000", "132456.010000", "132456.470000", "132456.930000", "132457.390000", "132457.850000", "132458.310000", "132458.770000", "132459.230000", "132459.690000", "132500.150000", "132500.610000", "132501.070000", "132501.530000", "132501.990000", "132502.450000", "132502.910000", "132503.370000", "132503.830000", "132504.290000", "132504.750000", "132505.210000", "132505.670000", "132506.130000", "132506.590000", "132507.050000", "132507.510000", "132507.970000", "132508.430000", "132508.890000", "132509.350000", "132509.810000", "132510.270000", "132510.730000", "132511.190000", "132511.650000", "132512.110000", "132512.570000", "132513.030000", "132513.490000", "132513.950000", "132514.410000", "132514.870000", "132515.330000", "132515.790000", "132516.250000", "132516.710000", "132517.170000", "132517.630000", "132518.090000", "132518.550000", "132519.010000", "132519.470000", "132519.930000", "132520.390000", "132520.850000", "132521.310000", "132521.770000", "132522.230000", "132522.690000", "132523.150000", "132523.610000", "132524.070000", "132524.530000", "132524.990000", "132525.450000", "132525.910000", "132526.370000", "132526.830000", "132527.290000", "132527.750000", "132528.210000", "132528.670000", "132529.130000", "132529.590000", "132530.050000", "132530.510000", "132530.970000", "132531.430000", "132531.890000", "132532.350000", "132532.810000", "132533.270000", "132533.730000", "132534.190000", "132534.650000", "132535.110000", "132535.570000", "132536.030000", "132536.490000", "132536.950000", "132537.410000", "132537.870000", "132538.330000", "132538.790000", "132539.250000", "132539.710000", "132540.170000", "132540.630000", "132541.090000", "132541.550000", "132542.010000", "132542.470000", "132542.930000", "132543.390000", "132543.850000", "132544.310000", "132544.770000", "132545.230000", "132545.690000", "132546.150000", "132546.610000", "132547.070000", "132547.530000", "132547.990000", "132548.450000", "132548.910000", "132549.370000", "132549.830000", "132550.290000", "132550.750000", "132551.210000", "132551.670000", "132552.130000", "132552.590000", "132553.050000", "132553.510000", "132553.970000", "132554.430000", "132554.890000", "132555.350000", "132555.810000", "132556.270000", "132556.730000", "132557.190000", "132557.650000", "132558.110000", "132558.570000", "132559.030000", "132559.490000", "132559.950000", "132600.410000", "132600.870000", "132601.330000", "132601.790000", "132602.250000", "132602.710000", "132603.170000", "132603.630000", "132604.090000", "132604.550000", "132605.010000", "132605.470000", "132605.930000", "132606.390000", "132606.850000", "132607.310000", "132607.770000", "132608.230000", "132608.690000", "132609.150000", "132609.610000", "132610.070000", "132610.530000", "132610.990000", "132611.450000", "132611.910000", "132612.370000", "132612.830000", "132613.290000", "132613.750000", "132614.210000", "132614.670000", "132615.130000", "132615.590000", "132616.050000", "132616.510000", "132616.970000", "132617.430000", "132617.890000", "132618.350000", "132618.810000", "132619.270000", "132619.730000", "132620.190000", "132620.650000", "132621.110000", "132621.570000", "132622.030000", "132622.490000", "132622.950000", "132623.410000", "132623.870000", "132624.330000", "132624.790000", "132625.250000", "132625.710000", "132626.170000", "132626.630000", "132627.090000", "132627.550000", "132628.010000", "132628.470000", "132628.930000", "132629.390000", "132629.850000", "132630.310000", "132630.770000", "132631.230000", "132631.690000", "132632.150000", "132632.610000", "132633.070000", "132633.530000", "132633.990000", "132634.450000", "132634.910000", "132635.370000", "132635.830000", "132636.290000", "132636.750000", "132637.210000", "132637.670000", "132638.130000", "132638.590000", "132639.050000", "132639.510000", "132639.970000", "132640.430000", "132640.890000", "132641.350000", "132641.810000", "132642.270000", "132642.730000", "132643.190000", "132643.650000", "132644.110000", "132644.570000", "132645.030000", "132645.490000", "132645.950000", "132646.410000", "132646.870000", "132647.330000", "132647.790000", "132648.250000", "132648.710000", "132649.170000", "132649.630000", "132650.090000", "132650.550000", "132651.010000", "132651.470000", "132651.930000", "132652.390000", "132652.850000", "132653.310000", "132653.770000", "132654.230000", "132654.690000", "132655.150000", "132655.610000", "132656.070000", "132656.530000", "132656.990000", "132657.450000", "132657.910000", "132658.370000", "132658.830000", "132659.290000", "132659.750000", "132700.210000", "132700.670000", "132701.130000", "132701.590000", "132702.050000", "132702.510000", "132702.970000", "132703.430000", "132703.890000", "132704.350000", "132704.810000", "132705.270000", "132705.730000", "132706.190000", "132706.650000", "132707.110000", "132707.570000", "132708.030000", "132708.490000", "132708.950000", "132709.410000", "132709.870000", "132710.330000", "132710.790000", "132711.250000", "132711.710000", "132712.170000", "132712.630000", "132713.090000", "132713.550000", "132714.010000", "132714.470000", "132714.930000", "132715.390000", "132715.850000", "132716.310000", "132716.770000", "132717.230000", "132717.690000", "132718.150000", "132718.610000", "132719.070000", "132719.530000", "132719.990000", "132720.450000", "132720.910000", "132721.370000", "132721.830000", "132722.290000", "132722.750000", "132723.210000", "132723.670000", "132724.130000", "132724.590000", "132725.050000", "132725.510000", "132725.970000", "132726.430000", "132726.890000", "132727.350000", "132727.810000", "132728.270000", "132728.730000", "132729.190000", "132729.650000", "132730.110000", "132730.570000", "132731.030000", "132731.490000", "132731.950000", "132732.410000", "132732.870000", "132733.330000", "132733.790000", "132734.250000", "132734.710000", "132735.170000", "132735.630000", "132736.090000", "132736.550000", "132737.010000", "132737.470000", "132737.930000", "132738.390000", "132738.850000", "132739.310000", "132739.770000", "132740.230000", "132740.690000", "132741.150000", "132741.610000", "132742.070000", "132742.530000", "132742.990000", "132743.450000", "132743.910000", "132744.370000", "132744.830000", "132745.290000", "132745.750000", "132746.210000", "132746.670000", "132747.130000", "132747.590000", "132748.050000", "132748.510000", "132748.970000", "132749.430000", "132749.890000", "132750.350000", "132750.810000", "132751.270000", "132751.730000", "132752.190000", "132752.650000", "132753.110000", "132753.570000", "132754.030000", "132754.490000", "132754.950000", "132755.410000", "132755.870000", "132756.330000", "132756.790000", "132757.250000", "132757.710000", "132758.170000", "132758.630000", "132759.090000", "132759.550000", "132800.010000", "132800.470000", "132800.930000", "132801.390000", "132801.850000", "132802.310000", "132802.770000", "132803.230000", "132803.690000", "132804.150000", "132804.610000", "132805.070000", "132805.530000", "132805.990000", "132806.450000", "132806.910000", "132807.370000", "132807.830000", "132808.290000", "132808.750000", "132809.210000", "132809.670000", "132810.130000", "132810.590000", "132811.050000", "132811.510000", "132811.970000", "132812.430000", "132812.890000", "132813.350000", "132813.810000", "132814.270000", "132814.730000", "132815.190000", "132815.650000", "132816.110000", "132816.570000", "132817.030000", "132817.490000", "132817.950000", "132818.410000", "132818.870000", "132819.330000", "132819.790000", "132820.250000", "132820.710000", "132821.170000", "132821.630000", "132822.090000", "132822.550000", "132823.010000", "132823.470000", "132823.930000", "132824.390000", "132824.850000", "132825.310000", "132825.770000", "132826.230000", "132826.690000", "132827.150000", "132827.610000", "132828.070000", "132828.530000", "132828.990000", "132829.450000", "132829.910000", "132830.370000", "132830.830000", "132831.290000", "132831.750000", "132832.210000", "132832.670000", "132833.130000", "132833.590000", "132834.050000", "132834.510000", "132834.970000", "132835.430000", "132835.890000", "132836.350000", "132836.810000", "132837.270000", "132837.730000", "132838.190000", "132838.650000", "132839.110000", "132839.570000", "132840.030000", "132840.490000", "132840.950000", "132841.410000", "132841.870000", "132842.330000", "132842.790000", "132843.250000", "132843.710000", "132844.170000", "132844.630000", "132845.090000", "132845.550000", "132846.010000", "132846.470000", "132846.930000", "132847.390000", "132847.850000", "132848.310000", "132848.770000", "132849.230000", "132849.690000", "132850.150000", "132850.610000", "132851.070000", "132851.530000", "132851.990000", "132852.450000", "132852.910000", "132853.370000", "132853.830000", "132854.290000", "132854.750000"],
