{
  "AcquisitionMatrixPE": 82,
  "AcquisitionNumber": 1,
  "AcquisitionTime": "13:07:1.302500",
  "BandwidthPerPixelPhaseEncode": 24.888,
  "BaseResolution": 82,
  "BodyPartExamined": "BRAIN",
  "ConsistencyInfo": "N4_VE11E_LATEST_20181129",
  "ConversionSoftware": "dcm2niix",
  "ConversionSoftwareVersion": "v1.0.20201102",
  "DerivedVendorReportedEchoSpacing": 0.00049,
  "DeviceSerialNumber": "66112",
  "DwellTime": 2e-06,
  "EchoTime": 0.0272,
  "EchoTrainLength": 82,
  "EffectiveEchoSpacing": 0.00049,
  "FlipAngle": 44,
  "ImageComments": "Unaliased MB8/PE3",
  "ImageOrientationPatientDICOM": [0.999898, 0.0119927, 0.0076995, -0.00994769, 0.974186, -0.225527],
  "ImageType": [
    "ORIGINAL",
    "PRIMARY",
    "M",
    "MB",
    "ND",
    "NORM",
    "MOSAIC"
],
  "ImagingFrequency": 123.252,
  "InPlanePhaseEncodingDirectionDICOM": "COL",
  "InstitutionAddress": "Maynard 3,Hanover,NH,US,03755",
  "InstitutionName": "Dartmouth College - PBS",
  "InstitutionalDepartmentName": "Department",
  "MRAcquisitionType": "2D",
  "MagneticFieldStrength": 3,
  "Manufacturer": "Siemens",
  "ManufacturersModelName": "Prisma",
  "Modality": "MR",
  "MultibandAccelerationFactor": 8,
  "PartialFourier": 1,
  "PatientPosition": "HFS",
  "PercentPhaseFOV": 100,
  "PercentSampling": 100,
  "PhaseEncodingDirection": "j-",
  "PhaseEncodingSteps": 82,
  "PhaseResolution": 1,
  "PixelBandwidth": 3050,
  "ProcedureStepDescription": "Wager_Wager^1076_spacetop",
  "ProtocolName": "func_run-03_task-social_acq-ap-mb8",
  "PulseSequenceDetails": "%CustomerSeq%\\cmrr_mbep2d_bold",
  "ReceiveCoilActiveElements": "HEA;HEP",
  "ReceiveCoilName": "Head_32",
  "ReconMatrixPE": 82,
  "RepetitionTime": 0.46,
  "SAR": 0.109651,
  "ScanOptions": "FS",
  "ScanningSequence": "EP",
  "SequenceName": "epfid2d1_82",
  "SequenceVariant": "SK\\SS",
  "SeriesDescription": "func_run-03_task-social_acq-ap-mb8",
  "SeriesNumber": 12,
  "ShimSetting": [4141, -7708, -7264, 586, -100, -187, -92, 76],
  "SliceThickness": 2.7,
  "SliceTiming": [0, 0.25, 0.0625, 0.315, 0.125, 0.3775, 0.1875, 0, 0.25, 0.0625, 0.315, 0.125, 0.3775, 0.1875, 0, 0.25, 0.0625, 0.315, 0.125, 0.3775, 0.1875, 0, 0.25, 0.0625, 0.315, 0.125, 0.3775, 0.1875, 0, 0.25, 0.0625, 0.315, 0.125, 0.3775, 0.1875, 0, 0.25, 0.0625, 0.315, 0.125, 0.3775, 0.1875, 0, 0.25, 0.0625, 0.315, 0.125, 0.3775, 0.1875, 0, 0.25, 0.0625, 0.315, 0.125, 0.3775, 0.1875],
  "SoftwareVersions": "syngo MR E11",
  "SpacingBetweenSlices": 2.7,
  "StationName": "AWP66112",
  "TaskName": "social",
  "TotalReadoutTime": 0.03969,
  "TxRefAmp": 265.939,
  "WipMemBlock": "75a4d42a-b86e-472c-95ed-400ad6532b1b||Sequence: R016 ve11e/master r/434b28f1; Aug  7 2019 18:53:46 by eja",
  "dcmmeta_affine": [
    [-2.68265438079834, -0.026688937097787857, 0.027554631233215332, 112.75200653076172],
    [-0.032175544649362564, 2.6136703491210938, -0.6086530089378357, -75.23147583007812],
    [0.020657192915678024, 0.6050711870193481, 2.6303579807281494, -100.48424530029297],
    [0.0, 0.0, 0.0, 1.0]
],
  "dcmmeta_reorient_transform": [
    [0.0, -1.0, 0.0, 81.0],
    [1.0, 0.0, 0.0, 0.0],
    [0.0, 0.0, 1.0, 0.0],
    [0.0, 0.0, 0.0, 1.0]
],
  "dcmmeta_shape": [82, 82, 56, 872],
  "dcmmeta_slice_dim": 2,
  "dcmmeta_version": 0.6,
  "global": {
    "const": {
      "AccessionNumber": "A004236",
      "AcquisitionMatrix": [82, 0, 0, 82],
      "AngioFlag": "N",
      "BitsAllocated": 16,
      "BitsStored": 16,
      "BodyPartExamined": "BRAIN",
      "Columns": 656,
      "EchoNumbers": 1,
      "EchoTime": 27.2,
      "EchoTrainLength": 82,
      "FlipAngle": 44.0,
      "HighBit": 15,
      "ImageOrientationPatient": [0.99989844124342, 0.01199270241398, 0.00769949919114, -0.0099476945614, 0.97418623790704, -0.2255265333513],
      "ImagePositionPatient": [-872.85229481071, -895.83363151442, 116.25333875952],
      "ImageType": [
        "ORIGINAL",
        "PRIMARY",
        "M",
        "MB",
        "ND",
        "NORM",
        "MOSAIC"
],
      "ImagedNucleus": "1H",
      "ImagingFrequency": 123.252203,
      "InPlanePhaseEncodingDirection": "COL",
      "MRAcquisitionType": "2D",
      "MagneticFieldStrength": 3.0,
      "Manufacturer": "SIEMENS",
      "ManufacturerModelName": "Prisma",
      "Modality": "MR",
      "NumberOfAverages": 1.0,
      "NumberOfPhaseEncodingSteps": 82,
      "PercentPhaseFieldOfView": 100.0,
      "PercentSampling": 100.0,
      "PerformedProcedureStepStartTime": "123846.793000",
      "PhotometricInterpretation": "MONOCHROME2",
      "PixelBandwidth": 3050.0,
      "PixelRepresentation": 0,
      "PixelSpacing": [2.6829268932343, 2.6829268932343],
      "ProtocolName": "func_run-03_task-social_acq-ap-mb8",
      "RepetitionTime": 460.0,
      "Rows": 656,
      "SAR": 0.10965059058773,
      "SamplesPerPixel": 1,
      "ScanOptions": "FS",
      "ScanningSequence": "EP",
      "SequenceName": "epfid2d1_82",
      "SequenceVariant": [
        "SK",
        "SS"
],
      "SeriesDescription": "func_run-03_task-social_acq-ap-mb8",
      "SeriesNumber": 12,
      "SeriesTime": "130730.534000",
      "SliceLocation": -79.782527972189,
      "SliceThickness": 2.7000000476837,
      "SmallestImagePixelValue": 0,
      "SoftwareVersions": "syngo MR E11",
      "SpacingBetweenSlices": 2.7000000818493,
      "SpecificCharacterSet": "ISO_IR 100",
      "StudyID": "4",
      "StudyTime": "123846.746000",
      "TransmitCoilName": "Body",
      "VariableFlipAngleFlag": "N",
      "WindowCenterWidthExplanation": "Algo1"
    },
    "slices": {}
  },
  "time": {
    "samples": {
      "AcquisitionNumber": [1, 2, 3, 4, 5, 6, 7, 8, 9, 10, 11, 12, 13, 14, 15, 16, 17, 18, 19, 20, 21, 22, 23, 24, 25, 26, 27, 28, 29, 30, 31, 32, 33, 34, 35, 36, 37, 38, 39, 40, 41, 42, 43, 44, 45, 46, 47, 48, 49, 50, 51, 52, 53, 54, 55, 56, 57, 58, 59, 60, 61, 62, 63, 64, 65, 66, 67, 68, 69, 70, 71, 72, 73, 74, 75, 76, 77, 78, 79, 80, 81, 82, 83, 84, 85, 86, 87, 88, 89, 90, 91, 92, 93, 94, 95, 96, 97, 98, 99, 100, 101, 102, 103, 104, 105, 106, 107, 108, 109, 110, 111, 112, 113, 114, 115, 116, 117, 118, 119, 120, 121, 122, 123, 124, 125, 126, 127, 128, 129, 130, 131, 132, 133, 134, 135, 136, 137, 138, 139, 140, 141, 142, 143, 144, 145, 146, 147, 148, 149, 150, 151, 152, 153, 154, 155, 156, 157, 158, 159, 160, 161, 162, 163, 164, 165, 166, 167, 168, 169, 170, 171, 172, 173, 174, 175, 176, 177, 178, 179, 180, 181, 182, 183, 184, 185, 186, 187, 188, 189, 190, 191, 192, 193, 194, 195, 196, 197, 198, 199, 200, 201, 202, 203, 204, 205, 206, 207, 208, 209, 210, 211, 212, 213, 214, 215, 216, 217, 218, 219, 220, 221, 222, 223, 224, 225, 226, 227, 228, 229, 230, 231, 232, 233, 234, 235, 236, 237, 238, 239, 240, 241, 242, 243, 244, 245, 246, 247, 248, 249, 250, 251, 252, 253, 254, 255, 256, 257, 258, 259, 260, 261, 262, 263, 264, 265, 266, 267, 268, 269, 270, 271, 272, 273, 274, 275, 276, 277, 278, 279, 280, 281, 282, 283, 284, 285, 286, 287, 288, 289, 290, 291, 292, 293, 294, 295, 296, 297, 298, 299, 300, 301, 302, 303, 304, 305, 306, 307, 308, 309, 310, 311, 312, 313, 314, 315, 316, 317, 318, 319, 320, 321, 322, 323, 324, 325, 326, 327, 328, 329, 330, 331, 332, 333, 334, 335, 336, 337, 338, 339, 340, 341, 342, 343, 344, 345, 346, 347, 348, 349, 350, 351, 352, 353, 354, 355, 356, 357, 358, 359, 360, 361, 362, 363, 364, 365, 366, 367, 368, 369, 370, 371, 372, 373, 374, 375, 376, 377, 378, 379, 380, 381, 382, 383, 384, 385, 386, 387, 388, 389, 390, 391, 392, 393, 394, 395, 396, 397, 398, 399, 400, 401, 402, 403, 404, 405, 406, 407, 408, 409, 410, 411, 412, 413, 414, 415, 416, 417, 418, 419, 420, 421, 422, 423, 424, 425, 426, 427, 428, 429, 430, 431, 432, 433, 434, 435, 436, 437, 438, 439, 440, 441, 442, 443, 444, 445, 446, 447, 448, 449, 450, 451, 452, 453, 454, 455, 456, 457, 458, 459, 460, 461, 462, 463, 464, 465, 466, 467, 468, 469, 470, 471, 472, 473, 474, 475, 476, 477, 478, 479, 480, 481, 482, 483, 484, 485, 486, 487, 488, 489, 490, 491, 492, 493, 494, 495, 496, 497, 498, 499, 500, 501, 502, 503, 504, 505, 506, 507, 508, 509, 510, 511, 512, 513, 514, 515, 516, 517, 518, 519, 520, 521, 522, 523, 524, 525, 526, 527, 528, 529, 530, 531, 532, 533, 534, 535, 536, 537, 538, 539, 540, 541, 542, 543, 544, 545, 546, 547, 548, 549, 550, 551, 552, 553, 554, 555, 556, 557, 558, 559, 560, 561, 562, 563, 564, 565, 566, 567, 568, 569, 570, 571, 572, 573, 574, 575, 576, 577, 578, 579, 580, 581, 582, 583, 584, 585, 586, 587, 588, 589, 590, 591, 592, 593, 594, 595, 596, 597, 598, 599, 600, 601, 602, 603, 604, 605, 606, 607, 608, 609, 610, 611, 612, 613, 614, 615, 616, 617, 618, 619, 620, 621, 622, 623, 624, 625, 626, 627, 628, 629, 630, 631, 632, 633, 634, 635, 636, 637, 638, 639, 640, 641, 642, 643, 644, 645, 646, 647, 648, 649, 650, 651, 652, 653, 654, 655, 656, 657, 658, 659, 660, 661, 662, 663, 664, 665, 666, 667, 668, 669, 670, 671, 672, 673, 674, 675, 676, 677, 678, 679, 680, 681, 682, 683, 684, 685, 686, 687, 688, 689, 690, 691, 692, 693, 694, 695, 696, 697, 698, 699, 700, 701, 702, 703, 704, 705, 706, 707, 708, 709, 710, 711, 712, 713, 714, 715, 716, 717, 718, 719, 720, 721, 722, 723, 724, 725, 726, 727, 728, 729, 730, 731, 732, 733, 734, 735, 736, 737, 738, 739, 740, 741, 742, 743, 744, 745, 746, 747, 748, 749, 750, 751, 752, 753, 754, 755, 756, 757, 758, 759, 760, 761, 762, 763, 764, 765, 766, 767, 768, 769, 770, 771, 772, 773, 774, 775, 776, 777, 778, 779, 780, 781, 782, 783, 784, 785, 786, 787, 788, 789, 790, 791, 792, 793, 794, 795, 796, 797, 798, 799, 800, 801, 802, 803, 804, 805, 806, 807, 808, 809, 810, 811, 812, 813, 814, 815, 816, 817, 818, 819, 820, 821, 822, 823, 824, 825, 826, 827, 828, 829, 830, 831, 832, 833, 834, 835, 836, 837, 838, 839, 840, 841, 842, 843, 844, 845, 846, 847, 848, 849, 850, 851, 852, 853, 854, 855, 856, 857, 858, 859, 860, 861, 862, 863, 864, 865, 866, 867, 868, 869, 870, 871, 872],
      "AcquisitionTime": ["130701.302500", "130701.762500", "130702.222500", "130702.682500", "130703.142500", "130703.602500", "130704.062500", "130704.522500", "130704.982500", "130705.442500", "130705.902500", "130706.362500", "130706.822500", "130707.282500", "130707.742500", "130708.202500", "130708.662500", "130709.122500", "130709.582500", "130710.042500", "130710.502500", "130710.962500", "130711.422500", "130711.882500", "130712.342500", "130712.802500", "130713.262500", "130713.722500", "130714.182500", "130714.642500", "130715.102500", "130715.562500", "130716.022500", "130716.482500", "130716.942500", "130717.402500", "130717.862500", "130718.322500", "130718.782500", "130719.242500", "130719.702500", "130720.162500", "130720.622500", "130721.082500", "130721.542500", "130722.002500", "130722.462500", "130722.922500", "130723.382500", "130723.842500", "130724.302500", "130724.762500", "130725.222500", "130725.682500", "130726.142500", "130726.602500", "130727.062500", "130727.522500", "130727.982500", "130728.442500", "130728.902500", "130729.362500", "130729.822500", "130730.282500", "130730.742500", "130731.202500", "130731.662500", "130732.122500", "130732.582500", "130733.042500", "130733.502500", "130733.962500", "130734.422500", "130734.882500", "130735.342500", "130735.802500", "130736.262500", "130736.722500", "130737.182500", "130737.642500", "130738.102500", "130738.562500", "130739.022500", "130739.482500", "130739.942500", "130740.402500", "130740.862500", "130741.322500", "130741.782500", "130742.242500", "130742.702500", "130743.162500", "130743.622500", "130744.082500", "130744.542500", "130745.002500", "130745.462500", "130745.922500", "130746.382500", "130746.842500", "130747.302500", "130747.762500", "130748.222500", "130748.682500", "130749.142500", "130749.602500", "130750.062500", "130750.522500", "130750.982500", "130751.442500", "130751.902500", "130752.362500", "130752.822500", "130753.282500", "130753.742500", "130754.202500", "130754.662500", "130755.122500", "130755.582500", "130756.042500", "130756.502500", "130756.962500", "130757.422500", "130757.882500", "130758.342500", "130758.802500", "130759.262500", "130759.722500", "130800.182500", "130800.642500", "130801.102500", "130801.562500", "130802.022500", "130802.482500", "130802.942500", "130803.402500", "130803.862500", "130804.322500", "130804.782500", "130805.242500", "130805.702500", "130806.162500", "130806.622500", "130807.082500", "130807.542500", "130808.002500", "130808.462500", "130808.922500", "130809.382500", "130809.842500", "130810.302500", "130810.762500", "130811.222500", "130811.682500", "130812.142500", "130812.602500", "130813.062500", "130813.522500", "130813.982500", "130814.442500", "130814.902500", "130815.362500", "130815.822500", "130816.282500", "130816.742500", "130817.202500", "130817.662500", "130818.122500", "130818.582500", "130819.042500", "130819.502500", "130819.962500", "130820.422500", "130820.882500", "130821.342500", "130821.802500", "130822.262500", "130822.722500", "130823.182500", "130823.642500", "130824.102500", "130824.562500", "130825.022500", "130825.482500", "130825.942500", "130826.402500", "130826.862500", "130827.322500", "130827.782500", "130828.242500", "130828.702500", "130829.162500", "130829.622500", "130830.082500", "130830.542500", "130831.002500", "130831.462500", "130831.922500", "130832.382500", "130832.842500", "130833.302500", "130833.762500", "130834.222500", "130834.682500", "130835.142500", "130835.602500", "130836.062500", "130836.522500", "130836.982500", "130837.442500", "130837.902500", "130838.362500", "130838.822500", "130839.282500", "130839.742500", "130840.202500", "130840.662500", "130841.122500", "130841.582500", "130842.042500", "130842.502500", "130842.962500", "130843.422500", "130843.882500", "130844.342500", "130844.802500", "130845.262500", "130845.722500", "130846.182500", "130846.642500", "130847.102500", "130847.562500", "130848.022500", "130848.482500", "130848.942500", "130849.402500", "130849.862500", "130850.322500", "130850.782500", "130851.242500", "130851.702500", "130852.162500", "130852.622500", "130853.082500", "130853.542500", "130854.002500", "130854.462500", "130854.922500", "130855.382500", "130855.842500", "130856.302500", "130856.762500", "130857.222500", "130857.682500", "130858.142500", "130858.602500", "130859.062500", "130859.522500", "130859.982500", "130900.442500", "130900.902500", "130901.362500", "130901.822500", "130902.282500", "130902.742500", "130903.202500", "130903.662500", "130904.122500", "130904.582500", "130905.042500", "130905.502500", "130905.962500", "130906.422500", "130906.882500", "130907.342500", "130907.802500", "130908.262500", "130908.722500", "130909.182500", "130909.642500", "130910.102500", "130910.562500", "130911.022500", "130911.482500", "130911.942500", "130912.402500", "130912.862500", "130913.322500", "130913.782500", "130914.242500", "130914.702500", "130915.162500", "130915.622500", "130916.082500", "130916.542500", "130917.002500", "130917.462500", "130917.922500", "130918.382500", "130918.842500", "130919.302500", "130919.762500", "130920.222500", "130920.682500", "130921.142500", "130921.602500", "130922.062500", "130922.522500", "130922.982500", "130923.442500", "130923.902500", "130924.362500", "130924.822500", "130925.282500", "130925.742500", "130926.202500", "130926.662500", "130927.122500", "130927.582500", "130928.042500", "130928.502500", "130928.962500", "130929.422500", "130929.882500", "130930.342500", "130930.802500", "130931.262500", "130931.722500", "130932.182500", "130932.642500", "130933.102500", "130933.562500", "130934.022500", "130934.482500", "130934.942500", "130935.402500", "130935.862500", "130936.322500", "130936.782500", "130937.242500", "130937.702500", "130938.162500", "130938.622500", "130939.082500", "130939.542500", "130940.002500", "130940.462500", "130940.922500", "130941.382500", "130941.842500", "130942.302500", "130942.762500", "130943.222500", "130943.682500", "130944.142500", "130944.602500", "130945.062500", "130945.522500", "130945.982500", "130946.442500", "130946.902500", "130947.362500", "130947.822500", "130948.282500", "130948.742500", "130949.202500", "130949.662500", "130950.122500", "130950.582500", "130951.042500", "130951.502500", "130951.962500", "130952.422500", "130952.882500", "130953.342500", "130953.802500", "130954.262500", "130954.722500", "130955.182500", "130955.642500", "130956.102500", "130956.562500", "130957.022500", "130957.482500", "130957.942500", "130958.402500", "130958.862500", "130959.322500", "130959.782500", "131000.242500", "131000.702500", "131001.162500", "131001.622500", "131002.082500", "131002.542500", "131003.002500", "131003.462500", "131003.922500", "131004.382500", "131004.842500", "131005.302500", "131005.762500", "131006.222500", "131006.682500", "131007.142500", "131007.602500", "131008.062500", "131008.522500", "131008.982500", "131009.442500", "131009.902500", "131010.362500", "131010.822500", "131011.282500", "131011.742500", "131012.202500", "131012.662500", "131013.122500", "131013.582500", "131014.042500", "131014.502500", "131014.962500", "131015.422500", "131015.882500", "131016.342500", "131016.802500", "131017.262500", "131017.722500", "131018.182500", "131018.642500", "131019.102500", "131019.562500", "131020.022500", "131020.482500", "131020.942500", "131021.402500", "131021.862500", "131022.322500", "131022.782500", "131023.242500", "131023.702500", "131024.162500", "131024.622500", "131025.082500", "131025.542500", "131026.002500", "131026.462500", "131026.922500", "131027.382500", "131027.842500", "131028.302500", "131028.762500", "131029.222500", "131029.682500", "131030.142500", "131030.602500", "131031.062500", "131031.522500", "131031.982500", "131032.442500", "131032.902500", "131033.362500", "131033.822500", "131034.282500", "131034.742500", "131035.202500", "131035.662500", "131036.122500", "131036.582500", "131037.042500", "131037.502500", "131037.962500", "131038.422500", "131038.882500", "131039.342500", "131039.802500", "131040.262500", "131040.722500", "131041.182500", "131041.642500", "131042.102500", "131042.562500", "131043.022500", "131043.482500", "131043.942500", "131044.402500", "131044.862500", "131045.322500", "131045.782500", "131046.242500", "131046.702500", "131047.162500", "131047.622500", "131048.082500", "131048.542500", "131049.002500", "131049.462500", "131049.922500", "131050.382500", "131050.842500", "131051.302500", "131051.762500", "131052.222500", "131052.682500", "131053.142500", "131053.602500", "131054.062500", "131054.522500", "131054.982500", "131055.442500", "131055.902500", "131056.362500", "131056.822500", "131057.282500", "131057.742500", "131058.202500", "131058.662500", "131059.122500", "131059.582500", "131100.042500", "131100.502500", "131100.962500", "131101.422500", "131101.882500", "131102.342500", "131102.802500", "131103.262500", "131103.722500", "131104.182500", "131104.642500", "131105.102500", "131105.562500", "131106.022500", "131106.482500", "131106.942500", "131107.402500", "131107.862500", "131108.322500", "131108.782500", "131109.242500", "131109.702500", "131110.162500", "131110.622500", "131111.082500", "131111.542500", "131112.002500", "131112.462500", "131112.922500", "131113.382500", "131113.842500", "131114.302500", "131114.762500", "131115.222500", "131115.682500", "131116.142500", "131116.602500", "131117.062500", "131117.522500", "131117.982500", "131118.442500", "131118.902500", "131119.362500", "131119.822500", "131120.282500", "131120.742500", "131121.202500", "131121.662500", "131122.122500", "131122.582500", "131123.042500", "131123.502500", "131123.962500", "131124.422500", "131124.882500", "131125.342500", "131125.802500", "131126.262500", "131126.722500", "131127.182500", "131127.642500", "131128.102500", "131128.562500", "131129.022500", "131129.482500", "131129.942500", "131130.402500", "131130.862500", "131131.322500", "131131.782500", "131132.242500", "131132.702500", "131133.162500", "131133.622500", "131134.082500", "131134.542500", "131135.002500", "131135.462500", "131135.922500", "131136.382500", "131136.842500", "131137.302500", "131137.762500", "131138.222500", "131138.682500", "131139.142500", "131139.602500", "131140.062500", "131140.522500", "131140.982500", "131141.442500", "131141.902500", "131142.362500", "131142.822500", "131143.282500", "131143.742500", "131144.202500", "131144.662500", "131145.122500", "131145.582500", "131146.042500", "131146.502500", "131146.962500", "131147.422500", "131147.882500", "131148.342500", "131148.802500", "131149.262500", "131149.722500", "131150.182500", "131150.642500", "131151.102500", "131151.562500", "131152.022500", "131152.482500", "131152.942500", "131153.402500", "131153.862500", "131154.322500", "131154.782500", "131155.242500", "131155.702500", "131156.162500", "131156.622500", "131157.082500", "131157.542500", "131158.002500", "131158.462500", "131158.922500", "131159.382500", "131159.842500", "131200.302500", "131200.762500", "131201.222500", "131201.682500", "131202.142500", "131202.602500", "131203.062500", "131203.522500", "131203.982500", "131204.442500", "131204.902500", "131205.362500", "131205.822500", "131206.282500", "131206.742500", "131207.202500", "131207.662500", "131208.122500", "131208.582500", "131209.042500", "131209.502500", "131209.962500", "131210.422500", "131210.882500", "131211.342500", "131211.802500", "131212.262500", "131212.722500", "131213.182500", "131213.642500", "131214.102500", "131214.562500", "131215.022500", "131215.482500", "131215.942500", "131216.402500", "131216.862500", "131217.322500", "131217.782500", "131218.242500", "131218.702500", "131219.162500", "131219.622500", "131220.082500", "131220.542500", "131221.002500", "131221.462500", "131221.922500", "131222.382500", "131222.842500", "131223.302500", "131223.762500", "131224.222500", "131224.682500", "131225.142500", "131225.602500", "131226.062500", "131226.522500", "131226.982500", "131227.442500", "131227.902500", "131228.362500", "131228.822500", "131229.282500", "131229.742500", "131230.202500", "131230.662500", "131231.122500", "131231.582500", "131232.042500", "131232.502500", "131232.962500", "131233.422500", "131233.882500", "131234.342500", "131234.802500", "131235.262500", "131235.722500", "131236.182500", "131236.642500", "131237.102500", "131237.562500", "131238.022500", "131238.482500", "131238.942500", "131239.402500", "131239.862500", "131240.322500", "131240.782500", "131241.242500", "131241.702500", "131242.162500", "131242.622500", "131243.082500", "131243.542500", "131244.002500", "131244.462500", "131244.922500", "131245.382500", "131245.842500", "131246.302500", "131246.762500", "131247.222500", "131247.682500", "131248.142500", "131248.602500", "131249.062500", "131249.522500", "131249.982500", "131250.442500", "131250.902500", "131251.362500", "131251.822500", "131252.282500", "131252.742500", "131253.202500", "131253.662500", "131254.122500", "131254.582500", "131255.042500", "131255.502500", "131255.962500", "131256.422500", "131256.882500", "131257.342500", "131257.802500", "131258.262500", "131258.722500", "131259.182500", "131259.642500", "131300.102500", "131300.562500", "131301.022500", "131301.482500", "131301.942500", "131302.402500", "131302.862500", "131303.322500", "131303.782500", "131304.242500", "131304.702500", "131305.162500", "131305.622500", "131306.082500", "131306.542500", "131307.002500", "131307.462500", "131307.922500", "131308.382500", "131308.842500", "131309.302500", "131309.762500", "131310.222500", "131310.682500", "131311.142500", "131311.602500", "131312.062500", "131312.522500", "131312.982500", "131313.442500", "131313.902500", "131314.362500", "131314.822500", "131315.282500", "131315.742500", "131316.202500", "131316.662500", "131317.122500", "131317.582500", "131318.042500", "131318.502500", "131318.962500", "131319.422500", "131319.882500", "131320.342500", "131320.802500", "131321.262500", "131321.722500", "131322.182500", "131322.642500", "131323.102500", "131323.562500", "131324.022500", "131324.482500", "131324.942500", "131325.402500", "131325.862500", "131326.322500", "131326.782500", "131327.242500", "131327.702500", "131328.162500", "131328.622500", "131329.082500", "131329.542500", "131330.002500", "131330.462500", "131330.922500", "131331.382500", "131331.842500", "131332.302500", "131332.762500", "131333.222500", "131333.682500", "131334.142500", "131334.602500", "131335.062500", "131335.522500", "131335.982500", "131336.442500", "131336.902500", "131337.362500", "131337.822500", "131338.282500", "131338.742500", "131339.202500", "131339.662500", "131340.122500", "131340.582500", "131341.042500", "131341.502500", "131341.962500"],
