{
  "AcquisitionMatrixPE": 82,
  "AcquisitionNumber": 1,
  "AcquisitionTime": "18:02:51.900000",
  "BandwidthPerPixelPhaseEncode": 24.888,
  "BaseResolution": 82,
  "BodyPartExamined": "BRAIN",
  "ConsistencyInfo": "N4_VE11E_LATEST_20181129",
  "ConversionSoftware": "dcm2niix",
  "ConversionSoftwareVersion": "v1.0.20201102",
  "DerivedVendorReportedEchoSpacing": 0.00049,
  "DeviceSerialNumber": "66112",
  "DwellTime": 2e-06,
  "EchoTime": 0.0272,
  "EchoTrainLength": 82,
  "EffectiveEchoSpacing": 0.00049,
  "FlipAngle": 44,
  "ImageComments": "Unaliased MB8/PE3",
  "ImageOrientationPatientDICOM": [0.997685, -0.0466459, 0.0494923, 0.0404199, 0.99194, 0.12009],
  "ImageType": [
    "ORIGINAL",
    "PRIMARY",
    "M",
    "MB",
    "ND",
    "NORM",
    "MOSAIC"
],
  "ImagingFrequency": 123.259,
  "InPlanePhaseEncodingDirectionDICOM": "COL",
  "InstitutionAddress": "Maynard 3,Hanover,NH,US,03755",
  "InstitutionName": "Dartmouth College - PBS",
  "InstitutionalDepartmentName": "Department",
  "MRAcquisitionType": "2D",
  "MagneticFieldStrength": 3,
  "Manufacturer": "Siemens",
  "ManufacturersModelName": "Prisma",
  "Modality": "MR",
  "MultibandAccelerationFactor": 8,
  "PartialFourier": 1,
  "PatientPosition": "HFS",
  "PercentPhaseFOV": 100,
  "PercentSampling": 100,
  "PhaseEncodingDirection": "j-",
  "PhaseEncodingSteps": 82,
  "PhaseResolution": 1,
  "PixelBandwidth": 3050,
  "ProcedureStepDescription": "Wager_Wager^1076_spacetop",
  "ProtocolName": "func_run-02_task-social_acq-ap-mb8",
  "PulseSequenceDetails": "%CustomerSeq%\\cmrr_mbep2d_bold",
  "ReceiveCoilActiveElements": "HEA;HEP",
  "ReceiveCoilName": "Head_32",
  "ReconMatrixPE": 82,
  "RepetitionTime": 0.46,
  "SAR": 0.101586,
  "ScanOptions": "FS",
  "ScanningSequence": "EP",
  "SequenceName": "epfid2d1_82",
  "SequenceVariant": "SK\\SS",
  "SeriesDescription": "func_run-02_task-social_acq-ap-mb8",
  "SeriesNumber": 14,
  "ShimSetting": [4248, -7891, -7232, 471, -150, -385, 237, 106],
  "SliceThickness": 2.7,
  "SliceTiming": [0, 0.2525, 0.0625, 0.315, 0.125, 0.3775, 0.1875, 0, 0.2525, 0.0625, 0.315, 0.125, 0.3775, 0.1875, 0, 0.2525, 0.0625, 0.315, 0.125, 0.3775, 0.1875, 0, 0.2525, 0.0625, 0.315, 0.125, 0.3775, 0.1875, 0, 0.2525, 0.0625, 0.315, 0.125, 0.3775, 0.1875, 0, 0.2525, 0.0625, 0.315, 0.125, 0.3775, 0.1875, 0, 0.2525, 0.0625, 0.315, 0.125, 0.3775, 0.1875, 0, 0.2525, 0.0625, 0.315, 0.125, 0.3775, 0.1875],
  "SoftwareVersions": "syngo MR E11",
  "SpacingBetweenSlices": 2.7,
  "StationName": "AWP66112",
  "TaskName": "social",
  "TotalReadoutTime": 0.03969,
  "TxRefAmp": 247.476,
  "WipMemBlock": "b1612c11-93b6-42d0-b0c1-b5bf3e1c5c1d||Sequence: R016 ve11e/master r/434b28f1; Aug  7 2019 18:53:46 by eja",
  "dcmmeta_affine": [
    [-2.6767148971557617, 0.1084437146782875, 0.1476767659187317, 106.60015106201172],
    [0.12514741718769073, 2.661302089691162, 0.3180912137031555, -108.91529846191406],
    [0.13278426229953766, -0.3221929371356964, 2.6771271228790283, -60.963809967041016],
    [0.0, 0.0, 0.0, 1.0]
],
  "dcmmeta_reorient_transform": [
    [0.0, -1.0, 0.0, 81.0],
    [1.0, 0.0, 0.0, 0.0],
    [0.0, 0.0, 1.0, 0.0],
    [0.0, 0.0, 0.0, 1.0]
],
  "dcmmeta_shape": [82, 82, 56, 872],
  "dcmmeta_slice_dim": 2,
  "dcmmeta_version": 0.6,
  "global": {
    "const": {
      "AccessionNumber": "A004538",
      "AcquisitionMatrix": [82, 0, 0, 82],
      "AngioFlag": "N",
      "BitsAllocated": 16,
      "BitsStored": 16,
      "BodyPartExamined": "BRAIN",
      "Columns": 656,
      "EchoNumbers": 1,
      "EchoTime": 27.2,
      "EchoTrainLength": 82,
      "FlipAngle": 44.0,
      "HighBit": 15,
      "ImageOrientationPatient": [0.99768465731959, -0.0466458522292, 0.0494923127254, 0.0404199278966, 0.99193981679207, 0.12009008823106],
      "ImagePositionPatient": [-914.72464450382, -834.52653816192, -217.63988792066],
      "ImageType": [
        "ORIGINAL",
        "PRIMARY",
        "M",
        "MB",
        "ND",
        "NORM",
        "MOSAIC"
],
      "ImagedNucleus": "1H",
      "ImagingFrequency": 123.259091,
      "InPlanePhaseEncodingDirection": "COL",
      "MRAcquisitionType": "2D",
      "MagneticFieldStrength": 3.0,
      "Manufacturer": "SIEMENS",
      "ManufacturerModelName": "Prisma",
      "Modality": "MR",
      "NumberOfAverages": 1.0,
      "NumberOfPhaseEncodingSteps": 82,
      "PercentPhaseFieldOfView": 100.0,
      "PercentSampling": 100.0,
      "PerformedProcedureStepStartTime": "172645.183000",
      "PhotometricInterpretation": "MONOCHROME2",
      "PixelBandwidth": 3050.0,
      "PixelRepresentation": 0,
      "PixelSpacing": [2.6829268932343, 2.6829268932343],
      "ProtocolName": "func_run-02_task-social_acq-ap-mb8",
      "RepetitionTime": 460.0,
      "Rows": 656,
      "SAR": 0.10158643005974,
      "SamplesPerPixel": 1,
      "ScanOptions": "FS",
      "ScanningSequence": "EP",
      "SequenceName": "epfid2d1_82",
      "SequenceVariant": [
        "SK",
        "SS"
],
      "SeriesDescription": "func_run-02_task-social_acq-ap-mb8",
      "SeriesNumber": 14,
      "SeriesTime": "180302.932000",
      "SliceLocation": -67.448332583418,
      "SliceThickness": 2.7000000476837,
      "SmallestImagePixelValue": 0,
      "SoftwareVersions": "syngo MR E11",
      "SpacingBetweenSlices": 2.6999999710094,
      "SpecificCharacterSet": "ISO_IR 100",
      "StudyID": "1",
      "StudyTime": "172645.042000",
      "TransmitCoilName": "Body",
      "VariableFlipAngleFlag": "N",
      "WindowCenterWidthExplanation": "Algo1"
    },
    "slices": {}
  },
  "time": {
    "samples": {
      "AcquisitionNumber": [1, 2, 3, 4, 5, 6, 7, 8, 9, 10, 11, 12, 13, 14, 15, 16, 17, 18, 19, 20, 21, 22, 23, 24, 25, 26, 27, 28, 29, 30, 31, 32, 33, 34, 35, 36, 37, 38, 39, 40, 41, 42, 43, 44, 45, 46, 47, 48, 49, 50, 51, 52, 53, 54, 55, 56, 57, 58, 59, 60, 61, 62, 63, 64, 65, 66, 67, 68, 69, 70, 71, 72, 73, 74, 75, 76, 77, 78, 79, 80, 81, 82, 83, 84, 85, 86, 87, 88, 89, 90, 91, 92, 93, 94, 95, 96, 97, 98, 99, 100, 101, 102, 103, 104, 105, 106, 107, 108, 109, 110, 111, 112, 113, 114, 115, 116, 117, 118, 119, 120, 121, 122, 123, 124, 125, 126, 127, 128, 129, 130, 131, 132, 133, 134, 135, 136, 137, 138, 139, 140, 141, 142, 143, 144, 145, 146, 147, 148, 149, 150, 151, 152, 153, 154, 155, 156, 157, 158, 159, 160, 161, 162, 163, 164, 165, 166, 167, 168, 169, 170, 171, 172, 173, 174, 175, 176, 177, 178, 179, 180, 181, 182, 183, 184, 185, 186, 187, 188, 189, 190, 191, 192, 193, 194, 195, 196, 197, 198, 199, 200, 201, 202, 203, 204, 205, 206, 207, 208, 209, 210, 211, 212, 213, 214, 215, 216, 217, 218, 219, 220, 221, 222, 223, 224, 225, 226, 227, 228, 229, 230, 231, 232, 233, 234, 235, 236, 237, 238, 239, 240, 241, 242, 243, 244, 245, 246, 247, 248, 249, 250, 251, 252, 253, 254, 255, 256, 257, 258, 259, 260, 261, 262, 263, 264, 265, 266, 267, 268, 269, 270, 271, 272, 273, 274, 275, 276, 277, 278, 279, 280, 281, 282, 283, 284, 285, 286, 287, 288, 289, 290, 291, 292, 293, 294, 295, 296, 297, 298, 299, 300, 301, 302, 303, 304, 305, 306, 307, 308, 309, 310, 311, 312, 313, 314, 315, 316, 317, 318, 319, 320, 321, 322, 323, 324, 325, 326, 327, 328, 329, 330, 331, 332, 333, 334, 335, 336, 337, 338, 339, 340, 341, 342, 343, 344, 345, 346, 347, 348, 349, 350, 351, 352, 353, 354, 355, 356, 357, 358, 359, 360, 361, 362, 363, 364, 365, 366, 367, 368, 369, 370, 371, 372, 373, 374, 375, 376, 377, 378, 379, 380, 381, 382, 383, 384, 385, 386, 387, 388, 389, 390, 391, 392, 393, 394, 395, 396, 397, 398, 399, 400, 401, 402, 403, 404, 405, 406, 407, 408, 409, 410, 411, 412, 413, 414, 415, 416, 417, 418, 419, 420, 421, 422, 423, 424, 425, 426, 427, 428, 429, 430, 431, 432, 433, 434, 435, 436, 437, 438, 439, 440, 441, 442, 443, 444, 445, 446, 447, 448, 449, 450, 451, 452, 453, 454, 455, 456, 457, 458, 459, 460, 461, 462, 463, 464, 465, 466, 467, 468, 469, 470, 471, 472, 473, 474, 475, 476, 477, 478, 479, 480, 481, 482, 483, 484, 485, 486, 487, 488, 489, 490, 491, 492, 493, 494, 495, 496, 497, 498, 499, 500, 501, 502, 503, 504, 505, 506, 507, 508, 509, 510, 511, 512, 513, 514, 515, 516, 517, 518, 519, 520, 521, 522, 523, 524, 525, 526, 527, 528, 529, 530, 531, 532, 533, 534, 535, 536, 537, 538, 539, 540, 541, 542, 543, 544, 545, 546, 547, 548, 549, 550, 551, 552, 553, 554, 555, 556, 557, 558, 559, 560, 561, 562, 563, 564, 565, 566, 567, 568, 569, 570, 571, 572, 573, 574, 575, 576, 577, 578, 579, 580, 581, 582, 583, 584, 585, 586, 587, 588, 589, 590, 591, 592, 593, 594, 595, 596, 597, 598, 599, 600, 601, 602, 603, 604, 605, 606, 607, 608, 609, 610, 611, 612, 613, 614, 615, 616, 617, 618, 619, 620, 621, 622, 623, 624, 625, 626, 627, 628, 629, 630, 631, 632, 633, 634, 635, 636, 637, 638, 639, 640, 641, 642, 643, 644, 645, 646, 647, 648, 649, 650, 651, 652, 653, 654, 655, 656, 657, 658, 659, 660, 661, 662, 663, 664, 665, 666, 667, 668, 669, 670, 671, 672, 673, 674, 675, 676, 677, 678, 679, 680, 681, 682, 683, 684, 685, 686, 687, 688, 689, 690, 691, 692, 693, 694, 695, 696, 697, 698, 699, 700, 701, 702, 703, 704, 705, 706, 707, 708, 709, 710, 711, 712, 713, 714, 715, 716, 717, 718, 719, 720, 721, 722, 723, 724, 725, 726, 727, 728, 729, 730, 731, 732, 733, 734, 735, 736, 737, 738, 739, 740, 741, 742, 743, 744, 745, 746, 747, 748, 749, 750, 751, 752, 753, 754, 755, 756, 757, 758, 759, 760, 761, 762, 763, 764, 765, 766, 767, 768, 769, 770, 771, 772, 773, 774, 775, 776, 777, 778, 779, 780, 781, 782, 783, 784, 785, 786, 787, 788, 789, 790, 791, 792, 793, 794, 795, 796, 797, 798, 799, 800, 801, 802, 803, 804, 805, 806, 807, 808, 809, 810, 811, 812, 813, 814, 815, 816, 817, 818, 819, 820, 821, 822, 823, 824, 825, 826, 827, 828, 829, 830, 831, 832, 833, 834, 835, 836, 837, 838, 839, 840, 841, 842, 843, 844, 845, 846, 847, 848, 849, 850, 851, 852, 853, 854, 855, 856, 857, 858, 859, 860, 861, 862, 863, 864, 865, 866, 867, 868, 869, 870, 871, 872],
      "AcquisitionTime": ["180251.900000", "180252.360000", "180252.820000", "180253.280000", "180253.740000", "180254.200000", "180254.660000", "180255.120000", "180255.580000", "180256.040000", "180256.500000", "180256.960000", "180257.420000", "180257.880000", "180258.340000", "180258.800000", "180259.260000", "180259.720000", "180300.180000", "180300.640000", "180301.100000", "180301.560000", "180302.020000", "180302.480000", "180302.940000", "180303.400000", "180303.860000", "180304.320000", "180304.780000", "180305.240000", "180305.700000", "180306.160000", "180306.620000", "180307.080000", "180307.540000", "180308.000000", "180308.460000", "180308.920000", "180309.380000", "180309.840000", "180310.300000", "180310.760000", "180311.220000", "180311.680000", "180312.140000", "180312.600000", "180313.060000", "180313.520000", "180313.980000", "180314.440000", "180314.900000", "180315.360000", "180315.820000", "180316.280000", "180316.740000", "180317.200000", "180317.660000", "180318.120000", "180318.580000", "180319.040000", "180319.500000", "180319.960000", "180320.420000", "180320.880000", "180321.340000", "180321.800000", "180322.260000", "180322.720000", "180323.180000", "180323.640000", "180324.100000", "180324.560000", "180325.020000", "180325.480000", "180325.940000", "180326.400000", "180326.860000", "180327.320000", "180327.780000", "180328.240000", "180328.700000", "180329.160000", "180329.620000", "180330.080000", "180330.540000", "180331.000000", "180331.460000", "180331.920000", "180332.380000", "180332.840000", "180333.300000", "180333.760000", "180334.220000", "180334.680000", "180335.140000", "180335.600000", "180336.060000", "180336.520000", "180336.980000", "180337.440000", "180337.900000", "180338.360000", "180338.820000", "180339.280000", "180339.740000", "180340.200000", "180340.660000", "180341.120000", "180341.580000", "180342.040000", "180342.500000", "180342.960000", "180343.420000", "180343.880000", "180344.340000", "180344.800000", "180345.260000", "180345.720000", "180346.180000", "180346.640000", "180347.100000", "180347.560000", "180348.020000", "180348.480000", "180348.940000", "180349.400000", "180349.860000", "180350.320000", "180350.780000", "180351.240000", "180351.700000", "180352.160000", "180352.620000", "180353.080000", "180353.540000", "180354.000000", "180354.460000", "180354.920000", "180355.380000", "180355.840000", "180356.300000", "180356.760000", "180357.220000", "180357.680000", "180358.140000", "180358.600000", "180359.060000", "180359.520000", "180359.980000", "180400.440000", "180400.900000", "180401.360000", "180401.820000", "180402.280000", "180402.740000", "180403.200000", "180403.660000", "180404.120000", "180404.580000", "180405.040000", "180405.500000", "180405.960000", "180406.420000", "180406.880000", "180407.340000", "180407.800000", "180408.260000", "180408.720000", "180409.180000", "180409.640000", "180410.100000", "180410.560000", "180411.020000", "180411.480000", "180411.940000", "180412.400000", "180412.860000", "180413.320000", "180413.780000", "180414.240000", "180414.700000", "180415.160000", "180415.620000", "180416.080000", "180416.540000", "180417.000000", "180417.460000", "180417.920000", "180418.380000", "180418.840000", "180419.300000", "180419.760000", "180420.220000", "180420.680000", "180421.140000", "180421.600000", "180422.060000", "180422.520000", "180422.980000", "180423.440000", "180423.900000", "180424.360000", "180424.820000", "180425.280000", "180425.740000", "180426.200000", "180426.660000", "180427.120000", "180427.580000", "180428.040000", "180428.500000", "180428.960000", "180429.420000", "180429.880000", "180430.340000", "180430.800000", "180431.260000", "180431.720000", "180432.180000", "180432.640000", "180433.100000", "180433.560000", "180434.020000", "180434.480000", "180434.940000", "180435.400000", "180435.860000", "180436.320000", "180436.780000", "180437.240000", "180437.700000", "180438.160000", "180438.620000", "180439.080000", "180439.540000", "180440.000000", "180440.460000", "180440.920000", "180441.380000", "180441.840000", "180442.300000", "180442.760000", "180443.220000", "180443.680000", "180444.140000", "180444.600000", "180445.060000", "180445.520000", "180445.980000", "180446.440000", "180446.900000", "180447.360000", "180447.820000", "180448.280000", "180448.740000", "180449.200000", "180449.660000", "180450.120000", "180450.580000", "180451.040000", "180451.500000", "180451.960000", "180452.420000", "180452.880000", "180453.340000", "180453.800000", "180454.260000", "180454.720000", "180455.180000", "180455.640000", "180456.100000", "180456.560000", "180457.020000", "180457.480000", "180457.940000", "180458.400000", "180458.860000", "180459.320000", "180459.780000", "180500.240000", "180500.700000", "180501.160000", "180501.620000", "180502.080000", "180502.540000", "180503.000000", "180503.460000", "180503.920000", "180504.380000", "180504.840000", "180505.300000", "180505.760000", "180506.220000", "180506.680000", "180507.140000", "180507.600000", "180508.060000", "180508.520000", "180508.980000", "180509.440000", "180509.900000", "180510.360000", "180510.820000", "180511.280000", "180511.740000", "180512.200000", "180512.660000", "180513.120000", "180513.580000", "180514.040000", "180514.500000", "180514.960000", "180515.420000", "180515.880000", "180516.340000", "180516.800000", "180517.260000", "180517.720000", "180518.180000", "180518.640000", "180519.100000", "180519.560000", "180520.020000", "180520.480000", "180520.940000", "180521.400000", "180521.860000", "180522.320000", "180522.780000", "180523.240000", "180523.700000", "180524.160000", "180524.620000", "180525.080000", "180525.540000", "180526.000000", "180526.460000", "180526.920000", "180527.380000", "180527.840000", "180528.300000", "180528.760000", "180529.220000", "180529.680000", "180530.140000", "180530.600000", "180531.060000", "180531.520000", "180531.980000", "180532.440000", "180532.900000", "180533.360000", "180533.820000", "180534.280000", "180534.740000", "180535.200000", "180535.660000", "180536.120000", "180536.580000", "180537.040000", "180537.500000", "180537.960000", "180538.420000", "180538.880000", "180539.340000", "180539.800000", "180540.260000", "180540.720000", "180541.180000", "180541.640000", "180542.100000", "180542.560000", "180543.020000", "180543.480000", "180543.940000", "180544.400000", "180544.860000", "180545.320000", "180545.780000", "180546.240000", "180546.700000", "180547.160000", "180547.620000", "180548.080000", "180548.540000", "180549.000000", "180549.460000", "180549.920000", "180550.380000", "180550.840000", "180551.300000", "180551.760000", "180552.220000", "180552.680000", "180553.140000", "180553.600000", "180554.060000", "180554.520000", "180554.980000", "180555.440000", "180555.900000", "180556.360000", "180556.820000", "180557.280000", "180557.740000", "180558.200000", "180558.660000", "180559.120000", "180559.580000", "180600.040000", "180600.500000", "180600.960000", "180601.420000", "180601.880000", "180602.340000", "180602.800000", "180603.260000", "180603.720000", "180604.180000", "180604.640000", "180605.100000", "180605.560000", "180606.020000", "180606.480000", "180606.940000", "180607.400000", "180607.860000", "180608.320000", "180608.780000", "180609.240000", "180609.700000", "180610.160000", "180610.620000", "180611.080000", "180611.540000", "180612.000000", "180612.460000", "180612.920000", "180613.380000", "180613.840000", "180614.300000", "180614.760000", "180615.220000", "180615.680000", "180616.140000", "180616.600000", "180617.060000", "180617.520000", "180617.980000", "180618.440000", "180618.900000", "180619.360000", "180619.820000", "180620.280000", "180620.740000", "180621.200000", "180621.660000", "180622.120000", "180622.580000", "180623.040000", "180623.500000", "180623.960000", "180624.420000", "180624.880000", "180625.340000", "180625.800000", "180626.260000", "180626.720000", "180627.180000", "180627.640000", "180628.100000", "180628.560000", "180629.020000", "180629.480000", "180629.940000", "180630.400000", "180630.860000", "180631.320000", "180631.780000", "180632.240000", "180632.700000", "180633.160000", "180633.620000", "180634.080000", "180634.540000", "180635.000000", "180635.460000", "180635.920000", "180636.380000", "180636.840000", "180637.300000", "180637.760000", "180638.220000", "180638.680000", "180639.140000", "180639.600000", "180640.060000", "180640.520000", "180640.980000", "180641.440000", "180641.900000", "180642.360000", "180642.820000", "180643.280000", "180643.740000", "180644.200000", "180644.660000", "180645.120000", "180645.580000", "180646.040000", "180646.500000", "180646.960000", "180647.420000", "180647.880000", "180648.340000", "180648.800000", "180649.260000", "180649.720000", "180650.180000", "180650.640000", "180651.100000", "180651.560000", "180652.020000", "180652.480000", "180652.940000", "180653.400000", "180653.860000", "180654.320000", "180654.780000", "180655.240000", "180655.700000", "180656.160000", "180656.620000", "180657.080000", "180657.540000", "180658.000000", "180658.460000", "180658.920000", "180659.380000", "180659.840000", "180700.300000", "180700.760000", "180701.220000", "180701.680000", "180702.140000", "180702.600000", "180703.060000", "180703.520000", "180703.980000", "180704.440000", "180704.900000", "180705.360000", "180705.820000", "180706.280000", "180706.740000", "180707.200000", "180707.660000", "180708.120000", "180708.580000", "180709.040000", "180709.500000", "180709.960000", "180710.420000", "180710.880000", "180711.340000", "180711.800000", "180712.260000", "180712.720000", "180713.180000", "180713.640000", "180714.100000", "180714.560000", "180715.020000", "180715.480000", "180715.940000", "180716.400000", "180716.860000", "180717.320000", "180717.780000", "180718.240000", "180718.700000", "180719.160000", "180719.620000", "180720.080000", "180720.540000", "180721.000000", "180721.460000", "180721.920000", "180722.380000", "180722.840000", "180723.300000", "180723.760000", "180724.220000", "180724.680000", "180725.140000", "180725.600000", "180726.060000", "180726.520000", "180726.980000", "180727.440000", "180727.900000", "180728.360000", "180728.820000", "180729.280000", "180729.740000", "180730.200000", "180730.660000", "180731.120000", "180731.580000", "180732.040000", "180732.500000", "180732.960000", "180733.420000", "180733.880000", "180734.340000", "180734.800000", "180735.260000", "180735.720000", "180736.180000", "180736.640000", "180737.100000", "180737.560000", "180738.020000", "180738.480000", "180738.940000", "180739.400000", "180739.860000", "180740.320000", "180740.780000", "180741.240000", "180741.700000", "180742.160000", "180742.620000", "180743.080000", "180743.540000", "180744.000000", "180744.460000", "180744.920000", "180745.380000", "180745.840000", "180746.300000", "180746.760000", "180747.220000", "180747.680000", "180748.140000", "180748.600000", "180749.060000", "180749.520000", "180749.980000", "180750.440000", "180750.900000", "180751.360000", "180751.820000", "180752.280000", "180752.740000", "180753.200000", "180753.660000", "180754.120000", "180754.580000", "180755.040000", "180755.500000", "180755.960000", "180756.420000", "180756.880000", "180757.340000", "180757.800000", "180758.260000", "180758.720000", "180759.180000", "180759.640000", "180800.100000", "180800.560000", "180801.020000", "180801.480000", "180801.940000", "180802.400000", "180802.860000", "180803.320000", "180803.780000", "180804.240000", "180804.700000", "180805.160000", "180805.620000", "180806.080000", "180806.540000", "180807.000000", "180807.460000", "180807.920000", "180808.380000", "180808.840000", "180809.300000", "180809.760000", "180810.220000", "180810.680000", "180811.140000", "180811.600000", "180812.060000", "180812.520000", "180812.980000", "180813.440000", "180813.900000", "180814.360000", "180814.820000", "180815.280000", "180815.740000", "180816.200000", "180816.660000", "180817.120000", "180817.580000", "180818.040000", "180818.500000", "180818.960000", "180819.420000", "180819.880000", "180820.340000", "180820.800000", "180821.260000", "180821.720000", "180822.180000", "180822.640000", "180823.100000", "180823.560000", "180824.020000", "180824.480000", "180824.940000", "180825.400000", "180825.860000", "180826.320000", "180826.780000", "180827.240000", "180827.700000", "180828.160000", "180828.620000", "180829.080000", "180829.540000", "180830.000000", "180830.460000", "180830.920000", "180831.380000", "180831.840000", "180832.300000", "180832.760000", "180833.220000", "180833.680000", "180834.140000", "180834.600000", "180835.060000", "180835.520000", "180835.980000", "180836.440000", "180836.900000", "180837.360000", "180837.820000", "180838.280000", "180838.740000", "180839.200000", "180839.660000", "180840.120000", "180840.580000", "180841.040000", "180841.500000", "180841.960000", "180842.420000", "180842.880000", "180843.340000", "180843.800000", "180844.260000", "180844.720000", "180845.180000", "180845.640000", "180846.100000", "180846.560000", "180847.020000", "180847.480000", "180847.940000", "180848.400000", "180848.860000", "180849.320000", "180849.780000", "180850.240000", "180850.700000", "180851.160000", "180851.620000", "180852.080000", "180852.540000", "180853.000000", "180853.460000", "180853.920000", "180854.380000", "180854.840000", "180855.300000", "180855.760000", "180856.220000", "180856.680000", "180857.140000", "180857.600000", "180858.060000", "180858.520000", "180858.980000", "180859.440000", "180859.900000", "180900.360000", "180900.820000", "180901.280000", "180901.740000", "180902.200000", "180902.660000", "180903.120000", "180903.580000", "180904.040000", "180904.500000", "180904.960000", "180905.420000", "180905.880000", "180906.340000", "180906.800000", "180907.260000", "180907.720000", "180908.180000", "180908.640000", "180909.100000", "180909.560000", "180910.020000", "180910.480000", "180910.940000", "180911.400000", "180911.860000", "180912.320000", "180912.780000", "180913.240000", "180913.700000", "180914.160000", "180914.620000", "180915.080000", "180915.540000", "180916.000000", "180916.460000", "180916.920000", "180917.380000", "180917.840000", "180918.300000", "180918.760000", "180919.220000", "180919.680000", "180920.140000", "180920.600000", "180921.060000", "180921.520000", "180921.980000", "180922.440000", "180922.900000", "180923.360000", "180923.820000", "180924.280000", "180924.740000", "180925.200000", "180925.660000", "180926.120000", "180926.580000", "180927.040000", "180927.500000", "180927.960000", "180928.420000", "180928.880000", "180929.340000", "180929.800000", "180930.260000", "180930.720000", "180931.180000", "180931.640000", "180932.100000", "180932.560000"],
