{
  "AcquisitionMatrixPE": 82,
  "AcquisitionNumber": 1,
  "AcquisitionTime": "18:09:56.077500",
  "BandwidthPerPixelPhaseEncode": 24.888,
  "BaseResolution": 82,
  "BodyPartExamined": "BRAIN",
  "ConsistencyInfo": "N4_VE11E_LATEST_20181129",
  "ConversionSoftware": "dcm2niix",
  "ConversionSoftwareVersion": "v1.0.20201102",
  "DerivedVendorReportedEchoSpacing": 0.00049,
  "DeviceSerialNumber": "66112",
  "DwellTime": 2e-06,
  "EchoTime": 0.0272,
  "EchoTrainLength": 82,
  "EffectiveEchoSpacing": 0.00049,
  "FlipAngle": 44,
  "ImageComments": "Unaliased MB8/PE3",
  "ImageOrientationPatientDICOM": [0.997685, -0.0466459, 0.0494923, 0.0404199, 0.99194, 0.12009],
  "ImageType": [
    "ORIGINAL",
    "PRIMARY",
    "M",
    "MB",
    "ND",
    "NORM",
    "MOSAIC"
],
  "ImagingFrequency": 123.259,
  "InPlanePhaseEncodingDirectionDICOM": "COL",
  "InstitutionAddress": "Maynard 3,Hanover,NH,US,03755",
  "InstitutionName": "Dartmouth College - PBS",
  "InstitutionalDepartmentName": "Department",
  "MRAcquisitionType": "2D",
  "MagneticFieldStrength": 3,
  "Manufacturer": "Siemens",
  "ManufacturersModelName": "Prisma",
  "Modality": "MR",
  "MultibandAccelerationFactor": 8,
  "PartialFourier": 1,
  "PatientPosition": "HFS",
  "PercentPhaseFOV": 100,
  "PercentSampling": 100,
  "PhaseEncodingDirection": "j-",
  "PhaseEncodingSteps": 82,
  "PhaseResolution": 1,
  "PixelBandwidth": 3050,
  "ProcedureStepDescription": "Wager_Wager^1076_spacetop",
  "ProtocolName": "func_run-03_task-social_acq-ap-mb8",
  "PulseSequenceDetails": "%CustomerSeq%\\cmrr_mbep2d_bold",
  "ReceiveCoilActiveElements": "HEA;HEP",
  "ReceiveCoilName": "Head_32",
  "ReconMatrixPE": 82,
  "RepetitionTime": 0.46,
  "SAR": 0.101586,
  "ScanOptions": "FS",
  "ScanningSequence": "EP",
  "SequenceName": "epfid2d1_82",
  "SequenceVariant": "SK\\SS",
  "SeriesDescription": "func_run-03_task-social_acq-ap-mb8",
  "SeriesNumber": 16,
  "ShimSetting": [4248, -7891, -7232, 471, -150, -385, 237, 106],
  "SliceThickness": 2.7,
  "SliceTiming": [0, 0.2525, 0.0625, 0.315, 0.1275, 0.3775, 0.19, 0, 0.2525, 0.0625, 0.315, 0.1275, 0.3775, 0.19, 0, 0.2525, 0.0625, 0.315, 0.1275, 0.3775, 0.19, 0, 0.2525, 0.0625, 0.315, 0.1275, 0.3775, 0.19, 0, 0.2525, 0.0625, 0.315, 0.1275, 0.3775, 0.19, 0, 0.2525, 0.0625, 0.315, 0.1275, 0.3775, 0.19, 0, 0.2525, 0.0625, 0.315, 0.1275, 0.3775, 0.19, 0, 0.2525, 0.0625, 0.315, 0.1275, 0.3775, 0.19],
  "SoftwareVersions": "syngo MR E11",
  "SpacingBetweenSlices": 2.7,
  "StationName": "AWP66112",
  "TaskName": "social",
  "TotalReadoutTime": 0.03969,
  "TxRefAmp": 247.476,
  "WipMemBlock": "0b3d1a5f-17f8-45fa-8cad-f7818f779aa1||Sequence: R016 ve11e/master r/434b28f1; Aug  7 2019 18:53:46 by eja",
  "dcmmeta_affine": [
    [-2.6767148971557617, 0.1084437146782875, 0.1476767659187317, 106.60015106201172],
    [0.12514741718769073, 2.661302089691162, 0.3180912137031555, -108.91529846191406],
    [0.13278426229953766, -0.3221929371356964, 2.6771271228790283, -60.963809967041016],
    [0.0, 0.0, 0.0, 1.0]
],
  "dcmmeta_reorient_transform": [
    [0.0, -1.0, 0.0, 81.0],
    [1.0, 0.0, 0.0, 0.0],
    [0.0, 0.0, 1.0, 0.0],
    [0.0, 0.0, 0.0, 1.0]
],
  "dcmmeta_shape": [82, 82, 56, 872],
  "dcmmeta_slice_dim": 2,
  "dcmmeta_version": 0.6,
  "global": {
    "const": {
      "AccessionNumber": "A004538",
      "AcquisitionMatrix": [82, 0, 0, 82],
      "AngioFlag": "N",
      "BitsAllocated": 16,
      "BitsStored": 16,
      "BodyPartExamined": "BRAIN",
      "Columns": 656,
      "EchoNumbers": 1,
      "EchoTime": 27.2,
      "EchoTrainLength": 82,
      "FlipAngle": 44.0,
      "HighBit": 15,
      "ImageOrientationPatient": [0.99768465731959, -0.0466458522292, 0.0494923127254, 0.0404199278966, 0.99193981679207, 0.12009008823106],
      "ImagePositionPatient": [-914.72464450382, -834.52653816192, -217.63988792066],
      "ImageType": [
        "ORIGINAL",
        "PRIMARY",
        "M",
        "MB",
        "ND",
        "NORM",
        "MOSAIC"
],
      "ImagedNucleus": "1H",
      "ImagingFrequency": 123.259093,
      "InPlanePhaseEncodingDirection": "COL",
      "MRAcquisitionType": "2D",
      "MagneticFieldStrength": 3.0,
      "Manufacturer": "SIEMENS",
      "ManufacturerModelName": "Prisma",
      "Modality": "MR",
      "NumberOfAverages": 1.0,
      "NumberOfPhaseEncodingSteps": 82,
      "PercentPhaseFieldOfView": 100.0,
      "PercentSampling": 100.0,
      "PerformedProcedureStepStartTime": "172645.183000",
      "PhotometricInterpretation": "MONOCHROME2",
      "PixelBandwidth": 3050.0,
      "PixelRepresentation": 0,
      "PixelSpacing": [2.6829268932343, 2.6829268932343],
      "ProtocolName": "func_run-03_task-social_acq-ap-mb8",
      "RepetitionTime": 460.0,
      "Rows": 656,
      "SAR": 0.10158643005974,
      "SamplesPerPixel": 1,
      "ScanOptions": "FS",
      "ScanningSequence": "EP",
      "SequenceName": "epfid2d1_82",
      "SequenceVariant": [
        "SK",
        "SS"
],
      "SeriesDescription": "func_run-03_task-social_acq-ap-mb8",
      "SeriesNumber": 16,
      "SeriesTime": "181022.755000",
      "SliceLocation": -67.448332583418,
      "SliceThickness": 2.7000000476837,
      "SmallestImagePixelValue": 0,
      "SoftwareVersions": "syngo MR E11",
      "SpacingBetweenSlices": 2.6999999710094,
      "SpecificCharacterSet": "ISO_IR 100",
      "StudyID": "1",
      "StudyTime": "172645.042000",
      "TransmitCoilName": "Body",
      "VariableFlipAngleFlag": "N",
      "WindowCenterWidthExplanation": "Algo1"
    },
    "slices": {}
  },
  "time": {
    "samples": {
      "AcquisitionNumber": [1, 2, 3, 4, 5, 6, 7, 8, 9, 10, 11, 12, 13, 14, 15, 16, 17, 18, 19, 20, 21, 22, 23, 24, 25, 26, 27, 28, 29, 30, 31, 32, 33, 34, 35, 36, 37, 38, 39, 40, 41, 42, 43, 44, 45, 46, 47, 48, 49, 50, 51, 52, 53, 54, 55, 56, 57, 58, 59, 60, 61, 62, 63, 64, 65, 66, 67, 68, 69, 70, 71, 72, 73, 74, 75, 76, 77, 78, 79, 80, 81, 82, 83, 84, 85, 86, 87, 88, 89, 90, 91, 92, 93, 94, 95, 96, 97, 98, 99, 100, 101, 102, 103, 104, 105, 106, 107, 108, 109, 110, 111, 112, 113, 114, 115, 116, 117, 118, 119, 120, 121, 122, 123, 124, 125, 126, 127, 128, 129, 130, 131, 132, 133, 134, 135, 136, 137, 138, 139, 140, 141, 142, 143, 144, 145, 146, 147, 148, 149, 150, 151, 152, 153, 154, 155, 156, 157, 158, 159, 160, 161, 162, 163, 164, 165, 166, 167, 168, 169, 170, 171, 172, 173, 174, 175, 176, 177, 178, 179, 180, 181, 182, 183, 184, 185, 186, 187, 188, 189, 190, 191, 192, 193, 194, 195, 196, 197, 198, 199, 200, 201, 202, 203, 204, 205, 206, 207, 208, 209, 210, 211, 212, 213, 214, 215, 216, 217, 218, 219, 220, 221, 222, 223, 224, 225, 226, 227, 228, 229, 230, 231, 232, 233, 234, 235, 236, 237, 238, 239, 240, 241, 242, 243, 244, 245, 246, 247, 248, 249, 250, 251, 252, 253, 254, 255, 256, 257, 258, 259, 260, 261, 262, 263, 264, 265, 266, 267, 268, 269, 270, 271, 272, 273, 274, 275, 276, 277, 278, 279, 280, 281, 282, 283, 284, 285, 286, 287, 288, 289, 290, 291, 292, 293, 294, 295, 296, 297, 298, 299, 300, 301, 302, 303, 304, 305, 306, 307, 308, 309, 310, 311, 312, 313, 314, 315, 316, 317, 318, 319, 320, 321, 322, 323, 324, 325, 326, 327, 328, 329, 330, 331, 332, 333, 334, 335, 336, 337, 338, 339, 340, 341, 342, 343, 344, 345, 346, 347, 348, 349, 350, 351, 352, 353, 354, 355, 356, 357, 358, 359, 360, 361, 362, 363, 364, 365, 366, 367, 368, 369, 370, 371, 372, 373, 374, 375, 376, 377, 378, 379, 380, 381, 382, 383, 384, 385, 386, 387, 388, 389, 390, 391, 392, 393, 394, 395, 396, 397, 398, 399, 400, 401, 402, 403, 404, 405, 406, 407, 408, 409, 410, 411, 412, 413, 414, 415, 416, 417, 418, 419, 420, 421, 422, 423, 424, 425, 426, 427, 428, 429, 430, 431, 432, 433, 434, 435, 436, 437, 438, 439, 440, 441, 442, 443, 444, 445, 446, 447, 448, 449, 450, 451, 452, 453, 454, 455, 456, 457, 458, 459, 460, 461, 462, 463, 464, 465, 466, 467, 468, 469, 470, 471, 472, 473, 474, 475, 476, 477, 478, 479, 480, 481, 482, 483, 484, 485, 486, 487, 488, 489, 490, 491, 492, 493, 494, 495, 496, 497, 498, 499, 500, 501, 502, 503, 504, 505, 506, 507, 508, 509, 510, 511, 512, 513, 514, 515, 516, 517, 518, 519, 520, 521, 522, 523, 524, 525, 526, 527, 528, 529, 530, 531, 532, 533, 534, 535, 536, 537, 538, 539, 540, 541, 542, 543, 544, 545, 546, 547, 548, 549, 550, 551, 552, 553, 554, 555, 556, 557, 558, 559, 560, 561, 562, 563, 564, 565, 566, 567, 568, 569, 570, 571, 572, 573, 574, 575, 576, 577, 578, 579, 580, 581, 582, 583, 584, 585, 586, 587, 588, 589, 590, 591, 592, 593, 594, 595, 596, 597, 598, 599, 600, 601, 602, 603, 604, 605, 606, 607, 608, 609, 610, 611, 612, 613, 614, 615, 616, 617, 618, 619, 620, 621, 622, 623, 624, 625, 626, 627, 628, 629, 630, 631, 632, 633, 634, 635, 636, 637, 638, 639, 640, 641, 642, 643, 644, 645, 646, 647, 648, 649, 650, 651, 652, 653, 654, 655, 656, 657, 658, 659, 660, 661, 662, 663, 664, 665, 666, 667, 668, 669, 670, 671, 672, 673, 674, 675, 676, 677, 678, 679, 680, 681, 682, 683, 684, 685, 686, 687, 688, 689, 690, 691, 692, 693, 694, 695, 696, 697, 698, 699, 700, 701, 702, 703, 704, 705, 706, 707, 708, 709, 710, 711, 712, 713, 714, 715, 716, 717, 718, 719, 720, 721, 722, 723, 724, 725, 726, 727, 728, 729, 730, 731, 732, 733, 734, 735, 736, 737, 738, 739, 740, 741, 742, 743, 744, 745, 746, 747, 748, 749, 750, 751, 752, 753, 754, 755, 756, 757, 758, 759, 760, 761, 762, 763, 764, 765, 766, 767, 768, 769, 770, 771, 772, 773, 774, 775, 776, 777, 778, 779, 780, 781, 782, 783, 784, 785, 786, 787, 788, 789, 790, 791, 792, 793, 794, 795, 796, 797, 798, 799, 800, 801, 802, 803, 804, 805, 806, 807, 808, 809, 810, 811, 812, 813, 814, 815, 816, 817, 818, 819, 820, 821, 822, 823, 824, 825, 826, 827, 828, 829, 830, 831, 832, 833, 834, 835, 836, 837, 838, 839, 840, 841, 842, 843, 844, 845, 846, 847, 848, 849, 850, 851, 852, 853, 854, 855, 856, 857, 858, 859, 860, 861, 862, 863, 864, 865, 866, 867, 868, 869, 870, 871, 872],
      "AcquisitionTime": ["180956.077500", "180956.537500", "180956.997500", "180957.457500", "180957.917500", "180958.377500", "180958.837500", "180959.297500", "180959.757500", "181000.217500", "181000.677500", "181001.137500", "181001.597500", "181002.057500", "181002.517500", "181002.977500", "181003.437500", "181003.897500", "181004.357500", "181004.817500", "181005.277500", "181005.737500", "181006.197500", "181006.657500", "181007.117500", "181007.577500", "181008.037500", "181008.497500", "181008.957500", "181009.417500", "181009.877500", "181010.337500", "181010.797500", "181011.257500", "181011.717500", "181012.177500", "181012.637500", "181013.097500", "181013.557500", "181014.017500", "181014.477500", "181014.937500", "181015.397500", "181015.857500", "181016.317500", "181016.777500", "181017.237500", "181017.697500", "181018.157500", "181018.617500", "181019.077500", "181019.537500", "181019.997500", "181020.457500", "181020.917500", "181021.377500", "181021.837500", "181022.297500", "181022.757500", "181023.217500", "181023.677500", "181024.137500", "181024.597500", "181025.057500", "181025.517500", "181025.977500", "181026.437500", "181026.897500", "181027.357500", "181027.817500", "181028.277500", "181028.737500", "181029.197500", "181029.657500", "181030.117500", "181030.577500", "181031.037500", "181031.497500", "181031.957500", "181032.417500", "181032.877500", "181033.337500", "181033.797500", "181034.257500", "181034.717500", "181035.177500", "181035.637500", "181036.097500", "181036.557500", "181037.017500", "181037.477500", "181037.937500", "181038.397500", "181038.857500", "181039.317500", "181039.777500", "181040.237500", "181040.697500", "181041.157500", "181041.617500", "181042.077500", "181042.537500", "181042.997500", "181043.457500", "181043.917500", "181044.377500", "181044.837500", "181045.297500", "181045.757500", "181046.217500", "181046.677500", "181047.137500", "181047.597500", "181048.057500", "181048.517500", "181048.977500", "181049.437500", "181049.897500", "181050.357500", "181050.817500", "181051.277500", "181051.737500", "181052.197500", "181052.657500", "181053.117500", "181053.577500", "181054.037500", "181054.497500", "181054.957500", "181055.417500", "181055.877500", "181056.337500", "181056.797500", "181057.257500", "181057.717500", "181058.177500", "181058.637500", "181059.097500", "181059.557500", "181100.017500", "181100.477500", "181100.937500", "181101.397500", "181101.857500", "181102.317500", "181102.777500", "181103.237500", "181103.697500", "181104.157500", "181104.617500", "181105.077500", "181105.537500", "181105.997500", "181106.457500", "181106.917500", "181107.377500", "181107.837500", "181108.297500", "181108.757500", "181109.217500", "181109.677500", "181110.137500", "181110.597500", "181111.057500", "181111.517500", "181111.977500", "181112.437500", "181112.897500", "181113.357500", "181113.817500", "181114.277500", "181114.737500", "181115.197500", "181115.657500", "181116.117500", "181116.577500", "181117.037500", "181117.497500", "181117.957500", "181118.417500", "181118.877500", "181119.337500", "181119.797500", "181120.257500", "181120.717500", "181121.177500", "181121.637500", "181122.097500", "181122.557500", "181123.017500", "181123.477500", "181123.937500", "181124.397500", "181124.857500", "181125.317500", "181125.777500", "181126.237500", "181126.697500", "181127.157500", "181127.617500", "181128.077500", "181128.537500", "181128.997500", "181129.457500", "181129.917500", "181130.377500", "181130.837500", "181131.297500", "181131.757500", "181132.217500", "181132.677500", "181133.137500", "181133.597500", "181134.057500", "181134.517500", "181134.977500", "181135.437500", "181135.897500", "181136.357500", "181136.817500", "181137.277500", "181137.737500", "181138.197500", "181138.657500", "181139.117500", "181139.577500", "181140.037500", "181140.497500", "181140.957500", "181141.417500", "181141.877500", "181142.337500", "181142.797500", "181143.257500", "181143.717500", "181144.177500", "181144.637500", "181145.097500", "181145.557500", "181146.017500", "181146.477500", "181146.937500", "181147.397500", "181147.857500", "181148.317500", "181148.777500", "181149.237500", "181149.697500", "181150.157500", "181150.617500", "181151.077500", "181151.537500", "181151.997500", "181152.457500", "181152.917500", "181153.377500", "181153.837500", "181154.297500", "181154.757500", "181155.217500", "181155.677500", "181156.137500", "181156.597500", "181157.057500", "181157.517500", "181157.977500", "181158.437500", "181158.897500", "181159.357500", "181159.817500", "181200.277500", "181200.737500", "181201.197500", "181201.657500", "181202.117500", "181202.577500", "181203.037500", "181203.497500", "181203.957500", "181204.417500", "181204.877500", "181205.337500", "181205.797500", "181206.257500", "181206.717500", "181207.177500", "181207.637500", "181208.097500", "181208.557500", "181209.017500", "181209.477500", "181209.937500", "181210.397500", "181210.857500", "181211.317500", "181211.777500", "181212.237500", "181212.697500", "181213.157500", "181213.617500", "181214.077500", "181214.537500", "181214.997500", "181215.457500", "181215.917500", "181216.377500", "181216.837500", "181217.297500", "181217.757500", "181218.217500", "181218.677500", "181219.137500", "181219.597500", "181220.057500", "181220.517500", "181220.977500", "181221.437500", "181221.897500", "181222.357500", "181222.817500", "181223.277500", "181223.737500", "181224.197500", "181224.657500", "181225.117500", "181225.577500", "181226.037500", "181226.497500", "181226.957500", "181227.417500", "181227.877500", "181228.337500", "181228.797500", "181229.257500", "181229.717500", "181230.177500", "181230.637500", "181231.097500", "181231.557500", "181232.017500", "181232.477500", "181232.937500", "181233.397500", "181233.857500", "181234.317500", "181234.777500", "181235.237500", "181235.697500", "181236.157500", "181236.617500", "181237.077500", "181237.537500", "181237.997500", "181238.457500", "181238.917500", "181239.377500", "181239.837500", "181240.297500", "181240.757500", "181241.217500", "181241.677500", "181242.137500", "181242.597500", "181243.057500", "181243.517500", "181243.977500", "181244.437500", "181244.897500", "181245.357500", "181245.817500", "181246.277500", "181246.737500", "181247.197500", "181247.657500", "181248.117500", "181248.577500", "181249.037500", "181249.497500", "181249.957500", "181250.417500", "181250.877500", "181251.337500", "181251.797500", "181252.257500", "181252.717500", "181253.177500", "181253.637500", "181254.097500", "181254.557500", "181255.017500", "181255.477500", "181255.937500", "181256.397500", "181256.857500", "181257.317500", "181257.777500", "181258.237500", "181258.697500", "181259.157500", "181259.617500", "181300.077500", "181300.537500", "181300.997500", "181301.457500", "181301.917500", "181302.377500", "181302.837500", "181303.297500", "181303.757500", "181304.217500", "181304.677500", "181305.137500", "181305.597500", "181306.057500", "181306.517500", "181306.977500", "181307.437500", "181307.897500", "181308.357500", "181308.817500", "181309.277500", "181309.737500", "181310.197500", "181310.657500", "181311.117500", "181311.577500", "181312.037500", "181312.497500", "181312.957500", "181313.417500", "181313.877500", "181314.337500", "181314.797500", "181315.257500", "181315.717500", "181316.177500", "181316.637500", "181317.097500", "181317.557500", "181318.017500", "181318.477500", "181318.937500", "181319.397500", "181319.857500", "181320.317500", "181320.777500", "181321.237500", "181321.697500", "181322.157500", "181322.617500", "181323.077500", "181323.537500", "181323.997500", "181324.457500", "181324.917500", "181325.377500", "181325.837500", "181326.297500", "181326.757500", "181327.217500", "181327.677500", "181328.137500", "181328.597500", "181329.057500", "181329.517500", "181329.977500", "181330.437500", "181330.897500", "181331.357500", "181331.817500", "181332.277500", "181332.737500", "181333.197500", "181333.657500", "181334.117500", "181334.577500", "181335.037500", "181335.497500", "181335.957500", "181336.417500", "181336.877500", "181337.337500", "181337.797500", "181338.257500", "181338.717500", "181339.177500", "181339.637500", "181340.097500", "181340.557500", "181341.017500", "181341.477500", "181341.937500", "181342.397500", "181342.857500", "181343.317500", "181343.777500", "181344.237500", "181344.697500", "181345.157500", "181345.617500", "181346.077500", "181346.537500", "181346.997500", "181347.457500", "181347.917500", "181348.377500", "181348.837500", "181349.297500", "181349.757500", "181350.217500", "181350.677500", "181351.137500", "181351.597500", "181352.057500", "181352.517500", "181352.977500", "181353.437500", "181353.897500", "181354.357500", "181354.817500", "181355.277500", "181355.737500", "181356.197500", "181356.657500", "181357.117500", "181357.577500", "181358.037500", "181358.497500", "181358.957500", "181359.417500", "181359.877500", "181400.337500", "181400.797500", "181401.257500", "181401.717500", "181402.177500", "181402.637500", "181403.097500", "181403.557500", "181404.017500", "181404.477500", "181404.937500", "181405.397500", "181405.857500", "181406.317500", "181406.777500", "181407.237500", "181407.697500", "181408.157500", "181408.617500", "181409.077500", "181409.537500", "181409.997500", "181410.457500", "181410.917500", "181411.377500", "181411.837500", "181412.297500", "181412.757500", "181413.217500", "181413.677500", "181414.137500", "181414.597500", "181415.057500", "181415.517500", "181415.977500", "181416.437500", "181416.897500", "181417.357500", "181417.817500", "181418.277500", "181418.737500", "181419.197500", "181419.657500", "181420.117500", "181420.577500", "181421.037500", "181421.497500", "181421.957500", "181422.417500", "181422.877500", "181423.337500", "181423.797500", "181424.257500", "181424.717500", "181425.177500", "181425.637500", "181426.097500", "181426.557500", "181427.017500", "181427.477500", "181427.937500", "181428.397500", "181428.857500", "181429.317500", "181429.777500", "181430.237500", "181430.697500", "181431.157500", "181431.617500", "181432.077500", "181432.537500", "181432.997500", "181433.457500", "181433.917500", "181434.377500", "181434.837500", "181435.297500", "181435.757500", "181436.217500", "181436.677500", "181437.137500", "181437.597500", "181438.057500", "181438.517500", "181438.977500", "181439.437500", "181439.897500", "181440.357500", "181440.817500", "181441.277500", "181441.737500", "181442.197500", "181442.657500", "181443.117500", "181443.577500", "181444.037500", "181444.497500", "181444.957500", "181445.417500", "181445.877500", "181446.337500", "181446.797500", "181447.257500", "181447.717500", "181448.177500", "181448.637500", "181449.097500", "181449.557500", "181450.017500", "181450.477500", "181450.937500", "181451.397500", "181451.857500", "181452.317500", "181452.777500", "181453.237500", "181453.697500", "181454.157500", "181454.617500", "181455.077500", "181455.537500", "181455.997500", "181456.457500", "181456.917500", "181457.377500", "181457.837500", "181458.297500", "181458.757500", "181459.217500", "181459.677500", "181500.137500", "181500.597500", "181501.057500", "181501.517500", "181501.977500", "181502.437500", "181502.897500", "181503.357500", "181503.817500", "181504.277500", "181504.737500", "181505.197500", "181505.657500", "181506.117500", "181506.577500", "181507.037500", "181507.497500", "181507.957500", "181508.417500", "181508.877500", "181509.337500", "181509.797500", "181510.257500", "181510.717500", "181511.177500", "181511.637500", "181512.097500", "181512.557500", "181513.017500", "181513.477500", "181513.937500", "181514.397500", "181514.857500", "181515.317500", "181515.777500", "181516.237500", "181516.697500", "181517.157500", "181517.617500", "181518.077500", "181518.537500", "181518.997500", "181519.457500", "181519.917500", "181520.377500", "181520.837500", "181521.297500", "181521.757500", "181522.217500", "181522.677500", "181523.137500", "181523.597500", "181524.057500", "181524.517500", "181524.977500", "181525.437500", "181525.897500", "181526.357500", "181526.817500", "181527.277500", "181527.737500", "181528.197500", "181528.657500", "181529.117500", "181529.577500", "181530.037500", "181530.497500", "181530.957500", "181531.417500", "181531.877500", "181532.337500", "181532.797500", "181533.257500", "181533.717500", "181534.177500", "181534.637500", "181535.097500", "181535.557500", "181536.017500", "181536.477500", "181536.937500", "181537.397500", "181537.857500", "181538.317500", "181538.777500", "181539.237500", "181539.697500", "181540.157500", "181540.617500", "181541.077500", "181541.537500", "181541.997500", "181542.457500", "181542.917500", "181543.377500", "181543.837500", "181544.297500", "181544.757500", "181545.217500", "181545.677500", "181546.137500", "181546.597500", "181547.057500", "181547.517500", "181547.977500", "181548.437500", "181548.897500", "181549.357500", "181549.817500", "181550.277500", "181550.737500", "181551.197500", "181551.657500", "181552.117500", "181552.577500", "181553.037500", "181553.497500", "181553.957500", "181554.417500", "181554.877500", "181555.337500", "181555.797500", "181556.257500", "181556.717500", "181557.177500", "181557.637500", "181558.097500", "181558.557500", "181559.017500", "181559.477500", "181559.937500", "181600.397500", "181600.857500", "181601.317500", "181601.777500", "181602.237500", "181602.697500", "181603.157500", "181603.617500", "181604.077500", "181604.537500", "181604.997500", "181605.457500", "181605.917500", "181606.377500", "181606.837500", "181607.297500", "181607.757500", "181608.217500", "181608.677500", "181609.137500", "181609.597500", "181610.057500", "181610.517500", "181610.977500", "181611.437500", "181611.897500", "181612.357500", "181612.817500", "181613.277500", "181613.737500", "181614.197500", "181614.657500", "181615.117500", "181615.577500", "181616.037500", "181616.497500", "181616.957500", "181617.417500", "181617.877500", "181618.337500", "181618.797500", "181619.257500", "181619.717500", "181620.177500", "181620.637500", "181621.097500", "181621.557500", "181622.017500", "181622.477500", "181622.937500", "181623.397500", "181623.857500", "181624.317500", "181624.777500", "181625.237500", "181625.697500", "181626.157500", "181626.617500", "181627.077500", "181627.537500", "181627.997500", "181628.457500", "181628.917500", "181629.377500", "181629.837500", "181630.297500", "181630.757500", "181631.217500", "181631.677500", "181632.137500", "181632.597500", "181633.057500", "181633.517500", "181633.977500", "181634.437500", "181634.897500", "181635.357500", "181635.817500", "181636.277500", "181636.737500"],
