{
  "AcquisitionMatrixPE": 82,
  "AcquisitionNumber": 1,
  "AcquisitionTime": "18:25:50.630000",
  "BandwidthPerPixelPhaseEncode": 24.888,
  "BaseResolution": 82,
  "BodyPartExamined": "BRAIN",
  "ConsistencyInfo": "N4_VE11E_LATEST_20181129",
  "ConversionSoftware": "dcm2niix",
  "ConversionSoftwareVersion": "v1.0.20201102",
  "DerivedVendorReportedEchoSpacing": 0.00049,
  "DeviceSerialNumber": "66112",
  "DwellTime": 2e-06,
  "EchoTime": 0.0272,
  "EchoTrainLength": 82,
  "EffectiveEchoSpacing": 0.00049,
  "FlipAngle": 44,
  "ImageComments": "Unaliased MB8/PE3",
  "ImageOrientationPatientDICOM": [0.997685, -0.0466459, 0.0494923, 0.0404199, 0.99194, 0.12009],
  "ImageType": [
    "ORIGINAL",
    "PRIMARY",
    "M",
    "MB",
    "ND",
    "NORM",
    "MOSAIC"
],
  "ImagingFrequency": 123.259,
  "InPlanePhaseEncodingDirectionDICOM": "COL",
  "InstitutionAddress": "Maynard 3,Hanover,NH,US,03755",
  "InstitutionName": "Dartmouth College - PBS",
  "InstitutionalDepartmentName": "Department",
  "MRAcquisitionType": "2D",
  "MagneticFieldStrength": 3,
  "Manufacturer": "Siemens",
  "ManufacturersModelName": "Prisma",
  "Modality": "MR",
  "MultibandAccelerationFactor": 8,
  "PartialFourier": 1,
  "PatientPosition": "HFS",
  "PercentPhaseFOV": 100,
  "PercentSampling": 100,
  "PhaseEncodingDirection": "j-",
  "PhaseEncodingSteps": 82,
  "PhaseResolution": 1,
  "PixelBandwidth": 3050,
  "ProcedureStepDescription": "Wager_Wager^1076_spacetop",
  "ProtocolName": "func_run-05_task-social_acq-ap-mb8",
  "PulseSequenceDetails": "%CustomerSeq%\\cmrr_mbep2d_bold",
  "ReceiveCoilActiveElements": "HEA;HEP",
  "ReceiveCoilName": "Head_32",
  "ReconMatrixPE": 82,
  "RepetitionTime": 0.46,
  "SAR": 0.101586,
  "ScanOptions": "FS",
  "ScanningSequence": "EP",
  "SequenceName": "epfid2d1_82",
  "SequenceVariant": "SK\\SS",
  "SeriesDescription": "func_run-05_task-social_acq-ap-mb8",
  "SeriesNumber": 20,
  "ShimSetting": [4248, -7891, -7232, 471, -150, -385, 237, 106],
  "SliceThickness": 2.7,
  "SliceTiming": [0, 0.25, 0.0625, 0.315, 0.125, 0.3775, 0.1875, 0, 0.25, 0.0625, 0.315, 0.125, 0.3775, 0.1875, 0, 0.25, 0.0625, 0.315, 0.125, 0.3775, 0.1875, 0, 0.25, 0.0625, 0.315, 0.125, 0.3775, 0.1875, 0, 0.25, 0.0625, 0.315, 0.125, 0.3775, 0.1875, 0, 0.25, 0.0625, 0.315, 0.125, 0.3775, 0.1875, 0, 0.25, 0.0625, 0.315, 0.125, 0.3775, 0.1875, 0, 0.25, 0.0625, 0.315, 0.125, 0.3775, 0.1875],
  "SoftwareVersions": "syngo MR E11",
  "SpacingBetweenSlices": 2.7,
  "StationName": "AWP66112",
  "TaskName": "social",
  "TotalReadoutTime": 0.03969,
  "TxRefAmp": 247.476,
  "WipMemBlock": "8cd23edf-b976-4244-8604-0d1ffea38e9e||Sequence: R016 ve11e/master r/434b28f1; Aug  7 2019 18:53:46 by eja",
  "dcmmeta_affine": [
    [-2.6767148971557617, 0.1084437146782875, 0.1476767659187317, 106.60015106201172],
    [0.12514741718769073, 2.661302089691162, 0.3180912137031555, -108.91529846191406],
    [0.13278426229953766, -0.3221929371356964, 2.6771271228790283, -60.963809967041016],
    [0.0, 0.0, 0.0, 1.0]
],
  "dcmmeta_reorient_transform": [
    [0.0, -1.0, 0.0, 81.0],
    [1.0, 0.0, 0.0, 0.0],
    [0.0, 0.0, 1.0, 0.0],
    [0.0, 0.0, 0.0, 1.0]
],
  "dcmmeta_shape": [82, 82, 56, 872],
  "dcmmeta_slice_dim": 2,
  "dcmmeta_version": 0.6,
  "global": {
    "const": {
      "AccessionNumber": "A004538",
      "AcquisitionMatrix": [82, 0, 0, 82],
      "AngioFlag": "N",
      "BitsAllocated": 16,
      "BitsStored": 16,
      "BodyPartExamined": "BRAIN",
      "Columns": 656,
      "EchoNumbers": 1,
      "EchoTime": 27.2,
      "EchoTrainLength": 82,
      "FlipAngle": 44.0,
      "HighBit": 15,
      "ImageOrientationPatient": [0.99768465731959, -0.0466458522292, 0.0494923127254, 0.0404199278966, 0.99193981679207, 0.12009008823106],
      "ImagePositionPatient": [-914.72464450382, -834.52653816192, -217.63988792066],
      "ImageType": [
        "ORIGINAL",
        "PRIMARY",
        "M",
        "MB",
        "ND",
        "NORM",
        "MOSAIC"
],
      "ImagedNucleus": "1H",
      "ImagingFrequency": 123.259096,
      "InPlanePhaseEncodingDirection": "COL",
      "MRAcquisitionType": "2D",
      "MagneticFieldStrength": 3.0,
      "Manufacturer": "SIEMENS",
      "ManufacturerModelName": "Prisma",
      "Modality": "MR",
      "NumberOfAverages": 1.0,
      "NumberOfPhaseEncodingSteps": 82,
      "PercentPhaseFieldOfView": 100.0,
      "PercentSampling": 100.0,
      "PerformedProcedureStepStartTime": "172645.183000",
      "PhotometricInterpretation": "MONOCHROME2",
      "PixelBandwidth": 3050.0,
      "PixelRepresentation": 0,
      "PixelSpacing": [2.6829268932343, 2.6829268932343],
      "ProtocolName": "func_run-05_task-social_acq-ap-mb8",
      "RepetitionTime": 460.0,
      "Rows": 656,
      "SAR": 0.10158643005974,
      "SamplesPerPixel": 1,
      "ScanOptions": "FS",
      "ScanningSequence": "EP",
      "SequenceName": "epfid2d1_82",
      "SequenceVariant": [
        "SK",
        "SS"
],
      "SeriesDescription": "func_run-05_task-social_acq-ap-mb8",
      "SeriesNumber": 20,
      "SeriesTime": "182602.934000",
      "SliceLocation": -67.448332583418,
      "SliceThickness": 2.7000000476837,
      "SmallestImagePixelValue": 0,
      "SoftwareVersions": "syngo MR E11",
      "SpacingBetweenSlices": 2.6999999710094,
      "SpecificCharacterSet": "ISO_IR 100",
      "StudyID": "1",
      "StudyTime": "172645.042000",
      "TransmitCoilName": "Body",
      "VariableFlipAngleFlag": "N",
      "WindowCenterWidthExplanation": "Algo1"
    },
    "slices": {}
  },
  "time": {
    "samples": {
      "AcquisitionNumber": [1, 2, 3, 4, 5, 6, 7, 8, 9, 10, 11, 12, 13, 14, 15, 16, 17, 18, 19, 20, 21, 22, 23, 24, 25, 26, 27, 28, 29, 30, 31, 32, 33, 34, 35, 36, 37, 38, 39, 40, 41, 42, 43, 44, 45, 46, 47, 48, 49, 50, 51, 52, 53, 54, 55, 56, 57, 58, 59, 60, 61, 62, 63, 64, 65, 66, 67, 68, 69, 70, 71, 72, 73, 74, 75, 76, 77, 78, 79, 80, 81, 82, 83, 84, 85, 86, 87, 88, 89, 90, 91, 92, 93, 94, 95, 96, 97, 98, 99, 100, 101, 102, 103, 104, 105, 106, 107, 108, 109, 110, 111, 112, 113, 114, 115, 116, 117, 118, 119, 120, 121, 122, 123, 124, 125, 126, 127, 128, 129, 130, 131, 132, 133, 134, 135, 136, 137, 138, 139, 140, 141, 142, 143, 144, 145, 146, 147, 148, 149, 150, 151, 152, 153, 154, 155, 156, 157, 158, 159, 160, 161, 162, 163, 164, 165, 166, 167, 168, 169, 170, 171, 172, 173, 174, 175, 176, 177, 178, 179, 180, 181, 182, 183, 184, 185, 186, 187, 188, 189, 190, 191, 192, 193, 194, 195, 196, 197, 198, 199, 200, 201, 202, 203, 204, 205, 206, 207, 208, 209, 210, 211, 212, 213, 214, 215, 216, 217, 218, 219, 220, 221, 222, 223, 224, 225, 226, 227, 228, 229, 230, 231, 232, 233, 234, 235, 236, 237, 238, 239, 240, 241, 242, 243, 244, 245, 246, 247, 248, 249, 250, 251, 252, 253, 254, 255, 256, 257, 258, 259, 260, 261, 262, 263, 264, 265, 266, 267, 268, 269, 270, 271, 272, 273, 274, 275, 276, 277, 278, 279, 280, 281, 282, 283, 284, 285, 286, 287, 288, 289, 290, 291, 292, 293, 294, 295, 296, 297, 298, 299, 300, 301, 302, 303, 304, 305, 306, 307, 308, 309, 310, 311, 312, 313, 314, 315, 316, 317, 318, 319, 320, 321, 322, 323, 324, 325, 326, 327, 328, 329, 330, 331, 332, 333, 334, 335, 336, 337, 338, 339, 340, 341, 342, 343, 344, 345, 346, 347, 348, 349, 350, 351, 352, 353, 354, 355, 356, 357, 358, 359, 360, 361, 362, 363, 364, 365, 366, 367, 368, 369, 370, 371, 372, 373, 374, 375, 376, 377, 378, 379, 380, 381, 382, 383, 384, 385, 386, 387, 388, 389, 390, 391, 392, 393, 394, 395, 396, 397, 398, 399, 400, 401, 402, 403, 404, 405, 406, 407, 408, 409, 410, 411, 412, 413, 414, 415, 416, 417, 418, 419, 420, 421, 422, 423, 424, 425, 426, 427, 428, 429, 430, 431, 432, 433, 434, 435, 436, 437, 438, 439, 440, 441, 442, 443, 444, 445, 446, 447, 448, 449, 450, 451, 452, 453, 454, 455, 456, 457, 458, 459, 460, 461, 462, 463, 464, 465, 466, 467, 468, 469, 470, 471, 472, 473, 474, 475, 476, 477, 478, 479, 480, 481, 482, 483, 484, 485, 486, 487, 488, 489, 490, 491, 492, 493, 494, 495, 496, 497, 498, 499, 500, 501, 502, 503, 504, 505, 506, 507, 508, 509, 510, 511, 512, 513, 514, 515, 516, 517, 518, 519, 520, 521, 522, 523, 524, 525, 526, 527, 528, 529, 530, 531, 532, 533, 534, 535, 536, 537, 538, 539, 540, 541, 542, 543, 544, 545, 546, 547, 548, 549, 550, 551, 552, 553, 554, 555, 556, 557, 558, 559, 560, 561, 562, 563, 564, 565, 566, 567, 568, 569, 570, 571, 572, 573, 574, 575, 576, 577, 578, 579, 580, 581, 582, 583, 584, 585, 586, 587, 588, 589, 590, 591, 592, 593, 594, 595, 596, 597, 598, 599, 600, 601, 602, 603, 604, 605, 606, 607, 608, 609, 610, 611, 612, 613, 614, 615, 616, 617, 618, 619, 620, 621, 622, 623, 624, 625, 626, 627, 628, 629, 630, 631, 632, 633, 634, 635, 636, 637, 638, 639, 640, 641, 642, 643, 644, 645, 646, 647, 648, 649, 650, 651, 652, 653, 654, 655, 656, 657, 658, 659, 660, 661, 662, 663, 664, 665, 666, 667, 668, 669, 670, 671, 672, 673, 674, 675, 676, 677, 678, 679, 680, 681, 682, 683, 684, 685, 686, 687, 688, 689, 690, 691, 692, 693, 694, 695, 696, 697, 698, 699, 700, 701, 702, 703, 704, 705, 706, 707, 708, 709, 710, 711, 712, 713, 714, 715, 716, 717, 718, 719, 720, 721, 722, 723, 724, 725, 726, 727, 728, 729, 730, 731, 732, 733, 734, 735, 736, 737, 738, 739, 740, 741, 742, 743, 744, 745, 746, 747, 748, 749, 750, 751, 752, 753, 754, 755, 756, 757, 758, 759, 760, 761, 762, 763, 764, 765, 766, 767, 768, 769, 770, 771, 772, 773, 774, 775, 776, 777, 778, 779, 780, 781, 782, 783, 784, 785, 786, 787, 788, 789, 790, 791, 792, 793, 794, 795, 796, 797, 798, 799, 800, 801, 802, 803, 804, 805, 806, 807, 808, 809, 810, 811, 812, 813, 814, 815, 816, 817, 818, 819, 820, 821, 822, 823, 824, 825, 826, 827, 828, 829, 830, 831, 832, 833, 834, 835, 836, 837, 838, 839, 840, 841, 842, 843, 844, 845, 846, 847, 848, 849, 850, 851, 852, 853, 854, 855, 856, 857, 858, 859, 860, 861, 862, 863, 864, 865, 866, 867, 868, 869, 870, 871, 872],
      "AcquisitionTime": ["182550.630000", "182551.090000", "182551.550000", "182552.010000", "182552.470000", "182552.930000", "182553.390000", "182553.850000", "182554.310000", "182554.770000", "182555.230000", "182555.690000", "182556.150000", "182556.610000", "182557.070000", "182557.530000", "182557.990000", "182558.450000", "182558.910000", "182559.370000", "182559.830000", "182600.290000", "182600.750000", "182601.210000", "182601.670000", "182602.130000", "182602.590000", "182603.050000", "182603.510000", "182603.970000", "182604.430000", "182604.890000", "182605.350000", "182605.810000", "182606.270000", "182606.730000", "182607.190000", "182607.650000", "182608.110000", "182608.570000", "182609.030000", "182609.490000", "182609.950000", "182610.410000", "182610.870000", "182611.330000", "182611.790000", "182612.250000", "182612.710000", "182613.170000", "182613.630000", "182614.090000", "182614.550000", "182615.010000", "182615.470000", "182615.930000", "182616.390000", "182616.850000", "182617.310000", "182617.770000", "182618.230000", "182618.690000", "182619.150000", "182619.610000", "182620.070000", "182620.530000", "182620.990000", "182621.450000", "182621.910000", "182622.370000", "182622.830000", "182623.290000", "182623.750000", "182624.210000", "182624.670000", "182625.130000", "182625.590000", "182626.050000", "182626.510000", "182626.970000", "182627.430000", "182627.890000", "182628.350000", "182628.810000", "182629.270000", "182629.730000", "182630.190000", "182630.650000", "182631.110000", "182631.570000", "182632.030000", "182632.490000", "182632.950000", "182633.410000", "182633.870000", "182634.330000", "182634.790000", "182635.250000", "182635.710000", "182636.170000", "182636.630000", "182637.090000", "182637.550000", "182638.010000", "182638.470000", "182638.930000", "182639.390000", "182639.850000", "182640.310000", "182640.770000", "182641.230000", "182641.690000", "182642.150000", "182642.610000", "182643.070000", "182643.530000", "182643.990000", "182644.450000", "182644.910000", "182645.370000", "182645.830000", "182646.290000", "182646.750000", "182647.210000", "182647.670000", "182648.130000", "182648.590000", "182649.050000", "182649.510000", "182649.970000", "182650.430000", "182650.890000", "182651.350000", "182651.810000", "182652.270000", "182652.730000", "182653.190000", "182653.650000", "182654.110000", "182654.570000", "182655.030000", "182655.490000", "182655.950000", "182656.410000", "182656.870000", "182657.330000", "182657.790000", "182658.250000", "182658.710000", "182659.170000", "182659.630000", "182700.090000", "182700.550000", "182701.010000", "182701.470000", "182701.930000", "182702.390000", "182702.850000", "182703.310000", "182703.770000", "182704.230000", "182704.690000", "182705.150000", "182705.610000", "182706.070000", "182706.530000", "182706.990000", "182707.450000", "182707.910000", "182708.370000", "182708.830000", "182709.290000", "182709.750000", "182710.210000", "182710.670000", "182711.130000", "182711.590000", "182712.050000", "182712.510000", "182712.970000", "182713.430000", "182713.890000", "182714.350000", "182714.810000", "182715.270000", "182715.730000", "182716.190000", "182716.650000", "182717.110000", "182717.570000", "182718.030000", "182718.490000", "182718.950000", "182719.410000", "182719.870000", "182720.330000", "182720.790000", "182721.250000", "182721.710000", "182722.170000", "182722.630000", "182723.090000", "182723.550000", "182724.010000", "182724.470000", "182724.930000", "182725.390000", "182725.850000", "182726.310000", "182726.770000", "182727.230000", "182727.690000", "182728.150000", "182728.610000", "182729.070000", "182729.530000", "182729.990000", "182730.450000", "182730.910000", "182731.370000", "182731.830000", "182732.290000", "182732.750000", "182733.210000", "182733.670000", "182734.130000", "182734.590000", "182735.050000", "182735.510000", "182735.970000", "182736.430000", "182736.890000", "182737.350000", "182737.810000", "182738.270000", "182738.730000", "182739.190000", "182739.650000", "182740.110000", "182740.570000", "182741.030000", "182741.490000", "182741.950000", "182742.410000", "182742.870000", "182743.330000", "182743.790000", "182744.250000", "182744.710000", "182745.170000", "182745.630000", "182746.090000", "182746.550000", "182747.010000", "182747.470000", "182747.930000", "182748.390000", "182748.850000", "182749.310000", "182749.770000", "182750.230000", "182750.690000", "182751.150000", "182751.610000", "182752.070000", "182752.530000", "182752.990000", "182753.450000", "182753.910000", "182754.370000", "182754.830000", "182755.290000", "182755.750000", "182756.210000", "182756.670000", "182757.130000", "182757.590000", "182758.050000", "182758.510000", "182758.970000", "182759.430000", "182759.890000", "182800.350000", "182800.810000", "182801.270000", "182801.730000", "182802.190000", "182802.650000", "182803.110000", "182803.570000", "182804.030000", "182804.490000", "182804.950000", "182805.410000", "182805.870000", "182806.330000", "182806.790000", "182807.250000", "182807.710000", "182808.170000", "182808.630000", "182809.090000", "182809.550000", "182810.010000", "182810.470000", "182810.930000", "182811.390000", "182811.850000", "182812.310000", "182812.770000", "182813.230000", "182813.690000", "182814.150000", "182814.610000", "182815.070000", "182815.530000", "182815.990000", "182816.450000", "182816.910000", "182817.370000", "182817.830000", "182818.290000", "182818.750000", "182819.210000", "182819.670000", "182820.130000", "182820.590000", "182821.050000", "182821.510000", "182821.970000", "182822.430000", "182822.890000", "182823.350000", "182823.810000", "182824.270000", "182824.730000", "182825.190000", "182825.650000", "182826.110000", "182826.570000", "182827.030000", "182827.490000", "182827.950000", "182828.410000", "182828.870000", "182829.330000", "182829.790000", "182830.250000", "182830.710000", "182831.170000", "182831.630000", "182832.090000", "182832.550000", "182833.010000", "182833.470000", "182833.930000", "182834.390000", "182834.850000", "182835.310000", "182835.770000", "182836.230000", "182836.690000", "182837.150000", "182837.610000", "182838.070000", "182838.530000", "182838.990000", "182839.450000", "182839.910000", "182840.370000", "182840.830000", "182841.290000", "182841.750000", "182842.210000", "182842.670000", "182843.130000", "182843.590000", "182844.050000", "182844.510000", "182844.970000", "182845.430000", "182845.890000", "182846.350000", "182846.810000", "182847.270000", "182847.730000", "182848.190000", "182848.650000", "182849.110000", "182849.570000", "182850.030000", "182850.490000", "182850.950000", "182851.410000", "182851.870000", "182852.330000", "182852.790000", "182853.250000", "182853.710000", "182854.170000", "182854.630000", "182855.090000", "182855.550000", "182856.010000", "182856.470000", "182856.930000", "182857.390000", "182857.850000", "182858.310000", "182858.770000", "182859.230000", "182859.690000", "182900.150000", "182900.610000", "182901.070000", "182901.530000", "182901.990000", "182902.450000", "182902.910000", "182903.370000", "182903.830000", "182904.290000", "182904.750000", "182905.210000", "182905.670000", "182906.130000", "182906.590000", "182907.050000", "182907.510000", "182907.970000", "182908.430000", "182908.890000", "182909.350000", "182909.810000", "182910.270000", "182910.730000", "182911.190000", "182911.650000", "182912.110000", "182912.570000", "182913.030000", "182913.490000", "182913.950000", "182914.410000", "182914.870000", "182915.330000", "182915.790000", "182916.250000", "182916.710000", "182917.170000", "182917.630000", "182918.090000", "182918.550000", "182919.010000", "182919.470000", "182919.930000", "182920.390000", "182920.850000", "182921.310000", "182921.770000", "182922.230000", "182922.690000", "182923.150000", "182923.610000", "182924.070000", "182924.530000", "182924.990000", "182925.450000", "182925.910000", "182926.370000", "182926.830000", "182927.290000", "182927.750000", "182928.210000", "182928.670000", "182929.130000", "182929.590000", "182930.050000", "182930.510000", "182930.970000", "182931.430000", "182931.890000", "182932.350000", "182932.810000", "182933.270000", "182933.730000", "182934.190000", "182934.650000", "182935.110000", "182935.570000", "182936.030000", "182936.490000", "182936.950000", "182937.410000", "182937.870000", "182938.330000", "182938.790000", "182939.250000", "182939.710000", "182940.170000", "182940.630000", "182941.090000", "182941.550000", "182942.010000", "182942.470000", "182942.930000", "182943.390000", "182943.850000", "182944.310000", "182944.770000", "182945.230000", "182945.690000", "182946.150000", "182946.610000", "182947.070000", "182947.530000", "182947.990000", "182948.450000", "182948.910000", "182949.370000", "182949.830000", "182950.290000", "182950.750000", "182951.210000", "182951.670000", "182952.130000", "182952.590000", "182953.050000", "182953.510000", "182953.970000", "182954.430000", "182954.890000", "182955.350000", "182955.810000", "182956.270000", "182956.730000", "182957.190000", "182957.650000", "182958.110000", "182958.570000", "182959.030000", "182959.490000", "182959.950000", "183000.410000", "183000.870000", "183001.330000", "183001.790000", "183002.250000", "183002.710000", "183003.170000", "183003.630000", "183004.090000", "183004.550000", "183005.010000", "183005.470000", "183005.930000", "183006.390000", "183006.850000", "183007.310000", "183007.770000", "183008.230000", "183008.690000", "183009.150000", "183009.610000", "183010.070000", "183010.530000", "183010.990000", "183011.450000", "183011.910000", "183012.370000", "183012.830000", "183013.290000", "183013.750000", "183014.210000", "183014.670000", "183015.130000", "183015.590000", "183016.050000", "183016.510000", "183016.970000", "183017.430000", "183017.890000", "183018.350000", "183018.810000", "183019.270000", "183019.730000", "183020.190000", "183020.650000", "183021.110000", "183021.570000", "183022.030000", "183022.490000", "183022.950000", "183023.410000", "183023.870000", "183024.330000", "183024.790000", "183025.250000", "183025.710000", "183026.170000", "183026.630000", "183027.090000", "183027.550000", "183028.010000", "183028.470000", "183028.930000", "183029.390000", "183029.850000", "183030.310000", "183030.770000", "183031.230000", "183031.690000", "183032.150000", "183032.610000", "183033.070000", "183033.530000", "183033.990000", "183034.450000", "183034.910000", "183035.370000", "183035.830000", "183036.290000", "183036.750000", "183037.210000", "183037.670000", "183038.130000", "183038.590000", "183039.050000", "183039.510000", "183039.970000", "183040.430000", "183040.890000", "183041.350000", "183041.810000", "183042.270000", "183042.730000", "183043.190000", "183043.650000", "183044.110000", "183044.570000", "183045.030000", "183045.490000", "183045.950000", "183046.410000", "183046.870000", "183047.330000", "183047.790000", "183048.250000", "183048.710000", "183049.170000", "183049.630000", "183050.090000", "183050.550000", "183051.010000", "183051.470000", "183051.930000", "183052.390000", "183052.850000", "183053.310000", "183053.770000", "183054.230000", "183054.690000", "183055.150000", "183055.610000", "183056.070000", "183056.530000", "183056.990000", "183057.450000", "183057.910000", "183058.370000", "183058.830000", "183059.290000", "183059.750000", "183100.210000", "183100.670000", "183101.130000", "183101.590000", "183102.050000", "183102.510000", "183102.970000", "183103.430000", "183103.890000", "183104.350000", "183104.810000", "183105.270000", "183105.730000", "183106.190000", "183106.650000", "183107.110000", "183107.570000", "183108.030000", "183108.490000", "183108.950000", "183109.410000", "183109.870000", "183110.330000", "183110.790000", "183111.250000", "183111.710000", "183112.170000", "183112.630000", "183113.090000", "183113.550000", "183114.010000", "183114.470000", "183114.930000", "183115.390000", "183115.850000", "183116.310000", "183116.770000", "183117.230000", "183117.690000", "183118.150000", "183118.610000", "183119.070000", "183119.530000", "183119.990000", "183120.450000", "183120.910000", "183121.370000", "183121.830000", "183122.290000", "183122.750000", "183123.210000", "183123.670000", "183124.130000", "183124.590000", "183125.050000", "183125.510000", "183125.970000", "183126.430000", "183126.890000", "183127.350000", "183127.810000", "183128.270000", "183128.730000", "183129.190000", "183129.650000", "183130.110000", "183130.570000", "183131.030000", "183131.490000", "183131.950000", "183132.410000", "183132.870000", "183133.330000", "183133.790000", "183134.250000", "183134.710000", "183135.170000", "183135.630000", "183136.090000", "183136.550000", "183137.010000", "183137.470000", "183137.930000", "183138.390000", "183138.850000", "183139.310000", "183139.770000", "183140.230000", "183140.690000", "183141.150000", "183141.610000", "183142.070000", "183142.530000", "183142.990000", "183143.450000", "183143.910000", "183144.370000", "183144.830000", "183145.290000", "183145.750000", "183146.210000", "183146.670000", "183147.130000", "183147.590000", "183148.050000", "183148.510000", "183148.970000", "183149.430000", "183149.890000", "183150.350000", "183150.810000", "183151.270000", "183151.730000", "183152.190000", "183152.650000", "183153.110000", "183153.570000", "183154.030000", "183154.490000", "183154.950000", "183155.410000", "183155.870000", "183156.330000", "183156.790000", "183157.250000", "183157.710000", "183158.170000", "183158.630000", "183159.090000", "183159.550000", "183200.010000", "183200.470000", "183200.930000", "183201.390000", "183201.850000", "183202.310000", "183202.770000", "183203.230000", "183203.690000", "183204.150000", "183204.610000", "183205.070000", "183205.530000", "183205.990000", "183206.450000", "183206.910000", "183207.370000", "183207.830000", "183208.290000", "183208.750000", "183209.210000", "183209.670000", "183210.130000", "183210.590000", "183211.050000", "183211.510000", "183211.970000", "183212.430000", "183212.890000", "183213.350000", "183213.810000", "183214.270000", "183214.730000", "183215.190000", "183215.650000", "183216.110000", "183216.570000", "183217.030000", "183217.490000", "183217.950000", "183218.410000", "183218.870000", "183219.330000", "183219.790000", "183220.250000", "183220.710000", "183221.170000", "183221.630000", "183222.090000", "183222.550000", "183223.010000", "183223.470000", "183223.930000", "183224.390000", "183224.850000", "183225.310000", "183225.770000", "183226.230000", "183226.690000", "183227.150000", "183227.610000", "183228.070000", "183228.530000", "183228.990000", "183229.450000", "183229.910000", "183230.370000", "183230.830000", "183231.290000"],
