{
  "AcquisitionMatrixPE": 82,
  "AcquisitionNumber": 1,
  "AcquisitionTime": "18:42:38.340000",
  "BandwidthPerPixelPhaseEncode": 24.888,
  "BaseResolution": 82,
  "BodyPartExamined": "BRAIN",
  "ConsistencyInfo": "N4_VE11E_LATEST_20181129",
  "ConversionSoftware": "dcm2niix",
  "ConversionSoftwareVersion": "v1.0.20201102",
  "DerivedVendorReportedEchoSpacing": 0.00049,
  "DeviceSerialNumber": "66112",
  "DwellTime": 2e-06,
  "EchoTime": 0.0272,
  "EchoTrainLength": 82,
  "EffectiveEchoSpacing": 0.00049,
  "FlipAngle": 44,
  "ImageComments": "Unaliased MB8/PE3",
  "ImageOrientationPatientDICOM": [0.997636, -0.0446738, 0.0522181, 0.0378022, 0.991324, 0.125884],
  "ImageType": [
    "ORIGINAL",
    "PRIMARY",
    "M",
    "MB",
    "ND",
    "NORM",
    "MOSAIC"
],
  "ImagingFrequency": 123.259,
  "InPlanePhaseEncodingDirectionDICOM": "COL",
  "InstitutionAddress": "Maynard 3,Hanover,NH,US,03755",
  "InstitutionName": "Dartmouth College - PBS",
  "InstitutionalDepartmentName": "Department",
  "MRAcquisitionType": "2D",
  "MagneticFieldStrength": 3,
  "Manufacturer": "Siemens",
  "ManufacturersModelName": "Prisma",
  "Modality": "MR",
  "MultibandAccelerationFactor": 8,
  "PartialFourier": 1,
  "PatientPosition": "HFS",
  "PercentPhaseFOV": 100,
  "PercentSampling": 100,
  "PhaseEncodingDirection": "j-",
  "PhaseEncodingSteps": 82,
  "PhaseResolution": 1,
  "PixelBandwidth": 3050,
  "ProcedureStepDescription": "Wager_Wager^1076_spacetop",
  "ProtocolName": "func_run-01_task-alignvideo_acq-ap-mb8",
  "PulseSequenceDetails": "%CustomerSeq%\\cmrr_mbep2d_bold",
  "ReceiveCoilActiveElements": "HEA;HEP",
  "ReceiveCoilName": "Head_32",
  "ReconMatrixPE": 82,
  "RepetitionTime": 0.46,
  "SAR": 0.101705,
  "ScanOptions": "FS",
  "ScanningSequence": "EP",
  "SequenceName": "epfid2d1_82",
  "SequenceVariant": "SK\\SS",
  "SeriesDescription": "func_run-01_task-alignvideo_acq-ap-mb8",
  "SeriesNumber": 30,
  "ShimSetting": [4248, -7892, -7232, 468, -148, -386, 237, 105],
  "SliceThickness": 2.7,
  "SliceTiming": [0, 0.25, 0.0625, 0.315, 0.125, 0.3775, 0.1875, 0, 0.25, 0.0625, 0.315, 0.125, 0.3775, 0.1875, 0, 0.25, 0.0625, 0.315, 0.125, 0.3775, 0.1875, 0, 0.25, 0.0625, 0.315, 0.125, 0.3775, 0.1875, 0, 0.25, 0.0625, 0.315, 0.125, 0.3775, 0.1875, 0, 0.25, 0.0625, 0.315, 0.125, 0.3775, 0.1875, 0, 0.25, 0.0625, 0.315, 0.125, 0.3775, 0.1875, 0, 0.25, 0.0625, 0.315, 0.125, 0.3775, 0.1875],
  "SoftwareVersions": "syngo MR E11",
  "SpacingBetweenSlices": 2.7,
  "StationName": "AWP66112",
  "TaskName": "alignvideo",
  "TotalReadoutTime": 0.03969,
  "TxRefAmp": 247.476,
  "WipMemBlock": "d3cd5356-080f-4927-b6ce-cc8de7f09c77||Sequence: R016 ve11e/master r/434b28f1; Aug  7 2019 18:53:46 by eja",
  "dcmmeta_affine": [
    [-2.676584482192993, 0.10142040997743607, 0.1549496203660965, 106.4779281616211],
    [0.11985643953084946, 2.659651041030884, 0.33375316858291626, -109.47880554199219],
    [0.1400972306728363, -0.337737113237381, 2.6748082637786865, -60.10084915161133],
    [0.0, 0.0, 0.0, 1.0]
],
  "dcmmeta_reorient_transform": [
    [0.0, -1.0, 0.0, 81.0],
    [1.0, 0.0, 0.0, 0.0],
    [0.0, 0.0, 1.0, 0.0],
    [0.0, 0.0, 0.0, 1.0]
],
  "dcmmeta_shape": [82, 82, 56, 1073],
  "dcmmeta_slice_dim": 2,
  "dcmmeta_version": 0.6,
  "global": {
    "const": {
      "AccessionNumber": "A004538",
      "AcquisitionMatrix": [82, 0, 0, 82],
      "AngioFlag": "N",
      "BitsAllocated": 16,
      "BitsStored": 16,
      "BodyPartExamined": "BRAIN",
      "Columns": 656,
      "EchoNumbers": 1,
      "EchoTime": 27.2,
      "EchoTrainLength": 82,
      "FlipAngle": 44.0,
      "HighBit": 15,
      "ImageOrientationPatient": [0.99763597022913, -0.0446737631271, 0.05221806002754, 0.03780215171599, 0.99132449700047, 0.12588383125887],
      "ImagePositionPatient": [-911.98035453564, -834.87402351633, -224.59601633536],
      "ImageType": [
        "ORIGINAL",
        "PRIMARY",
        "M",
        "MB",
        "ND",
        "NORM",
        "MOSAIC"
],
      "ImagedNucleus": "1H",
      "ImagingFrequency": 123.259093,
      "InPlanePhaseEncodingDirection": "COL",
      "MRAcquisitionType": "2D",
      "MagneticFieldStrength": 3.0,
      "Manufacturer": "SIEMENS",
      "ManufacturerModelName": "Prisma",
      "Modality": "MR",
      "NumberOfAverages": 1.0,
      "NumberOfPhaseEncodingSteps": 82,
      "PercentPhaseFieldOfView": 100.0,
      "PercentSampling": 100.0,
      "PerformedProcedureStepStartTime": "172645.183000",
      "PhotometricInterpretation": "MONOCHROME2",
      "PixelBandwidth": 3050.0,
      "PixelRepresentation": 0,
      "PixelSpacing": [2.6829268932343, 2.6829268932343],
      "ProtocolName": "func_run-01_task-alignvideo_acq-ap-mb8",
      "RepetitionTime": 460.0,
      "Rows": 656,
      "SAR": 0.10170490000783,
      "SamplesPerPixel": 1,
      "ScanOptions": "FS",
      "ScanningSequence": "EP",
      "SequenceName": "epfid2d1_82",
      "SequenceVariant": [
        "SK",
        "SS"
],
      "SeriesDescription": "func_run-01_task-alignvideo_acq-ap-mb8",
      "SeriesNumber": 30,
      "SeriesTime": "184302.808000",
      "SliceLocation": -66.962383697489,
      "SliceThickness": 2.7000000476837,
      "SmallestImagePixelValue": 0,
      "SoftwareVersions": "syngo MR E11",
      "SpacingBetweenSlices": 2.6999999948881,
      "SpecificCharacterSet": "ISO_IR 100",
      "StudyID": "1",
      "StudyTime": "172645.042000",
      "TransmitCoilName": "Body",
      "VariableFlipAngleFlag": "N",
      "WindowCenterWidthExplanation": "Algo1"
    },
    "slices": {}
  },
  "time": {
    "samples": {
      "AcquisitionNumber": [1, 2, 3, 4, 5, 6, 7, 8, 9, 10, 11, 12, 13, 14, 15, 16, 17, 18, 19, 20, 21, 22, 23, 24, 25, 26, 27, 28, 29, 30, 31, 32, 33, 34, 35, 36, 37, 38, 39, 40, 41, 42, 43, 44, 45, 46, 47, 48, 49, 50, 51, 52, 53, 54, 55, 56, 57, 58, 59, 60, 61, 62, 63, 64, 65, 66, 67, 68, 69, 70, 71, 72, 73, 74, 75, 76, 77, 78, 79, 80, 81, 82, 83, 84, 85, 86, 87, 88, 89, 90, 91, 92, 93, 94, 95, 96, 97, 98, 99, 100, 101, 102, 103, 104, 105, 106, 107, 108, 109, 110, 111, 112, 113, 114, 115, 116, 117, 118, 119, 120, 121, 122, 123, 124, 125, 126, 127, 128, 129, 130, 131, 132, 133, 134, 135, 136, 137, 138, 139, 140, 141, 142, 143, 144, 145, 146, 147, 148, 149, 150, 151, 152, 153, 154, 155, 156, 157, 158, 159, 160, 161, 162, 163, 164, 165, 166, 167, 168, 169, 170, 171, 172, 173, 174, 175, 176, 177, 178, 179, 180, 181, 182, 183, 184, 185, 186, 187, 188, 189, 190, 191, 192, 193, 194, 195, 196, 197, 198, 199, 200, 201, 202, 203, 204, 205, 206, 207, 208, 209, 210, 211, 212, 213, 214, 215, 216, 217, 218, 219, 220, 221, 222, 223, 224, 225, 226, 227, 228, 229, 230, 231, 232, 233, 234, 235, 236, 237, 238, 239, 240, 241, 242, 243, 244, 245, 246, 247, 248, 249, 250, 251, 252, 253, 254, 255, 256, 257, 258, 259, 260, 261, 262, 263, 264, 265, 266, 267, 268, 269, 270, 271, 272, 273, 274, 275, 276, 277, 278, 279, 280, 281, 282, 283, 284, 285, 286, 287, 288, 289, 290, 291, 292, 293, 294, 295, 296, 297, 298, 299, 300, 301, 302, 303, 304, 305, 306, 307, 308, 309, 310, 311, 312, 313, 314, 315, 316, 317, 318, 319, 320, 321, 322, 323, 324, 325, 326, 327, 328, 329, 330, 331, 332, 333, 334, 335, 336, 337, 338, 339, 340, 341, 342, 343, 344, 345, 346, 347, 348, 349, 350, 351, 352, 353, 354, 355, 356, 357, 358, 359, 360, 361, 362, 363, 364, 365, 366, 367, 368, 369, 370, 371, 372, 373, 374, 375, 376, 377, 378, 379, 380, 381, 382, 383, 384, 385, 386, 387, 388, 389, 390, 391, 392, 393, 394, 395, 396, 397, 398, 399, 400, 401, 402, 403, 404, 405, 406, 407, 408, 409, 410, 411, 412, 413, 414, 415, 416, 417, 418, 419, 420, 421, 422, 423, 424, 425, 426, 427, 428, 429, 430, 431, 432, 433, 434, 435, 436, 437, 438, 439, 440, 441, 442, 443, 444, 445, 446, 447, 448, 449, 450, 451, 452, 453, 454, 455, 456, 457, 458, 459, 460, 461, 462, 463, 464, 465, 466, 467, 468, 469, 470, 471, 472, 473, 474, 475, 476, 477, 478, 479, 480, 481, 482, 483, 484, 485, 486, 487, 488, 489, 490, 491, 492, 493, 494, 495, 496, 497, 498, 499, 500, 501, 502, 503, 504, 505, 506, 507, 508, 509, 510, 511, 512, 513, 514, 515, 516, 517, 518, 519, 520, 521, 522, 523, 524, 525, 526, 527, 528, 529, 530, 531, 532, 533, 534, 535, 536, 537, 538, 539, 540, 541, 542, 543, 544, 545, 546, 547, 548, 549, 550, 551, 552, 553, 554, 555, 556, 557, 558, 559, 560, 561, 562, 563, 564, 565, 566, 567, 568, 569, 570, 571, 572, 573, 574, 575, 576, 577, 578, 579, 580, 581, 582, 583, 584, 585, 586, 587, 588, 589, 590, 591, 592, 593, 594, 595, 596, 597, 598, 599, 600, 601, 602, 603, 604, 605, 606, 607, 608, 609, 610, 611, 612, 613, 614, 615, 616, 617, 618, 619, 620, 621, 622, 623, 624, 625, 626, 627, 628, 629, 630, 631, 632, 633, 634, 635, 636, 637, 638, 639, 640, 641, 642, 643, 644, 645, 646, 647, 648, 649, 650, 651, 652, 653, 654, 655, 656, 657, 658, 659, 660, 661, 662, 663, 664, 665, 666, 667, 668, 669, 670, 671, 672, 673, 674, 675, 676, 677, 678, 679, 680, 681, 682, 683, 684, 685, 686, 687, 688, 689, 690, 691, 692, 693, 694, 695, 696, 697, 698, 699, 700, 701, 702, 703, 704, 705, 706, 707, 708, 709, 710, 711, 712, 713, 714, 715, 716, 717, 718, 719, 720, 721, 722, 723, 724, 725, 726, 727, 728, 729, 730, 731, 732, 733, 734, 735, 736, 737, 738, 739, 740, 741, 742, 743, 744, 745, 746, 747, 748, 749, 750, 751, 752, 753, 754, 755, 756, 757, 758, 759, 760, 761, 762, 763, 764, 765, 766, 767, 768, 769, 770, 771, 772, 773, 774, 775, 776, 777, 778, 779, 780, 781, 782, 783, 784, 785, 786, 787, 788, 789, 790, 791, 792, 793, 794, 795, 796, 797, 798, 799, 800, 801, 802, 803, 804, 805, 806, 807, 808, 809, 810, 811, 812, 813, 814, 815, 816, 817, 818, 819, 820, 821, 822, 823, 824, 825, 826, 827, 828, 829, 830, 831, 832, 833, 834, 835, 836, 837, 838, 839, 840, 841, 842, 843, 844, 845, 846, 847, 848, 849, 850, 851, 852, 853, 854, 855, 856, 857, 858, 859, 860, 861, 862, 863, 864, 865, 866, 867, 868, 869, 870, 871, 872, 873, 874, 875, 876, 877, 878, 879, 880, 881, 882, 883, 884, 885, 886, 887, 888, 889, 890, 891, 892, 893, 894, 895, 896, 897, 898, 899, 900, 901, 902, 903, 904, 905, 906, 907, 908, 909, 910, 911, 912, 913, 914, 915, 916, 917, 918, 919, 920, 921, 922, 923, 924, 925, 926, 927, 928, 929, 930, 931, 932, 933, 934, 935, 936, 937, 938, 939, 940, 941, 942, 943, 944, 945, 946, 947, 948, 949, 950, 951, 952, 953, 954, 955, 956, 957, 958, 959, 960, 961, 962, 963, 964, 965, 966, 967, 968, 969, 970, 971, 972, 973, 974, 975, 976, 977, 978, 979, 980, 981, 982, 983, 984, 985, 986, 987, 988, 989, 990, 991, 992, 993, 994, 995, 996, 997, 998, 999, 1000, 1001, 1002, 1003, 1004, 1005, 1006, 1007, 1008, 1009, 1010, 1011, 1012, 1013, 1014, 1015, 1016, 1017, 1018, 1019, 1020, 1021, 1022, 1023, 1024, 1025, 1026, 1027, 1028, 1029, 1030, 1031, 1032, 1033, 1034, 1035, 1036, 1037, 1038, 1039, 1040, 1041, 1042, 1043, 1044, 1045, 1046, 1047, 1048, 1049, 1050, 1051, 1052, 1053, 1054, 1055, 1056, 1057, 1058, 1059, 1060, 1061, 1062, 1063, 1064, 1065, 1066, 1067, 1068, 1069, 1070, 1071, 1072, 1073],
      "AcquisitionTime": ["184238.340000", "184238.800000", "184239.260000", "184239.720000", "184240.180000", "184240.640000", "184241.100000", "184241.560000", "184242.020000", "184242.480000", "184242.940000", "184243.400000", "184243.860000", "184244.320000", "184244.780000", "184245.240000", "184245.700000", "184246.160000", "184246.620000", "184247.080000", "184247.540000", "184248.000000", "184248.460000", "184248.920000", "184249.380000", "184249.840000", "184250.300000", "184250.760000", "184251.220000", "184251.680000", "184252.140000", "184252.600000", "184253.060000", "184253.520000", "184253.980000", "184254.440000", "184254.900000", "184255.360000", "184255.820000", "184256.280000", "184256.740000", "184257.200000", "184257.660000", "184258.120000", "184258.580000", "184259.040000", "184259.500000", "184259.960000", "184300.420000", "184300.880000", "184301.340000", "184301.800000", "184302.260000", "184302.720000", "184303.180000", "184303.640000", "184304.100000", "184304.560000", "184305.020000", "184305.480000", "184305.940000", "184306.400000", "184306.860000", "184307.320000", "184307.780000", "184308.240000", "184308.700000", "184309.160000", "184309.620000", "184310.080000", "184310.540000", "184311.000000", "184311.460000", "184311.920000", "184312.380000", "184312.840000", "184313.300000", "184313.760000", "184314.220000", "184314.680000", "184315.140000", "184315.600000", "184316.060000", "184316.520000", "184316.980000", "184317.440000", "184317.900000", "184318.360000", "184318.820000", "184319.280000", "184319.740000", "184320.200000", "184320.660000", "184321.120000", "184321.580000", "184322.040000", "184322.500000", "184322.960000", "184323.420000", "184323.880000", "184324.340000", "184324.800000", "184325.260000", "184325.720000", "184326.180000", "184326.640000", "184327.100000", "184327.560000", "184328.020000", "184328.480000", "184328.940000", "184329.400000", "184329.860000", "184330.320000", "184330.780000", "184331.240000", "184331.700000", "184332.160000", "184332.620000", "184333.080000", "184333.540000", "184334.000000", "184334.460000", "184334.920000", "184335.380000", "184335.840000", "184336.300000", "184336.760000", "184337.220000", "184337.680000", "184338.140000", "184338.600000", "184339.060000", "184339.520000", "184339.980000", "184340.440000", "184340.900000", "184341.360000", "184341.820000", "184342.280000", "184342.740000", "184343.200000", "184343.660000", "184344.120000", "184344.580000", "184345.040000", "184345.500000", "184345.960000", "184346.420000", "184346.880000", "184347.340000", "184347.800000", "184348.260000", "184348.720000", "184349.180000", "184349.640000", "184350.100000", "184350.560000", "184351.020000", "184351.480000", "184351.940000", "184352.400000", "184352.860000", "184353.320000", "184353.780000", "184354.240000", "184354.700000", "184355.160000", "184355.620000", "184356.080000", "184356.540000", "184357.000000", "184357.460000", "184357.920000", "184358.380000", "184358.840000", "184359.300000", "184359.760000", "184400.220000", "184400.680000", "184401.140000", "184401.600000", "184402.060000", "184402.520000", "184402.980000", "184403.440000", "184403.900000", "184404.360000", "184404.820000", "184405.280000", "184405.740000", "184406.200000", "184406.660000", "184407.120000", "184407.580000", "184408.040000", "184408.500000", "184408.960000", "184409.420000", "184409.880000", "184410.340000", "184410.800000", "184411.260000", "184411.720000", "184412.180000", "184412.640000", "184413.100000", "184413.560000", "184414.020000", "184414.480000", "184414.940000", "184415.400000", "184415.860000", "184416.320000", "184416.780000", "184417.240000", "184417.700000", "184418.160000", "184418.620000", "184419.080000", "184419.540000", "184420.000000", "184420.460000", "184420.920000", "184421.380000", "184421.840000", "184422.300000", "184422.760000", "184423.220000", "184423.680000", "184424.140000", "184424.600000", "184425.060000", "184425.520000", "184425.980000", "184426.440000", "184426.900000", "184427.360000", "184427.820000", "184428.280000", "184428.740000", "184429.200000", "184429.660000", "184430.120000", "184430.580000", "184431.040000", "184431.500000", "184431.960000", "184432.420000", "184432.880000", "184433.340000", "184433.800000", "184434.260000", "184434.720000", "184435.180000", "184435.640000", "184436.100000", "184436.560000", "184437.020000", "184437.480000", "184437.940000", "184438.400000", "184438.860000", "184439.320000", "184439.780000", "184440.240000", "184440.700000", "184441.160000", "184441.620000", "184442.080000", "184442.540000", "184443.000000", "184443.460000", "184443.920000", "184444.380000", "184444.840000", "184445.300000", "184445.760000", "184446.220000", "184446.680000", "184447.140000", "184447.600000", "184448.060000", "184448.520000", "184448.980000", "184449.440000", "184449.900000", "184450.360000", "184450.820000", "184451.280000", "184451.740000", "184452.200000", "184452.660000", "184453.120000", "184453.580000", "184454.040000", "184454.500000", "184454.960000", "184455.420000", "184455.880000", "184456.340000", "184456.800000", "184457.260000", "184457.720000", "184458.180000", "184458.640000", "184459.100000", "184459.560000", "184500.020000", "184500.480000", "184500.940000", "184501.400000", "184501.860000", "184502.320000", "184502.780000", "184503.240000", "184503.700000", "184504.160000", "184504.620000", "184505.080000", "184505.540000", "184506.000000", "184506.460000", "184506.920000", "184507.380000", "184507.840000", "184508.300000", "184508.760000", "184509.220000", "184509.680000", "184510.140000", "184510.600000", "184511.060000", "184511.520000", "184511.980000", "184512.440000", "184512.900000", "184513.360000", "184513.820000", "184514.280000", "184514.740000", "184515.200000", "184515.660000", "184516.120000", "184516.580000", "184517.040000", "184517.500000", "184517.960000", "184518.420000", "184518.880000", "184519.340000", "184519.800000", "184520.260000", "184520.720000", "184521.180000", "184521.640000", "184522.100000", "184522.560000", "184523.020000", "184523.480000", "184523.940000", "184524.400000", "184524.860000", "184525.320000", "184525.780000", "184526.240000", "184526.700000", "184527.160000", "184527.620000", "184528.080000", "184528.540000", "184529.000000", "184529.460000", "184529.920000", "184530.380000", "184530.840000", "184531.300000", "184531.760000", "184532.220000", "184532.680000", "184533.140000", "184533.600000", "184534.060000", "184534.520000", "184534.980000", "184535.440000", "184535.900000", "184536.360000", "184536.820000", "184537.280000", "184537.740000", "184538.200000", "184538.660000", "184539.120000", "184539.580000", "184540.040000", "184540.500000", "184540.960000", "184541.420000", "184541.880000", "184542.340000", "184542.800000", "184543.260000", "184543.720000", "184544.180000", "184544.640000", "184545.100000", "184545.560000", "184546.020000", "184546.480000", "184546.940000", "184547.400000", "184547.860000", "184548.320000", "184548.780000", "184549.240000", "184549.700000", "184550.160000", "184550.620000", "184551.080000", "184551.540000", "184552.000000", "184552.460000", "184552.920000", "184553.380000", "184553.840000", "184554.300000", "184554.760000", "184555.220000", "184555.680000", "184556.140000", "184556.600000", "184557.060000", "184557.520000", "184557.980000", "184558.440000", "184558.900000", "184559.360000", "184559.820000", "184600.280000", "184600.740000", "184601.200000", "184601.660000", "184602.120000", "184602.580000", "184603.040000", "184603.500000", "184603.960000", "184604.420000", "184604.880000", "184605.340000", "184605.800000", "184606.260000", "184606.720000", "184607.180000", "184607.640000", "184608.100000", "184608.560000", "184609.020000", "184609.480000", "184609.940000", "184610.400000", "184610.860000", "184611.320000", "184611.780000", "184612.240000", "184612.700000", "184613.160000", "184613.620000", "184614.080000", "184614.540000", "184615.000000", "184615.460000", "184615.920000", "184616.380000", "184616.840000", "184617.300000", "184617.760000", "184618.220000", "184618.680000", "184619.140000", "184619.600000", "184620.060000", "184620.520000", "184620.980000", "184621.440000", "184621.900000", "184622.360000", "184622.820000", "184623.280000", "184623.740000", "184624.200000", "184624.660000", "184625.120000", "184625.580000", "184626.040000", "184626.500000", "184626.960000", "184627.420000", "184627.880000", "184628.340000", "184628.800000", "184629.260000", "184629.720000", "184630.180000", "184630.640000", "184631.100000", "184631.560000", "184632.020000", "184632.480000", "184632.940000", "184633.400000", "184633.860000", "184634.320000", "184634.780000", "184635.240000", "184635.700000", "184636.160000", "184636.620000", "184637.080000", "184637.540000", "184638.000000", "184638.460000", "184638.920000", "184639.380000", "184639.840000", "184640.300000", "184640.760000", "184641.220000", "184641.680000", "184642.140000", "184642.600000", "184643.060000", "184643.520000", "184643.980000", "184644.440000", "184644.900000", "184645.360000", "184645.820000", "184646.280000", "184646.740000", "184647.200000", "184647.660000", "184648.120000", "184648.580000", "184649.040000", "184649.500000", "184649.960000", "184650.420000", "184650.880000", "184651.340000", "184651.800000", "184652.260000", "184652.720000", "184653.180000", "184653.640000", "184654.100000", "184654.560000", "184655.020000", "184655.480000", "184655.940000", "184656.400000", "184656.860000", "184657.320000", "184657.780000", "184658.240000", "184658.700000", "184659.160000", "184659.620000", "184700.080000", "184700.540000", "184701.000000", "184701.460000", "184701.920000", "184702.380000", "184702.840000", "184703.300000", "184703.760000", "184704.220000", "184704.680000", "184705.140000", "184705.600000", "184706.060000", "184706.520000", "184706.980000", "184707.440000", "184707.900000", "184708.360000", "184708.820000", "184709.280000", "184709.740000", "184710.200000", "184710.660000", "184711.120000", "184711.580000", "184712.040000", "184712.500000", "184712.960000", "184713.420000", "184713.880000", "184714.340000", "184714.800000", "184715.260000", "184715.720000", "184716.180000", "184716.640000", "184717.100000", "184717.560000", "184718.020000", "184718.480000", "184718.940000", "184719.400000", "184719.860000", "184720.320000", "184720.780000", "184721.240000", "184721.700000", "184722.160000", "184722.620000", "184723.080000", "184723.540000", "184724.000000", "184724.460000", "184724.920000", "184725.380000", "184725.840000", "184726.300000", "184726.760000", "184727.220000", "184727.680000", "184728.140000", "184728.600000", "184729.060000", "184729.520000", "184729.980000", "184730.440000", "184730.900000", "184731.360000", "184731.820000", "184732.280000", "184732.740000", "184733.200000", "184733.660000", "184734.120000", "184734.580000", "184735.040000", "184735.500000", "184735.960000", "184736.420000", "184736.880000", "184737.340000", "184737.800000", "184738.260000", "184738.720000", "184739.180000", "184739.640000", "184740.100000", "184740.560000", "184741.020000", "184741.480000", "184741.940000", "184742.400000", "184742.860000", "184743.320000", "184743.780000", "184744.240000", "184744.700000", "184745.160000", "184745.620000", "184746.080000", "184746.540000", "184747.000000", "184747.460000", "184747.920000", "184748.380000", "184748.840000", "184749.300000", "184749.760000", "184750.220000", "184750.680000", "184751.140000", "184751.600000", "184752.060000", "184752.520000", "184752.980000", "184753.440000", "184753.900000", "184754.360000", "184754.820000", "184755.280000", "184755.740000", "184756.200000", "184756.660000", "184757.120000", "184757.580000", "184758.040000", "184758.500000", "184758.960000", "184759.420000", "184759.880000", "184800.340000", "184800.800000", "184801.260000", "184801.720000", "184802.180000", "184802.640000", "184803.100000", "184803.560000", "184804.020000", "184804.480000", "184804.940000", "184805.400000", "184805.860000", "184806.320000", "184806.780000", "184807.240000", "184807.700000", "184808.160000", "184808.620000", "184809.080000", "184809.540000", "184810.000000", "184810.460000", "184810.920000", "184811.380000", "184811.840000", "184812.300000", "184812.760000", "184813.220000", "184813.680000", "184814.140000", "184814.600000", "184815.060000", "184815.520000", "184815.980000", "184816.440000", "184816.900000", "184817.360000", "184817.820000", "184818.280000", "184818.740000", "184819.200000", "184819.660000", "184820.120000", "184820.580000", "184821.040000", "184821.500000", "184821.960000", "184822.420000", "184822.880000", "184823.340000", "184823.800000", "184824.260000", "184824.720000", "184825.180000", "184825.640000", "184826.100000", "184826.560000", "184827.020000", "184827.480000", "184827.940000", "184828.400000", "184828.860000", "184829.320000", "184829.780000", "184830.240000", "184830.700000", "184831.160000", "184831.620000", "184832.080000", "184832.540000", "184833.000000", "184833.460000", "184833.920000", "184834.380000", "184834.840000", "184835.300000", "184835.760000", "184836.220000", "184836.680000", "184837.140000", "184837.600000", "184838.060000", "184838.520000", "184838.980000", "184839.440000", "184839.900000", "184840.360000", "184840.820000", "184841.280000", "184841.740000", "184842.200000", "184842.660000", "184843.120000", "184843.580000", "184844.040000", "184844.500000", "184844.960000", "184845.420000", "184845.880000", "184846.340000", "184846.800000", "184847.260000", "184847.720000", "184848.180000", "184848.640000", "184849.100000", "184849.560000", "184850.020000", "184850.480000", "184850.940000", "184851.400000", "184851.860000", "184852.320000", "184852.780000", "184853.240000", "184853.700000", "184854.160000", "184854.620000", "184855.080000", "184855.540000", "184856.000000", "184856.460000", "184856.920000", "184857.380000", "184857.840000", "184858.300000", "184858.760000", "184859.220000", "184859.680000", "184900.140000", "184900.600000", "184901.060000", "184901.520000", "184901.980000", "184902.440000", "184902.900000", "184903.360000", "184903.820000", "184904.280000", "184904.740000", "184905.200000", "184905.660000", "184906.120000", "184906.580000", "184907.040000", "184907.500000", "184907.960000", "184908.420000", "184908.880000", "184909.340000", "184909.800000", "184910.260000", "184910.720000", "184911.180000", "184911.640000", "184912.100000", "184912.560000", "184913.020000", "184913.480000", "184913.940000", "184914.400000", "184914.860000", "184915.320000", "184915.780000", "184916.240000", "184916.700000", "184917.160000", "184917.620000", "184918.080000", "184918.540000", "184919.000000", "184919.460000", "184919.920000", "184920.380000", "184920.840000", "184921.300000", "184921.760000", "184922.220000", "184922.680000", "184923.140000", "184923.600000", "184924.060000", "184924.520000", "184924.980000", "184925.440000", "184925.900000", "184926.360000", "184926.820000", "184927.280000", "184927.740000", "184928.200000", "184928.660000", "184929.120000", "184929.580000", "184930.040000", "184930.500000", "184930.960000", "184931.420000", "184931.880000", "184932.340000", "184932.800000", "184933.260000", "184933.720000", "184934.180000", "184934.640000", "184935.100000", "184935.560000", "184936.020000", "184936.480000", "184936.940000", "184937.400000", "184937.860000", "184938.320000", "184938.780000", "184939.240000", "184939.700000", "184940.160000", "184940.620000", "184941.080000", "184941.540000", "184942.000000", "184942.460000", "184942.920000", "184943.380000", "184943.840000", "184944.300000", "184944.760000", "184945.220000", "184945.680000", "184946.140000", "184946.600000", "184947.060000", "184947.520000", "184947.980000", "184948.440000", "184948.900000", "184949.360000", "184949.820000", "184950.280000", "184950.740000", "184951.200000", "184951.660000", "184952.120000", "184952.580000", "184953.040000", "184953.500000", "184953.960000", "184954.420000", "184954.880000", "184955.340000", "184955.800000", "184956.260000", "184956.720000", "184957.180000", "184957.640000", "184958.100000", "184958.560000", "184959.020000", "184959.480000", "184959.940000", "185000.400000", "185000.860000", "185001.320000", "185001.780000", "185002.240000", "185002.700000", "185003.160000", "185003.620000", "185004.080000", "185004.540000", "185005.000000", "185005.460000", "185005.920000", "185006.380000", "185006.840000", "185007.300000", "185007.760000", "185008.220000", "185008.680000", "185009.140000", "185009.600000", "185010.060000", "185010.520000", "185010.980000", "185011.440000", "185011.900000", "185012.360000", "185012.820000", "185013.280000", "185013.740000", "185014.200000", "185014.660000", "185015.120000", "185015.580000", "185016.040000", "185016.500000", "185016.960000", "185017.420000", "185017.880000", "185018.340000", "185018.800000", "185019.260000", "185019.720000", "185020.180000", "185020.640000", "185021.100000", "185021.560000", "185022.020000", "185022.480000", "185022.940000", "185023.400000", "185023.860000", "185024.320000", "185024.780000", "185025.240000", "185025.700000", "185026.160000", "185026.620000", "185027.080000", "185027.540000", "185028.000000", "185028.460000", "185028.920000", "185029.380000", "185029.840000", "185030.300000", "185030.760000", "185031.220000", "185031.680000", "185032.140000", "185032.600000", "185033.060000", "185033.520000", "185033.980000", "185034.440000", "185034.900000", "185035.360000", "185035.820000", "185036.280000", "185036.740000", "185037.200000", "185037.660000", "185038.120000", "185038.580000", "185039.040000", "185039.500000", "185039.960000", "185040.420000", "185040.880000", "185041.340000", "185041.800000", "185042.260000", "185042.720000", "185043.180000", "185043.640000", "185044.100000", "185044.560000", "185045.020000", "185045.480000", "185045.940000", "185046.400000", "185046.860000", "185047.320000", "185047.780000", "185048.240000", "185048.700000", "185049.160000", "185049.620000", "185050.080000", "185050.540000", "185051.000000", "185051.460000"],
