{
  "AcquisitionMatrixPE": 82,
  "AcquisitionNumber": 1,
  "AcquisitionTime": "17:54:31.522500",
  "BandwidthPerPixelPhaseEncode": 24.888,
  "BaseResolution": 82,
  "BodyPartExamined": "BRAIN",
  "ConsistencyInfo": "N4_VE11E_LATEST_20181129",
  "ConversionSoftware": "dcm2niix",
  "ConversionSoftwareVersion": "v1.0.20201102",
  "DerivedVendorReportedEchoSpacing": 0.00049,
  "DeviceSerialNumber": "66112",
  "DwellTime": 2e-06,
  "EchoTime": 0.0272,
  "EchoTrainLength": 82,
  "EffectiveEchoSpacing": 0.00049,
  "FlipAngle": 44,
  "ImageComments": "Unaliased MB8/PE3",
  "ImageOrientationPatientDICOM": [0.997685, -0.0466459, 0.0494923, 0.0404199, 0.99194, 0.12009],
  "ImageType": [
    "ORIGINAL",
    "PRIMARY",
    "M",
    "MB",
    "ND",
    "NORM",
    "MOSAIC"
],
  "ImagingFrequency": 123.259,
  "InPlanePhaseEncodingDirectionDICOM": "COL",
  "InstitutionAddress": "Maynard 3,Hanover,NH,US,03755",
  "InstitutionName": "Dartmouth College - PBS",
  "InstitutionalDepartmentName": "Department",
  "MRAcquisitionType": "2D",
  "MagneticFieldStrength": 3,
  "Manufacturer": "Siemens",
  "ManufacturersModelName": "Prisma",
  "Modality": "MR",
  "MultibandAccelerationFactor": 8,
  "PartialFourier": 1,
  "PatientPosition": "HFS",
  "PercentPhaseFOV": 100,
  "PercentSampling": 100,
  "PhaseEncodingDirection": "j-",
  "PhaseEncodingSteps": 82,
  "PhaseResolution": 1,
  "PixelBandwidth": 3050,
  "ProcedureStepDescription": "Wager_Wager^1076_spacetop",
  "ProtocolName": "func_run-01_task-social_acq-ap-mb8",
  "PulseSequenceDetails": "%CustomerSeq%\\cmrr_mbep2d_bold",
  "ReceiveCoilActiveElements": "HEA;HEP",
  "ReceiveCoilName": "Head_32",
  "ReconMatrixPE": 82,
  "RepetitionTime": 0.46,
  "SAR": 0.101586,
  "ScanOptions": "FS",
  "ScanningSequence": "EP",
  "SequenceName": "epfid2d1_82",
  "SequenceVariant": "SK\\SS",
  "SeriesDescription": "func_run-01_task-social_acq-ap-mb8",
  "SeriesNumber": 12,
  "ShimSetting": [4248, -7891, -7232, 471, -150, -385, 237, 106],
  "SliceThickness": 2.7,
  "SliceTiming": [0, 0.2525, 0.0625, 0.315, 0.125, 0.3775, 0.1875, 0, 0.2525, 0.0625, 0.315, 0.125, 0.3775, 0.1875, 0, 0.2525, 0.0625, 0.315, 0.125, 0.3775, 0.1875, 0, 0.2525, 0.0625, 0.315, 0.125, 0.3775, 0.1875, 0, 0.2525, 0.0625, 0.315, 0.125, 0.3775, 0.1875, 0, 0.2525, 0.0625, 0.315, 0.125, 0.3775, 0.1875, 0, 0.2525, 0.0625, 0.315, 0.125, 0.3775, 0.1875, 0, 0.2525, 0.0625, 0.315, 0.125, 0.3775, 0.1875],
  "SoftwareVersions": "syngo MR E11",
  "SpacingBetweenSlices": 2.7,
  "StationName": "AWP66112",
  "TaskName": "social",
  "TotalReadoutTime": 0.03969,
  "TxRefAmp": 247.476,
  "WipMemBlock": "293ef90d-5c60-4434-8718-0535a62107d7||Sequence: R016 ve11e/master r/434b28f1; Aug  7 2019 18:53:46 by eja",
  "dcmmeta_affine": [
    [-2.6767148971557617, 0.1084437146782875, 0.1476767659187317, 106.60015106201172],
    [0.12514741718769073, 2.661302089691162, 0.3180912137031555, -108.91529846191406],
    [0.13278426229953766, -0.3221929371356964, 2.6771271228790283, -60.963809967041016],
    [0.0, 0.0, 0.0, 1.0]
],
  "dcmmeta_reorient_transform": [
    [0.0, -1.0, 0.0, 81.0],
    [1.0, 0.0, 0.0, 0.0],
    [0.0, 0.0, 1.0, 0.0],
    [0.0, 0.0, 0.0, 1.0]
],
  "dcmmeta_shape": [82, 82, 56, 872],
  "dcmmeta_slice_dim": 2,
  "dcmmeta_version": 0.6,
  "global": {
    "const": {
      "AccessionNumber": "A004538",
      "AcquisitionMatrix": [82, 0, 0, 82],
      "AngioFlag": "N",
      "BitsAllocated": 16,
      "BitsStored": 16,
      "BodyPartExamined": "BRAIN",
      "Columns": 656,
      "EchoNumbers": 1,
      "EchoTime": 27.2,
      "EchoTrainLength": 82,
      "FlipAngle": 44.0,
      "HighBit": 15,
      "ImageOrientationPatient": [0.99768465731959, -0.0466458522292, 0.0494923127254, 0.0404199278966, 0.99193981679207, 0.12009008823106],
      "ImagePositionPatient": [-914.72464450382, -834.52653816192, -217.63988792066],
      "ImageType": [
        "ORIGINAL",
        "PRIMARY",
        "M",
        "MB",
        "ND",
        "NORM",
        "MOSAIC"
],
      "ImagedNucleus": "1H",
      "ImagingFrequency": 123.259087,
      "InPlanePhaseEncodingDirection": "COL",
      "MRAcquisitionType": "2D",
      "MagneticFieldStrength": 3.0,
      "Manufacturer": "SIEMENS",
      "ManufacturerModelName": "Prisma",
      "Modality": "MR",
      "NumberOfAverages": 1.0,
      "NumberOfPhaseEncodingSteps": 82,
      "PercentPhaseFieldOfView": 100.0,
      "PercentSampling": 100.0,
      "PerformedProcedureStepStartTime": "172645.183000",
      "PhotometricInterpretation": "MONOCHROME2",
      "PixelBandwidth": 3050.0,
      "PixelRepresentation": 0,
      "PixelSpacing": [2.6829268932343, 2.6829268932343],
      "ProtocolName": "func_run-01_task-social_acq-ap-mb8",
      "RepetitionTime": 460.0,
      "Rows": 656,
      "SAR": 0.10158643005974,
      "SamplesPerPixel": 1,
      "ScanOptions": "FS",
      "ScanningSequence": "EP",
      "SequenceName": "epfid2d1_82",
      "SequenceVariant": [
        "SK",
        "SS"
],
      "SeriesDescription": "func_run-01_task-social_acq-ap-mb8",
      "SeriesNumber": 12,
      "SeriesTime": "175442.816000",
      "SliceLocation": -67.448332583418,
      "SliceThickness": 2.7000000476837,
      "SmallestImagePixelValue": 0,
      "SoftwareVersions": "syngo MR E11",
      "SpacingBetweenSlices": 2.6999999710094,
      "SpecificCharacterSet": "ISO_IR 100",
      "StudyID": "1",
      "StudyTime": "172645.042000",
      "TransmitCoilName": "Body",
      "VariableFlipAngleFlag": "N",
      "WindowCenterWidthExplanation": "Algo1"
    },
    "slices": {}
  },
  "time": {
    "samples": {
      "AcquisitionNumber": [1, 2, 3, 4, 5, 6, 7, 8, 9, 10, 11, 12, 13, 14, 15, 16, 17, 18, 19, 20, 21, 22, 23, 24, 25, 26, 27, 28, 29, 30, 31, 32, 33, 34, 35, 36, 37, 38, 39, 40, 41, 42, 43, 44, 45, 46, 47, 48, 49, 50, 51, 52, 53, 54, 55, 56, 57, 58, 59, 60, 61, 62, 63, 64, 65, 66, 67, 68, 69, 70, 71, 72, 73, 74, 75, 76, 77, 78, 79, 80, 81, 82, 83, 84, 85, 86, 87, 88, 89, 90, 91, 92, 93, 94, 95, 96, 97, 98, 99, 100, 101, 102, 103, 104, 105, 106, 107, 108, 109, 110, 111, 112, 113, 114, 115, 116, 117, 118, 119, 120, 121, 122, 123, 124, 125, 126, 127, 128, 129, 130, 131, 132, 133, 134, 135, 136, 137, 138, 139, 140, 141, 142, 143, 144, 145, 146, 147, 148, 149, 150, 151, 152, 153, 154, 155, 156, 157, 158, 159, 160, 161, 162, 163, 164, 165, 166, 167, 168, 169, 170, 171, 172, 173, 174, 175, 176, 177, 178, 179, 180, 181, 182, 183, 184, 185, 186, 187, 188, 189, 190, 191, 192, 193, 194, 195, 196, 197, 198, 199, 200, 201, 202, 203, 204, 205, 206, 207, 208, 209, 210, 211, 212, 213, 214, 215, 216, 217, 218, 219, 220, 221, 222, 223, 224, 225, 226, 227, 228, 229, 230, 231, 232, 233, 234, 235, 236, 237, 238, 239, 240, 241, 242, 243, 244, 245, 246, 247, 248, 249, 250, 251, 252, 253, 254, 255, 256, 257, 258, 259, 260, 261, 262, 263, 264, 265, 266, 267, 268, 269, 270, 271, 272, 273, 274, 275, 276, 277, 278, 279, 280, 281, 282, 283, 284, 285, 286, 287, 288, 289, 290, 291, 292, 293, 294, 295, 296, 297, 298, 299, 300, 301, 302, 303, 304, 305, 306, 307, 308, 309, 310, 311, 312, 313, 314, 315, 316, 317, 318, 319, 320, 321, 322, 323, 324, 325, 326, 327, 328, 329, 330, 331, 332, 333, 334, 335, 336, 337, 338, 339, 340, 341, 342, 343, 344, 345, 346, 347, 348, 349, 350, 351, 352, 353, 354, 355, 356, 357, 358, 359, 360, 361, 362, 363, 364, 365, 366, 367, 368, 369, 370, 371, 372, 373, 374, 375, 376, 377, 378, 379, 380, 381, 382, 383, 384, 385, 386, 387, 388, 389, 390, 391, 392, 393, 394, 395, 396, 397, 398, 399, 400, 401, 402, 403, 404, 405, 406, 407, 408, 409, 410, 411, 412, 413, 414, 415, 416, 417, 418, 419, 420, 421, 422, 423, 424, 425, 426, 427, 428, 429, 430, 431, 432, 433, 434, 435, 436, 437, 438, 439, 440, 441, 442, 443, 444, 445, 446, 447, 448, 449, 450, 451, 452, 453, 454, 455, 456, 457, 458, 459, 460, 461, 462, 463, 464, 465, 466, 467, 468, 469, 470, 471, 472, 473, 474, 475, 476, 477, 478, 479, 480, 481, 482, 483, 484, 485, 486, 487, 488, 489, 490, 491, 492, 493, 494, 495, 496, 497, 498, 499, 500, 501, 502, 503, 504, 505, 506, 507, 508, 509, 510, 511, 512, 513, 514, 515, 516, 517, 518, 519, 520, 521, 522, 523, 524, 525, 526, 527, 528, 529, 530, 531, 532, 533, 534, 535, 536, 537, 538, 539, 540, 541, 542, 543, 544, 545, 546, 547, 548, 549, 550, 551, 552, 553, 554, 555, 556, 557, 558, 559, 560, 561, 562, 563, 564, 565, 566, 567, 568, 569, 570, 571, 572, 573, 574, 575, 576, 577, 578, 579, 580, 581, 582, 583, 584, 585, 586, 587, 588, 589, 590, 591, 592, 593, 594, 595, 596, 597, 598, 599, 600, 601, 602, 603, 604, 605, 606, 607, 608, 609, 610, 611, 612, 613, 614, 615, 616, 617, 618, 619, 620, 621, 622, 623, 624, 625, 626, 627, 628, 629, 630, 631, 632, 633, 634, 635, 636, 637, 638, 639, 640, 641, 642, 643, 644, 645, 646, 647, 648, 649, 650, 651, 652, 653, 654, 655, 656, 657, 658, 659, 660, 661, 662, 663, 664, 665, 666, 667, 668, 669, 670, 671, 672, 673, 674, 675, 676, 677, 678, 679, 680, 681, 682, 683, 684, 685, 686, 687, 688, 689, 690, 691, 692, 693, 694, 695, 696, 697, 698, 699, 700, 701, 702, 703, 704, 705, 706, 707, 708, 709, 710, 711, 712, 713, 714, 715, 716, 717, 718, 719, 720, 721, 722, 723, 724, 725, 726, 727, 728, 729, 730, 731, 732, 733, 734, 735, 736, 737, 738, 739, 740, 741, 742, 743, 744, 745, 746, 747, 748, 749, 750, 751, 752, 753, 754, 755, 756, 757, 758, 759, 760, 761, 762, 763, 764, 765, 766, 767, 768, 769, 770, 771, 772, 773, 774, 775, 776, 777, 778, 779, 780, 781, 782, 783, 784, 785, 786, 787, 788, 789, 790, 791, 792, 793, 794, 795, 796, 797, 798, 799, 800, 801, 802, 803, 804, 805, 806, 807, 808, 809, 810, 811, 812, 813, 814, 815, 816, 817, 818, 819, 820, 821, 822, 823, 824, 825, 826, 827, 828, 829, 830, 831, 832, 833, 834, 835, 836, 837, 838, 839, 840, 841, 842, 843, 844, 845, 846, 847, 848, 849, 850, 851, 852, 853, 854, 855, 856, 857, 858, 859, 860, 861, 862, 863, 864, 865, 866, 867, 868, 869, 870, 871, 872],
      "AcquisitionTime": ["175431.522500", "175431.982500", "175432.442500", "175432.902500", "175433.362500", "175433.822500", "175434.282500", "175434.742500", "175435.202500", "175435.662500", "175436.122500", "175436.582500", "175437.042500", "175437.502500", "175437.962500", "175438.422500", "175438.882500", "175439.342500", "175439.802500", "175440.262500", "175440.722500", "175441.182500", "175441.642500", "175442.102500", "175442.562500", "175443.022500", "175443.482500", "175443.942500", "175444.402500", "175444.862500", "175445.322500", "175445.782500", "175446.242500", "175446.702500", "175447.162500", "175447.622500", "175448.082500", "175448.542500", "175449.002500", "175449.462500", "175449.922500", "175450.382500", "175450.842500", "175451.302500", "175451.762500", "175452.222500", "175452.682500", "175453.142500", "175453.602500", "175454.062500", "175454.522500", "175454.982500", "175455.442500", "175455.902500", "175456.362500", "175456.822500", "175457.282500", "175457.742500", "175458.202500", "175458.662500", "175459.122500", "175459.582500", "175500.042500", "175500.502500", "175500.962500", "175501.422500", "175501.882500", "175502.342500", "175502.802500", "175503.262500", "175503.722500", "175504.182500", "175504.642500", "175505.102500", "175505.562500", "175506.022500", "175506.482500", "175506.942500", "175507.402500", "175507.862500", "175508.322500", "175508.782500", "175509.242500", "175509.702500", "175510.162500", "175510.622500", "175511.082500", "175511.542500", "175512.002500", "175512.462500", "175512.922500", "175513.382500", "175513.842500", "175514.302500", "175514.762500", "175515.222500", "175515.682500", "175516.142500", "175516.602500", "175517.062500", "175517.522500", "175517.982500", "175518.442500", "175518.902500", "175519.362500", "175519.822500", "175520.282500", "175520.742500", "175521.202500", "175521.662500", "175522.122500", "175522.582500", "175523.042500", "175523.502500", "175523.962500", "175524.422500", "175524.882500", "175525.342500", "175525.802500", "175526.262500", "175526.722500", "175527.182500", "175527.642500", "175528.102500", "175528.562500", "175529.022500", "175529.482500", "175529.942500", "175530.402500", "175530.862500", "175531.322500", "175531.782500", "175532.242500", "175532.702500", "175533.162500", "175533.622500", "175534.082500", "175534.542500", "175535.002500", "175535.462500", "175535.922500", "175536.382500", "175536.842500", "175537.302500", "175537.762500", "175538.222500", "175538.682500", "175539.142500", "175539.602500", "175540.062500", "175540.522500", "175540.982500", "175541.442500", "175541.902500", "175542.362500", "175542.822500", "175543.282500", "175543.742500", "175544.202500", "175544.662500", "175545.122500", "175545.582500", "175546.042500", "175546.502500", "175546.962500", "175547.422500", "175547.882500", "175548.342500", "175548.802500", "175549.262500", "175549.722500", "175550.182500", "175550.642500", "175551.102500", "175551.562500", "175552.022500", "175552.482500", "175552.942500", "175553.402500", "175553.862500", "175554.322500", "175554.782500", "175555.242500", "175555.702500", "175556.162500", "175556.622500", "175557.082500", "175557.542500", "175558.002500", "175558.462500", "175558.922500", "175559.382500", "175559.842500", "175600.302500", "175600.762500", "175601.222500", "175601.682500", "175602.142500", "175602.602500", "175603.062500", "175603.522500", "175603.982500", "175604.442500", "175604.902500", "175605.362500", "175605.822500", "175606.282500", "175606.742500", "175607.202500", "175607.662500", "175608.122500", "175608.582500", "175609.042500", "175609.502500", "175609.962500", "175610.422500", "175610.882500", "175611.342500", "175611.802500", "175612.262500", "175612.722500", "175613.182500", "175613.642500", "175614.102500", "175614.562500", "175615.022500", "175615.482500", "175615.942500", "175616.402500", "175616.862500", "175617.322500", "175617.782500", "175618.242500", "175618.702500", "175619.162500", "175619.622500", "175620.082500", "175620.542500", "175621.002500", "175621.462500", "175621.922500", "175622.382500", "175622.842500", "175623.302500", "175623.762500", "175624.222500", "175624.682500", "175625.142500", "175625.602500", "175626.062500", "175626.522500", "175626.982500", "175627.442500", "175627.902500", "175628.362500", "175628.822500", "175629.282500", "175629.742500", "175630.202500", "175630.662500", "175631.122500", "175631.582500", "175632.042500", "175632.502500", "175632.962500", "175633.422500", "175633.882500", "175634.342500", "175634.802500", "175635.262500", "175635.722500", "175636.182500", "175636.642500", "175637.102500", "175637.562500", "175638.022500", "175638.482500", "175638.942500", "175639.402500", "175639.862500", "175640.322500", "175640.782500", "175641.242500", "175641.702500", "175642.162500", "175642.622500", "175643.082500", "175643.542500", "175644.002500", "175644.462500", "175644.922500", "175645.382500", "175645.842500", "175646.302500", "175646.762500", "175647.222500", "175647.682500", "175648.142500", "175648.602500", "175649.062500", "175649.522500", "175649.982500", "175650.442500", "175650.902500", "175651.362500", "175651.822500", "175652.282500", "175652.742500", "175653.202500", "175653.662500", "175654.122500", "175654.582500", "175655.042500", "175655.502500", "175655.962500", "175656.422500", "175656.882500", "175657.342500", "175657.802500", "175658.262500", "175658.722500", "175659.182500", "175659.642500", "175700.102500", "175700.562500", "175701.022500", "175701.482500", "175701.942500", "175702.402500", "175702.862500", "175703.322500", "175703.782500", "175704.242500", "175704.702500", "175705.162500", "175705.622500", "175706.082500", "175706.542500", "175707.002500", "175707.462500", "175707.922500", "175708.382500", "175708.842500", "175709.302500", "175709.762500", "175710.222500", "175710.682500", "175711.142500", "175711.602500", "175712.062500", "175712.522500", "175712.982500", "175713.442500", "175713.902500", "175714.362500", "175714.822500", "175715.282500", "175715.742500", "175716.202500", "175716.662500", "175717.122500", "175717.582500", "175718.042500", "175718.502500", "175718.962500", "175719.422500", "175719.882500", "175720.342500", "175720.802500", "175721.262500", "175721.722500", "175722.182500", "175722.642500", "175723.102500", "175723.562500", "175724.022500", "175724.482500", "175724.942500", "175725.402500", "175725.862500", "175726.322500", "175726.782500", "175727.242500", "175727.702500", "175728.162500", "175728.622500", "175729.082500", "175729.542500", "175730.002500", "175730.462500", "175730.922500", "175731.382500", "175731.842500", "175732.302500", "175732.762500", "175733.222500", "175733.682500", "175734.142500", "175734.602500", "175735.062500", "175735.522500", "175735.982500", "175736.442500", "175736.902500", "175737.362500", "175737.822500", "175738.282500", "175738.742500", "175739.202500", "175739.662500", "175740.122500", "175740.582500", "175741.042500", "175741.502500", "175741.962500", "175742.422500", "175742.882500", "175743.342500", "175743.802500", "175744.262500", "175744.722500", "175745.182500", "175745.642500", "175746.102500", "175746.562500", "175747.022500", "175747.482500", "175747.942500", "175748.402500", "175748.862500", "175749.322500", "175749.782500", "175750.242500", "175750.702500", "175751.162500", "175751.622500", "175752.082500", "175752.542500", "175753.002500", "175753.462500", "175753.922500", "175754.382500", "175754.842500", "175755.302500", "175755.762500", "175756.222500", "175756.682500", "175757.142500", "175757.602500", "175758.062500", "175758.522500", "175758.982500", "175759.442500", "175759.902500", "175800.362500", "175800.822500", "175801.282500", "175801.742500", "175802.202500", "175802.662500", "175803.122500", "175803.582500", "175804.042500", "175804.502500", "175804.962500", "175805.422500", "175805.882500", "175806.342500", "175806.802500", "175807.262500", "175807.722500", "175808.182500", "175808.642500", "175809.102500", "175809.562500", "175810.022500", "175810.482500", "175810.942500", "175811.402500", "175811.862500", "175812.322500", "175812.782500", "175813.242500", "175813.702500", "175814.162500", "175814.622500", "175815.082500", "175815.542500", "175816.002500", "175816.462500", "175816.922500", "175817.382500", "175817.842500", "175818.302500", "175818.762500", "175819.222500", "175819.682500", "175820.142500", "175820.602500", "175821.062500", "175821.522500", "175821.982500", "175822.442500", "175822.902500", "175823.362500", "175823.822500", "175824.282500", "175824.742500", "175825.202500", "175825.662500", "175826.122500", "175826.582500", "175827.042500", "175827.502500", "175827.962500", "175828.422500", "175828.882500", "175829.342500", "175829.802500", "175830.262500", "175830.722500", "175831.182500", "175831.642500", "175832.102500", "175832.562500", "175833.022500", "175833.482500", "175833.942500", "175834.402500", "175834.862500", "175835.322500", "175835.782500", "175836.242500", "175836.702500", "175837.162500", "175837.622500", "175838.082500", "175838.542500", "175839.002500", "175839.462500", "175839.922500", "175840.382500", "175840.842500", "175841.302500", "175841.762500", "175842.222500", "175842.682500", "175843.142500", "175843.602500", "175844.062500", "175844.522500", "175844.982500", "175845.442500", "175845.902500", "175846.362500", "175846.822500", "175847.282500", "175847.742500", "175848.202500", "175848.662500", "175849.122500", "175849.582500", "175850.042500", "175850.502500", "175850.962500", "175851.422500", "175851.882500", "175852.342500", "175852.802500", "175853.262500", "175853.722500", "175854.182500", "175854.642500", "175855.102500", "175855.562500", "175856.022500", "175856.482500", "175856.942500", "175857.402500", "175857.862500", "175858.322500", "175858.782500", "175859.242500", "175859.702500", "175900.162500", "175900.622500", "175901.082500", "175901.542500", "175902.002500", "175902.462500", "175902.922500", "175903.382500", "175903.842500", "175904.302500", "175904.762500", "175905.222500", "175905.682500", "175906.142500", "175906.602500", "175907.062500", "175907.522500", "175907.982500", "175908.442500", "175908.902500", "175909.362500", "175909.822500", "175910.282500", "175910.742500", "175911.202500", "175911.662500", "175912.122500", "175912.582500", "175913.042500", "175913.502500", "175913.962500", "175914.422500", "175914.882500", "175915.342500", "175915.802500", "175916.262500", "175916.722500", "175917.182500", "175917.642500", "175918.102500", "175918.562500", "175919.022500", "175919.482500", "175919.942500", "175920.402500", "175920.862500", "175921.322500", "175921.782500", "175922.242500", "175922.702500", "175923.162500", "175923.622500", "175924.082500", "175924.542500", "175925.002500", "175925.462500", "175925.922500", "175926.382500", "175926.842500", "175927.302500", "175927.762500", "175928.222500", "175928.682500", "175929.142500", "175929.602500", "175930.062500", "175930.522500", "175930.982500", "175931.442500", "175931.902500", "175932.362500", "175932.822500", "175933.282500", "175933.742500", "175934.202500", "175934.662500", "175935.122500", "175935.582500", "175936.042500", "175936.502500", "175936.962500", "175937.422500", "175937.882500", "175938.342500", "175938.802500", "175939.262500", "175939.722500", "175940.182500", "175940.642500", "175941.102500", "175941.562500", "175942.022500", "175942.482500", "175942.942500", "175943.402500", "175943.862500", "175944.322500", "175944.782500", "175945.242500", "175945.702500", "175946.162500", "175946.622500", "175947.082500", "175947.542500", "175948.002500", "175948.462500", "175948.922500", "175949.382500", "175949.842500", "175950.302500", "175950.762500", "175951.222500", "175951.682500", "175952.142500", "175952.602500", "175953.062500", "175953.522500", "175953.982500", "175954.442500", "175954.902500", "175955.362500", "175955.822500", "175956.282500", "175956.742500", "175957.202500", "175957.662500", "175958.122500", "175958.582500", "175959.042500", "175959.502500", "175959.962500", "180000.422500", "180000.882500", "180001.342500", "180001.802500", "180002.262500", "180002.722500", "180003.182500", "180003.642500", "180004.102500", "180004.562500", "180005.022500", "180005.482500", "180005.942500", "180006.402500", "180006.862500", "180007.322500", "180007.782500", "180008.242500", "180008.702500", "180009.162500", "180009.622500", "180010.082500", "180010.542500", "180011.002500", "180011.462500", "180011.922500", "180012.382500", "180012.842500", "180013.302500", "180013.762500", "180014.222500", "180014.682500", "180015.142500", "180015.602500", "180016.062500", "180016.522500", "180016.982500", "180017.442500", "180017.902500", "180018.362500", "180018.822500", "180019.282500", "180019.742500", "180020.202500", "180020.662500", "180021.122500", "180021.582500", "180022.042500", "180022.502500", "180022.962500", "180023.422500", "180023.882500", "180024.342500", "180024.802500", "180025.262500", "180025.722500", "180026.182500", "180026.642500", "180027.102500", "180027.562500", "180028.022500", "180028.482500", "180028.942500", "180029.402500", "180029.862500", "180030.322500", "180030.782500", "180031.242500", "180031.702500", "180032.162500", "180032.622500", "180033.082500", "180033.542500", "180034.002500", "180034.462500", "180034.922500", "180035.382500", "180035.842500", "180036.302500", "180036.762500", "180037.222500", "180037.682500", "180038.142500", "180038.602500", "180039.062500", "180039.522500", "180039.982500", "180040.442500", "180040.902500", "180041.362500", "180041.822500", "180042.282500", "180042.742500", "180043.202500", "180043.662500", "180044.122500", "180044.582500", "180045.042500", "180045.502500", "180045.962500", "180046.422500", "180046.882500", "180047.342500", "180047.802500", "180048.262500", "180048.722500", "180049.182500", "180049.642500", "180050.102500", "180050.562500", "180051.022500", "180051.482500", "180051.942500", "180052.402500", "180052.862500", "180053.322500", "180053.782500", "180054.242500", "180054.702500", "180055.162500", "180055.622500", "180056.082500", "180056.542500", "180057.002500", "180057.462500", "180057.922500", "180058.382500", "180058.842500", "180059.302500", "180059.762500", "180100.222500", "180100.682500", "180101.142500", "180101.602500", "180102.062500", "180102.522500", "180102.982500", "180103.442500", "180103.902500", "180104.362500", "180104.822500", "180105.282500", "180105.742500", "180106.202500", "180106.662500", "180107.122500", "180107.582500", "180108.042500", "180108.502500", "180108.962500", "180109.422500", "180109.882500", "180110.342500", "180110.802500", "180111.262500", "180111.722500", "180112.182500"],
