{
  "AcquisitionMatrixPE": 82,
  "AcquisitionNumber": 1,
  "AcquisitionTime": "18:29:0.507500",
  "BandwidthPerPixelPhaseEncode": 24.888,
  "BaseResolution": 82,
  "BodyPartExamined": "BRAIN",
  "ConsistencyInfo": "N4_VE11E_LATEST_20181129",
  "ConversionSoftware": "dcm2niix",
  "ConversionSoftwareVersion": "v1.0.20201102",
  "DerivedVendorReportedEchoSpacing": 0.00049,
  "DeviceSerialNumber": "66112",
  "DwellTime": 2e-06,
  "EchoTime": 0.0272,
  "EchoTrainLength": 82,
  "EffectiveEchoSpacing": 0.00049,
  "FlipAngle": 44,
  "ImageComments": "Unaliased MB8/PE3",
  "ImageOrientationPatientDICOM": [0.999853, -0.0151661, -0.00804465, 0.0160561, 0.991966, 0.125485],
  "ImageType": [
    "ORIGINAL",
    "PRIMARY",
    "M",
    "MB",
    "ND",
    "NORM",
    "MOSAIC"
],
  "ImagingFrequency": 123.259,
  "InPlanePhaseEncodingDirectionDICOM": "COL",
  "InstitutionAddress": "Maynard 3,Hanover,NH,US,03755",
  "InstitutionName": "Dartmouth College - PBS",
  "InstitutionalDepartmentName": "Department",
  "MRAcquisitionType": "2D",
  "MagneticFieldStrength": 3,
  "Manufacturer": "Siemens",
  "ManufacturersModelName": "Prisma",
  "Modality": "MR",
  "MultibandAccelerationFactor": 8,
  "PartialFourier": 1,
  "PatientPosition": "HFS",
  "PercentPhaseFOV": 100,
  "PercentSampling": 100,
  "PhaseEncodingDirection": "j-",
  "PhaseEncodingSteps": 82,
  "PhaseResolution": 1,
  "PixelBandwidth": 3050,
  "ProcedureStepDescription": "Wager_Wager^1076_spacetop",
  "ProtocolName": "func_run-02_task-alignvideo_acq-ap-mb8",
  "PulseSequenceDetails": "%CustomerSeq%\\cmrr_mbep2d_bold",
  "ReceiveCoilActiveElements": "HEA;HEP",
  "ReceiveCoilName": "Head_32",
  "ReconMatrixPE": 82,
  "RepetitionTime": 0.46,
  "SAR": 0.0923414,
  "ScanOptions": "FS",
  "ScanningSequence": "EP",
  "SequenceName": "epfid2d1_82",
  "SequenceVariant": "SK\\SS",
  "SeriesDescription": "func_run-02_task-alignvideo_acq-ap-mb8",
  "SeriesNumber": 32,
  "ShimSetting": [4221, -7803, -7218, 433, -115, -124, -7, 59],
  "SliceThickness": 2.7,
  "SliceTiming": [0, 0.25, 0.0625, 0.315, 0.125, 0.3775, 0.1875, 0, 0.25, 0.0625, 0.315, 0.125, 0.3775, 0.1875, 0, 0.25, 0.0625, 0.315, 0.125, 0.3775, 0.1875, 0, 0.25, 0.0625, 0.315, 0.125, 0.3775, 0.1875, 0, 0.25, 0.0625, 0.315, 0.125, 0.3775, 0.1875, 0, 0.25, 0.0625, 0.315, 0.125, 0.3775, 0.1875, 0, 0.25, 0.0625, 0.315, 0.125, 0.3775, 0.1875, 0, 0.25, 0.0625, 0.315, 0.125, 0.3775, 0.1875],
  "SoftwareVersions": "syngo MR E11",
  "SpacingBetweenSlices": 2.7,
  "StationName": "AWP66112",
  "TaskName": "alignvideo",
  "TotalReadoutTime": 0.03969,
  "TxRefAmp": 230.982,
  "WipMemBlock": "027997be-29da-4493-90fd-5ecce318a31c||Sequence: R016 ve11e/master r/434b28f1; Aug  7 2019 18:53:46 by eja",
  "dcmmeta_affine": [
    [-2.6825315952301025, 0.04307729750871658, -0.016407649964094162, 109.96000671386719],
    [0.04068950191140175, 2.6613712310791016, 0.3391071856021881, -116.8852767944336],
    [-0.021583212539553642, -0.3366659879684448, 2.678569793701172, -52.639278411865234],
    [0.0, 0.0, 0.0, 1.0]
],
  "dcmmeta_reorient_transform": [
    [0.0, -1.0, 0.0, 81.0],
    [1.0, 0.0, 0.0, 0.0],
    [0.0, 0.0, 1.0, 0.0],
    [0.0, 0.0, 0.0, 1.0]
],
  "dcmmeta_shape": [82, 82, 56, 926],
  "dcmmeta_slice_dim": 2,
  "dcmmeta_version": 0.6,
  "global": {
    "const": {
      "AccessionNumber": "A004834",
      "AcquisitionMatrix": [82, 0, 0, 82],
      "AngioFlag": "N",
      "BitsAllocated": 16,
      "BitsStored": 16,
      "BodyPartExamined": "BRAIN",
      "Columns": 656,
      "EchoNumbers": 1,
      "EchoTime": 27.2,
      "EchoTrainLength": 82,
      "FlipAngle": 44.0,
      "HighBit": 15,
      "ImageOrientationPatient": [0.99985262583994, -0.0151660866135, -0.0080446515034, 0.01605608277744, 0.99196563440751, 0.125484590131],
      "ImagePositionPatient": [-895.69899055148, -850.82146606626, -170.33797792401],
      "ImageType": [
        "ORIGINAL",
        "PRIMARY",
        "M",
        "MB",
        "ND",
        "NORM",
        "MOSAIC"
],
      "ImagedNucleus": "1H",
      "ImagingFrequency": 123.259092,
      "InPlanePhaseEncodingDirection": "COL",
      "MRAcquisitionType": "2D",
      "MagneticFieldStrength": 3.0,
      "Manufacturer": "SIEMENS",
      "ManufacturerModelName": "Prisma",
      "Modality": "MR",
      "NumberOfAverages": 1.0,
      "NumberOfPhaseEncodingSteps": 82,
      "PercentPhaseFieldOfView": 100.0,
      "PercentSampling": 100.0,
      "PerformedProcedureStepStartTime": "164516.605000",
      "PhotometricInterpretation": "MONOCHROME2",
      "PixelBandwidth": 3050.0,
      "PixelRepresentation": 0,
      "PixelSpacing": [2.6829268932343, 2.6829268932343],
      "ProtocolName": "func_run-02_task-alignvideo_acq-ap-mb8",
      "RepetitionTime": 460.0,
      "Rows": 656,
      "SAR": 0.09234140836655,
      "SamplesPerPixel": 1,
      "ScanOptions": "FS",
      "ScanningSequence": "EP",
      "SequenceName": "epfid2d1_82",
      "SequenceVariant": [
        "SK",
        "SS"
],
      "SeriesDescription": "func_run-02_task-alignvideo_acq-ap-mb8",
      "SeriesNumber": 32,
      "SeriesTime": "182919.847000",
      "SliceLocation": -67.569931923161,
      "SliceThickness": 2.7000000476837,
      "SmallestImagePixelValue": 0,
      "SoftwareVersions": "syngo MR E11",
      "SpacingBetweenSlices": 2.6999998919326,
      "SpecificCharacterSet": "ISO_IR 100",
      "StudyID": "1",
      "StudyTime": "164516.543000",
      "TransmitCoilName": "Body",
      "VariableFlipAngleFlag": "N",
      "WindowCenterWidthExplanation": "Algo1"
    },
    "slices": {}
  },
  "time": {
    "samples": {
      "AcquisitionNumber": [1, 2, 3, 4, 5, 6, 7, 8, 9, 10, 11, 12, 13, 14, 15, 16, 17, 18, 19, 20, 21, 22, 23, 24, 25, 26, 27, 28, 29, 30, 31, 32, 33, 34, 35, 36, 37, 38, 39, 40, 41, 42, 43, 44, 45, 46, 47, 48, 49, 50, 51, 52, 53, 54, 55, 56, 57, 58, 59, 60, 61, 62, 63, 64, 65, 66, 67, 68, 69, 70, 71, 72, 73, 74, 75, 76, 77, 78, 79, 80, 81, 82, 83, 84, 85, 86, 87, 88, 89, 90, 91, 92, 93, 94, 95, 96, 97, 98, 99, 100, 101, 102, 103, 104, 105, 106, 107, 108, 109, 110, 111, 112, 113, 114, 115, 116, 117, 118, 119, 120, 121, 122, 123, 124, 125, 126, 127, 128, 129, 130, 131, 132, 133, 134, 135, 136, 137, 138, 139, 140, 141, 142, 143, 144, 145, 146, 147, 148, 149, 150, 151, 152, 153, 154, 155, 156, 157, 158, 159, 160, 161, 162, 163, 164, 165, 166, 167, 168, 169, 170, 171, 172, 173, 174, 175, 176, 177, 178, 179, 180, 181, 182, 183, 184, 185, 186, 187, 188, 189, 190, 191, 192, 193, 194, 195, 196, 197, 198, 199, 200, 201, 202, 203, 204, 205, 206, 207, 208, 209, 210, 211, 212, 213, 214, 215, 216, 217, 218, 219, 220, 221, 222, 223, 224, 225, 226, 227, 228, 229, 230, 231, 232, 233, 234, 235, 236, 237, 238, 239, 240, 241, 242, 243, 244, 245, 246, 247, 248, 249, 250, 251, 252, 253, 254, 255, 256, 257, 258, 259, 260, 261, 262, 263, 264, 265, 266, 267, 268, 269, 270, 271, 272, 273, 274, 275, 276, 277, 278, 279, 280, 281, 282, 283, 284, 285, 286, 287, 288, 289, 290, 291, 292, 293, 294, 295, 296, 297, 298, 299, 300, 301, 302, 303, 304, 305, 306, 307, 308, 309, 310, 311, 312, 313, 314, 315, 316, 317, 318, 319, 320, 321, 322, 323, 324, 325, 326, 327, 328, 329, 330, 331, 332, 333, 334, 335, 336, 337, 338, 339, 340, 341, 342, 343, 344, 345, 346, 347, 348, 349, 350, 351, 352, 353, 354, 355, 356, 357, 358, 359, 360, 361, 362, 363, 364, 365, 366, 367, 368, 369, 370, 371, 372, 373, 374, 375, 376, 377, 378, 379, 380, 381, 382, 383, 384, 385, 386, 387, 388, 389, 390, 391, 392, 393, 394, 395, 396, 397, 398, 399, 400, 401, 402, 403, 404, 405, 406, 407, 408, 409, 410, 411, 412, 413, 414, 415, 416, 417, 418, 419, 420, 421, 422, 423, 424, 425, 426, 427, 428, 429, 430, 431, 432, 433, 434, 435, 436, 437, 438, 439, 440, 441, 442, 443, 444, 445, 446, 447, 448, 449, 450, 451, 452, 453, 454, 455, 456, 457, 458, 459, 460, 461, 462, 463, 464, 465, 466, 467, 468, 469, 470, 471, 472, 473, 474, 475, 476, 477, 478, 479, 480, 481, 482, 483, 484, 485, 486, 487, 488, 489, 490, 491, 492, 493, 494, 495, 496, 497, 498, 499, 500, 501, 502, 503, 504, 505, 506, 507, 508, 509, 510, 511, 512, 513, 514, 515, 516, 517, 518, 519, 520, 521, 522, 523, 524, 525, 526, 527, 528, 529, 530, 531, 532, 533, 534, 535, 536, 537, 538, 539, 540, 541, 542, 543, 544, 545, 546, 547, 548, 549, 550, 551, 552, 553, 554, 555, 556, 557, 558, 559, 560, 561, 562, 563, 564, 565, 566, 567, 568, 569, 570, 571, 572, 573, 574, 575, 576, 577, 578, 579, 580, 581, 582, 583, 584, 585, 586, 587, 588, 589, 590, 591, 592, 593, 594, 595, 596, 597, 598, 599, 600, 601, 602, 603, 604, 605, 606, 607, 608, 609, 610, 611, 612, 613, 614, 615, 616, 617, 618, 619, 620, 621, 622, 623, 624, 625, 626, 627, 628, 629, 630, 631, 632, 633, 634, 635, 636, 637, 638, 639, 640, 641, 642, 643, 644, 645, 646, 647, 648, 649, 650, 651, 652, 653, 654, 655, 656, 657, 658, 659, 660, 661, 662, 663, 664, 665, 666, 667, 668, 669, 670, 671, 672, 673, 674, 675, 676, 677, 678, 679, 680, 681, 682, 683, 684, 685, 686, 687, 688, 689, 690, 691, 692, 693, 694, 695, 696, 697, 698, 699, 700, 701, 702, 703, 704, 705, 706, 707, 708, 709, 710, 711, 712, 713, 714, 715, 716, 717, 718, 719, 720, 721, 722, 723, 724, 725, 726, 727, 728, 729, 730, 731, 732, 733, 734, 735, 736, 737, 738, 739, 740, 741, 742, 743, 744, 745, 746, 747, 748, 749, 750, 751, 752, 753, 754, 755, 756, 757, 758, 759, 760, 761, 762, 763, 764, 765, 766, 767, 768, 769, 770, 771, 772, 773, 774, 775, 776, 777, 778, 779, 780, 781, 782, 783, 784, 785, 786, 787, 788, 789, 790, 791, 792, 793, 794, 795, 796, 797, 798, 799, 800, 801, 802, 803, 804, 805, 806, 807, 808, 809, 810, 811, 812, 813, 814, 815, 816, 817, 818, 819, 820, 821, 822, 823, 824, 825, 826, 827, 828, 829, 830, 831, 832, 833, 834, 835, 836, 837, 838, 839, 840, 841, 842, 843, 844, 845, 846, 847, 848, 849, 850, 851, 852, 853, 854, 855, 856, 857, 858, 859, 860, 861, 862, 863, 864, 865, 866, 867, 868, 869, 870, 871, 872, 873, 874, 875, 876, 877, 878, 879, 880, 881, 882, 883, 884, 885, 886, 887, 888, 889, 890, 891, 892, 893, 894, 895, 896, 897, 898, 899, 900, 901, 902, 903, 904, 905, 906, 907, 908, 909, 910, 911, 912, 913, 914, 915, 916, 917, 918, 919, 920, 921, 922, 923, 924, 925, 926],
      "AcquisitionTime": ["182900.507500", "182900.967500", "182901.427500", "182901.887500", "182902.347500", "182902.807500", "182903.267500", "182903.727500", "182904.187500", "182904.647500", "182905.107500", "182905.567500", "182906.027500", "182906.487500", "182906.947500", "182907.407500", "182907.867500", "182908.327500", "182908.787500", "182909.247500", "182909.707500", "182910.167500", "182910.627500", "182911.087500", "182911.547500", "182912.007500", "182912.467500", "182912.927500", "182913.387500", "182913.847500", "182914.307500", "182914.767500", "182915.227500", "182915.687500", "182916.147500", "182916.607500", "182917.067500", "182917.527500", "182917.987500", "182918.447500", "182918.907500", "182919.367500", "182919.827500", "182920.287500", "182920.747500", "182921.207500", "182921.667500", "182922.127500", "182922.587500", "182923.047500", "182923.507500", "182923.967500", "182924.427500", "182924.887500", "182925.347500", "182925.807500", "182926.267500", "182926.727500", "182927.187500", "182927.647500", "182928.107500", "182928.567500", "182929.027500", "182929.487500", "182929.947500", "182930.407500", "182930.867500", "182931.327500", "182931.787500", "182932.247500", "182932.707500", "182933.167500", "182933.627500", "182934.087500", "182934.547500", "182935.007500", "182935.467500", "182935.927500", "182936.387500", "182936.847500", "182937.307500", "182937.767500", "182938.227500", "182938.687500", "182939.147500", "182939.607500", "182940.067500", "182940.527500", "182940.987500", "182941.447500", "182941.907500", "182942.367500", "182942.827500", "182943.287500", "182943.747500", "182944.207500", "182944.667500", "182945.127500", "182945.587500", "182946.047500", "182946.507500", "182946.967500", "182947.427500", "182947.887500", "182948.347500", "182948.807500", "182949.267500", "182949.727500", "182950.187500", "182950.647500", "182951.107500", "182951.567500", "182952.027500", "182952.487500", "182952.947500", "182953.407500", "182953.867500", "182954.327500", "182954.787500", "182955.247500", "182955.707500", "182956.167500", "182956.627500", "182957.087500", "182957.547500", "182958.007500", "182958.467500", "182958.927500", "182959.387500", "182959.847500", "183000.307500", "183000.767500", "183001.227500", "183001.687500", "183002.147500", "183002.607500", "183003.067500", "183003.527500", "183003.987500", "183004.447500", "183004.907500", "183005.367500", "183005.827500", "183006.287500", "183006.747500", "183007.207500", "183007.667500", "183008.127500", "183008.587500", "183009.047500", "183009.507500", "183009.967500", "183010.427500", "183010.887500", "183011.347500", "183011.807500", "183012.267500", "183012.727500", "183013.187500", "183013.647500", "183014.107500", "183014.567500", "183015.027500", "183015.487500", "183015.947500", "183016.407500", "183016.867500", "183017.327500", "183017.787500", "183018.247500", "183018.707500", "183019.167500", "183019.627500", "183020.087500", "183020.547500", "183021.007500", "183021.467500", "183021.927500", "183022.387500", "183022.847500", "183023.307500", "183023.767500", "183024.227500", "183024.687500", "183025.147500", "183025.607500", "183026.067500", "183026.527500", "183026.987500", "183027.447500", "183027.907500", "183028.367500", "183028.827500", "183029.287500", "183029.747500", "183030.207500", "183030.667500", "183031.127500", "183031.587500", "183032.047500", "183032.507500", "183032.967500", "183033.427500", "183033.887500", "183034.347500", "183034.807500", "183035.267500", "183035.727500", "183036.187500", "183036.647500", "183037.107500", "183037.567500", "183038.027500", "183038.487500", "183038.947500", "183039.407500", "183039.867500", "183040.327500", "183040.787500", "183041.247500", "183041.707500", "183042.167500", "183042.627500", "183043.087500", "183043.547500", "183044.007500", "183044.467500", "183044.927500", "183045.387500", "183045.847500", "183046.307500", "183046.767500", "183047.227500", "183047.687500", "183048.147500", "183048.607500", "183049.067500", "183049.527500", "183049.987500", "183050.447500", "183050.907500", "183051.367500", "183051.827500", "183052.287500", "183052.747500", "183053.207500", "183053.667500", "183054.127500", "183054.587500", "183055.047500", "183055.507500", "183055.967500", "183056.427500", "183056.887500", "183057.347500", "183057.807500", "183058.267500", "183058.727500", "183059.187500", "183059.647500", "183100.107500", "183100.567500", "183101.027500", "183101.487500", "183101.947500", "183102.407500", "183102.867500", "183103.327500", "183103.787500", "183104.247500", "183104.707500", "183105.167500", "183105.627500", "183106.087500", "183106.547500", "183107.007500", "183107.467500", "183107.927500", "183108.387500", "183108.847500", "183109.307500", "183109.767500", "183110.227500", "183110.687500", "183111.147500", "183111.607500", "183112.067500", "183112.527500", "183112.987500", "183113.447500", "183113.907500", "183114.367500", "183114.827500", "183115.287500", "183115.747500", "183116.207500", "183116.667500", "183117.127500", "183117.587500", "183118.047500", "183118.507500", "183118.967500", "183119.427500", "183119.887500", "183120.347500", "183120.807500", "183121.267500", "183121.727500", "183122.187500", "183122.647500", "183123.107500", "183123.567500", "183124.027500", "183124.487500", "183124.947500", "183125.407500", "183125.867500", "183126.327500", "183126.787500", "183127.247500", "183127.707500", "183128.167500", "183128.627500", "183129.087500", "183129.547500", "183130.007500", "183130.467500", "183130.927500", "183131.387500", "183131.847500", "183132.307500", "183132.767500", "183133.227500", "183133.687500", "183134.147500", "183134.607500", "183135.067500", "183135.527500", "183135.987500", "183136.447500", "183136.907500", "183137.367500", "183137.827500", "183138.287500", "183138.747500", "183139.207500", "183139.667500", "183140.127500", "183140.587500", "183141.047500", "183141.507500", "183141.967500", "183142.427500", "183142.887500", "183143.347500", "183143.807500", "183144.267500", "183144.727500", "183145.187500", "183145.647500", "183146.107500", "183146.567500", "183147.027500", "183147.487500", "183147.947500", "183148.407500", "183148.867500", "183149.327500", "183149.787500", "183150.247500", "183150.707500", "183151.167500", "183151.627500", "183152.087500", "183152.547500", "183153.007500", "183153.467500", "183153.927500", "183154.387500", "183154.847500", "183155.307500", "183155.767500", "183156.227500", "183156.687500", "183157.147500", "183157.607500", "183158.067500", "183158.527500", "183158.987500", "183159.447500", "183159.907500", "183200.367500", "183200.827500", "183201.287500", "183201.747500", "183202.207500", "183202.667500", "183203.127500", "183203.587500", "183204.047500", "183204.507500", "183204.967500", "183205.427500", "183205.887500", "183206.347500", "183206.807500", "183207.267500", "183207.727500", "183208.187500", "183208.647500", "183209.107500", "183209.567500", "183210.027500", "183210.487500", "183210.947500", "183211.407500", "183211.867500", "183212.327500", "183212.787500", "183213.247500", "183213.707500", "183214.167500", "183214.627500", "183215.087500", "183215.547500", "183216.007500", "183216.467500", "183216.927500", "183217.387500", "183217.847500", "183218.307500", "183218.767500", "183219.227500", "183219.687500", "183220.147500", "183220.607500", "183221.067500", "183221.527500", "183221.987500", "183222.447500", "183222.907500", "183223.367500", "183223.827500", "183224.287500", "183224.747500", "183225.207500", "183225.667500", "183226.127500", "183226.587500", "183227.047500", "183227.507500", "183227.967500", "183228.427500", "183228.887500", "183229.347500", "183229.807500", "183230.267500", "183230.727500", "183231.187500", "183231.647500", "183232.107500", "183232.567500", "183233.027500", "183233.487500", "183233.947500", "183234.407500", "183234.867500", "183235.327500", "183235.787500", "183236.247500", "183236.707500", "183237.167500", "183237.627500", "183238.087500", "183238.547500", "183239.007500", "183239.467500", "183239.927500", "183240.387500", "183240.847500", "183241.307500", "183241.767500", "183242.227500", "183242.687500", "183243.147500", "183243.607500", "183244.067500", "183244.527500", "183244.987500", "183245.447500", "183245.907500", "183246.367500", "183246.827500", "183247.287500", "183247.747500", "183248.207500", "183248.667500", "183249.127500", "183249.587500", "183250.047500", "183250.507500", "183250.967500", "183251.427500", "183251.887500", "183252.347500", "183252.807500", "183253.267500", "183253.727500", "183254.187500", "183254.647500", "183255.107500", "183255.567500", "183256.027500", "183256.487500", "183256.947500", "183257.407500", "183257.867500", "183258.327500", "183258.787500", "183259.247500", "183259.707500", "183300.167500", "183300.627500", "183301.087500", "183301.547500", "183302.007500", "183302.467500", "183302.927500", "183303.387500", "183303.847500", "183304.307500", "183304.767500", "183305.227500", "183305.687500", "183306.147500", "183306.607500", "183307.067500", "183307.527500", "183307.987500", "183308.447500", "183308.907500", "183309.367500", "183309.827500", "183310.287500", "183310.747500", "183311.207500", "183311.667500", "183312.127500", "183312.587500", "183313.047500", "183313.507500", "183313.967500", "183314.427500", "183314.887500", "183315.347500", "183315.807500", "183316.267500", "183316.727500", "183317.187500", "183317.647500", "183318.107500", "183318.567500", "183319.027500", "183319.487500", "183319.947500", "183320.407500", "183320.867500", "183321.327500", "183321.787500", "183322.247500", "183322.707500", "183323.167500", "183323.627500", "183324.087500", "183324.547500", "183325.007500", "183325.467500", "183325.927500", "183326.387500", "183326.847500", "183327.307500", "183327.767500", "183328.227500", "183328.687500", "183329.147500", "183329.607500", "183330.067500", "183330.527500", "183330.987500", "183331.447500", "183331.907500", "183332.367500", "183332.827500", "183333.287500", "183333.747500", "183334.207500", "183334.667500", "183335.127500", "183335.587500", "183336.047500", "183336.507500", "183336.967500", "183337.427500", "183337.887500", "183338.347500", "183338.807500", "183339.267500", "183339.727500", "183340.187500", "183340.647500", "183341.107500", "183341.567500", "183342.027500", "183342.487500", "183342.947500", "183343.407500", "183343.867500", "183344.327500", "183344.787500", "183345.247500", "183345.707500", "183346.167500", "183346.627500", "183347.087500", "183347.547500", "183348.007500", "183348.467500", "183348.927500", "183349.387500", "183349.847500", "183350.307500", "183350.767500", "183351.227500", "183351.687500", "183352.147500", "183352.607500", "183353.067500", "183353.527500", "183353.987500", "183354.447500", "183354.907500", "183355.367500", "183355.827500", "183356.287500", "183356.747500", "183357.207500", "183357.667500", "183358.127500", "183358.587500", "183359.047500", "183359.507500", "183359.967500", "183400.427500", "183400.887500", "183401.347500", "183401.807500", "183402.267500", "183402.727500", "183403.187500", "183403.647500", "183404.107500", "183404.567500", "183405.027500", "183405.487500", "183405.947500", "183406.407500", "183406.867500", "183407.327500", "183407.787500", "183408.247500", "183408.707500", "183409.167500", "183409.627500", "183410.087500", "183410.547500", "183411.007500", "183411.467500", "183411.927500", "183412.387500", "183412.847500", "183413.307500", "183413.767500", "183414.227500", "183414.687500", "183415.147500", "183415.607500", "183416.067500", "183416.527500", "183416.987500", "183417.447500", "183417.907500", "183418.367500", "183418.827500", "183419.287500", "183419.747500", "183420.207500", "183420.667500", "183421.127500", "183421.587500", "183422.047500", "183422.507500", "183422.967500", "183423.427500", "183423.887500", "183424.347500", "183424.807500", "183425.267500", "183425.727500", "183426.187500", "183426.647500", "183427.107500", "183427.567500", "183428.027500", "183428.487500", "183428.947500", "183429.407500", "183429.867500", "183430.327500", "183430.787500", "183431.247500", "183431.707500", "183432.167500", "183432.627500", "183433.087500", "183433.547500", "183434.007500", "183434.467500", "183434.927500", "183435.387500", "183435.847500", "183436.307500", "183436.767500", "183437.227500", "183437.687500", "183438.147500", "183438.607500", "183439.067500", "183439.527500", "183439.987500", "183440.447500", "183440.907500", "183441.367500", "183441.827500", "183442.287500", "183442.747500", "183443.207500", "183443.667500", "183444.127500", "183444.587500", "183445.047500", "183445.507500", "183445.967500", "183446.427500", "183446.887500", "183447.347500", "183447.807500", "183448.267500", "183448.727500", "183449.187500", "183449.647500", "183450.107500", "183450.567500", "183451.027500", "183451.487500", "183451.947500", "183452.407500", "183452.867500", "183453.327500", "183453.787500", "183454.247500", "183454.707500", "183455.167500", "183455.627500", "183456.087500", "183456.547500", "183457.007500", "183457.467500", "183457.927500", "183458.387500", "183458.847500", "183459.307500", "183459.767500", "183500.227500", "183500.687500", "183501.147500", "183501.607500", "183502.067500", "183502.527500", "183502.987500", "183503.447500", "183503.907500", "183504.367500", "183504.827500", "183505.287500", "183505.747500", "183506.207500", "183506.667500", "183507.127500", "183507.587500", "183508.047500", "183508.507500", "183508.967500", "183509.427500", "183509.887500", "183510.347500", "183510.807500", "183511.267500", "183511.727500", "183512.187500", "183512.647500", "183513.107500", "183513.567500", "183514.027500", "183514.487500", "183514.947500", "183515.407500", "183515.867500", "183516.327500", "183516.787500", "183517.247500", "183517.707500", "183518.167500", "183518.627500", "183519.087500", "183519.547500", "183520.007500", "183520.467500", "183520.927500", "183521.387500", "183521.847500", "183522.307500", "183522.767500", "183523.227500", "183523.687500", "183524.147500", "183524.607500", "183525.067500", "183525.527500", "183525.987500", "183526.447500", "183526.907500", "183527.367500", "183527.827500", "183528.287500", "183528.747500", "183529.207500", "183529.667500", "183530.127500", "183530.587500", "183531.047500", "183531.507500", "183531.967500", "183532.427500", "183532.887500", "183533.347500", "183533.807500", "183534.267500", "183534.727500", "183535.187500", "183535.647500", "183536.107500", "183536.567500", "183537.027500", "183537.487500", "183537.947500", "183538.407500", "183538.867500", "183539.327500", "183539.787500", "183540.247500", "183540.707500", "183541.167500", "183541.627500", "183542.087500", "183542.547500", "183543.007500", "183543.467500", "183543.927500", "183544.387500", "183544.847500", "183545.307500", "183545.767500", "183546.227500", "183546.687500", "183547.147500", "183547.607500", "183548.067500", "183548.527500", "183548.987500", "183549.447500", "183549.907500", "183550.367500", "183550.827500", "183551.287500", "183551.747500", "183552.207500", "183552.667500", "183553.127500", "183553.587500", "183554.047500", "183554.507500", "183554.967500", "183555.427500", "183555.887500", "183556.347500", "183556.807500", "183557.267500", "183557.727500", "183558.187500", "183558.647500", "183559.107500", "183559.567500", "183600.027500", "183600.487500", "183600.947500", "183601.407500", "183601.867500", "183602.327500", "183602.787500", "183603.247500", "183603.707500", "183604.167500", "183604.627500", "183605.087500", "183605.547500", "183606.007500"],
