{
  "AcquisitionMatrixPE": 82,
  "AcquisitionNumber": 1,
  "AcquisitionTime": "09:43:45.355000",
  "BandwidthPerPixelPhaseEncode": 24.888,
  "BaseResolution": 82,
  "BodyPartExamined": "BRAIN",
  "ConsistencyInfo": "N4_VE11E_LATEST_20181129",
  "ConversionSoftware": "dcm2niix",
  "ConversionSoftwareVersion": "v1.0.20201102",
  "DerivedVendorReportedEchoSpacing": 0.00049,
  "DeviceSerialNumber": "66112",
  "DwellTime": 2e-06,
  "EchoTime": 0.0272,
  "EchoTrainLength": 82,
  "EffectiveEchoSpacing": 0.00049,
  "FlipAngle": 44,
  "ImageComments": "Unaliased MB8/PE3",
  "ImageOrientationPatientDICOM": [0.999113, -0.00401156, -0.0419238, 0.0127304, 0.977654, 0.209836],
  "ImageType": [
    "ORIGINAL",
    "PRIMARY",
    "M",
    "MB",
    "ND",
    "NORM",
    "MOSAIC"
],
  "ImagingFrequency": 123.252,
  "InPlanePhaseEncodingDirectionDICOM": "COL",
  "InstitutionAddress": "Maynard 3,Hanover,NH,US,03755",
  "InstitutionName": "Dartmouth College - PBS",
  "InstitutionalDepartmentName": "Department",
  "MRAcquisitionType": "2D",
  "MagneticFieldStrength": 3,
  "Manufacturer": "Siemens",
  "ManufacturersModelName": "Prisma",
  "Modality": "MR",
  "MultibandAccelerationFactor": 8,
  "PartialFourier": 1,
  "PatientPosition": "HFS",
  "PercentPhaseFOV": 100,
  "PercentSampling": 100,
  "PhaseEncodingDirection": "j-",
  "PhaseEncodingSteps": 82,
  "PhaseResolution": 1,
  "PixelBandwidth": 3050,
  "ProcedureStepDescription": "Wager_Wager^1076_spacetop",
  "ProtocolName": "func_run-01_task-alignvideo_acq-ap-mb8",
  "PulseSequenceDetails": "%CustomerSeq%\\cmrr_mbep2d_bold",
  "ReceiveCoilActiveElements": "HEA;HEP",
  "ReceiveCoilName": "Head_32",
  "ReconMatrixPE": 82,
  "RepetitionTime": 0.46,
  "SAR": 0.085881,
  "ScanOptions": "FS",
  "ScanningSequence": "EP",
  "SequenceName": "epfid2d1_82",
  "SequenceVariant": "SK\\SS",
  "SeriesDescription": "func_run-01_task-alignvideo_acq-ap-mb8",
  "SeriesNumber": 20,
  "ShimSetting": [4133, -7750, -7162, 756, -39, -73, 155, 54],
  "SliceThickness": 2.7,
  "SliceTiming": [0, 0.25, 0.0625, 0.315, 0.125, 0.3775, 0.1875, 0, 0.25, 0.0625, 0.315, 0.125, 0.3775, 0.1875, 0, 0.25, 0.0625, 0.315, 0.125, 0.3775, 0.1875, 0, 0.25, 0.0625, 0.315, 0.125, 0.3775, 0.1875, 0, 0.25, 0.0625, 0.315, 0.125, 0.3775, 0.1875, 0, 0.25, 0.0625, 0.315, 0.125, 0.3775, 0.1875, 0, 0.25, 0.0625, 0.315, 0.125, 0.3775, 0.1875, 0, 0.25, 0.0625, 0.315, 0.125, 0.3775, 0.1875],
  "SoftwareVersions": "syngo MR E11",
  "SpacingBetweenSlices": 2.7,
  "StationName": "AWP66112",
  "TaskName": "alignvideo",
  "TotalReadoutTime": 0.03969,
  "TxRefAmp": 232.909,
  "WipMemBlock": "c9b45c77-f94c-498c-a04c-d1f941534134||Sequence: R016 ve11e/master r/434b28f1; Aug  7 2019 18:53:46 by eja",
  "dcmmeta_affine": [
    [-2.680546522140503, 0.034154605120420456, -0.10839201509952545, 111.14048767089844],
    [0.010762713849544525, 2.6229732036590576, 0.5674968361854553, -111.73584747314453],
    [-0.11247850954532623, -0.5629759430885315, 2.637460708618164, -8.634929656982422],
    [0.0, 0.0, 0.0, 1.0]
],
  "dcmmeta_reorient_transform": [
    [0.0, -1.0, 0.0, 81.0],
    [1.0, 0.0, 0.0, 0.0],
    [0.0, 0.0, 1.0, 0.0],
    [0.0, 0.0, 0.0, 1.0]
],
  "dcmmeta_shape": [82, 82, 56, 1073],
  "dcmmeta_slice_dim": 2,
  "dcmmeta_version": 0.6,
  "global": {
    "const": {
      "AccessionNumber": "A004183",
      "AcquisitionMatrix": [82, 0, 0, 82],
      "AngioFlag": "N",
      "BitsAllocated": 16,
      "BitsStored": 16,
      "BodyPartExamined": "BRAIN",
      "Columns": 656,
      "EchoNumbers": 1,
      "EchoTime": 27.2,
      "EchoTrainLength": 82,
      "FlipAngle": 44.0,
      "HighBit": 15,
      "ImageOrientationPatient": [0.9991127572681, -0.0040115567305, -0.0419238079941, 0.01273035233761, 0.97765361342632, 0.20983648463461],
      "ImagePositionPatient": [-893.02622647163, -850.4293818216, -183.52874581964],
      "ImageType": [
        "ORIGINAL",
        "PRIMARY",
        "M",
        "MB",
        "ND",
        "NORM",
        "MOSAIC"
],
      "ImagedNucleus": "1H",
      "ImagingFrequency": 123.252138,
      "InPlanePhaseEncodingDirection": "COL",
      "MRAcquisitionType": "2D",
      "MagneticFieldStrength": 3.0,
      "Manufacturer": "SIEMENS",
      "ManufacturerModelName": "Prisma",
      "Modality": "MR",
      "NumberOfAverages": 1.0,
      "NumberOfPhaseEncodingSteps": 82,
      "PercentPhaseFieldOfView": 100.0,
      "PercentSampling": 100.0,
      "PerformedProcedureStepStartTime": "091302.941000",
      "PhotometricInterpretation": "MONOCHROME2",
      "PixelBandwidth": 3050.0,
      "PixelRepresentation": 0,
      "PixelSpacing": [2.6829268932343, 2.6829268932343],
      "ProtocolName": "func_run-01_task-alignvideo_acq-ap-mb8",
      "RepetitionTime": 460.0,
      "Rows": 656,
      "SAR": 0.08588102735782,
      "SamplesPerPixel": 1,
      "ScanOptions": "FS",
      "ScanningSequence": "EP",
      "SequenceName": "epfid2d1_82",
      "SequenceVariant": [
        "SK",
        "SS"
],
      "SeriesDescription": "func_run-01_task-alignvideo_acq-ap-mb8",
      "SeriesNumber": 20,
      "SeriesTime": "094407.497000",
      "SliceLocation": -36.381766334278,
      "SliceThickness": 2.7000000476837,
      "SmallestImagePixelValue": 0,
      "SoftwareVersions": "syngo MR E11",
      "SpacingBetweenSlices": 2.6999999876504,
      "SpecificCharacterSet": "ISO_IR 100",
      "StudyID": "3",
      "StudyTime": "091302.890000",
      "TransmitCoilName": "Body",
      "VariableFlipAngleFlag": "N",
      "WindowCenterWidthExplanation": "Algo1"
    },
    "slices": {}
  },
  "time": {
    "samples": {
      "AcquisitionNumber": [1, 2, 3, 4, 5, 6, 7, 8, 9, 10, 11, 12, 13, 14, 15, 16, 17, 18, 19, 20, 21, 22, 23, 24, 25, 26, 27, 28, 29, 30, 31, 32, 33, 34, 35, 36, 37, 38, 39, 40, 41, 42, 43, 44, 45, 46, 47, 48, 49, 50, 51, 52, 53, 54, 55, 56, 57, 58, 59, 60, 61, 62, 63, 64, 65, 66, 67, 68, 69, 70, 71, 72, 73, 74, 75, 76, 77, 78, 79, 80, 81, 82, 83, 84, 85, 86, 87, 88, 89, 90, 91, 92, 93, 94, 95, 96, 97, 98, 99, 100, 101, 102, 103, 104, 105, 106, 107, 108, 109, 110, 111, 112, 113, 114, 115, 116, 117, 118, 119, 120, 121, 122, 123, 124, 125, 126, 127, 128, 129, 130, 131, 132, 133, 134, 135, 136, 137, 138, 139, 140, 141, 142, 143, 144, 145, 146, 147, 148, 149, 150, 151, 152, 153, 154, 155, 156, 157, 158, 159, 160, 161, 162, 163, 164, 165, 166, 167, 168, 169, 170, 171, 172, 173, 174, 175, 176, 177, 178, 179, 180, 181, 182, 183, 184, 185, 186, 187, 188, 189, 190, 191, 192, 193, 194, 195, 196, 197, 198, 199, 200, 201, 202, 203, 204, 205, 206, 207, 208, 209, 210, 211, 212, 213, 214, 215, 216, 217, 218, 219, 220, 221, 222, 223, 224, 225, 226, 227, 228, 229, 230, 231, 232, 233, 234, 235, 236, 237, 238, 239, 240, 241, 242, 243, 244, 245, 246, 247, 248, 249, 250, 251, 252, 253, 254, 255, 256, 257, 258, 259, 260, 261, 262, 263, 264, 265, 266, 267, 268, 269, 270, 271, 272, 273, 274, 275, 276, 277, 278, 279, 280, 281, 282, 283, 284, 285, 286, 287, 288, 289, 290, 291, 292, 293, 294, 295, 296, 297, 298, 299, 300, 301, 302, 303, 304, 305, 306, 307, 308, 309, 310, 311, 312, 313, 314, 315, 316, 317, 318, 319, 320, 321, 322, 323, 324, 325, 326, 327, 328, 329, 330, 331, 332, 333, 334, 335, 336, 337, 338, 339, 340, 341, 342, 343, 344, 345, 346, 347, 348, 349, 350, 351, 352, 353, 354, 355, 356, 357, 358, 359, 360, 361, 362, 363, 364, 365, 366, 367, 368, 369, 370, 371, 372, 373, 374, 375, 376, 377, 378, 379, 380, 381, 382, 383, 384, 385, 386, 387, 388, 389, 390, 391, 392, 393, 394, 395, 396, 397, 398, 399, 400, 401, 402, 403, 404, 405, 406, 407, 408, 409, 410, 411, 412, 413, 414, 415, 416, 417, 418, 419, 420, 421, 422, 423, 424, 425, 426, 427, 428, 429, 430, 431, 432, 433, 434, 435, 436, 437, 438, 439, 440, 441, 442, 443, 444, 445, 446, 447, 448, 449, 450, 451, 452, 453, 454, 455, 456, 457, 458, 459, 460, 461, 462, 463, 464, 465, 466, 467, 468, 469, 470, 471, 472, 473, 474, 475, 476, 477, 478, 479, 480, 481, 482, 483, 484, 485, 486, 487, 488, 489, 490, 491, 492, 493, 494, 495, 496, 497, 498, 499, 500, 501, 502, 503, 504, 505, 506, 507, 508, 509, 510, 511, 512, 513, 514, 515, 516, 517, 518, 519, 520, 521, 522, 523, 524, 525, 526, 527, 528, 529, 530, 531, 532, 533, 534, 535, 536, 537, 538, 539, 540, 541, 542, 543, 544, 545, 546, 547, 548, 549, 550, 551, 552, 553, 554, 555, 556, 557, 558, 559, 560, 561, 562, 563, 564, 565, 566, 567, 568, 569, 570, 571, 572, 573, 574, 575, 576, 577, 578, 579, 580, 581, 582, 583, 584, 585, 586, 587, 588, 589, 590, 591, 592, 593, 594, 595, 596, 597, 598, 599, 600, 601, 602, 603, 604, 605, 606, 607, 608, 609, 610, 611, 612, 613, 614, 615, 616, 617, 618, 619, 620, 621, 622, 623, 624, 625, 626, 627, 628, 629, 630, 631, 632, 633, 634, 635, 636, 637, 638, 639, 640, 641, 642, 643, 644, 645, 646, 647, 648, 649, 650, 651, 652, 653, 654, 655, 656, 657, 658, 659, 660, 661, 662, 663, 664, 665, 666, 667, 668, 669, 670, 671, 672, 673, 674, 675, 676, 677, 678, 679, 680, 681, 682, 683, 684, 685, 686, 687, 688, 689, 690, 691, 692, 693, 694, 695, 696, 697, 698, 699, 700, 701, 702, 703, 704, 705, 706, 707, 708, 709, 710, 711, 712, 713, 714, 715, 716, 717, 718, 719, 720, 721, 722, 723, 724, 725, 726, 727, 728, 729, 730, 731, 732, 733, 734, 735, 736, 737, 738, 739, 740, 741, 742, 743, 744, 745, 746, 747, 748, 749, 750, 751, 752, 753, 754, 755, 756, 757, 758, 759, 760, 761, 762, 763, 764, 765, 766, 767, 768, 769, 770, 771, 772, 773, 774, 775, 776, 777, 778, 779, 780, 781, 782, 783, 784, 785, 786, 787, 788, 789, 790, 791, 792, 793, 794, 795, 796, 797, 798, 799, 800, 801, 802, 803, 804, 805, 806, 807, 808, 809, 810, 811, 812, 813, 814, 815, 816, 817, 818, 819, 820, 821, 822, 823, 824, 825, 826, 827, 828, 829, 830, 831, 832, 833, 834, 835, 836, 837, 838, 839, 840, 841, 842, 843, 844, 845, 846, 847, 848, 849, 850, 851, 852, 853, 854, 855, 856, 857, 858, 859, 860, 861, 862, 863, 864, 865, 866, 867, 868, 869, 870, 871, 872, 873, 874, 875, 876, 877, 878, 879, 880, 881, 882, 883, 884, 885, 886, 887, 888, 889, 890, 891, 892, 893, 894, 895, 896, 897, 898, 899, 900, 901, 902, 903, 904, 905, 906, 907, 908, 909, 910, 911, 912, 913, 914, 915, 916, 917, 918, 919, 920, 921, 922, 923, 924, 925, 926, 927, 928, 929, 930, 931, 932, 933, 934, 935, 936, 937, 938, 939, 940, 941, 942, 943, 944, 945, 946, 947, 948, 949, 950, 951, 952, 953, 954, 955, 956, 957, 958, 959, 960, 961, 962, 963, 964, 965, 966, 967, 968, 969, 970, 971, 972, 973, 974, 975, 976, 977, 978, 979, 980, 981, 982, 983, 984, 985, 986, 987, 988, 989, 990, 991, 992, 993, 994, 995, 996, 997, 998, 999, 1000, 1001, 1002, 1003, 1004, 1005, 1006, 1007, 1008, 1009, 1010, 1011, 1012, 1013, 1014, 1015, 1016, 1017, 1018, 1019, 1020, 1021, 1022, 1023, 1024, 1025, 1026, 1027, 1028, 1029, 1030, 1031, 1032, 1033, 1034, 1035, 1036, 1037, 1038, 1039, 1040, 1041, 1042, 1043, 1044, 1045, 1046, 1047, 1048, 1049, 1050, 1051, 1052, 1053, 1054, 1055, 1056, 1057, 1058, 1059, 1060, 1061, 1062, 1063, 1064, 1065, 1066, 1067, 1068, 1069, 1070, 1071, 1072, 1073],
      "AcquisitionTime": ["094345.355000", "094345.815000", "094346.275000", "094346.735000", "094347.195000", "094347.655000", "094348.115000", "094348.575000", "094349.035000", "094349.495000", "094349.955000", "094350.415000", "094350.875000", "094351.335000", "094351.795000", "094352.255000", "094352.715000", "094353.175000", "094353.635000", "094354.095000", "094354.555000", "094355.015000", "094355.475000", "094355.935000", "094356.395000", "094356.855000", "094357.315000", "094357.775000", "094358.235000", "094358.695000", "094359.155000", "094359.615000", "094400.075000", "094400.535000", "094400.995000", "094401.455000", "094401.915000", "094402.375000", "094402.835000", "094403.295000", "094403.755000", "094404.215000", "094404.675000", "094405.135000", "094405.595000", "094406.055000", "094406.515000", "094406.975000", "094407.435000", "094407.895000", "094408.355000", "094408.815000", "094409.275000", "094409.735000", "094410.195000", "094410.655000", "094411.115000", "094411.575000", "094412.035000", "094412.495000", "094412.955000", "094413.415000", "094413.875000", "094414.335000", "094414.795000", "094415.255000", "094415.715000", "094416.175000", "094416.635000", "094417.095000", "094417.555000", "094418.015000", "094418.475000", "094418.935000", "094419.395000", "094419.855000", "094420.315000", "094420.775000", "094421.235000", "094421.695000", "094422.155000", "094422.615000", "094423.075000", "094423.535000", "094423.995000", "094424.455000", "094424.915000", "094425.375000", "094425.835000", "094426.295000", "094426.755000", "094427.215000", "094427.675000", "094428.135000", "094428.595000", "094429.055000", "094429.515000", "094429.975000", "094430.435000", "094430.895000", "094431.355000", "094431.815000", "094432.275000", "094432.735000", "094433.195000", "094433.655000", "094434.115000", "094434.575000", "094435.035000", "094435.495000", "094435.955000", "094436.415000", "094436.875000", "094437.335000", "094437.795000", "094438.255000", "094438.715000", "094439.175000", "094439.635000", "094440.095000", "094440.555000", "094441.015000", "094441.475000", "094441.935000", "094442.395000", "094442.855000", "094443.315000", "094443.775000", "094444.235000", "094444.695000", "094445.155000", "094445.615000", "094446.075000", "094446.535000", "094446.995000", "094447.455000", "094447.915000", "094448.375000", "094448.835000", "094449.295000", "094449.755000", "094450.215000", "094450.675000", "094451.135000", "094451.595000", "094452.055000", "094452.515000", "094452.975000", "094453.435000", "094453.895000", "094454.355000", "094454.815000", "094455.275000", "094455.735000", "094456.195000", "094456.655000", "094457.115000", "094457.575000", "094458.035000", "094458.495000", "094458.955000", "094459.415000", "094459.875000", "094500.335000", "094500.795000", "094501.255000", "094501.715000", "094502.175000", "094502.635000", "094503.095000", "094503.555000", "094504.015000", "094504.475000", "094504.935000", "094505.395000", "094505.855000", "094506.315000", "094506.775000", "094507.235000", "094507.695000", "094508.155000", "094508.615000", "094509.075000", "094509.535000", "094509.995000", "094510.455000", "094510.915000", "094511.375000", "094511.835000", "094512.295000", "094512.755000", "094513.215000", "094513.675000", "094514.135000", "094514.595000", "094515.055000", "094515.515000", "094515.975000", "094516.435000", "094516.895000", "094517.355000", "094517.815000", "094518.275000", "094518.735000", "094519.195000", "094519.655000", "094520.115000", "094520.575000", "094521.035000", "094521.495000", "094521.955000", "094522.415000", "094522.875000", "094523.335000", "094523.795000", "094524.255000", "094524.715000", "094525.175000", "094525.635000", "094526.095000", "094526.555000", "094527.015000", "094527.475000", "094527.935000", "094528.395000", "094528.855000", "094529.315000", "094529.775000", "094530.235000", "094530.695000", "094531.155000", "094531.615000", "094532.075000", "094532.535000", "094532.995000", "094533.455000", "094533.915000", "094534.375000", "094534.835000", "094535.295000", "094535.755000", "094536.215000", "094536.675000", "094537.135000", "094537.595000", "094538.055000", "094538.515000", "094538.975000", "094539.435000", "094539.895000", "094540.355000", "094540.815000", "094541.275000", "094541.735000", "094542.195000", "094542.655000", "094543.115000", "094543.575000", "094544.035000", "094544.495000", "094544.955000", "094545.415000", "094545.875000", "094546.335000", "094546.795000", "094547.255000", "094547.715000", "094548.175000", "094548.635000", "094549.095000", "094549.555000", "094550.015000", "094550.475000", "094550.935000", "094551.395000", "094551.855000", "094552.315000", "094552.775000", "094553.235000", "094553.695000", "094554.155000", "094554.615000", "094555.075000", "094555.535000", "094555.995000", "094556.455000", "094556.915000", "094557.375000", "094557.835000", "094558.295000", "094558.755000", "094559.215000", "094559.675000", "094600.135000", "094600.595000", "094601.055000", "094601.515000", "094601.975000", "094602.435000", "094602.895000", "094603.355000", "094603.815000", "094604.275000", "094604.735000", "094605.195000", "094605.655000", "094606.115000", "094606.575000", "094607.035000", "094607.495000", "094607.955000", "094608.415000", "094608.875000", "094609.335000", "094609.795000", "094610.255000", "094610.715000", "094611.175000", "094611.635000", "094612.095000", "094612.555000", "094613.015000", "094613.475000", "094613.935000", "094614.395000", "094614.855000", "094615.315000", "094615.775000", "094616.235000", "094616.695000", "094617.155000", "094617.615000", "094618.075000", "094618.535000", "094618.995000", "094619.455000", "094619.915000", "094620.375000", "094620.835000", "094621.295000", "094621.755000", "094622.215000", "094622.675000", "094623.135000", "094623.595000", "094624.055000", "094624.515000", "094624.975000", "094625.435000", "094625.895000", "094626.355000", "094626.815000", "094627.275000", "094627.735000", "094628.195000", "094628.655000", "094629.115000", "094629.575000", "094630.035000", "094630.495000", "094630.955000", "094631.415000", "094631.875000", "094632.335000", "094632.795000", "094633.255000", "094633.715000", "094634.175000", "094634.635000", "094635.095000", "094635.555000", "094636.015000", "094636.475000", "094636.935000", "094637.395000", "094637.855000", "094638.315000", "094638.775000", "094639.235000", "094639.695000", "094640.155000", "094640.615000", "094641.075000", "094641.535000", "094641.995000", "094642.455000", "094642.915000", "094643.375000", "094643.835000", "094644.295000", "094644.755000", "094645.215000", "094645.675000", "094646.135000", "094646.595000", "094647.055000", "094647.515000", "094647.975000", "094648.435000", "094648.895000", "094649.355000", "094649.815000", "094650.275000", "094650.735000", "094651.195000", "094651.655000", "094652.115000", "094652.575000", "094653.035000", "094653.495000", "094653.955000", "094654.415000", "094654.875000", "094655.335000", "094655.795000", "094656.255000", "094656.715000", "094657.175000", "094657.635000", "094658.095000", "094658.555000", "094659.015000", "094659.475000", "094659.935000", "094700.395000", "094700.855000", "094701.315000", "094701.775000", "094702.235000", "094702.695000", "094703.155000", "094703.615000", "094704.075000", "094704.535000", "094704.995000", "094705.455000", "094705.915000", "094706.375000", "094706.835000", "094707.295000", "094707.755000", "094708.215000", "094708.675000", "094709.135000", "094709.595000", "094710.055000", "094710.515000", "094710.975000", "094711.435000", "094711.895000", "094712.355000", "094712.815000", "094713.275000", "094713.735000", "094714.195000", "094714.655000", "094715.115000", "094715.575000", "094716.035000", "094716.495000", "094716.955000", "094717.415000", "094717.875000", "094718.335000", "094718.795000", "094719.255000", "094719.715000", "094720.175000", "094720.635000", "094721.095000", "094721.555000", "094722.015000", "094722.475000", "094722.935000", "094723.395000", "094723.855000", "094724.315000", "094724.775000", "094725.235000", "094725.695000", "094726.155000", "094726.615000", "094727.075000", "094727.535000", "094727.995000", "094728.455000", "094728.915000", "094729.375000", "094729.835000", "094730.295000", "094730.755000", "094731.215000", "094731.675000", "094732.135000", "094732.595000", "094733.055000", "094733.515000", "094733.975000", "094734.435000", "094734.895000", "094735.355000", "094735.815000", "094736.275000", "094736.735000", "094737.195000", "094737.655000", "094738.115000", "094738.575000", "094739.035000", "094739.495000", "094739.955000", "094740.415000", "094740.875000", "094741.335000", "094741.795000", "094742.255000", "094742.715000", "094743.175000", "094743.635000", "094744.095000", "094744.555000", "094745.015000", "094745.475000", "094745.935000", "094746.395000", "094746.855000", "094747.315000", "094747.775000", "094748.235000", "094748.695000", "094749.155000", "094749.615000", "094750.075000", "094750.535000", "094750.995000", "094751.455000", "094751.915000", "094752.375000", "094752.835000", "094753.295000", "094753.755000", "094754.215000", "094754.675000", "094755.135000", "094755.595000", "094756.055000", "094756.515000", "094756.975000", "094757.435000", "094757.895000", "094758.355000", "094758.815000", "094759.275000", "094759.735000", "094800.195000", "094800.655000", "094801.115000", "094801.575000", "094802.035000", "094802.495000", "094802.955000", "094803.415000", "094803.875000", "094804.335000", "094804.795000", "094805.255000", "094805.715000", "094806.175000", "094806.635000", "094807.095000", "094807.555000", "094808.015000", "094808.475000", "094808.935000", "094809.395000", "094809.855000", "094810.315000", "094810.775000", "094811.235000", "094811.695000", "094812.155000", "094812.615000", "094813.075000", "094813.535000", "094813.995000", "094814.455000", "094814.915000", "094815.375000", "094815.835000", "094816.295000", "094816.755000", "094817.215000", "094817.675000", "094818.135000", "094818.595000", "094819.055000", "094819.515000", "094819.975000", "094820.435000", "094820.895000", "094821.355000", "094821.815000", "094822.275000", "094822.735000", "094823.195000", "094823.655000", "094824.115000", "094824.575000", "094825.035000", "094825.495000", "094825.955000", "094826.415000", "094826.875000", "094827.335000", "094827.795000", "094828.255000", "094828.715000", "094829.175000", "094829.635000", "094830.095000", "094830.555000", "094831.015000", "094831.475000", "094831.935000", "094832.395000", "094832.855000", "094833.315000", "094833.775000", "094834.235000", "094834.695000", "094835.155000", "094835.615000", "094836.075000", "094836.535000", "094836.995000", "094837.455000", "094837.915000", "094838.375000", "094838.835000", "094839.295000", "094839.755000", "094840.215000", "094840.675000", "094841.135000", "094841.595000", "094842.055000", "094842.515000", "094842.975000", "094843.435000", "094843.895000", "094844.355000", "094844.815000", "094845.275000", "094845.735000", "094846.195000", "094846.655000", "094847.115000", "094847.575000", "094848.035000", "094848.495000", "094848.955000", "094849.415000", "094849.875000", "094850.335000", "094850.795000", "094851.255000", "094851.715000", "094852.175000", "094852.635000", "094853.095000", "094853.555000", "094854.015000", "094854.475000", "094854.935000", "094855.395000", "094855.855000", "094856.315000", "094856.775000", "094857.235000", "094857.695000", "094858.155000", "094858.615000", "094859.075000", "094859.535000", "094859.995000", "094900.455000", "094900.915000", "094901.375000", "094901.835000", "094902.295000", "094902.755000", "094903.215000", "094903.675000", "094904.135000", "094904.595000", "094905.055000", "094905.515000", "094905.975000", "094906.435000", "094906.895000", "094907.355000", "094907.815000", "094908.275000", "094908.735000", "094909.195000", "094909.655000", "094910.115000", "094910.575000", "094911.035000", "094911.495000", "094911.955000", "094912.415000", "094912.875000", "094913.335000", "094913.795000", "094914.255000", "094914.715000", "094915.175000", "094915.635000", "094916.095000", "094916.555000", "094917.015000", "094917.475000", "094917.935000", "094918.395000", "094918.855000", "094919.315000", "094919.775000", "094920.235000", "094920.695000", "094921.155000", "094921.615000", "094922.075000", "094922.535000", "094922.995000", "094923.455000", "094923.915000", "094924.375000", "094924.835000", "094925.295000", "094925.755000", "094926.215000", "094926.675000", "094927.135000", "094927.595000", "094928.055000", "094928.515000", "094928.975000", "094929.435000", "094929.895000", "094930.355000", "094930.815000", "094931.275000", "094931.735000", "094932.195000", "094932.655000", "094933.115000", "094933.575000", "094934.035000", "094934.495000", "094934.955000", "094935.415000", "094935.875000", "094936.335000", "094936.795000", "094937.255000", "094937.715000", "094938.175000", "094938.635000", "094939.095000", "094939.555000", "094940.015000", "094940.475000", "094940.935000", "094941.395000", "094941.855000", "094942.315000", "094942.775000", "094943.235000", "094943.695000", "094944.155000", "094944.615000", "094945.075000", "094945.535000", "094945.995000", "094946.455000", "094946.915000", "094947.375000", "094947.835000", "094948.295000", "094948.755000", "094949.215000", "094949.675000", "094950.135000", "094950.595000", "094951.055000", "094951.515000", "094951.975000", "094952.435000", "094952.895000", "094953.355000", "094953.815000", "094954.275000", "094954.735000", "094955.195000", "094955.655000", "094956.115000", "094956.575000", "094957.035000", "094957.495000", "094957.955000", "094958.415000", "094958.875000", "094959.335000", "094959.795000", "095000.255000", "095000.715000", "095001.175000", "095001.635000", "095002.095000", "095002.555000", "095003.015000", "095003.475000", "095003.935000", "095004.395000", "095004.855000", "095005.315000", "095005.775000", "095006.235000", "095006.695000", "095007.155000", "095007.615000", "095008.075000", "095008.535000", "095008.995000", "095009.455000", "095009.915000", "095010.375000", "095010.835000", "095011.295000", "095011.755000", "095012.215000", "095012.675000", "095013.135000", "095013.595000", "095014.055000", "095014.515000", "095014.975000", "095015.435000", "095015.895000", "095016.355000", "095016.815000", "095017.275000", "095017.735000", "095018.195000", "095018.655000", "095019.115000", "095019.575000", "095020.035000", "095020.495000", "095020.955000", "095021.415000", "095021.875000", "095022.335000", "095022.795000", "095023.255000", "095023.715000", "095024.175000", "095024.635000", "095025.095000", "095025.555000", "095026.015000", "095026.475000", "095026.935000", "095027.395000", "095027.855000", "095028.315000", "095028.775000", "095029.235000", "095029.695000", "095030.155000", "095030.615000", "095031.075000", "095031.535000", "095031.995000", "095032.455000", "095032.915000", "095033.375000", "095033.835000", "095034.295000", "095034.755000", "095035.215000", "095035.675000", "095036.135000", "095036.595000", "095037.055000", "095037.515000", "095037.975000", "095038.435000", "095038.895000", "095039.355000", "095039.815000", "095040.275000", "095040.735000", "095041.195000", "095041.655000", "095042.115000", "095042.575000", "095043.035000", "095043.495000", "095043.955000", "095044.415000", "095044.875000", "095045.335000", "095045.795000", "095046.255000", "095046.715000", "095047.175000", "095047.635000", "095048.095000", "095048.555000", "095049.015000", "095049.475000", "095049.935000", "095050.395000", "095050.855000", "095051.315000", "095051.775000", "095052.235000", "095052.695000", "095053.155000", "095053.615000", "095054.075000", "095054.535000", "095054.995000", "095055.455000", "095055.915000", "095056.375000", "095056.835000", "095057.295000", "095057.755000", "095058.215000", "095058.675000", "095059.135000", "095059.595000", "095100.055000", "095100.515000", "095100.975000", "095101.435000", "095101.895000", "095102.355000", "095102.815000", "095103.275000", "095103.735000", "095104.195000", "095104.655000", "095105.115000", "095105.575000", "095106.035000", "095106.495000", "095106.955000", "095107.415000", "095107.875000", "095108.335000", "095108.795000", "095109.255000", "095109.715000", "095110.175000", "095110.635000", "095111.095000", "095111.555000", "095112.015000", "095112.475000", "095112.935000", "095113.395000", "095113.855000", "095114.315000", "095114.775000", "095115.235000", "095115.695000", "095116.155000", "095116.615000", "095117.075000", "095117.535000", "095117.995000", "095118.455000", "095118.915000", "095119.375000", "095119.835000", "095120.295000", "095120.755000", "095121.215000", "095121.675000", "095122.135000", "095122.595000", "095123.055000", "095123.515000", "095123.975000", "095124.435000", "095124.895000", "095125.355000", "095125.815000", "095126.275000", "095126.735000", "095127.195000", "095127.655000", "095128.115000", "095128.575000", "095129.035000", "095129.495000", "095129.955000", "095130.415000", "095130.875000", "095131.335000", "095131.795000", "095132.255000", "095132.715000", "095133.175000", "095133.635000", "095134.095000", "095134.555000", "095135.015000", "095135.475000", "095135.935000", "095136.395000", "095136.855000", "095137.315000", "095137.775000", "095138.235000", "095138.695000", "095139.155000", "095139.615000", "095140.075000", "095140.535000", "095140.995000", "095141.455000", "095141.915000", "095142.375000", "095142.835000", "095143.295000", "095143.755000", "095144.215000", "095144.675000", "095145.135000", "095145.595000", "095146.055000", "095146.515000", "095146.975000", "095147.435000", "095147.895000", "095148.355000", "095148.815000", "095149.275000", "095149.735000", "095150.195000", "095150.655000", "095151.115000", "095151.575000", "095152.035000", "095152.495000", "095152.955000", "095153.415000", "095153.875000", "095154.335000", "095154.795000", "095155.255000", "095155.715000", "095156.175000", "095156.635000", "095157.095000", "095157.555000", "095158.015000", "095158.475000"],
