{
  "AcquisitionMatrixPE": 82,
  "AcquisitionNumber": 1,
  "AcquisitionTime": "14:48:15.197500",
  "BandwidthPerPixelPhaseEncode": 24.888,
  "BaseResolution": 82,
  "BodyPartExamined": "BRAIN",
  "ConsistencyInfo": "N4_VE11E_LATEST_20181129",
  "ConversionSoftware": "dcm2niix",
  "ConversionSoftwareVersion": "v1.0.20201102",
  "DerivedVendorReportedEchoSpacing": 0.00049,
  "DeviceSerialNumber": "66112",
  "DwellTime": 2e-06,
  "EchoTime": 0.0272,
  "EchoTrainLength": 82,
  "EffectiveEchoSpacing": 0.00049,
  "FlipAngle": 44,
  "ImageComments": "Unaliased MB8/PE3",
  "ImageOrientationPatientDICOM": [0.999782, -0.0118807, 0.0171575, 0.0137859, 0.993203, -0.115574],
  "ImageType": [
    "ORIGINAL",
    "PRIMARY",
    "M",
    "MB",
    "ND",
    "NORM",
    "MOSAIC"
],
  "ImagingFrequency": 123.252,
  "InPlanePhaseEncodingDirectionDICOM": "COL",
  "InstitutionAddress": "Maynard 3,Hanover,NH,US,03755",
  "InstitutionName": "Dartmouth College - PBS",
  "InstitutionalDepartmentName": "Department",
  "MRAcquisitionType": "2D",
  "MagneticFieldStrength": 3,
  "Manufacturer": "Siemens",
  "ManufacturersModelName": "Prisma",
  "Modality": "MR",
  "MultibandAccelerationFactor": 8,
  "PartialFourier": 1,
  "PatientPosition": "HFS",
  "PercentPhaseFOV": 100,
  "PercentSampling": 100,
  "PhaseEncodingDirection": "j-",
  "PhaseEncodingSteps": 82,
  "PhaseResolution": 1,
  "PixelBandwidth": 3050,
  "ProcedureStepDescription": "Wager_Wager^1076_spacetop",
  "ProtocolName": "func_run-04_task-narratives_acq-ap-mb8",
  "PulseSequenceDetails": "%CustomerSeq%\\cmrr_mbep2d_bold",
  "ReceiveCoilActiveElements": "HEA;HEP",
  "ReceiveCoilName": "Head_32",
  "ReconMatrixPE": 82,
  "RepetitionTime": 0.46,
  "SAR": 0.109532,
  "ScanOptions": "FS",
  "ScanningSequence": "EP",
  "SequenceName": "epfid2d1_82",
  "SequenceVariant": "SK\\SS",
  "SeriesDescription": "func_run-04_task-narratives_acq-ap-mb8",
  "SeriesNumber": 14,
  "ShimSetting": [4169, -7698, -7286, 578, 34, -204, -108, 49],
  "SliceThickness": 2.7,
  "SliceTiming": [0, 0.25, 0.0625, 0.3125, 0.125, 0.375, 0.1875, 0, 0.25, 0.0625, 0.3125, 0.125, 0.375, 0.1875, 0, 0.25, 0.0625, 0.3125, 0.125, 0.375, 0.1875, 0, 0.25, 0.0625, 0.3125, 0.125, 0.375, 0.1875, 0, 0.25, 0.0625, 0.3125, 0.125, 0.375, 0.1875, 0, 0.25, 0.0625, 0.3125, 0.125, 0.375, 0.1875, 0, 0.25, 0.0625, 0.3125, 0.125, 0.375, 0.1875, 0, 0.25, 0.0625, 0.3125, 0.125, 0.375, 0.1875],
  "SoftwareVersions": "syngo MR E11",
  "SpacingBetweenSlices": 2.7,
  "StationName": "AWP66112",
  "TaskName": "narratives",
  "TotalReadoutTime": 0.03969,
  "TxRefAmp": 267.983,
  "WipMemBlock": "0dc8a759-5315-4709-af98-7ee6df43913b||Sequence: R016 ve11e/master r/434b28f1; Aug  7 2019 18:53:46 by eja",
  "dcmmeta_affine": [
    [-2.682342529296875, 0.03698668256402016, 0.042303018271923065, 108.90526580810547],
    [0.031875111162662506, 2.66469144821167, -0.3126218020915985, -77.8720703125],
    [0.04603234678506851, 0.3100779056549072, 2.681506633758545, -98.45697021484375],
    [0.0, 0.0, 0.0, 1.0]
],
  "dcmmeta_reorient_transform": [
    [0.0, -1.0, 0.0, 81.0],
    [1.0, 0.0, 0.0, 0.0],
    [0.0, 0.0, 1.0, 0.0],
    [0.0, 0.0, 0.0, 1.0]
],
  "dcmmeta_shape": [82, 82, 56, 1126],
  "dcmmeta_slice_dim": 2,
  "dcmmeta_version": 0.6,
  "global": {
    "const": {
      "AccessionNumber": "A003909",
      "AcquisitionMatrix": [82, 0, 0, 82],
      "AngioFlag": "N",
      "BitsAllocated": 16,
      "BitsStored": 16,
      "BodyPartExamined": "BRAIN",
      "Columns": 656,
      "EchoNumbers": 1,
      "EchoTime": 27.2,
      "EchoTrainLength": 82,
      "FlipAngle": 44.0,
      "HighBit": 15,
      "ImageOrientationPatient": [0.9997822104164, -0.0118807231577, 0.01715751008013, 0.01378594448249, 0.99320314402996, -0.1155744886371],
      "ImagePositionPatient": [-892.34868710523, -893.58621761609, 2.4404164005484],
      "ImageType": [
        "ORIGINAL",
        "PRIMARY",
        "M",
        "MB",
        "ND",
        "NORM",
        "MOSAIC"
],
      "ImagedNucleus": "1H",
      "ImagingFrequency": 123.252258,
      "InPlanePhaseEncodingDirection": "COL",
      "MRAcquisitionType": "2D",
      "MagneticFieldStrength": 3.0,
      "Manufacturer": "SIEMENS",
      "ManufacturerModelName": "Prisma",
      "Modality": "MR",
      "NumberOfAverages": 1.0,
      "NumberOfPhaseEncodingSteps": 82,
      "PercentPhaseFieldOfView": 100.0,
      "PercentSampling": 100.0,
      "PerformedProcedureStepStartTime": "141312.028000",
      "PhotometricInterpretation": "MONOCHROME2",
      "PixelBandwidth": 3050.0,
      "PixelRepresentation": 0,
      "PixelSpacing": [2.6829268932343, 2.6829268932343],
      "ProtocolName": "func_run-04_task-narratives_acq-ap-mb8",
      "RepetitionTime": 460.0,
      "Rows": 656,
      "SAR": 0.10953199073761,
      "SamplesPerPixel": 1,
      "ScanOptions": "FS",
      "ScanningSequence": "EP",
      "SequenceName": "epfid2d1_82",
      "SequenceVariant": [
        "SK",
        "SS"
],
      "SeriesDescription": "func_run-04_task-narratives_acq-ap-mb8",
      "SeriesNumber": 14,
      "SeriesTime": "144834.714000",
      "SliceLocation": -87.059811981755,
      "SliceThickness": 2.7000000476837,
      "SmallestImagePixelValue": 0,
      "SoftwareVersions": "syngo MR E11",
      "SpacingBetweenSlices": 2.7000000172165,
      "SpecificCharacterSet": "ISO_IR 100",
      "StudyID": "2",
      "StudyTime": "141311.948000",
      "TransmitCoilName": "Body",
      "VariableFlipAngleFlag": "N",
      "WindowCenterWidthExplanation": "Algo1"
    },
    "slices": {}
  },
  "time": {
    "samples": {
      "AcquisitionNumber": [1, 2, 3, 4, 5, 6, 7, 8, 9, 10, 11, 12, 13, 14, 15, 16, 17, 18, 19, 20, 21, 22, 23, 24, 25, 26, 27, 28, 29, 30, 31, 32, 33, 34, 35, 36, 37, 38, 39, 40, 41, 42, 43, 44, 45, 46, 47, 48, 49, 50, 51, 52, 53, 54, 55, 56, 57, 58, 59, 60, 61, 62, 63, 64, 65, 66, 67, 68, 69, 70, 71, 72, 73, 74, 75, 76, 77, 78, 79, 80, 81, 82, 83, 84, 85, 86, 87, 88, 89, 90, 91, 92, 93, 94, 95, 96, 97, 98, 99, 100, 101, 102, 103, 104, 105, 106, 107, 108, 109, 110, 111, 112, 113, 114, 115, 116, 117, 118, 119, 120, 121, 122, 123, 124, 125, 126, 127, 128, 129, 130, 131, 132, 133, 134, 135, 136, 137, 138, 139, 140, 141, 142, 143, 144, 145, 146, 147, 148, 149, 150, 151, 152, 153, 154, 155, 156, 157, 158, 159, 160, 161, 162, 163, 164, 165, 166, 167, 168, 169, 170, 171, 172, 173, 174, 175, 176, 177, 178, 179, 180, 181, 182, 183, 184, 185, 186, 187, 188, 189, 190, 191, 192, 193, 194, 195, 196, 197, 198, 199, 200, 201, 202, 203, 204, 205, 206, 207, 208, 209, 210, 211, 212, 213, 214, 215, 216, 217, 218, 219, 220, 221, 222, 223, 224, 225, 226, 227, 228, 229, 230, 231, 232, 233, 234, 235, 236, 237, 238, 239, 240, 241, 242, 243, 244, 245, 246, 247, 248, 249, 250, 251, 252, 253, 254, 255, 256, 257, 258, 259, 260, 261, 262, 263, 264, 265, 266, 267, 268, 269, 270, 271, 272, 273, 274, 275, 276, 277, 278, 279, 280, 281, 282, 283, 284, 285, 286, 287, 288, 289, 290, 291, 292, 293, 294, 295, 296, 297, 298, 299, 300, 301, 302, 303, 304, 305, 306, 307, 308, 309, 310, 311, 312, 313, 314, 315, 316, 317, 318, 319, 320, 321, 322, 323, 324, 325, 326, 327, 328, 329, 330, 331, 332, 333, 334, 335, 336, 337, 338, 339, 340, 341, 342, 343, 344, 345, 346, 347, 348, 349, 350, 351, 352, 353, 354, 355, 356, 357, 358, 359, 360, 361, 362, 363, 364, 365, 366, 367, 368, 369, 370, 371, 372, 373, 374, 375, 376, 377, 378, 379, 380, 381, 382, 383, 384, 385, 386, 387, 388, 389, 390, 391, 392, 393, 394, 395, 396, 397, 398, 399, 400, 401, 402, 403, 404, 405, 406, 407, 408, 409, 410, 411, 412, 413, 414, 415, 416, 417, 418, 419, 420, 421, 422, 423, 424, 425, 426, 427, 428, 429, 430, 431, 432, 433, 434, 435, 436, 437, 438, 439, 440, 441, 442, 443, 444, 445, 446, 447, 448, 449, 450, 451, 452, 453, 454, 455, 456, 457, 458, 459, 460, 461, 462, 463, 464, 465, 466, 467, 468, 469, 470, 471, 472, 473, 474, 475, 476, 477, 478, 479, 480, 481, 482, 483, 484, 485, 486, 487, 488, 489, 490, 491, 492, 493, 494, 495, 496, 497, 498, 499, 500, 501, 502, 503, 504, 505, 506, 507, 508, 509, 510, 511, 512, 513, 514, 515, 516, 517, 518, 519, 520, 521, 522, 523, 524, 525, 526, 527, 528, 529, 530, 531, 532, 533, 534, 535, 536, 537, 538, 539, 540, 541, 542, 543, 544, 545, 546, 547, 548, 549, 550, 551, 552, 553, 554, 555, 556, 557, 558, 559, 560, 561, 562, 563, 564, 565, 566, 567, 568, 569, 570, 571, 572, 573, 574, 575, 576, 577, 578, 579, 580, 581, 582, 583, 584, 585, 586, 587, 588, 589, 590, 591, 592, 593, 594, 595, 596, 597, 598, 599, 600, 601, 602, 603, 604, 605, 606, 607, 608, 609, 610, 611, 612, 613, 614, 615, 616, 617, 618, 619, 620, 621, 622, 623, 624, 625, 626, 627, 628, 629, 630, 631, 632, 633, 634, 635, 636, 637, 638, 639, 640, 641, 642, 643, 644, 645, 646, 647, 648, 649, 650, 651, 652, 653, 654, 655, 656, 657, 658, 659, 660, 661, 662, 663, 664, 665, 666, 667, 668, 669, 670, 671, 672, 673, 674, 675, 676, 677, 678, 679, 680, 681, 682, 683, 684, 685, 686, 687, 688, 689, 690, 691, 692, 693, 694, 695, 696, 697, 698, 699, 700, 701, 702, 703, 704, 705, 706, 707, 708, 709, 710, 711, 712, 713, 714, 715, 716, 717, 718, 719, 720, 721, 722, 723, 724, 725, 726, 727, 728, 729, 730, 731, 732, 733, 734, 735, 736, 737, 738, 739, 740, 741, 742, 743, 744, 745, 746, 747, 748, 749, 750, 751, 752, 753, 754, 755, 756, 757, 758, 759, 760, 761, 762, 763, 764, 765, 766, 767, 768, 769, 770, 771, 772, 773, 774, 775, 776, 777, 778, 779, 780, 781, 782, 783, 784, 785, 786, 787, 788, 789, 790, 791, 792, 793, 794, 795, 796, 797, 798, 799, 800, 801, 802, 803, 804, 805, 806, 807, 808, 809, 810, 811, 812, 813, 814, 815, 816, 817, 818, 819, 820, 821, 822, 823, 824, 825, 826, 827, 828, 829, 830, 831, 832, 833, 834, 835, 836, 837, 838, 839, 840, 841, 842, 843, 844, 845, 846, 847, 848, 849, 850, 851, 852, 853, 854, 855, 856, 857, 858, 859, 860, 861, 862, 863, 864, 865, 866, 867, 868, 869, 870, 871, 872, 873, 874, 875, 876, 877, 878, 879, 880, 881, 882, 883, 884, 885, 886, 887, 888, 889, 890, 891, 892, 893, 894, 895, 896, 897, 898, 899, 900, 901, 902, 903, 904, 905, 906, 907, 908, 909, 910, 911, 912, 913, 914, 915, 916, 917, 918, 919, 920, 921, 922, 923, 924, 925, 926, 927, 928, 929, 930, 931, 932, 933, 934, 935, 936, 937, 938, 939, 940, 941, 942, 943, 944, 945, 946, 947, 948, 949, 950, 951, 952, 953, 954, 955, 956, 957, 958, 959, 960, 961, 962, 963, 964, 965, 966, 967, 968, 969, 970, 971, 972, 973, 974, 975, 976, 977, 978, 979, 980, 981, 982, 983, 984, 985, 986, 987, 988, 989, 990, 991, 992, 993, 994, 995, 996, 997, 998, 999, 1000, 1001, 1002, 1003, 1004, 1005, 1006, 1007, 1008, 1009, 1010, 1011, 1012, 1013, 1014, 1015, 1016, 1017, 1018, 1019, 1020, 1021, 1022, 1023, 1024, 1025, 1026, 1027, 1028, 1029, 1030, 1031, 1032, 1033, 1034, 1035, 1036, 1037, 1038, 1039, 1040, 1041, 1042, 1043, 1044, 1045, 1046, 1047, 1048, 1049, 1050, 1051, 1052, 1053, 1054, 1055, 1056, 1057, 1058, 1059, 1060, 1061, 1062, 1063, 1064, 1065, 1066, 1067, 1068, 1069, 1070, 1071, 1072, 1073, 1074, 1075, 1076, 1077, 1078, 1079, 1080, 1081, 1082, 1083, 1084, 1085, 1086, 1087, 1088, 1089, 1090, 1091, 1092, 1093, 1094, 1095, 1096, 1097, 1098, 1099, 1100, 1101, 1102, 1103, 1104, 1105, 1106, 1107, 1108, 1109, 1110, 1111, 1112, 1113, 1114, 1115, 1116, 1117, 1118, 1119, 1120, 1121, 1122, 1123, 1124, 1125, 1126],
      "AcquisitionTime": ["144815.197500", "144815.657500", "144816.117500", "144816.577500", "144817.037500", "144817.497500", "144817.957500", "144818.417500", "144818.877500", "144819.337500", "144819.797500", "144820.257500", "144820.717500", "144821.177500", "144821.637500", "144822.097500", "144822.557500", "144823.017500", "144823.477500", "144823.937500", "144824.397500", "144824.857500", "144825.317500", "144825.777500", "144826.237500", "144826.697500", "144827.157500", "144827.617500", "144828.077500", "144828.537500", "144828.997500", "144829.457500", "144829.917500", "144830.377500", "144830.837500", "144831.297500", "144831.757500", "144832.217500", "144832.677500", "144833.137500", "144833.597500", "144834.057500", "144834.517500", "144834.977500", "144835.437500", "144835.897500", "144836.357500", "144836.817500", "144837.277500", "144837.737500", "144838.197500", "144838.657500", "144839.117500", "144839.577500", "144840.037500", "144840.497500", "144840.957500", "144841.417500", "144841.877500", "144842.337500", "144842.797500", "144843.257500", "144843.717500", "144844.177500", "144844.637500", "144845.097500", "144845.557500", "144846.017500", "144846.477500", "144846.937500", "144847.397500", "144847.857500", "144848.317500", "144848.777500", "144849.237500", "144849.697500", "144850.157500", "144850.617500", "144851.077500", "144851.537500", "144851.997500", "144852.457500", "144852.917500", "144853.377500", "144853.837500", "144854.297500", "144854.757500", "144855.217500", "144855.677500", "144856.137500", "144856.597500", "144857.057500", "144857.517500", "144857.977500", "144858.437500", "144858.897500", "144859.357500", "144859.817500", "144900.277500", "144900.737500", "144901.197500", "144901.657500", "144902.117500", "144902.577500", "144903.037500", "144903.497500", "144903.957500", "144904.417500", "144904.877500", "144905.337500", "144905.797500", "144906.257500", "144906.717500", "144907.177500", "144907.637500", "144908.097500", "144908.557500", "144909.017500", "144909.477500", "144909.937500", "144910.397500", "144910.857500", "144911.317500", "144911.777500", "144912.237500", "144912.697500", "144913.157500", "144913.617500", "144914.077500", "144914.537500", "144914.997500", "144915.457500", "144915.917500", "144916.377500", "144916.837500", "144917.297500", "144917.757500", "144918.217500", "144918.677500", "144919.137500", "144919.597500", "144920.057500", "144920.517500", "144920.977500", "144921.437500", "144921.897500", "144922.357500", "144922.817500", "144923.277500", "144923.737500", "144924.197500", "144924.657500", "144925.117500", "144925.577500", "144926.037500", "144926.497500", "144926.957500", "144927.417500", "144927.877500", "144928.337500", "144928.797500", "144929.257500", "144929.717500", "144930.177500", "144930.637500", "144931.097500", "144931.557500", "144932.017500", "144932.477500", "144932.937500", "144933.397500", "144933.857500", "144934.317500", "144934.777500", "144935.237500", "144935.697500", "144936.157500", "144936.617500", "144937.077500", "144937.537500", "144937.997500", "144938.457500", "144938.917500", "144939.377500", "144939.837500", "144940.297500", "144940.757500", "144941.217500", "144941.677500", "144942.137500", "144942.597500", "144943.057500", "144943.517500", "144943.977500", "144944.437500", "144944.897500", "144945.357500", "144945.817500", "144946.277500", "144946.737500", "144947.197500", "144947.657500", "144948.117500", "144948.577500", "144949.037500", "144949.497500", "144949.957500", "144950.417500", "144950.877500", "144951.337500", "144951.797500", "144952.257500", "144952.717500", "144953.177500", "144953.637500", "144954.097500", "144954.557500", "144955.017500", "144955.477500", "144955.937500", "144956.397500", "144956.857500", "144957.317500", "144957.777500", "144958.237500", "144958.697500", "144959.157500", "144959.617500", "145000.077500", "145000.537500", "145000.997500", "145001.457500", "145001.917500", "145002.377500", "145002.837500", "145003.297500", "145003.757500", "145004.217500", "145004.677500", "145005.137500", "145005.597500", "145006.057500", "145006.517500", "145006.977500", "145007.437500", "145007.897500", "145008.357500", "145008.817500", "145009.277500", "145009.737500", "145010.197500", "145010.657500", "145011.117500", "145011.577500", "145012.037500", "145012.497500", "145012.957500", "145013.417500", "145013.877500", "145014.337500", "145014.797500", "145015.257500", "145015.717500", "145016.177500", "145016.637500", "145017.097500", "145017.557500", "145018.017500", "145018.477500", "145018.937500", "145019.397500", "145019.857500", "145020.317500", "145020.777500", "145021.237500", "145021.697500", "145022.157500", "145022.617500", "145023.077500", "145023.537500", "145023.997500", "145024.457500", "145024.917500", "145025.377500", "145025.837500", "145026.297500", "145026.757500", "145027.217500", "145027.677500", "145028.137500", "145028.597500", "145029.057500", "145029.517500", "145029.977500", "145030.437500", "145030.897500", "145031.357500", "145031.817500", "145032.277500", "145032.737500", "145033.197500", "145033.657500", "145034.117500", "145034.577500", "145035.037500", "145035.497500", "145035.957500", "145036.417500", "145036.877500", "145037.337500", "145037.797500", "145038.257500", "145038.717500", "145039.177500", "145039.637500", "145040.097500", "145040.557500", "145041.017500", "145041.477500", "145041.937500", "145042.397500", "145042.857500", "145043.317500", "145043.777500", "145044.237500", "145044.697500", "145045.157500", "145045.617500", "145046.077500", "145046.537500", "145046.997500", "145047.457500", "145047.917500", "145048.377500", "145048.837500", "145049.297500", "145049.757500", "145050.217500", "145050.677500", "145051.137500", "145051.597500", "145052.057500", "145052.517500", "145052.977500", "145053.437500", "145053.897500", "145054.357500", "145054.817500", "145055.277500", "145055.737500", "145056.197500", "145056.657500", "145057.117500", "145057.577500", "145058.037500", "145058.497500", "145058.957500", "145059.417500", "145059.877500", "145100.337500", "145100.797500", "145101.257500", "145101.717500", "145102.177500", "145102.637500", "145103.097500", "145103.557500", "145104.017500", "145104.477500", "145104.937500", "145105.397500", "145105.857500", "145106.317500", "145106.777500", "145107.237500", "145107.697500", "145108.157500", "145108.617500", "145109.077500", "145109.537500", "145109.997500", "145110.457500", "145110.917500", "145111.377500", "145111.837500", "145112.297500", "145112.757500", "145113.217500", "145113.677500", "145114.137500", "145114.597500", "145115.057500", "145115.517500", "145115.977500", "145116.437500", "145116.897500", "145117.357500", "145117.817500", "145118.277500", "145118.737500", "145119.197500", "145119.657500", "145120.117500", "145120.577500", "145121.037500", "145121.497500", "145121.957500", "145122.417500", "145122.877500", "145123.337500", "145123.797500", "145124.257500", "145124.717500", "145125.177500", "145125.637500", "145126.097500", "145126.557500", "145127.017500", "145127.477500", "145127.937500", "145128.397500", "145128.857500", "145129.317500", "145129.777500", "145130.237500", "145130.697500", "145131.157500", "145131.617500", "145132.077500", "145132.537500", "145132.997500", "145133.457500", "145133.917500", "145134.377500", "145134.837500", "145135.297500", "145135.757500", "145136.217500", "145136.677500", "145137.137500", "145137.597500", "145138.057500", "145138.517500", "145138.977500", "145139.437500", "145139.897500", "145140.357500", "145140.817500", "145141.277500", "145141.737500", "145142.197500", "145142.657500", "145143.117500", "145143.577500", "145144.037500", "145144.497500", "145144.957500", "145145.417500", "145145.877500", "145146.337500", "145146.797500", "145147.257500", "145147.717500", "145148.177500", "145148.637500", "145149.097500", "145149.557500", "145150.017500", "145150.477500", "145150.937500", "145151.397500", "145151.857500", "145152.317500", "145152.777500", "145153.237500", "145153.697500", "145154.157500", "145154.617500", "145155.077500", "145155.537500", "145155.997500", "145156.457500", "145156.917500", "145157.377500", "145157.837500", "145158.297500", "145158.757500", "145159.217500", "145159.677500", "145200.137500", "145200.597500", "145201.057500", "145201.517500", "145201.977500", "145202.437500", "145202.897500", "145203.357500", "145203.817500", "145204.277500", "145204.737500", "145205.197500", "145205.657500", "145206.117500", "145206.577500", "145207.037500", "145207.497500", "145207.957500", "145208.417500", "145208.877500", "145209.337500", "145209.797500", "145210.257500", "145210.717500", "145211.177500", "145211.637500", "145212.097500", "145212.557500", "145213.017500", "145213.477500", "145213.937500", "145214.397500", "145214.857500", "145215.317500", "145215.777500", "145216.237500", "145216.697500", "145217.157500", "145217.617500", "145218.077500", "145218.537500", "145218.997500", "145219.457500", "145219.917500", "145220.377500", "145220.837500", "145221.297500", "145221.757500", "145222.217500", "145222.677500", "145223.137500", "145223.597500", "145224.057500", "145224.517500", "145224.977500", "145225.437500", "145225.897500", "145226.357500", "145226.817500", "145227.277500", "145227.737500", "145228.197500", "145228.657500", "145229.117500", "145229.577500", "145230.037500", "145230.497500", "145230.957500", "145231.417500", "145231.877500", "145232.337500", "145232.797500", "145233.257500", "145233.717500", "145234.177500", "145234.637500", "145235.097500", "145235.557500", "145236.017500", "145236.477500", "145236.937500", "145237.397500", "145237.857500", "145238.317500", "145238.777500", "145239.237500", "145239.697500", "145240.157500", "145240.617500", "145241.077500", "145241.537500", "145241.997500", "145242.457500", "145242.917500", "145243.377500", "145243.837500", "145244.297500", "145244.757500", "145245.217500", "145245.677500", "145246.137500", "145246.597500", "145247.057500", "145247.517500", "145247.977500", "145248.437500", "145248.897500", "145249.357500", "145249.817500", "145250.277500", "145250.737500", "145251.197500", "145251.657500", "145252.117500", "145252.577500", "145253.037500", "145253.497500", "145253.957500", "145254.417500", "145254.877500", "145255.337500", "145255.797500", "145256.257500", "145256.717500", "145257.177500", "145257.637500", "145258.097500", "145258.557500", "145259.017500", "145259.477500", "145259.937500", "145300.397500", "145300.857500", "145301.317500", "145301.777500", "145302.237500", "145302.697500", "145303.157500", "145303.617500", "145304.077500", "145304.537500", "145304.997500", "145305.457500", "145305.917500", "145306.377500", "145306.837500", "145307.297500", "145307.757500", "145308.217500", "145308.677500", "145309.137500", "145309.597500", "145310.057500", "145310.517500", "145310.977500", "145311.437500", "145311.897500", "145312.357500", "145312.817500", "145313.277500", "145313.737500", "145314.197500", "145314.657500", "145315.117500", "145315.577500", "145316.037500", "145316.497500", "145316.957500", "145317.417500", "145317.877500", "145318.337500", "145318.797500", "145319.257500", "145319.717500", "145320.177500", "145320.637500", "145321.097500", "145321.557500", "145322.017500", "145322.477500", "145322.937500", "145323.397500", "145323.857500", "145324.317500", "145324.777500", "145325.237500", "145325.697500", "145326.157500", "145326.617500", "145327.077500", "145327.537500", "145327.997500", "145328.457500", "145328.917500", "145329.377500", "145329.837500", "145330.297500", "145330.757500", "145331.217500", "145331.677500", "145332.137500", "145332.597500", "145333.057500", "145333.517500", "145333.977500", "145334.437500", "145334.897500", "145335.357500", "145335.817500", "145336.277500", "145336.737500", "145337.197500", "145337.657500", "145338.117500", "145338.577500", "145339.037500", "145339.497500", "145339.957500", "145340.417500", "145340.877500", "145341.337500", "145341.797500", "145342.257500", "145342.717500", "145343.177500", "145343.637500", "145344.097500", "145344.557500", "145345.017500", "145345.477500", "145345.937500", "145346.397500", "145346.857500", "145347.317500", "145347.777500", "145348.237500", "145348.697500", "145349.157500", "145349.617500", "145350.077500", "145350.537500", "145350.997500", "145351.457500", "145351.917500", "145352.377500", "145352.837500", "145353.297500", "145353.757500", "145354.217500", "145354.677500", "145355.137500", "145355.597500", "145356.057500", "145356.517500", "145356.977500", "145357.437500", "145357.897500", "145358.357500", "145358.817500", "145359.277500", "145359.737500", "145400.197500", "145400.657500", "145401.117500", "145401.577500", "145402.037500", "145402.497500", "145402.957500", "145403.417500", "145403.877500", "145404.337500", "145404.797500", "145405.257500", "145405.717500", "145406.177500", "145406.637500", "145407.097500", "145407.557500", "145408.017500", "145408.477500", "145408.937500", "145409.397500", "145409.857500", "145410.317500", "145410.777500", "145411.237500", "145411.697500", "145412.157500", "145412.617500", "145413.077500", "145413.537500", "145413.997500", "145414.457500", "145414.917500", "145415.377500", "145415.837500", "145416.297500", "145416.757500", "145417.217500", "145417.677500", "145418.137500", "145418.597500", "145419.057500", "145419.517500", "145419.977500", "145420.437500", "145420.897500", "145421.357500", "145421.817500", "145422.277500", "145422.737500", "145423.197500", "145423.657500", "145424.117500", "145424.577500", "145425.037500", "145425.497500", "145425.957500", "145426.417500", "145426.877500", "145427.337500", "145427.797500", "145428.257500", "145428.717500", "145429.177500", "145429.637500", "145430.097500", "145430.557500", "145431.017500", "145431.477500", "145431.937500", "145432.397500", "145432.857500", "145433.317500", "145433.777500", "145434.237500", "145434.697500", "145435.157500", "145435.617500", "145436.077500", "145436.537500", "145436.997500", "145437.457500", "145437.917500", "145438.377500", "145438.837500", "145439.297500", "145439.757500", "145440.217500", "145440.677500", "145441.137500", "145441.597500", "145442.057500", "145442.517500", "145442.977500", "145443.437500", "145443.897500", "145444.357500", "145444.817500", "145445.277500", "145445.737500", "145446.197500", "145446.657500", "145447.117500", "145447.577500", "145448.037500", "145448.497500", "145448.957500", "145449.417500", "145449.877500", "145450.337500", "145450.797500", "145451.257500", "145451.717500", "145452.177500", "145452.637500", "145453.097500", "145453.557500", "145454.017500", "145454.477500", "145454.937500", "145455.397500", "145455.857500", "145456.317500", "145456.777500", "145457.237500", "145457.697500", "145458.157500", "145458.617500", "145459.077500", "145459.537500", "145459.997500", "145500.457500", "145500.917500", "145501.377500", "145501.837500", "145502.297500", "145502.757500", "145503.217500", "145503.677500", "145504.137500", "145504.597500", "145505.057500", "145505.517500", "145505.977500", "145506.437500", "145506.897500", "145507.357500", "145507.817500", "145508.277500", "145508.737500", "145509.197500", "145509.657500", "145510.117500", "145510.577500", "145511.037500", "145511.497500", "145511.957500", "145512.417500", "145512.877500", "145513.337500", "145513.797500", "145514.257500", "145514.717500", "145515.177500", "145515.637500", "145516.097500", "145516.557500", "145517.017500", "145517.477500", "145517.937500", "145518.397500", "145518.857500", "145519.317500", "145519.777500", "145520.237500", "145520.697500", "145521.157500", "145521.617500", "145522.077500", "145522.537500", "145522.997500", "145523.457500", "145523.917500", "145524.377500", "145524.837500", "145525.297500", "145525.757500", "145526.217500", "145526.677500", "145527.137500", "145527.597500", "145528.057500", "145528.517500", "145528.977500", "145529.437500", "145529.897500", "145530.357500", "145530.817500", "145531.277500", "145531.737500", "145532.197500", "145532.657500", "145533.117500", "145533.577500", "145534.037500", "145534.497500", "145534.957500", "145535.417500", "145535.877500", "145536.337500", "145536.797500", "145537.257500", "145537.717500", "145538.177500", "145538.637500", "145539.097500", "145539.557500", "145540.017500", "145540.477500", "145540.937500", "145541.397500", "145541.857500", "145542.317500", "145542.777500", "145543.237500", "145543.697500", "145544.157500", "145544.617500", "145545.077500", "145545.537500", "145545.997500", "145546.457500", "145546.917500", "145547.377500", "145547.837500", "145548.297500", "145548.757500", "145549.217500", "145549.677500", "145550.137500", "145550.597500", "145551.057500", "145551.517500", "145551.977500", "145552.437500", "145552.897500", "145553.357500", "145553.817500", "145554.277500", "145554.737500", "145555.197500", "145555.657500", "145556.117500", "145556.577500", "145557.037500", "145557.497500", "145557.957500", "145558.417500", "145558.877500", "145559.337500", "145559.797500", "145600.257500", "145600.717500", "145601.177500", "145601.637500", "145602.097500", "145602.557500", "145603.017500", "145603.477500", "145603.937500", "145604.397500", "145604.857500", "145605.317500", "145605.777500", "145606.237500", "145606.697500", "145607.157500", "145607.617500", "145608.077500", "145608.537500", "145608.997500", "145609.457500", "145609.917500", "145610.377500", "145610.837500", "145611.297500", "145611.757500", "145612.217500", "145612.677500", "145613.137500", "145613.597500", "145614.057500", "145614.517500", "145614.977500", "145615.437500", "145615.897500", "145616.357500", "145616.817500", "145617.277500", "145617.737500", "145618.197500", "145618.657500", "145619.117500", "145619.577500", "145620.037500", "145620.497500", "145620.957500", "145621.417500", "145621.877500", "145622.337500", "145622.797500", "145623.257500", "145623.717500", "145624.177500", "145624.637500", "145625.097500", "145625.557500", "145626.017500", "145626.477500", "145626.937500", "145627.397500", "145627.857500", "145628.317500", "145628.777500", "145629.237500", "145629.697500", "145630.157500", "145630.617500", "145631.077500", "145631.537500", "145631.997500", "145632.457500", "145632.917500", "145633.377500", "145633.837500", "145634.297500", "145634.757500", "145635.217500", "145635.677500", "145636.137500", "145636.597500", "145637.057500", "145637.517500", "145637.977500", "145638.437500", "145638.897500", "145639.357500", "145639.817500", "145640.277500", "145640.737500", "145641.197500", 