{
  "AcquisitionMatrixPE": 82,
  "AcquisitionNumber": 1,
  "AcquisitionTime": "15:18:2.572500",
  "BandwidthPerPixelPhaseEncode": 24.888,
  "BaseResolution": 82,
  "BodyPartExamined": "BRAIN",
  "ConsistencyInfo": "N4_VE11E_LATEST_20181129",
  "ConversionSoftware": "dcm2niix",
  "ConversionSoftwareVersion": "v1.0.20201102",
  "DerivedVendorReportedEchoSpacing": 0.00049,
  "DeviceSerialNumber": "66112",
  "DwellTime": 2e-06,
  "EchoTime": 0.0272,
  "EchoTrainLength": 82,
  "EffectiveEchoSpacing": 0.00049,
  "FlipAngle": 44,
  "ImageComments": "Unaliased MB8/PE3",
  "ImageOrientationPatientDICOM": [0.999782, -0.0118807, 0.0171575, 0.0137859, 0.993203, -0.115574],
  "ImageType": [
    "ORIGINAL",
    "PRIMARY",
    "M",
    "MB",
    "ND",
    "NORM",
    "MOSAIC"
],
  "ImagingFrequency": 123.252,
  "InPlanePhaseEncodingDirectionDICOM": "COL",
  "InstitutionAddress": "Maynard 3,Hanover,NH,US,03755",
  "InstitutionName": "Dartmouth College - PBS",
  "InstitutionalDepartmentName": "Department",
  "MRAcquisitionType": "2D",
  "MagneticFieldStrength": 3,
  "Manufacturer": "Siemens",
  "ManufacturersModelName": "Prisma",
  "Modality": "MR",
  "MultibandAccelerationFactor": 8,
  "PartialFourier": 1,
  "PatientPosition": "HFS",
  "PercentPhaseFOV": 100,
  "PercentSampling": 100,
  "PhaseEncodingDirection": "j-",
  "PhaseEncodingSteps": 82,
  "PhaseResolution": 1,
  "PixelBandwidth": 3050,
  "ProcedureStepDescription": "Wager_Wager^1076_spacetop",
  "ProtocolName": "func_run-03_task-faces_acq-ap-mb8",
  "PulseSequenceDetails": "%CustomerSeq%\\cmrr_mbep2d_bold",
  "ReceiveCoilActiveElements": "HEA;HEP",
  "ReceiveCoilName": "Head_32",
  "ReconMatrixPE": 82,
  "RepetitionTime": 0.46,
  "SAR": 0.109396,
  "ScanOptions": "FS",
  "ScanningSequence": "EP",
  "SequenceName": "epfid2d1_82",
  "SequenceVariant": "SK\\SS",
  "SeriesDescription": "func_run-03_task-faces_acq-ap-mb8",
  "SeriesNumber": 20,
  "ShimSetting": [4169, -7698, -7286, 578, 34, -204, -108, 49],
  "SliceThickness": 2.7,
  "SliceTiming": [0, 0.2525, 0.065, 0.315, 0.1275, 0.3775, 0.19, 0, 0.2525, 0.065, 0.315, 0.1275, 0.3775, 0.19, 0, 0.2525, 0.065, 0.315, 0.1275, 0.3775, 0.19, 0, 0.2525, 0.065, 0.315, 0.1275, 0.3775, 0.19, 0, 0.2525, 0.065, 0.315, 0.1275, 0.3775, 0.19, 0, 0.2525, 0.065, 0.315, 0.1275, 0.3775, 0.19, 0, 0.2525, 0.065, 0.315, 0.1275, 0.3775, 0.19, 0, 0.2525, 0.065, 0.315, 0.1275, 0.3775, 0.19],
  "SoftwareVersions": "syngo MR E11",
  "SpacingBetweenSlices": 2.7,
  "StationName": "AWP66112",
  "TaskName": "faces",
  "TotalReadoutTime": 0.03969,
  "TxRefAmp": 267.983,
  "WipMemBlock": "db1b1263-8e81-4b40-b752-1717df5cd170||Sequence: R016 ve11e/master r/434b28f1; Aug  7 2019 18:53:46 by eja",
  "dcmmeta_affine": [
    [-2.682342529296875, 0.03698668256402016, 0.042303018271923065, 108.90526580810547],
    [0.031875111162662506, 2.66469144821167, -0.3126218020915985, -77.8720703125],
    [0.04603234678506851, 0.3100779056549072, 2.681506633758545, -98.45697021484375],
    [0.0, 0.0, 0.0, 1.0]
],
  "dcmmeta_reorient_transform": [
    [0.0, -1.0, 0.0, 81.0],
    [1.0, 0.0, 0.0, 0.0],
    [0.0, 0.0, 1.0, 0.0],
    [0.0, 0.0, 0.0, 1.0]
],
  "dcmmeta_shape": [82, 82, 56, 914],
  "dcmmeta_slice_dim": 2,
  "dcmmeta_version": 0.6,
  "global": {
    "const": {
      "AccessionNumber": "A003909",
      "AcquisitionMatrix": [82, 0, 0, 82],
      "AngioFlag": "N",
      "BitsAllocated": 16,
      "BitsStored": 16,
      "BodyPartExamined": "BRAIN",
      "Columns": 656,
      "EchoNumbers": 1,
      "EchoTime": 27.2,
      "EchoTrainLength": 82,
      "FlipAngle": 44.0,
      "HighBit": 15,
      "ImageOrientationPatient": [0.9997822104164, -0.0118807231577, 0.01715751008013, 0.01378594448249, 0.99320314402996, -0.1155744886371],
      "ImagePositionPatient": [-892.34868710523, -893.58621761609, 2.4404164005484],
      "ImageType": [
        "ORIGINAL",
        "PRIMARY",
        "M",
        "MB",
        "ND",
        "NORM",
        "MOSAIC"
],
      "ImagedNucleus": "1H",
      "ImagingFrequency": 123.252273,
      "InPlanePhaseEncodingDirection": "COL",
      "MRAcquisitionType": "2D",
      "MagneticFieldStrength": 3.0,
      "Manufacturer": "SIEMENS",
      "ManufacturerModelName": "Prisma",
      "Modality": "MR",
      "NumberOfAverages": 1.0,
      "NumberOfPhaseEncodingSteps": 82,
      "PercentPhaseFieldOfView": 100.0,
      "PercentSampling": 100.0,
      "PerformedProcedureStepStartTime": "141312.028000",
      "PhotometricInterpretation": "MONOCHROME2",
      "PixelBandwidth": 3050.0,
      "PixelRepresentation": 0,
      "PixelSpacing": [2.6829268932343, 2.6829268932343],
      "ProtocolName": "func_run-03_task-faces_acq-ap-mb8",
      "RepetitionTime": 460.0,
      "Rows": 656,
      "SAR": 0.10939578030168,
      "SamplesPerPixel": 1,
      "ScanOptions": "FS",
      "ScanningSequence": "EP",
      "SequenceName": "epfid2d1_82",
      "SequenceVariant": [
        "SK",
        "SS"
],
      "SeriesDescription": "func_run-03_task-faces_acq-ap-mb8",
      "SeriesNumber": 20,
      "SeriesTime": "151814.720000",
      "SliceLocation": -87.059811981755,
      "SliceThickness": 2.7000000476837,
      "SmallestImagePixelValue": 0,
      "SoftwareVersions": "syngo MR E11",
      "SpacingBetweenSlices": 2.7000000172165,
      "SpecificCharacterSet": "ISO_IR 100",
      "StudyID": "2",
      "StudyTime": "141311.948000",
      "TransmitCoilName": "Body",
      "VariableFlipAngleFlag": "N",
      "WindowCenterWidthExplanation": "Algo1"
    },
    "slices": {}
  },
  "time": {
    "samples": {
      "AcquisitionNumber": [1, 2, 3, 4, 5, 6, 7, 8, 9, 10, 11, 12, 13, 14, 15, 16, 17, 18, 19, 20, 21, 22, 23, 24, 25, 26, 27, 28, 29, 30, 31, 32, 33, 34, 35, 36, 37, 38, 39, 40, 41, 42, 43, 44, 45, 46, 47, 48, 49, 50, 51, 52, 53, 54, 55, 56, 57, 58, 59, 60, 61, 62, 63, 64, 65, 66, 67, 68, 69, 70, 71, 72, 73, 74, 75, 76, 77, 78, 79, 80, 81, 82, 83, 84, 85, 86, 87, 88, 89, 90, 91, 92, 93, 94, 95, 96, 97, 98, 99, 100, 101, 102, 103, 104, 105, 106, 107, 108, 109, 110, 111, 112, 113, 114, 115, 116, 117, 118, 119, 120, 121, 122, 123, 124, 125, 126, 127, 128, 129, 130, 131, 132, 133, 134, 135, 136, 137, 138, 139, 140, 141, 142, 143, 144, 145, 146, 147, 148, 149, 150, 151, 152, 153, 154, 155, 156, 157, 158, 159, 160, 161, 162, 163, 164, 165, 166, 167, 168, 169, 170, 171, 172, 173, 174, 175, 176, 177, 178, 179, 180, 181, 182, 183, 184, 185, 186, 187, 188, 189, 190, 191, 192, 193, 194, 195, 196, 197, 198, 199, 200, 201, 202, 203, 204, 205, 206, 207, 208, 209, 210, 211, 212, 213, 214, 215, 216, 217, 218, 219, 220, 221, 222, 223, 224, 225, 226, 227, 228, 229, 230, 231, 232, 233, 234, 235, 236, 237, 238, 239, 240, 241, 242, 243, 244, 245, 246, 247, 248, 249, 250, 251, 252, 253, 254, 255, 256, 257, 258, 259, 260, 261, 262, 263, 264, 265, 266, 267, 268, 269, 270, 271, 272, 273, 274, 275, 276, 277, 278, 279, 280, 281, 282, 283, 284, 285, 286, 287, 288, 289, 290, 291, 292, 293, 294, 295, 296, 297, 298, 299, 300, 301, 302, 303, 304, 305, 306, 307, 308, 309, 310, 311, 312, 313, 314, 315, 316, 317, 318, 319, 320, 321, 322, 323, 324, 325, 326, 327, 328, 329, 330, 331, 332, 333, 334, 335, 336, 337, 338, 339, 340, 341, 342, 343, 344, 345, 346, 347, 348, 349, 350, 351, 352, 353, 354, 355, 356, 357, 358, 359, 360, 361, 362, 363, 364, 365, 366, 367, 368, 369, 370, 371, 372, 373, 374, 375, 376, 377, 378, 379, 380, 381, 382, 383, 384, 385, 386, 387, 388, 389, 390, 391, 392, 393, 394, 395, 396, 397, 398, 399, 400, 401, 402, 403, 404, 405, 406, 407, 408, 409, 410, 411, 412, 413, 414, 415, 416, 417, 418, 419, 420, 421, 422, 423, 424, 425, 426, 427, 428, 429, 430, 431, 432, 433, 434, 435, 436, 437, 438, 439, 440, 441, 442, 443, 444, 445, 446, 447, 448, 449, 450, 451, 452, 453, 454, 455, 456, 457, 458, 459, 460, 461, 462, 463, 464, 465, 466, 467, 468, 469, 470, 471, 472, 473, 474, 475, 476, 477, 478, 479, 480, 481, 482, 483, 484, 485, 486, 487, 488, 489, 490, 491, 492, 493, 494, 495, 496, 497, 498, 499, 500, 501, 502, 503, 504, 505, 506, 507, 508, 509, 510, 511, 512, 513, 514, 515, 516, 517, 518, 519, 520, 521, 522, 523, 524, 525, 526, 527, 528, 529, 530, 531, 532, 533, 534, 535, 536, 537, 538, 539, 540, 541, 542, 543, 544, 545, 546, 547, 548, 549, 550, 551, 552, 553, 554, 555, 556, 557, 558, 559, 560, 561, 562, 563, 564, 565, 566, 567, 568, 569, 570, 571, 572, 573, 574, 575, 576, 577, 578, 579, 580, 581, 582, 583, 584, 585, 586, 587, 588, 589, 590, 591, 592, 593, 594, 595, 596, 597, 598, 599, 600, 601, 602, 603, 604, 605, 606, 607, 608, 609, 610, 611, 612, 613, 614, 615, 616, 617, 618, 619, 620, 621, 622, 623, 624, 625, 626, 627, 628, 629, 630, 631, 632, 633, 634, 635, 636, 637, 638, 639, 640, 641, 642, 643, 644, 645, 646, 647, 648, 649, 650, 651, 652, 653, 654, 655, 656, 657, 658, 659, 660, 661, 662, 663, 664, 665, 666, 667, 668, 669, 670, 671, 672, 673, 674, 675, 676, 677, 678, 679, 680, 681, 682, 683, 684, 685, 686, 687, 688, 689, 690, 691, 692, 693, 694, 695, 696, 697, 698, 699, 700, 701, 702, 703, 704, 705, 706, 707, 708, 709, 710, 711, 712, 713, 714, 715, 716, 717, 718, 719, 720, 721, 722, 723, 724, 725, 726, 727, 728, 729, 730, 731, 732, 733, 734, 735, 736, 737, 738, 739, 740, 741, 742, 743, 744, 745, 746, 747, 748, 749, 750, 751, 752, 753, 754, 755, 756, 757, 758, 759, 760, 761, 762, 763, 764, 765, 766, 767, 768, 769, 770, 771, 772, 773, 774, 775, 776, 777, 778, 779, 780, 781, 782, 783, 784, 785, 786, 787, 788, 789, 790, 791, 792, 793, 794, 795, 796, 797, 798, 799, 800, 801, 802, 803, 804, 805, 806, 807, 808, 809, 810, 811, 812, 813, 814, 815, 816, 817, 818, 819, 820, 821, 822, 823, 824, 825, 826, 827, 828, 829, 830, 831, 832, 833, 834, 835, 836, 837, 838, 839, 840, 841, 842, 843, 844, 845, 846, 847, 848, 849, 850, 851, 852, 853, 854, 855, 856, 857, 858, 859, 860, 861, 862, 863, 864, 865, 866, 867, 868, 869, 870, 871, 872, 873, 874, 875, 876, 877, 878, 879, 880, 881, 882, 883, 884, 885, 886, 887, 888, 889, 890, 891, 892, 893, 894, 895, 896, 897, 898, 899, 900, 901, 902, 903, 904, 905, 906, 907, 908, 909, 910, 911, 912, 913, 914],
      "AcquisitionTime": ["151802.572500", "151803.032500", "151803.492500", "151803.952500", "151804.412500", "151804.872500", "151805.332500", "151805.792500", "151806.252500", "151806.712500", "151807.172500", "151807.632500", "151808.092500", "151808.552500", "151809.012500", "151809.472500", "151809.932500", "151810.392500", "151810.852500", "151811.312500", "151811.772500", "151812.232500", "151812.692500", "151813.152500", "151813.612500", "151814.072500", "151814.532500", "151814.992500", "151815.452500", "151815.912500", "151816.372500", "151816.832500", "151817.292500", "151817.752500", "151818.212500", "151818.672500", "151819.132500", "151819.592500", "151820.052500", "151820.512500", "151820.972500", "151821.432500", "151821.892500", "151822.352500", "151822.812500", "151823.272500", "151823.732500", "151824.192500", "151824.652500", "151825.112500", "151825.572500", "151826.032500", "151826.492500", "151826.952500", "151827.412500", "151827.872500", "151828.332500", "151828.792500", "151829.252500", "151829.712500", "151830.172500", "151830.632500", "151831.092500", "151831.552500", "151832.012500", "151832.472500", "151832.932500", "151833.392500", "151833.852500", "151834.312500", "151834.772500", "151835.232500", "151835.692500", "151836.152500", "151836.612500", "151837.072500", "151837.532500", "151837.992500", "151838.452500", "151838.912500", "151839.372500", "151839.832500", "151840.292500", "151840.752500", "151841.212500", "151841.672500", "151842.132500", "151842.592500", "151843.052500", "151843.512500", "151843.972500", "151844.432500", "151844.892500", "151845.352500", "151845.812500", "151846.272500", "151846.732500", "151847.192500", "151847.652500", "151848.112500", "151848.572500", "151849.032500", "151849.492500", "151849.952500", "151850.412500", "151850.872500", "151851.332500", "151851.792500", "151852.252500", "151852.712500", "151853.172500", "151853.632500", "151854.092500", "151854.552500", "151855.012500", "151855.472500", "151855.932500", "151856.392500", "151856.852500", "151857.312500", "151857.772500", "151858.232500", "151858.692500", "151859.152500", "151859.612500", "151900.072500", "151900.532500", "151900.992500", "151901.452500", "151901.912500", "151902.372500", "151902.832500", "151903.292500", "151903.752500", "151904.212500", "151904.672500", "151905.132500", "151905.592500", "151906.052500", "151906.512500", "151906.972500", "151907.432500", "151907.892500", "151908.352500", "151908.812500", "151909.272500", "151909.732500", "151910.192500", "151910.652500", "151911.112500", "151911.572500", "151912.032500", "151912.492500", "151912.952500", "151913.412500", "151913.872500", "151914.332500", "151914.792500", "151915.252500", "151915.712500", "151916.172500", "151916.632500", "151917.092500", "151917.552500", "151918.012500", "151918.472500", "151918.932500", "151919.392500", "151919.852500", "151920.312500", "151920.772500", "151921.232500", "151921.692500", "151922.152500", "151922.612500", "151923.072500", "151923.532500", "151923.992500", "151924.452500", "151924.912500", "151925.372500", "151925.832500", "151926.292500", "151926.752500", "151927.212500", "151927.672500", "151928.132500", "151928.592500", "151929.052500", "151929.512500", "151929.972500", "151930.432500", "151930.892500", "151931.352500", "151931.812500", "151932.272500", "151932.732500", "151933.192500", "151933.652500", "151934.112500", "151934.572500", "151935.032500", "151935.492500", "151935.952500", "151936.412500", "151936.872500", "151937.332500", "151937.792500", "151938.252500", "151938.712500", "151939.172500", "151939.632500", "151940.092500", "151940.552500", "151941.012500", "151941.472500", "151941.932500", "151942.392500", "151942.852500", "151943.312500", "151943.772500", "151944.232500", "151944.692500", "151945.152500", "151945.612500", "151946.072500", "151946.532500", "151946.992500", "151947.452500", "151947.912500", "151948.372500", "151948.832500", "151949.292500", "151949.752500", "151950.212500", "151950.672500", "151951.132500", "151951.592500", "151952.052500", "151952.512500", "151952.972500", "151953.432500", "151953.892500", "151954.352500", "151954.812500", "151955.272500", "151955.732500", "151956.192500", "151956.652500", "151957.112500", "151957.572500", "151958.032500", "151958.492500", "151958.952500", "151959.412500", "151959.872500", "152000.332500", "152000.792500", "152001.252500", "152001.712500", "152002.172500", "152002.632500", "152003.092500", "152003.552500", "152004.012500", "152004.472500", "152004.932500", "152005.392500", "152005.852500", "152006.312500", "152006.772500", "152007.232500", "152007.692500", "152008.152500", "152008.612500", "152009.072500", "152009.532500", "152009.992500", "152010.452500", "152010.912500", "152011.372500", "152011.832500", "152012.292500", "152012.752500", "152013.212500", "152013.672500", "152014.132500", "152014.592500", "152015.052500", "152015.512500", "152015.972500", "152016.432500", "152016.892500", "152017.352500", "152017.812500", "152018.272500", "152018.732500", "152019.192500", "152019.652500", "152020.112500", "152020.572500", "152021.032500", "152021.492500", "152021.952500", "152022.412500", "152022.872500", "152023.332500", "152023.792500", "152024.252500", "152024.712500", "152025.172500", "152025.632500", "152026.092500", "152026.552500", "152027.012500", "152027.472500", "152027.932500", "152028.392500", "152028.852500", "152029.312500", "152029.772500", "152030.232500", "152030.692500", "152031.152500", "152031.612500", "152032.072500", "152032.532500", "152032.992500", "152033.452500", "152033.912500", "152034.372500", "152034.832500", "152035.292500", "152035.752500", "152036.212500", "152036.672500", "152037.132500", "152037.592500", "152038.052500", "152038.512500", "152038.972500", "152039.432500", "152039.892500", "152040.352500", "152040.812500", "152041.272500", "152041.732500", "152042.192500", "152042.652500", "152043.112500", "152043.572500", "152044.032500", "152044.492500", "152044.952500", "152045.412500", "152045.872500", "152046.332500", "152046.792500", "152047.252500", "152047.712500", "152048.172500", "152048.632500", "152049.092500", "152049.552500", "152050.012500", "152050.472500", "152050.932500", "152051.392500", "152051.852500", "152052.312500", "152052.772500", "152053.232500", "152053.692500", "152054.152500", "152054.612500", "152055.072500", "152055.532500", "152055.992500", "152056.452500", "152056.912500", "152057.372500", "152057.832500", "152058.292500", "152058.752500", "152059.212500", "152059.672500", "152100.132500", "152100.592500", "152101.052500", "152101.512500", "152101.972500", "152102.432500", "152102.892500", "152103.352500", "152103.812500", "152104.272500", "152104.732500", "152105.192500", "152105.652500", "152106.112500", "152106.572500", "152107.032500", "152107.492500", "152107.952500", "152108.412500", "152108.872500", "152109.332500", "152109.792500", "152110.252500", "152110.712500", "152111.172500", "152111.632500", "152112.092500", "152112.552500", "152113.012500", "152113.472500", "152113.932500", "152114.392500", "152114.852500", "152115.312500", "152115.772500", "152116.232500", "152116.692500", "152117.152500", "152117.612500", "152118.072500", "152118.532500", "152118.992500", "152119.452500", "152119.912500", "152120.372500", "152120.832500", "152121.292500", "152121.752500", "152122.212500", "152122.672500", "152123.132500", "152123.592500", "152124.052500", "152124.512500", "152124.972500", "152125.432500", "152125.892500", "152126.352500", "152126.812500", "152127.272500", "152127.732500", "152128.192500", "152128.652500", "152129.112500", "152129.572500", "152130.032500", "152130.492500", "152130.952500", "152131.412500", "152131.872500", "152132.332500", "152132.792500", "152133.252500", "152133.712500", "152134.172500", "152134.632500", "152135.092500", "152135.552500", "152136.012500", "152136.472500", "152136.932500", "152137.392500", "152137.852500", "152138.312500", "152138.772500", "152139.232500", "152139.692500", "152140.152500", "152140.612500", "152141.072500", "152141.532500", "152141.992500", "152142.452500", "152142.912500", "152143.372500", "152143.832500", "152144.292500", "152144.752500", "152145.212500", "152145.672500", "152146.132500", "152146.592500", "152147.052500", "152147.512500", "152147.972500", "152148.432500", "152148.892500", "152149.352500", "152149.812500", "152150.272500", "152150.732500", "152151.192500", "152151.652500", "152152.112500", "152152.572500", "152153.032500", "152153.492500", "152153.952500", "152154.412500", "152154.872500", "152155.332500", "152155.792500", "152156.252500", "152156.712500", "152157.172500", "152157.632500", "152158.092500", "152158.552500", "152159.012500", "152159.472500", "152159.932500", "152200.392500", "152200.852500", "152201.312500", "152201.772500", "152202.232500", "152202.692500", "152203.152500", "152203.612500", "152204.072500", "152204.532500", "152204.992500", "152205.452500", "152205.912500", "152206.372500", "152206.832500", "152207.292500", "152207.752500", "152208.212500", "152208.672500", "152209.132500", "152209.592500", "152210.052500", "152210.512500", "152210.972500", "152211.432500", "152211.892500", "152212.352500", "152212.812500", "152213.272500", "152213.732500", "152214.192500", "152214.652500", "152215.112500", "152215.572500", "152216.032500", "152216.492500", "152216.952500", "152217.412500", "152217.872500", "152218.332500", "152218.792500", "152219.252500", "152219.712500", "152220.172500", "152220.632500", "152221.092500", "152221.552500", "152222.012500", "152222.472500", "152222.932500", "152223.392500", "152223.852500", "152224.312500", "152224.772500", "152225.232500", "152225.692500", "152226.152500", "152226.612500", "152227.072500", "152227.532500", "152227.992500", "152228.452500", "152228.912500", "152229.372500", "152229.832500", "152230.292500", "152230.752500", "152231.212500", "152231.672500", "152232.132500", "152232.592500", "152233.052500", "152233.512500", "152233.972500", "152234.432500", "152234.892500", "152235.352500", "152235.812500", "152236.272500", "152236.732500", "152237.192500", "152237.652500", "152238.112500", "152238.572500", "152239.032500", "152239.492500", "152239.952500", "152240.412500", "152240.872500", "152241.332500", "152241.792500", "152242.252500", "152242.712500", "152243.172500", "152243.632500", "152244.092500", "152244.552500", "152245.012500", "152245.472500", "152245.932500", "152246.392500", "152246.852500", "152247.312500", "152247.772500", "152248.232500", "152248.692500", "152249.152500", "152249.612500", "152250.072500", "152250.532500", "152250.992500", "152251.452500", "152251.912500", "152252.372500", "152252.832500", "152253.292500", "152253.752500", "152254.212500", "152254.672500", "152255.132500", "152255.592500", "152256.052500", "152256.512500", "152256.972500", "152257.432500", "152257.892500", "152258.352500", "152258.812500", "152259.272500", "152259.732500", "152300.192500", "152300.652500", "152301.112500", "152301.572500", "152302.032500", "152302.492500", "152302.952500", "152303.412500", "152303.872500", "152304.332500", "152304.792500", "152305.252500", "152305.712500", "152306.172500", "152306.632500", "152307.092500", "152307.552500", "152308.012500", "152308.472500", "152308.932500", "152309.392500", "152309.852500", "152310.312500", "152310.772500", "152311.232500", "152311.692500", "152312.152500", "152312.612500", "152313.072500", "152313.532500", "152313.992500", "152314.452500", "152314.912500", "152315.372500", "152315.832500", "152316.292500", "152316.752500", "152317.212500", "152317.672500", "152318.132500", "152318.592500", "152319.052500", "152319.512500", "152319.972500", "152320.432500", "152320.892500", "152321.352500", "152321.812500", "152322.272500", "152322.732500", "152323.192500", "152323.652500", "152324.112500", "152324.572500", "152325.032500", "152325.492500", "152325.952500", "152326.412500", "152326.872500", "152327.332500", "152327.792500", "152328.252500", "152328.712500", "152329.172500", "152329.632500", "152330.092500", "152330.552500", "152331.012500", "152331.472500", "152331.932500", "152332.392500", "152332.852500", "152333.312500", "152333.772500", "152334.232500", "152334.692500", "152335.152500", "152335.612500", "152336.072500", "152336.532500", "152336.992500", "152337.452500", "152337.912500", "152338.372500", "152338.832500", "152339.292500", "152339.752500", "152340.212500", "152340.672500", "152341.132500", "152341.592500", "152342.052500", "152342.512500", "152342.972500", "152343.432500", "152343.892500", "152344.352500", "152344.812500", "152345.272500", "152345.732500", "152346.192500", "152346.652500", "152347.112500", "152347.572500", "152348.032500", "152348.492500", "152348.952500", "152349.412500", "152349.872500", "152350.332500", "152350.792500", "152351.252500", "152351.712500", "152352.172500", "152352.632500", "152353.092500", "152353.552500", "152354.012500", "152354.472500", "152354.932500", "152355.392500", "152355.852500", "152356.312500", "152356.772500", "152357.232500", "152357.692500", "152358.152500", "152358.612500", "152359.072500", "152359.532500", "152359.992500", "152400.452500", "152400.912500", "152401.372500", "152401.832500", "152402.292500", "152402.752500", "152403.212500", "152403.672500", "152404.132500", "152404.592500", "152405.052500", "152405.512500", "152405.972500", "152406.432500", "152406.892500", "152407.352500", "152407.812500", "152408.272500", "152408.732500", "152409.192500", "152409.652500", "152410.112500", "152410.572500", "152411.032500", "152411.492500", "152411.952500", "152412.412500", "152412.872500", "152413.332500", "152413.792500", "152414.252500", "152414.712500", "152415.172500", "152415.632500", "152416.092500", "152416.552500", "152417.012500", "152417.472500", "152417.932500", "152418.392500", "152418.852500", "152419.312500", "152419.772500", "152420.232500", "152420.692500", "152421.152500", "152421.612500", "152422.072500", "152422.532500", "152422.992500", "152423.452500", "152423.912500", "152424.372500", "152424.832500", "152425.292500", "152425.752500", "152426.212500", "152426.672500", "152427.132500", "152427.592500", "152428.052500", "152428.512500", "152428.972500", "152429.432500", "152429.892500", "152430.352500", "152430.812500", "152431.272500", "152431.732500", "152432.192500", "152432.652500", "152433.112500", "152433.572500", "152434.032500", "152434.492500", "152434.952500", "152435.412500", "152435.872500", "152436.332500", "152436.792500", "152437.252500", "152437.712500", "152438.172500", "152438.632500", "152439.092500", "152439.552500", "152440.012500", "152440.472500", "152440.932500", "152441.392500", "152441.852500", "152442.312500", "152442.772500", "152443.232500", "152443.692500", "152444.152500", "152444.612500", "152445.072500", "152445.532500", "152445.992500", "152446.452500", "152446.912500", "152447.372500", "152447.832500", "152448.292500", "152448.752500", "152449.212500", "152449.672500", "152450.132500", "152450.592500", "152451.052500", "152451.512500", "152451.972500", "152452.432500", "152452.892500", "152453.352500", "152453.812500", "152454.272500", "152454.732500", "152455.192500", "152455.652500", "152456.112500", "152456.572500", "152457.032500", "152457.492500", "152457.952500", "152458.412500", "152458.872500", "152459.332500", "152459.792500", "152500.252500", "152500.712500", "152501.172500", "152501.632500", "152502.092500", "152502.552500"],
