{
  "AcquisitionMatrixPE": 82,
  "AcquisitionNumber": 1,
  "AcquisitionTime": "15:59:46.410000",
  "BandwidthPerPixelPhaseEncode": 24.888,
  "BaseResolution": 82,
  "BodyPartExamined": "BRAIN",
  "ConsistencyInfo": "N4_VE11E_LATEST_20181129",
  "ConversionSoftware": "dcm2niix",
  "ConversionSoftwareVersion": "v1.0.20201102",
  "DerivedVendorReportedEchoSpacing": 0.00049,
  "DeviceSerialNumber": "66112",
  "DwellTime": 2e-06,
  "EchoTime": 0.0272,
  "EchoTrainLength": 82,
  "EffectiveEchoSpacing": 0.00049,
  "FlipAngle": 44,
  "ImageComments": "Unaliased MB8/PE3",
  "ImageOrientationPatientDICOM": [0.997955, -0.0282306, 0.057354, 0.0304902, 0.998777, -0.038913],
  "ImageType": [
    "ORIGINAL",
    "PRIMARY",
    "M",
    "MB",
    "ND",
    "NORM",
    "MOSAIC"
],
  "ImagingFrequency": 123.252,
  "InPlanePhaseEncodingDirectionDICOM": "COL",
  "InstitutionAddress": "Maynard 3,Hanover,NH,US,03755",
  "InstitutionName": "Dartmouth College - PBS",
  "InstitutionalDepartmentName": "Department",
  "MRAcquisitionType": "2D",
  "MagneticFieldStrength": 3,
  "Manufacturer": "Siemens",
  "ManufacturersModelName": "Prisma",
  "Modality": "MR",
  "MultibandAccelerationFactor": 8,
  "PartialFourier": 1,
  "PatientPosition": "HFS",
  "PercentPhaseFOV": 100,
  "PercentSampling": 100,
  "PhaseEncodingDirection": "j-",
  "PhaseEncodingSteps": 82,
  "PhaseResolution": 1,
  "PixelBandwidth": 3050,
  "ProcedureStepDescription": "Wager_Wager^1076_spacetop",
  "ProtocolName": "func_run-04_task-alignvideo_acq-ap-mb8",
  "PulseSequenceDetails": "%CustomerSeq%\\cmrr_mbep2d_bold",
  "ReceiveCoilActiveElements": "HEA;HEP",
  "ReceiveCoilName": "Head_32",
  "ReconMatrixPE": 82,
  "RepetitionTime": 0.46,
  "SAR": 0.109396,
  "ScanOptions": "FS",
  "ScanningSequence": "EP",
  "SequenceName": "epfid2d1_82",
  "SequenceVariant": "SK\\SS",
  "SeriesDescription": "func_run-04_task-alignvideo_acq-ap-mb8",
  "SeriesNumber": 34,
  "ShimSetting": [4169, -7699, -7285, 546, 32, -222, -104, 48],
  "SliceThickness": 2.7,
  "SliceTiming": [0, 0.25, 0.0625, 0.315, 0.125, 0.3775, 0.1875, 0, 0.25, 0.0625, 0.315, 0.125, 0.3775, 0.1875, 0, 0.25, 0.0625, 0.315, 0.125, 0.3775, 0.1875, 0, 0.25, 0.0625, 0.315, 0.125, 0.3775, 0.1875, 0, 0.25, 0.0625, 0.315, 0.125, 0.3775, 0.1875, 0, 0.25, 0.0625, 0.315, 0.125, 0.3775, 0.1875, 0, 0.25, 0.0625, 0.315, 0.125, 0.3775, 0.1875, 0, 0.25, 0.0625, 0.315, 0.125, 0.3775, 0.1875],
  "SoftwareVersions": "syngo MR E11",
  "SpacingBetweenSlices": 2.7,
  "StationName": "AWP66112",
  "TaskName": "alignvideo",
  "TotalReadoutTime": 0.03969,
  "TxRefAmp": 267.983,
  "WipMemBlock": "eeed02bd-76b9-4504-8c0e-d89df805f786||Sequence: R016 ve11e/master r/434b28f1; Aug  7 2019 18:53:46 by eja",
  "dcmmeta_affine": [
    [-2.6774394512176514, 0.08180306106805801, 0.1517004668712616, 103.24517059326172],
    [0.07574056088924408, 2.6796464920043945, -0.1095716804265976, -91.88690948486328],
    [0.1538766473531723, 0.10440061241388321, 2.693507194519043, -102.33171844482422],
    [0.0, 0.0, 0.0, 1.0]
],
  "dcmmeta_reorient_transform": [
    [0.0, -1.0, 0.0, 81.0],
    [1.0, 0.0, 0.0, 0.0],
    [0.0, 0.0, 1.0, 0.0],
    [0.0, 0.0, 0.0, 1.0]
],
  "dcmmeta_shape": [82, 82, 56, 914],
  "dcmmeta_slice_dim": 2,
  "dcmmeta_version": 0.6,
  "global": {
    "const": {
      "AccessionNumber": "A003909",
      "AcquisitionMatrix": [82, 0, 0, 82],
      "AngioFlag": "N",
      "BitsAllocated": 16,
      "BitsStored": 16,
      "BodyPartExamined": "BRAIN",
      "Columns": 656,
      "EchoNumbers": 1,
      "EchoTime": 27.2,
      "EchoTrainLength": 82,
      "FlipAngle": 44.0,
      "HighBit": 15,
      "ImageOrientationPatient": [0.9979546839845, -0.0282305714049, 0.05735401948903, 0.03049023090385, 0.99877731638578, -0.0389129553316],
      "ImagePositionPatient": [-901.77381857956, -872.48546998721, -108.07488519746],
      "ImageType": [
        "ORIGINAL",
        "PRIMARY",
        "M",
        "MB",
        "ND",
        "NORM",
        "MOSAIC"
],
      "ImagedNucleus": "1H",
      "ImagingFrequency": 123.252257,
      "InPlanePhaseEncodingDirection": "COL",
      "MRAcquisitionType": "2D",
      "MagneticFieldStrength": 3.0,
      "Manufacturer": "SIEMENS",
      "ManufacturerModelName": "Prisma",
      "Modality": "MR",
      "NumberOfAverages": 1.0,
      "NumberOfPhaseEncodingSteps": 82,
      "PercentPhaseFieldOfView": 100.0,
      "PercentSampling": 100.0,
      "PerformedProcedureStepStartTime": "141312.028000",
      "PhotometricInterpretation": "MONOCHROME2",
      "PixelBandwidth": 3050.0,
      "PixelRepresentation": 0,
      "PixelSpacing": [2.6829268932343, 2.6829268932343],
      "ProtocolName": "func_run-04_task-alignvideo_acq-ap-mb8",
      "RepetitionTime": 460.0,
      "Rows": 656,
      "SAR": 0.10939578030168,
      "SamplesPerPixel": 1,
      "ScanOptions": "FS",
      "ScanningSequence": "EP",
      "SequenceName": "epfid2d1_82",
      "SequenceVariant": [
        "SK",
        "SS"
],
      "SeriesDescription": "func_run-04_task-alignvideo_acq-ap-mb8",
      "SeriesNumber": 34,
      "SeriesTime": "160014.809000",
      "SliceLocation": -92.555802995152,
      "SliceThickness": 2.7000000476837,
      "SmallestImagePixelValue": 0,
      "SoftwareVersions": "syngo MR E11",
      "SpacingBetweenSlices": 2.6999999814601,
      "SpecificCharacterSet": "ISO_IR 100",
      "StudyID": "2",
      "StudyTime": "141311.948000",
      "TransmitCoilName": "Body",
      "VariableFlipAngleFlag": "N",
      "WindowCenterWidthExplanation": "Algo1"
    },
    "slices": {}
  },
  "time": {
    "samples": {
      "AcquisitionNumber": [1, 2, 3, 4, 5, 6, 7, 8, 9, 10, 11, 12, 13, 14, 15, 16, 17, 18, 19, 20, 21, 22, 23, 24, 25, 26, 27, 28, 29, 30, 31, 32, 33, 34, 35, 36, 37, 38, 39, 40, 41, 42, 43, 44, 45, 46, 47, 48, 49, 50, 51, 52, 53, 54, 55, 56, 57, 58, 59, 60, 61, 62, 63, 64, 65, 66, 67, 68, 69, 70, 71, 72, 73, 74, 75, 76, 77, 78, 79, 80, 81, 82, 83, 84, 85, 86, 87, 88, 89, 90, 91, 92, 93, 94, 95, 96, 97, 98, 99, 100, 101, 102, 103, 104, 105, 106, 107, 108, 109, 110, 111, 112, 113, 114, 115, 116, 117, 118, 119, 120, 121, 122, 123, 124, 125, 126, 127, 128, 129, 130, 131, 132, 133, 134, 135, 136, 137, 138, 139, 140, 141, 142, 143, 144, 145, 146, 147, 148, 149, 150, 151, 152, 153, 154, 155, 156, 157, 158, 159, 160, 161, 162, 163, 164, 165, 166, 167, 168, 169, 170, 171, 172, 173, 174, 175, 176, 177, 178, 179, 180, 181, 182, 183, 184, 185, 186, 187, 188, 189, 190, 191, 192, 193, 194, 195, 196, 197, 198, 199, 200, 201, 202, 203, 204, 205, 206, 207, 208, 209, 210, 211, 212, 213, 214, 215, 216, 217, 218, 219, 220, 221, 222, 223, 224, 225, 226, 227, 228, 229, 230, 231, 232, 233, 234, 235, 236, 237, 238, 239, 240, 241, 242, 243, 244, 245, 246, 247, 248, 249, 250, 251, 252, 253, 254, 255, 256, 257, 258, 259, 260, 261, 262, 263, 264, 265, 266, 267, 268, 269, 270, 271, 272, 273, 274, 275, 276, 277, 278, 279, 280, 281, 282, 283, 284, 285, 286, 287, 288, 289, 290, 291, 292, 293, 294, 295, 296, 297, 298, 299, 300, 301, 302, 303, 304, 305, 306, 307, 308, 309, 310, 311, 312, 313, 314, 315, 316, 317, 318, 319, 320, 321, 322, 323, 324, 325, 326, 327, 328, 329, 330, 331, 332, 333, 334, 335, 336, 337, 338, 339, 340, 341, 342, 343, 344, 345, 346, 347, 348, 349, 350, 351, 352, 353, 354, 355, 356, 357, 358, 359, 360, 361, 362, 363, 364, 365, 366, 367, 368, 369, 370, 371, 372, 373, 374, 375, 376, 377, 378, 379, 380, 381, 382, 383, 384, 385, 386, 387, 388, 389, 390, 391, 392, 393, 394, 395, 396, 397, 398, 399, 400, 401, 402, 403, 404, 405, 406, 407, 408, 409, 410, 411, 412, 413, 414, 415, 416, 417, 418, 419, 420, 421, 422, 423, 424, 425, 426, 427, 428, 429, 430, 431, 432, 433, 434, 435, 436, 437, 438, 439, 440, 441, 442, 443, 444, 445, 446, 447, 448, 449, 450, 451, 452, 453, 454, 455, 456, 457, 458, 459, 460, 461, 462, 463, 464, 465, 466, 467, 468, 469, 470, 471, 472, 473, 474, 475, 476, 477, 478, 479, 480, 481, 482, 483, 484, 485, 486, 487, 488, 489, 490, 491, 492, 493, 494, 495, 496, 497, 498, 499, 500, 501, 502, 503, 504, 505, 506, 507, 508, 509, 510, 511, 512, 513, 514, 515, 516, 517, 518, 519, 520, 521, 522, 523, 524, 525, 526, 527, 528, 529, 530, 531, 532, 533, 534, 535, 536, 537, 538, 539, 540, 541, 542, 543, 544, 545, 546, 547, 548, 549, 550, 551, 552, 553, 554, 555, 556, 557, 558, 559, 560, 561, 562, 563, 564, 565, 566, 567, 568, 569, 570, 571, 572, 573, 574, 575, 576, 577, 578, 579, 580, 581, 582, 583, 584, 585, 586, 587, 588, 589, 590, 591, 592, 593, 594, 595, 596, 597, 598, 599, 600, 601, 602, 603, 604, 605, 606, 607, 608, 609, 610, 611, 612, 613, 614, 615, 616, 617, 618, 619, 620, 621, 622, 623, 624, 625, 626, 627, 628, 629, 630, 631, 632, 633, 634, 635, 636, 637, 638, 639, 640, 641, 642, 643, 644, 645, 646, 647, 648, 649, 650, 651, 652, 653, 654, 655, 656, 657, 658, 659, 660, 661, 662, 663, 664, 665, 666, 667, 668, 669, 670, 671, 672, 673, 674, 675, 676, 677, 678, 679, 680, 681, 682, 683, 684, 685, 686, 687, 688, 689, 690, 691, 692, 693, 694, 695, 696, 697, 698, 699, 700, 701, 702, 703, 704, 705, 706, 707, 708, 709, 710, 711, 712, 713, 714, 715, 716, 717, 718, 719, 720, 721, 722, 723, 724, 725, 726, 727, 728, 729, 730, 731, 732, 733, 734, 735, 736, 737, 738, 739, 740, 741, 742, 743, 744, 745, 746, 747, 748, 749, 750, 751, 752, 753, 754, 755, 756, 757, 758, 759, 760, 761, 762, 763, 764, 765, 766, 767, 768, 769, 770, 771, 772, 773, 774, 775, 776, 777, 778, 779, 780, 781, 782, 783, 784, 785, 786, 787, 788, 789, 790, 791, 792, 793, 794, 795, 796, 797, 798, 799, 800, 801, 802, 803, 804, 805, 806, 807, 808, 809, 810, 811, 812, 813, 814, 815, 816, 817, 818, 819, 820, 821, 822, 823, 824, 825, 826, 827, 828, 829, 830, 831, 832, 833, 834, 835, 836, 837, 838, 839, 840, 841, 842, 843, 844, 845, 846, 847, 848, 849, 850, 851, 852, 853, 854, 855, 856, 857, 858, 859, 860, 861, 862, 863, 864, 865, 866, 867, 868, 869, 870, 871, 872, 873, 874, 875, 876, 877, 878, 879, 880, 881, 882, 883, 884, 885, 886, 887, 888, 889, 890, 891, 892, 893, 894, 895, 896, 897, 898, 899, 900, 901, 902, 903, 904, 905, 906, 907, 908, 909, 910, 911, 912, 913, 914],
      "AcquisitionTime": ["155946.410000", "155946.870000", "155947.330000", "155947.790000", "155948.250000", "155948.710000", "155949.170000", "155949.630000", "155950.090000", "155950.550000", "155951.010000", "155951.470000", "155951.930000", "155952.390000", "155952.850000", "155953.310000", "155953.770000", "155954.230000", "155954.690000", "155955.150000", "155955.610000", "155956.070000", "155956.530000", "155956.990000", "155957.450000", "155957.910000", "155958.370000", "155958.830000", "155959.290000", "155959.750000", "160000.210000", "160000.670000", "160001.130000", "160001.590000", "160002.050000", "160002.510000", "160002.970000", "160003.430000", "160003.890000", "160004.350000", "160004.810000", "160005.270000", "160005.730000", "160006.190000", "160006.650000", "160007.110000", "160007.570000", "160008.030000", "160008.490000", "160008.950000", "160009.410000", "160009.870000", "160010.330000", "160010.790000", "160011.250000", "160011.710000", "160012.170000", "160012.630000", "160013.090000", "160013.550000", "160014.010000", "160014.470000", "160014.930000", "160015.390000", "160015.850000", "160016.310000", "160016.770000", "160017.230000", "160017.690000", "160018.150000", "160018.610000", "160019.070000", "160019.530000", "160019.990000", "160020.450000", "160020.910000", "160021.370000", "160021.830000", "160022.290000", "160022.750000", "160023.210000", "160023.670000", "160024.130000", "160024.590000", "160025.050000", "160025.510000", "160025.970000", "160026.430000", "160026.890000", "160027.350000", "160027.810000", "160028.270000", "160028.730000", "160029.190000", "160029.650000", "160030.110000", "160030.570000", "160031.030000", "160031.490000", "160031.950000", "160032.410000", "160032.870000", "160033.330000", "160033.790000", "160034.250000", "160034.710000", "160035.170000", "160035.630000", "160036.090000", "160036.550000", "160037.010000", "160037.470000", "160037.930000", "160038.390000", "160038.850000", "160039.310000", "160039.770000", "160040.230000", "160040.690000", "160041.150000", "160041.610000", "160042.070000", "160042.530000", "160042.990000", "160043.450000", "160043.910000", "160044.370000", "160044.830000", "160045.290000", "160045.750000", "160046.210000", "160046.670000", "160047.130000", "160047.590000", "160048.050000", "160048.510000", "160048.970000", "160049.430000", "160049.890000", "160050.350000", "160050.810000", "160051.270000", "160051.730000", "160052.190000", "160052.650000", "160053.110000", "160053.570000", "160054.030000", "160054.490000", "160054.950000", "160055.410000", "160055.870000", "160056.330000", "160056.790000", "160057.250000", "160057.710000", "160058.170000", "160058.630000", "160059.090000", "160059.550000", "160100.010000", "160100.470000", "160100.930000", "160101.390000", "160101.850000", "160102.310000", "160102.770000", "160103.230000", "160103.690000", "160104.150000", "160104.610000", "160105.070000", "160105.530000", "160105.990000", "160106.450000", "160106.910000", "160107.370000", "160107.830000", "160108.290000", "160108.750000", "160109.210000", "160109.670000", "160110.130000", "160110.590000", "160111.050000", "160111.510000", "160111.970000", "160112.430000", "160112.890000", "160113.350000", "160113.810000", "160114.270000", "160114.730000", "160115.190000", "160115.650000", "160116.110000", "160116.570000", "160117.030000", "160117.490000", "160117.950000", "160118.410000", "160118.870000", "160119.330000", "160119.790000", "160120.250000", "160120.710000", "160121.170000", "160121.630000", "160122.090000", "160122.550000", "160123.010000", "160123.470000", "160123.930000", "160124.390000", "160124.850000", "160125.310000", "160125.770000", "160126.230000", "160126.690000", "160127.150000", "160127.610000", "160128.070000", "160128.530000", "160128.990000", "160129.450000", "160129.910000", "160130.370000", "160130.830000", "160131.290000", "160131.750000", "160132.210000", "160132.670000", "160133.130000", "160133.590000", "160134.050000", "160134.510000", "160134.970000", "160135.430000", "160135.890000", "160136.350000", "160136.810000", "160137.270000", "160137.730000", "160138.190000", "160138.650000", "160139.110000", "160139.570000", "160140.030000", "160140.490000", "160140.950000", "160141.410000", "160141.870000", "160142.330000", "160142.790000", "160143.250000", "160143.710000", "160144.170000", "160144.630000", "160145.090000", "160145.550000", "160146.010000", "160146.470000", "160146.930000", "160147.390000", "160147.850000", "160148.310000", "160148.770000", "160149.230000", "160149.690000", "160150.150000", "160150.610000", "160151.070000", "160151.530000", "160151.990000", "160152.450000", "160152.910000", "160153.370000", "160153.830000", "160154.290000", "160154.750000", "160155.210000", "160155.670000", "160156.130000", "160156.590000", "160157.050000", "160157.510000", "160157.970000", "160158.430000", "160158.890000", "160159.350000", "160159.810000", "160200.270000", "160200.730000", "160201.190000", "160201.650000", "160202.110000", "160202.570000", "160203.030000", "160203.490000", "160203.950000", "160204.410000", "160204.870000", "160205.330000", "160205.790000", "160206.250000", "160206.710000", "160207.170000", "160207.630000", "160208.090000", "160208.550000", "160209.010000", "160209.470000", "160209.930000", "160210.390000", "160210.850000", "160211.310000", "160211.770000", "160212.230000", "160212.690000", "160213.150000", "160213.610000", "160214.070000", "160214.530000", "160214.990000", "160215.450000", "160215.910000", "160216.370000", "160216.830000", "160217.290000", "160217.750000", "160218.210000", "160218.670000", "160219.130000", "160219.590000", "160220.050000", "160220.510000", "160220.970000", "160221.430000", "160221.890000", "160222.350000", "160222.810000", "160223.270000", "160223.730000", "160224.190000", "160224.650000", "160225.110000", "160225.570000", "160226.030000", "160226.490000", "160226.950000", "160227.410000", "160227.870000", "160228.330000", "160228.790000", "160229.250000", "160229.710000", "160230.170000", "160230.630000", "160231.090000", "160231.550000", "160232.010000", "160232.470000", "160232.930000", "160233.390000", "160233.850000", "160234.310000", "160234.770000", "160235.230000", "160235.690000", "160236.150000", "160236.610000", "160237.070000", "160237.530000", "160237.990000", "160238.450000", "160238.910000", "160239.370000", "160239.830000", "160240.290000", "160240.750000", "160241.210000", "160241.670000", "160242.130000", "160242.590000", "160243.050000", "160243.510000", "160243.970000", "160244.430000", "160244.890000", "160245.350000", "160245.810000", "160246.270000", "160246.730000", "160247.190000", "160247.650000", "160248.110000", "160248.570000", "160249.030000", "160249.490000", "160249.950000", "160250.410000", "160250.870000", "160251.330000", "160251.790000", "160252.250000", "160252.710000", "160253.170000", "160253.630000", "160254.090000", "160254.550000", "160255.010000", "160255.470000", "160255.930000", "160256.390000", "160256.850000", "160257.310000", "160257.770000", "160258.230000", "160258.690000", "160259.150000", "160259.610000", "160300.070000", "160300.530000", "160300.990000", "160301.450000", "160301.910000", "160302.370000", "160302.830000", "160303.290000", "160303.750000", "160304.210000", "160304.670000", "160305.130000", "160305.590000", "160306.050000", "160306.510000", "160306.970000", "160307.430000", "160307.890000", "160308.350000", "160308.810000", "160309.270000", "160309.730000", "160310.190000", "160310.650000", "160311.110000", "160311.570000", "160312.030000", "160312.490000", "160312.950000", "160313.410000", "160313.870000", "160314.330000", "160314.790000", "160315.250000", "160315.710000", "160316.170000", "160316.630000", "160317.090000", "160317.550000", "160318.010000", "160318.470000", "160318.930000", "160319.390000", "160319.850000", "160320.310000", "160320.770000", "160321.230000", "160321.690000", "160322.150000", "160322.610000", "160323.070000", "160323.530000", "160323.990000", "160324.450000", "160324.910000", "160325.370000", "160325.830000", "160326.290000", "160326.750000", "160327.210000", "160327.670000", "160328.130000", "160328.590000", "160329.050000", "160329.510000", "160329.970000", "160330.430000", "160330.890000", "160331.350000", "160331.810000", "160332.270000", "160332.730000", "160333.190000", "160333.650000", "160334.110000", "160334.570000", "160335.030000", "160335.490000", "160335.950000", "160336.410000", "160336.870000", "160337.330000", "160337.790000", "160338.250000", "160338.710000", "160339.170000", "160339.630000", "160340.090000", "160340.550000", "160341.010000", "160341.470000", "160341.930000", "160342.390000", "160342.850000", "160343.310000", "160343.770000", "160344.230000", "160344.690000", "160345.150000", "160345.610000", "160346.070000", "160346.530000", "160346.990000", "160347.450000", "160347.910000", "160348.370000", "160348.830000", "160349.290000", "160349.750000", "160350.210000", "160350.670000", "160351.130000", "160351.590000", "160352.050000", "160352.510000", "160352.970000", "160353.430000", "160353.890000", "160354.350000", "160354.810000", "160355.270000", "160355.730000", "160356.190000", "160356.650000", "160357.110000", "160357.570000", "160358.030000", "160358.490000", "160358.950000", "160359.410000", "160359.870000", "160400.330000", "160400.790000", "160401.250000", "160401.710000", "160402.170000", "160402.630000", "160403.090000", "160403.550000", "160404.010000", "160404.470000", "160404.930000", "160405.390000", "160405.850000", "160406.310000", "160406.770000", "160407.230000", "160407.690000", "160408.150000", "160408.610000", "160409.070000", "160409.530000", "160409.990000", "160410.450000", "160410.910000", "160411.370000", "160411.830000", "160412.290000", "160412.750000", "160413.210000", "160413.670000", "160414.130000", "160414.590000", "160415.050000", "160415.510000", "160415.970000", "160416.430000", "160416.890000", "160417.350000", "160417.810000", "160418.270000", "160418.730000", "160419.190000", "160419.650000", "160420.110000", "160420.570000", "160421.030000", "160421.490000", "160421.950000", "160422.410000", "160422.870000", "160423.330000", "160423.790000", "160424.250000", "160424.710000", "160425.170000", "160425.630000", "160426.090000", "160426.550000", "160427.010000", "160427.470000", "160427.930000", "160428.390000", "160428.850000", "160429.310000", "160429.770000", "160430.230000", "160430.690000", "160431.150000", "160431.610000", "160432.070000", "160432.530000", "160432.990000", "160433.450000", "160433.910000", "160434.370000", "160434.830000", "160435.290000", "160435.750000", "160436.210000", "160436.670000", "160437.130000", "160437.590000", "160438.050000", "160438.510000", "160438.970000", "160439.430000", "160439.890000", "160440.350000", "160440.810000", "160441.270000", "160441.730000", "160442.190000", "160442.650000", "160443.110000", "160443.570000", "160444.030000", "160444.490000", "160444.950000", "160445.410000", "160445.870000", "160446.330000", "160446.790000", "160447.250000", "160447.710000", "160448.170000", "160448.630000", "160449.090000", "160449.550000", "160450.010000", "160450.470000", "160450.930000", "160451.390000", "160451.850000", "160452.310000", "160452.770000", "160453.230000", "160453.690000", "160454.150000", "160454.610000", "160455.070000", "160455.530000", "160455.990000", "160456.450000", "160456.910000", "160457.370000", "160457.830000", "160458.290000", "160458.750000", "160459.210000", "160459.670000", "160500.130000", "160500.590000", "160501.050000", "160501.510000", "160501.970000", "160502.430000", "160502.890000", "160503.350000", "160503.810000", "160504.270000", "160504.730000", "160505.190000", "160505.650000", "160506.110000", "160506.570000", "160507.030000", "160507.490000", "160507.950000", "160508.410000", "160508.870000", "160509.330000", "160509.790000", "160510.250000", "160510.710000", "160511.170000", "160511.630000", "160512.090000", "160512.550000", "160513.010000", "160513.470000", "160513.930000", "160514.390000", "160514.850000", "160515.310000", "160515.770000", "160516.230000", "160516.690000", "160517.150000", "160517.610000", "160518.070000", "160518.530000", "160518.990000", "160519.450000", "160519.910000", "160520.370000", "160520.830000", "160521.290000", "160521.750000", "160522.210000", "160522.670000", "160523.130000", "160523.590000", "160524.050000", "160524.510000", "160524.970000", "160525.430000", "160525.890000", "160526.350000", "160526.810000", "160527.270000", "160527.730000", "160528.190000", "160528.650000", "160529.110000", "160529.570000", "160530.030000", "160530.490000", "160530.950000", "160531.410000", "160531.870000", "160532.330000", "160532.790000", "160533.250000", "160533.710000", "160534.170000", "160534.630000", "160535.090000", "160535.550000", "160536.010000", "160536.470000", "160536.930000", "160537.390000", "160537.850000", "160538.310000", "160538.770000", "160539.230000", "160539.690000", "160540.150000", "160540.610000", "160541.070000", "160541.530000", "160541.990000", "160542.450000", "160542.910000", "160543.370000", "160543.830000", "160544.290000", "160544.750000", "160545.210000", "160545.670000", "160546.130000", "160546.590000", "160547.050000", "160547.510000", "160547.970000", "160548.430000", "160548.890000", "160549.350000", "160549.810000", "160550.270000", "160550.730000", "160551.190000", "160551.650000", "160552.110000", "160552.570000", "160553.030000", "160553.490000", "160553.950000", "160554.410000", "160554.870000", "160555.330000", "160555.790000", "160556.250000", "160556.710000", "160557.170000", "160557.630000", "160558.090000", "160558.550000", "160559.010000", "160559.470000", "160559.930000", "160600.390000", "160600.850000", "160601.310000", "160601.770000", "160602.230000", "160602.690000", "160603.150000", "160603.610000", "160604.070000", "160604.530000", "160604.990000", "160605.450000", "160605.910000", "160606.370000", "160606.830000", "160607.290000", "160607.750000", "160608.210000", "160608.670000", "160609.130000", "160609.590000", "160610.050000", "160610.510000", "160610.970000", "160611.430000", "160611.890000", "160612.350000", "160612.810000", "160613.270000", "160613.730000", "160614.190000", "160614.650000", "160615.110000", "160615.570000", "160616.030000", "160616.490000", "160616.950000", "160617.410000", "160617.870000", "160618.330000", "160618.790000", "160619.250000", "160619.710000", "160620.170000", "160620.630000", "160621.090000", "160621.550000", "160622.010000", "160622.470000", "160622.930000", "160623.390000", "160623.850000", "160624.310000", "160624.770000", "160625.230000", "160625.690000", "160626.150000", "160626.610000", "160627.070000", "160627.530000", "160627.990000", "160628.450000", "160628.910000", "160629.370000", "160629.830000", "160630.290000", "160630.750000", "160631.210000", "160631.670000", "160632.130000", "160632.590000", "160633.050000", "160633.510000", "160633.970000", "160634.430000", "160634.890000", "160635.350000", "160635.810000", "160636.270000", "160636.730000", "160637.190000", "160637.650000", "160638.110000", "160638.570000", "160639.030000", "160639.490000", "160639.950000", "160640.410000", "160640.870000", "160641.330000", "160641.790000", "160642.250000", "160642.710000", "160643.170000", "160643.630000", "160644.090000", "160644.550000", "160645.010000", "160645.470000", "160645.930000", "160646.390000"],
