{
  "AcquisitionMatrixPE": 82,
  "AcquisitionNumber": 1,
  "AcquisitionTime": "14:29:11.390000",
  "BandwidthPerPixelPhaseEncode": 24.888,
  "BaseResolution": 82,
  "BodyPartExamined": "BRAIN",
  "ConsistencyInfo": "N4_VE11E_LATEST_20181129",
  "ConversionSoftware": "dcm2niix",
  "ConversionSoftwareVersion": "v1.0.20201102",
  "DerivedVendorReportedEchoSpacing": 0.00049,
  "DeviceSerialNumber": "66112",
  "DwellTime": 2e-06,
  "EchoTime": 0.0272,
  "EchoTrainLength": 82,
  "EffectiveEchoSpacing": 0.00049,
  "FlipAngle": 44,
  "ImageComments": "Unaliased MB8/PE3",
  "ImageOrientationPatientDICOM": [0.999782, -0.0118807, 0.0171575, 0.0137859, 0.993203, -0.115574],
  "ImageType": [
    "ORIGINAL",
    "PRIMARY",
    "M",
    "MB",
    "ND",
    "NORM",
    "MOSAIC"
],
  "ImagingFrequency": 123.252,
  "InPlanePhaseEncodingDirectionDICOM": "COL",
  "InstitutionAddress": "Maynard 3,Hanover,NH,US,03755",
  "InstitutionName": "Dartmouth College - PBS",
  "InstitutionalDepartmentName": "Department",
  "MRAcquisitionType": "2D",
  "MagneticFieldStrength": 3,
  "Manufacturer": "Siemens",
  "ManufacturersModelName": "Prisma",
  "Modality": "MR",
  "MultibandAccelerationFactor": 8,
  "PartialFourier": 1,
  "PatientPosition": "HFS",
  "PercentPhaseFOV": 100,
  "PercentSampling": 100,
  "PhaseEncodingDirection": "j-",
  "PhaseEncodingSteps": 82,
  "PhaseResolution": 1,
  "PixelBandwidth": 3050,
  "ProcedureStepDescription": "Wager_Wager^1076_spacetop",
  "ProtocolName": "func_run-02_task-narratives_acq-ap-mb8",
  "PulseSequenceDetails": "%CustomerSeq%\\cmrr_mbep2d_bold",
  "ReceiveCoilActiveElements": "HEA;HEP",
  "ReceiveCoilName": "Head_32",
  "ReconMatrixPE": 82,
  "RepetitionTime": 0.46,
  "SAR": 0.109505,
  "ScanOptions": "FS",
  "ScanningSequence": "EP",
  "SequenceName": "epfid2d1_82",
  "SequenceVariant": "SK\\SS",
  "SeriesDescription": "func_run-02_task-narratives_acq-ap-mb8",
  "SeriesNumber": 10,
  "ShimSetting": [4169, -7698, -7286, 578, 34, -204, -108, 49],
  "SliceThickness": 2.7,
  "SliceTiming": [0, 0.2525, 0.0625, 0.315, 0.125, 0.3775, 0.1875, 0, 0.2525, 0.0625, 0.315, 0.125, 0.3775, 0.1875, 0, 0.2525, 0.0625, 0.315, 0.125, 0.3775, 0.1875, 0, 0.2525, 0.0625, 0.315, 0.125, 0.3775, 0.1875, 0, 0.2525, 0.0625, 0.315, 0.125, 0.3775, 0.1875, 0, 0.2525, 0.0625, 0.315, 0.125, 0.3775, 0.1875, 0, 0.2525, 0.0625, 0.315, 0.125, 0.3775, 0.1875, 0, 0.2525, 0.0625, 0.315, 0.125, 0.3775, 0.1875],
  "SoftwareVersions": "syngo MR E11",
  "SpacingBetweenSlices": 2.7,
  "StationName": "AWP66112",
  "TaskName": "narratives",
  "TotalReadoutTime": 0.03969,
  "TxRefAmp": 267.983,
  "WipMemBlock": "a7b776a0-76b8-4e04-a64e-7083caef2457||Sequence: R016 ve11e/master r/434b28f1; Aug  7 2019 18:53:46 by eja",
  "dcmmeta_affine": [
    [-2.682342529296875, 0.03698668256402016, 0.042303018271923065, 108.90526580810547],
    [0.031875111162662506, 2.66469144821167, -0.3126218020915985, -77.8720703125],
    [0.04603234678506851, 0.3100779056549072, 2.681506633758545, -98.45697021484375],
    [0.0, 0.0, 0.0, 1.0]
],
  "dcmmeta_reorient_transform": [
    [0.0, -1.0, 0.0, 81.0],
    [1.0, 0.0, 0.0, 0.0],
    [0.0, 0.0, 1.0, 0.0],
    [0.0, 0.0, 0.0, 1.0]
],
  "dcmmeta_shape": [82, 82, 56, 1098],
  "dcmmeta_slice_dim": 2,
  "dcmmeta_version": 0.6,
  "global": {
    "const": {
      "AccessionNumber": "A003909",
      "AcquisitionMatrix": [82, 0, 0, 82],
      "AngioFlag": "N",
      "BitsAllocated": 16,
      "BitsStored": 16,
      "BodyPartExamined": "BRAIN",
      "Columns": 656,
      "EchoNumbers": 1,
      "EchoTime": 27.2,
      "EchoTrainLength": 82,
      "FlipAngle": 44.0,
      "HighBit": 15,
      "ImageOrientationPatient": [0.9997822104164, -0.0118807231577, 0.01715751008013, 0.01378594448249, 0.99320314402996, -0.1155744886371],
      "ImagePositionPatient": [-892.34868710523, -893.58621761609, 2.4404164005484],
      "ImageType": [
        "ORIGINAL",
        "PRIMARY",
        "M",
        "MB",
        "ND",
        "NORM",
        "MOSAIC"
],
      "ImagedNucleus": "1H",
      "ImagingFrequency": 123.252246,
      "InPlanePhaseEncodingDirection": "COL",
      "MRAcquisitionType": "2D",
      "MagneticFieldStrength": 3.0,
      "Manufacturer": "SIEMENS",
      "ManufacturerModelName": "Prisma",
      "Modality": "MR",
      "NumberOfAverages": 1.0,
      "NumberOfPhaseEncodingSteps": 82,
      "PercentPhaseFieldOfView": 100.0,
      "PercentSampling": 100.0,
      "PerformedProcedureStepStartTime": "141312.028000",
      "PhotometricInterpretation": "MONOCHROME2",
      "PixelBandwidth": 3050.0,
      "PixelRepresentation": 0,
      "PixelSpacing": [2.6829268932343, 2.6829268932343],
      "ProtocolName": "func_run-02_task-narratives_acq-ap-mb8",
      "RepetitionTime": 460.0,
      "Rows": 656,
      "SAR": 0.10950474581076,
      "SamplesPerPixel": 1,
      "ScanOptions": "FS",
      "ScanningSequence": "EP",
      "SequenceName": "epfid2d1_82",
      "SequenceVariant": [
        "SK",
        "SS"
],
      "SeriesDescription": "func_run-02_task-narratives_acq-ap-mb8",
      "SeriesNumber": 10,
      "SeriesTime": "142934.793000",
      "SliceLocation": -87.059811981755,
      "SliceThickness": 2.7000000476837,
      "SmallestImagePixelValue": 0,
      "SoftwareVersions": "syngo MR E11",
      "SpacingBetweenSlices": 2.7000000172165,
      "SpecificCharacterSet": "ISO_IR 100",
      "StudyID": "2",
      "StudyTime": "141311.948000",
      "TransmitCoilName": "Body",
      "VariableFlipAngleFlag": "N",
      "WindowCenterWidthExplanation": "Algo1"
    },
    "slices": {}
  },
  "time": {
    "samples": {
      "AcquisitionNumber": [1, 2, 3, 4, 5, 6, 7, 8, 9, 10, 11, 12, 13, 14, 15, 16, 17, 18, 19, 20, 21, 22, 23, 24, 25, 26, 27, 28, 29, 30, 31, 32, 33, 34, 35, 36, 37, 38, 39, 40, 41, 42, 43, 44, 45, 46, 47, 48, 49, 50, 51, 52, 53, 54, 55, 56, 57, 58, 59, 60, 61, 62, 63, 64, 65, 66, 67, 68, 69, 70, 71, 72, 73, 74, 75, 76, 77, 78, 79, 80, 81, 82, 83, 84, 85, 86, 87, 88, 89, 90, 91, 92, 93, 94, 95, 96, 97, 98, 99, 100, 101, 102, 103, 104, 105, 106, 107, 108, 109, 110, 111, 112, 113, 114, 115, 116, 117, 118, 119, 120, 121, 122, 123, 124, 125, 126, 127, 128, 129, 130, 131, 132, 133, 134, 135, 136, 137, 138, 139, 140, 141, 142, 143, 144, 145, 146, 147, 148, 149, 150, 151, 152, 153, 154, 155, 156, 157, 158, 159, 160, 161, 162, 163, 164, 165, 166, 167, 168, 169, 170, 171, 172, 173, 174, 175, 176, 177, 178, 179, 180, 181, 182, 183, 184, 185, 186, 187, 188, 189, 190, 191, 192, 193, 194, 195, 196, 197, 198, 199, 200, 201, 202, 203, 204, 205, 206, 207, 208, 209, 210, 211, 212, 213, 214, 215, 216, 217, 218, 219, 220, 221, 222, 223, 224, 225, 226, 227, 228, 229, 230, 231, 232, 233, 234, 235, 236, 237, 238, 239, 240, 241, 242, 243, 244, 245, 246, 247, 248, 249, 250, 251, 252, 253, 254, 255, 256, 257, 258, 259, 260, 261, 262, 263, 264, 265, 266, 267, 268, 269, 270, 271, 272, 273, 274, 275, 276, 277, 278, 279, 280, 281, 282, 283, 284, 285, 286, 287, 288, 289, 290, 291, 292, 293, 294, 295, 296, 297, 298, 299, 300, 301, 302, 303, 304, 305, 306, 307, 308, 309, 310, 311, 312, 313, 314, 315, 316, 317, 318, 319, 320, 321, 322, 323, 324, 325, 326, 327, 328, 329, 330, 331, 332, 333, 334, 335, 336, 337, 338, 339, 340, 341, 342, 343, 344, 345, 346, 347, 348, 349, 350, 351, 352, 353, 354, 355, 356, 357, 358, 359, 360, 361, 362, 363, 364, 365, 366, 367, 368, 369, 370, 371, 372, 373, 374, 375, 376, 377, 378, 379, 380, 381, 382, 383, 384, 385, 386, 387, 388, 389, 390, 391, 392, 393, 394, 395, 396, 397, 398, 399, 400, 401, 402, 403, 404, 405, 406, 407, 408, 409, 410, 411, 412, 413, 414, 415, 416, 417, 418, 419, 420, 421, 422, 423, 424, 425, 426, 427, 428, 429, 430, 431, 432, 433, 434, 435, 436, 437, 438, 439, 440, 441, 442, 443, 444, 445, 446, 447, 448, 449, 450, 451, 452, 453, 454, 455, 456, 457, 458, 459, 460, 461, 462, 463, 464, 465, 466, 467, 468, 469, 470, 471, 472, 473, 474, 475, 476, 477, 478, 479, 480, 481, 482, 483, 484, 485, 486, 487, 488, 489, 490, 491, 492, 493, 494, 495, 496, 497, 498, 499, 500, 501, 502, 503, 504, 505, 506, 507, 508, 509, 510, 511, 512, 513, 514, 515, 516, 517, 518, 519, 520, 521, 522, 523, 524, 525, 526, 527, 528, 529, 530, 531, 532, 533, 534, 535, 536, 537, 538, 539, 540, 541, 542, 543, 544, 545, 546, 547, 548, 549, 550, 551, 552, 553, 554, 555, 556, 557, 558, 559, 560, 561, 562, 563, 564, 565, 566, 567, 568, 569, 570, 571, 572, 573, 574, 575, 576, 577, 578, 579, 580, 581, 582, 583, 584, 585, 586, 587, 588, 589, 590, 591, 592, 593, 594, 595, 596, 597, 598, 599, 600, 601, 602, 603, 604, 605, 606, 607, 608, 609, 610, 611, 612, 613, 614, 615, 616, 617, 618, 619, 620, 621, 622, 623, 624, 625, 626, 627, 628, 629, 630, 631, 632, 633, 634, 635, 636, 637, 638, 639, 640, 641, 642, 643, 644, 645, 646, 647, 648, 649, 650, 651, 652, 653, 654, 655, 656, 657, 658, 659, 660, 661, 662, 663, 664, 665, 666, 667, 668, 669, 670, 671, 672, 673, 674, 675, 676, 677, 678, 679, 680, 681, 682, 683, 684, 685, 686, 687, 688, 689, 690, 691, 692, 693, 694, 695, 696, 697, 698, 699, 700, 701, 702, 703, 704, 705, 706, 707, 708, 709, 710, 711, 712, 713, 714, 715, 716, 717, 718, 719, 720, 721, 722, 723, 724, 725, 726, 727, 728, 729, 730, 731, 732, 733, 734, 735, 736, 737, 738, 739, 740, 741, 742, 743, 744, 745, 746, 747, 748, 749, 750, 751, 752, 753, 754, 755, 756, 757, 758, 759, 760, 761, 762, 763, 764, 765, 766, 767, 768, 769, 770, 771, 772, 773, 774, 775, 776, 777, 778, 779, 780, 781, 782, 783, 784, 785, 786, 787, 788, 789, 790, 791, 792, 793, 794, 795, 796, 797, 798, 799, 800, 801, 802, 803, 804, 805, 806, 807, 808, 809, 810, 811, 812, 813, 814, 815, 816, 817, 818, 819, 820, 821, 822, 823, 824, 825, 826, 827, 828, 829, 830, 831, 832, 833, 834, 835, 836, 837, 838, 839, 840, 841, 842, 843, 844, 845, 846, 847, 848, 849, 850, 851, 852, 853, 854, 855, 856, 857, 858, 859, 860, 861, 862, 863, 864, 865, 866, 867, 868, 869, 870, 871, 872, 873, 874, 875, 876, 877, 878, 879, 880, 881, 882, 883, 884, 885, 886, 887, 888, 889, 890, 891, 892, 893, 894, 895, 896, 897, 898, 899, 900, 901, 902, 903, 904, 905, 906, 907, 908, 909, 910, 911, 912, 913, 914, 915, 916, 917, 918, 919, 920, 921, 922, 923, 924, 925, 926, 927, 928, 929, 930, 931, 932, 933, 934, 935, 936, 937, 938, 939, 940, 941, 942, 943, 944, 945, 946, 947, 948, 949, 950, 951, 952, 953, 954, 955, 956, 957, 958, 959, 960, 961, 962, 963, 964, 965, 966, 967, 968, 969, 970, 971, 972, 973, 974, 975, 976, 977, 978, 979, 980, 981, 982, 983, 984, 985, 986, 987, 988, 989, 990, 991, 992, 993, 994, 995, 996, 997, 998, 999, 1000, 1001, 1002, 1003, 1004, 1005, 1006, 1007, 1008, 1009, 1010, 1011, 1012, 1013, 1014, 1015, 1016, 1017, 1018, 1019, 1020, 1021, 1022, 1023, 1024, 1025, 1026, 1027, 1028, 1029, 1030, 1031, 1032, 1033, 1034, 1035, 1036, 1037, 1038, 1039, 1040, 1041, 1042, 1043, 1044, 1045, 1046, 1047, 1048, 1049, 1050, 1051, 1052, 1053, 1054, 1055, 1056, 1057, 1058, 1059, 1060, 1061, 1062, 1063, 1064, 1065, 1066, 1067, 1068, 1069, 1070, 1071, 1072, 1073, 1074, 1075, 1076, 1077, 1078, 1079, 1080, 1081, 1082, 1083, 1084, 1085, 1086, 1087, 1088, 1089, 1090, 1091, 1092, 1093, 1094, 1095, 1096, 1097, 1098],
      "AcquisitionTime": ["142911.390000", "142911.850000", "142912.310000", "142912.770000", "142913.230000", "142913.690000", "142914.150000", "142914.610000", "142915.070000", "142915.530000", "142915.990000", "142916.450000", "142916.910000", "142917.370000", "142917.830000", "142918.290000", "142918.750000", "142919.210000", "142919.670000", "142920.130000", "142920.590000", "142921.050000", "142921.510000", "142921.970000", "142922.430000", "142922.890000", "142923.350000", "142923.810000", "142924.270000", "142924.730000", "142925.190000", "142925.650000", "142926.110000", "142926.570000", "142927.030000", "142927.490000", "142927.950000", "142928.410000", "142928.870000", "142929.330000", "142929.790000", "142930.250000", "142930.710000", "142931.170000", "142931.630000", "142932.090000", "142932.550000", "142933.010000", "142933.470000", "142933.930000", "142934.390000", "142934.850000", "142935.310000", "142935.770000", "142936.230000", "142936.690000", "142937.150000", "142937.610000", "142938.070000", "142938.530000", "142938.990000", "142939.450000", "142939.910000", "142940.370000", "142940.830000", "142941.290000", "142941.750000", "142942.210000", "142942.670000", "142943.130000", "142943.590000", "142944.050000", "142944.510000", "142944.970000", "142945.430000", "142945.890000", "142946.350000", "142946.810000", "142947.270000", "142947.730000", "142948.190000", "142948.650000", "142949.110000", "142949.570000", "142950.030000", "142950.490000", "142950.950000", "142951.410000", "142951.870000", "142952.330000", "142952.790000", "142953.250000", "142953.710000", "142954.170000", "142954.630000", "142955.090000", "142955.550000", "142956.010000", "142956.470000", "142956.930000", "142957.390000", "142957.850000", "142958.310000", "142958.770000", "142959.230000", "142959.690000", "143000.150000", "143000.610000", "143001.070000", "143001.530000", "143001.990000", "143002.450000", "143002.910000", "143003.370000", "143003.830000", "143004.290000", "143004.750000", "143005.210000", "143005.670000", "143006.130000", "143006.590000", "143007.050000", "143007.510000", "143007.970000", "143008.430000", "143008.890000", "143009.350000", "143009.810000", "143010.270000", "143010.730000", "143011.190000", "143011.650000", "143012.110000", "143012.570000", "143013.030000", "143013.490000", "143013.950000", "143014.410000", "143014.870000", "143015.330000", "143015.790000", "143016.250000", "143016.710000", "143017.170000", "143017.630000", "143018.090000", "143018.550000", "143019.010000", "143019.470000", "143019.930000", "143020.390000", "143020.850000", "143021.310000", "143021.770000", "143022.230000", "143022.690000", "143023.150000", "143023.610000", "143024.070000", "143024.530000", "143024.990000", "143025.450000", "143025.910000", "143026.370000", "143026.830000", "143027.290000", "143027.750000", "143028.210000", "143028.670000", "143029.130000", "143029.590000", "143030.050000", "143030.510000", "143030.970000", "143031.430000", "143031.890000", "143032.350000", "143032.810000", "143033.270000", "143033.730000", "143034.190000", "143034.650000", "143035.110000", "143035.570000", "143036.030000", "143036.490000", "143036.950000", "143037.410000", "143037.870000", "143038.330000", "143038.790000", "143039.250000", "143039.710000", "143040.170000", "143040.630000", "143041.090000", "143041.550000", "143042.010000", "143042.470000", "143042.930000", "143043.390000", "143043.850000", "143044.310000", "143044.770000", "143045.230000", "143045.690000", "143046.150000", "143046.610000", "143047.070000", "143047.530000", "143047.990000", "143048.450000", "143048.910000", "143049.370000", "143049.830000", "143050.290000", "143050.750000", "143051.210000", "143051.670000", "143052.130000", "143052.590000", "143053.050000", "143053.510000", "143053.970000", "143054.430000", "143054.890000", "143055.350000", "143055.810000", "143056.270000", "143056.730000", "143057.190000", "143057.650000", "143058.110000", "143058.570000", "143059.030000", "143059.490000", "143059.950000", "143100.410000", "143100.870000", "143101.330000", "143101.790000", "143102.250000", "143102.710000", "143103.170000", "143103.630000", "143104.090000", "143104.550000", "143105.010000", "143105.470000", "143105.930000", "143106.390000", "143106.850000", "143107.310000", "143107.770000", "143108.230000", "143108.690000", "143109.150000", "143109.610000", "143110.070000", "143110.530000", "143110.990000", "143111.450000", "143111.910000", "143112.370000", "143112.830000", "143113.290000", "143113.750000", "143114.210000", "143114.670000", "143115.130000", "143115.590000", "143116.050000", "143116.510000", "143116.970000", "143117.430000", "143117.890000", "143118.350000", "143118.810000", "143119.270000", "143119.730000", "143120.190000", "143120.650000", "143121.110000", "143121.570000", "143122.030000", "143122.490000", "143122.950000", "143123.410000", "143123.870000", "143124.330000", "143124.790000", "143125.250000", "143125.710000", "143126.170000", "143126.630000", "143127.090000", "143127.550000", "143128.010000", "143128.470000", "143128.930000", "143129.390000", "143129.850000", "143130.310000", "143130.770000", "143131.230000", "143131.690000", "143132.150000", "143132.610000", "143133.070000", "143133.530000", "143133.990000", "143134.450000", "143134.910000", "143135.370000", "143135.830000", "143136.290000", "143136.750000", "143137.210000", "143137.670000", "143138.130000", "143138.590000", "143139.050000", "143139.510000", "143139.970000", "143140.430000", "143140.890000", "143141.350000", "143141.810000", "143142.270000", "143142.730000", "143143.190000", "143143.650000", "143144.110000", "143144.570000", "143145.030000", "143145.490000", "143145.950000", "143146.410000", "143146.870000", "143147.330000", "143147.790000", "143148.250000", "143148.710000", "143149.170000", "143149.630000", "143150.090000", "143150.550000", "143151.010000", "143151.470000", "143151.930000", "143152.390000", "143152.850000", "143153.310000", "143153.770000", "143154.230000", "143154.690000", "143155.150000", "143155.610000", "143156.070000", "143156.530000", "143156.990000", "143157.450000", "143157.910000", "143158.370000", "143158.830000", "143159.290000", "143159.750000", "143200.210000", "143200.670000", "143201.130000", "143201.590000", "143202.050000", "143202.510000", "143202.970000", "143203.430000", "143203.890000", "143204.350000", "143204.810000", "143205.270000", "143205.730000", "143206.190000", "143206.650000", "143207.110000", "143207.570000", "143208.030000", "143208.490000", "143208.950000", "143209.410000", "143209.870000", "143210.330000", "143210.790000", "143211.250000", "143211.710000", "143212.170000", "143212.630000", "143213.090000", "143213.550000", "143214.010000", "143214.470000", "143214.930000", "143215.390000", "143215.850000", "143216.310000", "143216.770000", "143217.230000", "143217.690000", "143218.150000", "143218.610000", "143219.070000", "143219.530000", "143219.990000", "143220.450000", "143220.910000", "143221.370000", "143221.830000", "143222.290000", "143222.750000", "143223.210000", "143223.670000", "143224.130000", "143224.590000", "143225.050000", "143225.510000", "143225.970000", "143226.430000", "143226.890000", "143227.350000", "143227.810000", "143228.270000", "143228.730000", "143229.190000", "143229.650000", "143230.110000", "143230.570000", "143231.030000", "143231.490000", "143231.950000", "143232.410000", "143232.870000", "143233.330000", "143233.790000", "143234.250000", "143234.710000", "143235.170000", "143235.630000", "143236.090000", "143236.550000", "143237.010000", "143237.470000", "143237.930000", "143238.390000", "143238.850000", "143239.310000", "143239.770000", "143240.230000", "143240.690000", "143241.150000", "143241.610000", "143242.070000", "143242.530000", "143242.990000", "143243.450000", "143243.910000", "143244.370000", "143244.830000", "143245.290000", "143245.750000", "143246.210000", "143246.670000", "143247.130000", "143247.590000", "143248.050000", "143248.510000", "143248.970000", "143249.430000", "143249.890000", "143250.350000", "143250.810000", "143251.270000", "143251.730000", "143252.190000", "143252.650000", "143253.110000", "143253.570000", "143254.030000", "143254.490000", "143254.950000", "143255.410000", "143255.870000", "143256.330000", "143256.790000", "143257.250000", "143257.710000", "143258.170000", "143258.630000", "143259.090000", "143259.550000", "143300.010000", "143300.470000", "143300.930000", "143301.390000", "143301.850000", "143302.310000", "143302.770000", "143303.230000", "143303.690000", "143304.150000", "143304.610000", "143305.070000", "143305.530000", "143305.990000", "143306.450000", "143306.910000", "143307.370000", "143307.830000", "143308.290000", "143308.750000", "143309.210000", "143309.670000", "143310.130000", "143310.590000", "143311.050000", "143311.510000", "143311.970000", "143312.430000", "143312.890000", "143313.350000", "143313.810000", "143314.270000", "143314.730000", "143315.190000", "143315.650000", "143316.110000", "143316.570000", "143317.030000", "143317.490000", "143317.950000", "143318.410000", "143318.870000", "143319.330000", "143319.790000", "143320.250000", "143320.710000", "143321.170000", "143321.630000", "143322.090000", "143322.550000", "143323.010000", "143323.470000", "143323.930000", "143324.390000", "143324.850000", "143325.310000", "143325.770000", "143326.230000", "143326.690000", "143327.150000", "143327.610000", "143328.070000", "143328.530000", "143328.990000", "143329.450000", "143329.910000", "143330.370000", "143330.830000", "143331.290000", "143331.750000", "143332.210000", "143332.670000", "143333.130000", "143333.590000", "143334.050000", "143334.510000", "143334.970000", "143335.430000", "143335.890000", "143336.350000", "143336.810000", "143337.270000", "143337.730000", "143338.190000", "143338.650000", "143339.110000", "143339.570000", "143340.030000", "143340.490000", "143340.950000", "143341.410000", "143341.870000", "143342.330000", "143342.790000", "143343.250000", "143343.710000", "143344.170000", "143344.630000", "143345.090000", "143345.550000", "143346.010000", "143346.470000", "143346.930000", "143347.390000", "143347.850000", "143348.310000", "143348.770000", "143349.230000", "143349.690000", "143350.150000", "143350.610000", "143351.070000", "143351.530000", "143351.990000", "143352.450000", "143352.910000", "143353.370000", "143353.830000", "143354.290000", "143354.750000", "143355.210000", "143355.670000", "143356.130000", "143356.590000", "143357.050000", "143357.510000", "143357.970000", "143358.430000", "143358.890000", "143359.350000", "143359.810000", "143400.270000", "143400.730000", "143401.190000", "143401.650000", "143402.110000", "143402.570000", "143403.030000", "143403.490000", "143403.950000", "143404.410000", "143404.870000", "143405.330000", "143405.790000", "143406.250000", "143406.710000", "143407.170000", "143407.630000", "143408.090000", "143408.550000", "143409.010000", "143409.470000", "143409.930000", "143410.390000", "143410.850000", "143411.310000", "143411.770000", "143412.230000", "143412.690000", "143413.150000", "143413.610000", "143414.070000", "143414.530000", "143414.990000", "143415.450000", "143415.910000", "143416.370000", "143416.830000", "143417.290000", "143417.750000", "143418.210000", "143418.670000", "143419.130000", "143419.590000", "143420.050000", "143420.510000", "143420.970000", "143421.430000", "143421.890000", "143422.350000", "143422.810000", "143423.270000", "143423.730000", "143424.190000", "143424.650000", "143425.110000", "143425.570000", "143426.030000", "143426.490000", "143426.950000", "143427.410000", "143427.870000", "143428.330000", "143428.790000", "143429.250000", "143429.710000", "143430.170000", "143430.630000", "143431.090000", "143431.550000", "143432.010000", "143432.470000", "143432.930000", "143433.390000", "143433.850000", "143434.310000", "143434.770000", "143435.230000", "143435.690000", "143436.150000", "143436.610000", "143437.070000", "143437.530000", "143437.990000", "143438.450000", "143438.910000", "143439.370000", "143439.830000", "143440.290000", "143440.750000", "143441.210000", "143441.670000", "143442.130000", "143442.590000", "143443.050000", "143443.510000", "143443.970000", "143444.430000", "143444.890000", "143445.350000", "143445.810000", "143446.270000", "143446.730000", "143447.190000", "143447.650000", "143448.110000", "143448.570000", "143449.030000", "143449.490000", "143449.950000", "143450.410000", "143450.870000", "143451.330000", "143451.790000", "143452.250000", "143452.710000", "143453.170000", "143453.630000", "143454.090000", "143454.550000", "143455.010000", "143455.470000", "143455.930000", "143456.390000", "143456.850000", "143457.310000", "143457.770000", "143458.230000", "143458.690000", "143459.150000", "143459.610000", "143500.070000", "143500.530000", "143500.990000", "143501.450000", "143501.910000", "143502.370000", "143502.830000", "143503.290000", "143503.750000", "143504.210000", "143504.670000", "143505.130000", "143505.590000", "143506.050000", "143506.510000", "143506.970000", "143507.430000", "143507.890000", "143508.350000", "143508.810000", "143509.270000", "143509.730000", "143510.190000", "143510.650000", "143511.110000", "143511.570000", "143512.030000", "143512.490000", "143512.950000", "143513.410000", "143513.870000", "143514.330000", "143514.790000", "143515.250000", "143515.710000", "143516.170000", "143516.630000", "143517.090000", "143517.550000", "143518.010000", "143518.470000", "143518.930000", "143519.390000", "143519.850000", "143520.310000", "143520.770000", "143521.230000", "143521.690000", "143522.150000", "143522.610000", "143523.070000", "143523.530000", "143523.990000", "143524.450000", "143524.910000", "143525.370000", "143525.830000", "143526.290000", "143526.750000", "143527.210000", "143527.670000", "143528.130000", "143528.590000", "143529.050000", "143529.510000", "143529.970000", "143530.430000", "143530.890000", "143531.350000", "143531.810000", "143532.270000", "143532.730000", "143533.190000", "143533.650000", "143534.110000", "143534.570000", "143535.030000", "143535.490000", "143535.950000", "143536.410000", "143536.870000", "143537.330000", "143537.790000", "143538.250000", "143538.710000", "143539.170000", "143539.630000", "143540.090000", "143540.550000", "143541.010000", "143541.470000", "143541.930000", "143542.390000", "143542.850000", "143543.310000", "143543.770000", "143544.230000", "143544.690000", "143545.150000", "143545.610000", "143546.070000", "143546.530000", "143546.990000", "143547.450000", "143547.910000", "143548.370000", "143548.830000", "143549.290000", "143549.750000", "143550.210000", "143550.670000", "143551.130000", "143551.590000", "143552.050000", "143552.510000", "143552.970000", "143553.430000", "143553.890000", "143554.350000", "143554.810000", "143555.270000", "143555.730000", "143556.190000", "143556.650000", "143557.110000", "143557.570000", "143558.030000", "143558.490000", "143558.950000", "143559.410000", "143559.870000", "143600.330000", "143600.790000", "143601.250000", "143601.710000", "143602.170000", "143602.630000", "143603.090000", "143603.550000", "143604.010000", "143604.470000", "143604.930000", "143605.390000", "143605.850000", "143606.310000", "143606.770000", "143607.230000", "143607.690000", "143608.150000", "143608.610000", "143609.070000", "143609.530000", "143609.990000", "143610.450000", "143610.910000", "143611.370000", "143611.830000", "143612.290000", "143612.750000", "143613.210000", "143613.670000", "143614.130000", "143614.590000", "143615.050000", "143615.510000", "143615.970000", "143616.430000", "143616.890000", "143617.350000", "143617.810000", "143618.270000", "143618.730000", "143619.190000", "143619.650000", "143620.110000", "143620.570000", "143621.030000", "143621.490000", "143621.950000", "143622.410000", "143622.870000", "143623.330000", "143623.790000", "143624.250000", "143624.710000", "143625.170000", "143625.630000", "143626.090000", "143626.550000", "143627.010000", "143627.470000", "143627.930000", "143628.390000", "143628.850000", "143629.310000", "143629.770000", "143630.230000", "143630.690000", "143631.150000", "143631.610000", "143632.070000", "143632.530000", "143632.990000", "143633.450000", "143633.910000", "143634.370000", "143634.830000", "143635.290000", "143635.750000", "143636.210000", "143636.670000", "143637.130000", "143637.590000", "143638.050000", "143638.510000", "143638.970000", "143639.430000", "143639.890000", "143640.350000", "143640.810000", "143641.270000", "143641.730000", "143642.190000", "143642.650000", "143643.110000", "143643.570000", "143644.030000", "143644.490000", "143644.950000", "143645.410000", "143645.870000", "143646.330000", "143646.790000", "143647.250000", "143647.710000", "143648.170000", "143648.630000", "143649.090000", "143649.550000", "143650.010000", "143650.470000", "143650.930000", "143651.390000", "143651.850000", "143652.310000", "143652.770000", "143653.230000", "143653.690000", "143654.150000", "143654.610000", "143655.070000", "143655.530000", "143655.990000", "143656.450000", "143656.910000", "143657.370000", "143657.830000", "143658.290000", "143658.750000", "143659.210000", "143659.670000", "143700.130000", "143700.590000", "143701.050000", "143701.510000", "143701.970000", "143702.430000", "143702.890000", "143703.350000", "143703.810000", "143704.270000", "143704.730000", "143705.190000", "143705.650000", "143706.110000", "143706.570000", "143707.030000", "143707.490000", "143707.950000", "143708.410000", "143708.870000", "143709.330000", "143709.790000", "143710.250000", "143710.710000", "143711.170000", "143711.630000", "143712.090000", "143712.550000", "143713.010000", "143713.470000", "143713.930000", "143714.390000", "143714.850000", "143715.310000", "143715.770000", "143716.230000", "143716.690000", "143717.150000", "143717.610000", "143718.070000", "143718.530000", "143718.990000", "143719.450000", "143719.910000", "143720.370000", "143720.830000", "143721.290000", "143721.750000", "143722.210000", "143722.670000", "143723.130000", "143723.590000", "143724.050000", "143724.510000", "143724.970000", "143725.430000", "143725.890000", "143726.350000", "143726.810000", "143727.270000", "143727.730000", "143728.190000", "143728.650000", "143729.110000", "143729.570000", "143730.030000", "143730.490000", "143730.950000", "143731.410000", "143731.870000", "143732.330000", "143732.790000", "143733.250000", "143733.710000", "143734.170000", "143734.630000", "143735.090000", "143735.550000", "143736.010000"],
