{
  "AcquisitionMatrixPE": 82,
  "AcquisitionNumber": 1,
  "AcquisitionTime": "14:21:19.270000",
  "BandwidthPerPixelPhaseEncode": 24.888,
  "BaseResolution": 82,
  "BodyPartExamined": "BRAIN",
  "ConsistencyInfo": "N4_VE11E_LATEST_20181129",
  "ConversionSoftware": "dcm2niix",
  "ConversionSoftwareVersion": "v1.0.20201102",
  "DerivedVendorReportedEchoSpacing": 0.00049,
  "DeviceSerialNumber": "66112",
  "DwellTime": 2e-06,
  "EchoTime": 0.0272,
  "EchoTrainLength": 82,
  "EffectiveEchoSpacing": 0.00049,
  "FlipAngle": 44,
  "ImageComments": "Unaliased MB8/PE3",
  "ImageOrientationPatientDICOM": [0.999782, -0.0118807, 0.0171575, 0.0137859, 0.993203, -0.115574],
  "ImageType": [
    "ORIGINAL",
    "PRIMARY",
    "M",
    "MB",
    "ND",
    "NORM",
    "MOSAIC"
],
  "ImagingFrequency": 123.252,
  "InPlanePhaseEncodingDirectionDICOM": "COL",
  "InstitutionAddress": "Maynard 3,Hanover,NH,US,03755",
  "InstitutionName": "Dartmouth College - PBS",
  "InstitutionalDepartmentName": "Department",
  "MRAcquisitionType": "2D",
  "MagneticFieldStrength": 3,
  "Manufacturer": "Siemens",
  "ManufacturersModelName": "Prisma",
  "Modality": "MR",
  "MultibandAccelerationFactor": 8,
  "PartialFourier": 1,
  "PatientPosition": "HFS",
  "PercentPhaseFOV": 100,
  "PercentSampling": 100,
  "PhaseEncodingDirection": "j-",
  "PhaseEncodingSteps": 82,
  "PhaseResolution": 1,
  "PixelBandwidth": 3050,
  "ProcedureStepDescription": "Wager_Wager^1076_spacetop",
  "ProtocolName": "func_run-01_task-narratives_acq-ap-mb8",
  "PulseSequenceDetails": "%CustomerSeq%\\cmrr_mbep2d_bold",
  "ReceiveCoilActiveElements": "HEA;HEP",
  "ReceiveCoilName": "Head_32",
  "ReconMatrixPE": 82,
  "RepetitionTime": 0.46,
  "SAR": 0.109431,
  "ScanOptions": "FS",
  "ScanningSequence": "EP",
  "SequenceName": "epfid2d1_82",
  "SequenceVariant": "SK\\SS",
  "SeriesDescription": "func_run-01_task-narratives_acq-ap-mb8",
  "SeriesNumber": 8,
  "ShimSetting": [4169, -7698, -7286, 578, 34, -204, -108, 49],
  "SliceThickness": 2.7,
  "SliceTiming": [0, 0.2525, 0.065, 0.315, 0.1275, 0.3775, 0.19, 0, 0.2525, 0.065, 0.315, 0.1275, 0.3775, 0.19, 0, 0.2525, 0.065, 0.315, 0.1275, 0.3775, 0.19, 0, 0.2525, 0.065, 0.315, 0.1275, 0.3775, 0.19, 0, 0.2525, 0.065, 0.315, 0.1275, 0.3775, 0.19, 0, 0.2525, 0.065, 0.315, 0.1275, 0.3775, 0.19, 0, 0.2525, 0.065, 0.315, 0.1275, 0.3775, 0.19, 0, 0.2525, 0.065, 0.315, 0.1275, 0.3775, 0.19],
  "SoftwareVersions": "syngo MR E11",
  "SpacingBetweenSlices": 2.7,
  "StationName": "AWP66112",
  "TaskName": "narratives",
  "TotalReadoutTime": 0.03969,
  "TxRefAmp": 267.983,
  "WipMemBlock": "18558015-97e3-40b1-a95c-82c91127479e||Sequence: R016 ve11e/master r/434b28f1; Aug  7 2019 18:53:46 by eja",
  "dcmmeta_affine": [
    [-2.682342529296875, 0.03698668256402016, 0.042303018271923065, 108.90526580810547],
    [0.031875111162662506, 2.66469144821167, -0.3126218020915985, -77.8720703125],
    [0.04603234678506851, 0.3100779056549072, 2.681506633758545, -98.45697021484375],
    [0.0, 0.0, 0.0, 1.0]
],
  "dcmmeta_reorient_transform": [
    [0.0, -1.0, 0.0, 81.0],
    [1.0, 0.0, 0.0, 0.0],
    [0.0, 0.0, 1.0, 0.0],
    [0.0, 0.0, 0.0, 1.0]
],
  "dcmmeta_shape": [82, 82, 56, 967],
  "dcmmeta_slice_dim": 2,
  "dcmmeta_version": 0.6,
  "global": {
    "const": {
      "AccessionNumber": "A003909",
      "AcquisitionMatrix": [82, 0, 0, 82],
      "AngioFlag": "N",
      "BitsAllocated": 16,
      "BitsStored": 16,
      "BodyPartExamined": "BRAIN",
      "Columns": 656,
      "EchoNumbers": 1,
      "EchoTime": 27.2,
      "EchoTrainLength": 82,
      "FlipAngle": 44.0,
      "HighBit": 15,
      "ImageOrientationPatient": [0.9997822104164, -0.0118807231577, 0.01715751008013, 0.01378594448249, 0.99320314402996, -0.1155744886371],
      "ImagePositionPatient": [-892.34868710523, -893.58621761609, 2.4404164005484],
      "ImageType": [
        "ORIGINAL",
        "PRIMARY",
        "M",
        "MB",
        "ND",
        "NORM",
        "MOSAIC"
],
      "ImagedNucleus": "1H",
      "ImagingFrequency": 123.252246,
      "InPlanePhaseEncodingDirection": "COL",
      "MRAcquisitionType": "2D",
      "MagneticFieldStrength": 3.0,
      "Manufacturer": "SIEMENS",
      "ManufacturerModelName": "Prisma",
      "Modality": "MR",
      "NumberOfAverages": 1.0,
      "NumberOfPhaseEncodingSteps": 82,
      "PercentPhaseFieldOfView": 100.0,
      "PercentSampling": 100.0,
      "PerformedProcedureStepStartTime": "141312.028000",
      "PhotometricInterpretation": "MONOCHROME2",
      "PixelBandwidth": 3050.0,
      "PixelRepresentation": 0,
      "PixelSpacing": [2.6829268932343, 2.6829268932343],
      "ProtocolName": "func_run-01_task-narratives_acq-ap-mb8",
      "RepetitionTime": 460.0,
      "Rows": 656,
      "SAR": 0.10943135736507,
      "SamplesPerPixel": 1,
      "ScanOptions": "FS",
      "ScanningSequence": "EP",
      "SequenceName": "epfid2d1_82",
      "SequenceVariant": [
        "SK",
        "SS"
],
      "SeriesDescription": "func_run-01_task-narratives_acq-ap-mb8",
      "SeriesNumber": 8,
      "SeriesTime": "142134.741000",
      "SliceLocation": -87.059811981755,
      "SliceThickness": 2.7000000476837,
      "SmallestImagePixelValue": 0,
      "SoftwareVersions": "syngo MR E11",
      "SpacingBetweenSlices": 2.7000000172165,
      "SpecificCharacterSet": "ISO_IR 100",
      "StudyID": "2",
      "StudyTime": "141311.948000",
      "TransmitCoilName": "Body",
      "VariableFlipAngleFlag": "N",
      "WindowCenterWidthExplanation": "Algo1"
    },
    "slices": {}
  },
  "time": {
    "samples": {
      "AcquisitionNumber": [1, 2, 3, 4, 5, 6, 7, 8, 9, 10, 11, 12, 13, 14, 15, 16, 17, 18, 19, 20, 21, 22, 23, 24, 25, 26, 27, 28, 29, 30, 31, 32, 33, 34, 35, 36, 37, 38, 39, 40, 41, 42, 43, 44, 45, 46, 47, 48, 49, 50, 51, 52, 53, 54, 55, 56, 57, 58, 59, 60, 61, 62, 63, 64, 65, 66, 67, 68, 69, 70, 71, 72, 73, 74, 75, 76, 77, 78, 79, 80, 81, 82, 83, 84, 85, 86, 87, 88, 89, 90, 91, 92, 93, 94, 95, 96, 97, 98, 99, 100, 101, 102, 103, 104, 105, 106, 107, 108, 109, 110, 111, 112, 113, 114, 115, 116, 117, 118, 119, 120, 121, 122, 123, 124, 125, 126, 127, 128, 129, 130, 131, 132, 133, 134, 135, 136, 137, 138, 139, 140, 141, 142, 143, 144, 145, 146, 147, 148, 149, 150, 151, 152, 153, 154, 155, 156, 157, 158, 159, 160, 161, 162, 163, 164, 165, 166, 167, 168, 169, 170, 171, 172, 173, 174, 175, 176, 177, 178, 179, 180, 181, 182, 183, 184, 185, 186, 187, 188, 189, 190, 191, 192, 193, 194, 195, 196, 197, 198, 199, 200, 201, 202, 203, 204, 205, 206, 207, 208, 209, 210, 211, 212, 213, 214, 215, 216, 217, 218, 219, 220, 221, 222, 223, 224, 225, 226, 227, 228, 229, 230, 231, 232, 233, 234, 235, 236, 237, 238, 239, 240, 241, 242, 243, 244, 245, 246, 247, 248, 249, 250, 251, 252, 253, 254, 255, 256, 257, 258, 259, 260, 261, 262, 263, 264, 265, 266, 267, 268, 269, 270, 271, 272, 273, 274, 275, 276, 277, 278, 279, 280, 281, 282, 283, 284, 285, 286, 287, 288, 289, 290, 291, 292, 293, 294, 295, 296, 297, 298, 299, 300, 301, 302, 303, 304, 305, 306, 307, 308, 309, 310, 311, 312, 313, 314, 315, 316, 317, 318, 319, 320, 321, 322, 323, 324, 325, 326, 327, 328, 329, 330, 331, 332, 333, 334, 335, 336, 337, 338, 339, 340, 341, 342, 343, 344, 345, 346, 347, 348, 349, 350, 351, 352, 353, 354, 355, 356, 357, 358, 359, 360, 361, 362, 363, 364, 365, 366, 367, 368, 369, 370, 371, 372, 373, 374, 375, 376, 377, 378, 379, 380, 381, 382, 383, 384, 385, 386, 387, 388, 389, 390, 391, 392, 393, 394, 395, 396, 397, 398, 399, 400, 401, 402, 403, 404, 405, 406, 407, 408, 409, 410, 411, 412, 413, 414, 415, 416, 417, 418, 419, 420, 421, 422, 423, 424, 425, 426, 427, 428, 429, 430, 431, 432, 433, 434, 435, 436, 437, 438, 439, 440, 441, 442, 443, 444, 445, 446, 447, 448, 449, 450, 451, 452, 453, 454, 455, 456, 457, 458, 459, 460, 461, 462, 463, 464, 465, 466, 467, 468, 469, 470, 471, 472, 473, 474, 475, 476, 477, 478, 479, 480, 481, 482, 483, 484, 485, 486, 487, 488, 489, 490, 491, 492, 493, 494, 495, 496, 497, 498, 499, 500, 501, 502, 503, 504, 505, 506, 507, 508, 509, 510, 511, 512, 513, 514, 515, 516, 517, 518, 519, 520, 521, 522, 523, 524, 525, 526, 527, 528, 529, 530, 531, 532, 533, 534, 535, 536, 537, 538, 539, 540, 541, 542, 543, 544, 545, 546, 547, 548, 549, 550, 551, 552, 553, 554, 555, 556, 557, 558, 559, 560, 561, 562, 563, 564, 565, 566, 567, 568, 569, 570, 571, 572, 573, 574, 575, 576, 577, 578, 579, 580, 581, 582, 583, 584, 585, 586, 587, 588, 589, 590, 591, 592, 593, 594, 595, 596, 597, 598, 599, 600, 601, 602, 603, 604, 605, 606, 607, 608, 609, 610, 611, 612, 613, 614, 615, 616, 617, 618, 619, 620, 621, 622, 623, 624, 625, 626, 627, 628, 629, 630, 631, 632, 633, 634, 635, 636, 637, 638, 639, 640, 641, 642, 643, 644, 645, 646, 647, 648, 649, 650, 651, 652, 653, 654, 655, 656, 657, 658, 659, 660, 661, 662, 663, 664, 665, 666, 667, 668, 669, 670, 671, 672, 673, 674, 675, 676, 677, 678, 679, 680, 681, 682, 683, 684, 685, 686, 687, 688, 689, 690, 691, 692, 693, 694, 695, 696, 697, 698, 699, 700, 701, 702, 703, 704, 705, 706, 707, 708, 709, 710, 711, 712, 713, 714, 715, 716, 717, 718, 719, 720, 721, 722, 723, 724, 725, 726, 727, 728, 729, 730, 731, 732, 733, 734, 735, 736, 737, 738, 739, 740, 741, 742, 743, 744, 745, 746, 747, 748, 749, 750, 751, 752, 753, 754, 755, 756, 757, 758, 759, 760, 761, 762, 763, 764, 765, 766, 767, 768, 769, 770, 771, 772, 773, 774, 775, 776, 777, 778, 779, 780, 781, 782, 783, 784, 785, 786, 787, 788, 789, 790, 791, 792, 793, 794, 795, 796, 797, 798, 799, 800, 801, 802, 803, 804, 805, 806, 807, 808, 809, 810, 811, 812, 813, 814, 815, 816, 817, 818, 819, 820, 821, 822, 823, 824, 825, 826, 827, 828, 829, 830, 831, 832, 833, 834, 835, 836, 837, 838, 839, 840, 841, 842, 843, 844, 845, 846, 847, 848, 849, 850, 851, 852, 853, 854, 855, 856, 857, 858, 859, 860, 861, 862, 863, 864, 865, 866, 867, 868, 869, 870, 871, 872, 873, 874, 875, 876, 877, 878, 879, 880, 881, 882, 883, 884, 885, 886, 887, 888, 889, 890, 891, 892, 893, 894, 895, 896, 897, 898, 899, 900, 901, 902, 903, 904, 905, 906, 907, 908, 909, 910, 911, 912, 913, 914, 915, 916, 917, 918, 919, 920, 921, 922, 923, 924, 925, 926, 927, 928, 929, 930, 931, 932, 933, 934, 935, 936, 937, 938, 939, 940, 941, 942, 943, 944, 945, 946, 947, 948, 949, 950, 951, 952, 953, 954, 955, 956, 957, 958, 959, 960, 961, 962, 963, 964, 965, 966, 967],
      "AcquisitionTime": ["142119.270000", "142119.730000", "142120.190000", "142120.650000", "142121.110000", "142121.570000", "142122.030000", "142122.490000", "142122.950000", "142123.410000", "142123.870000", "142124.330000", "142124.790000", "142125.250000", "142125.710000", "142126.170000", "142126.630000", "142127.090000", "142127.550000", "142128.010000", "142128.470000", "142128.930000", "142129.390000", "142129.850000", "142130.310000", "142130.770000", "142131.230000", "142131.690000", "142132.150000", "142132.610000", "142133.070000", "142133.530000", "142133.990000", "142134.450000", "142134.910000", "142135.370000", "142135.830000", "142136.290000", "142136.750000", "142137.210000", "142137.670000", "142138.130000", "142138.590000", "142139.050000", "142139.510000", "142139.970000", "142140.430000", "142140.890000", "142141.350000", "142141.810000", "142142.270000", "142142.730000", "142143.190000", "142143.650000", "142144.110000", "142144.570000", "142145.030000", "142145.490000", "142145.950000", "142146.410000", "142146.870000", "142147.330000", "142147.790000", "142148.250000", "142148.710000", "142149.170000", "142149.630000", "142150.090000", "142150.550000", "142151.010000", "142151.470000", "142151.930000", "142152.390000", "142152.850000", "142153.310000", "142153.770000", "142154.230000", "142154.690000", "142155.150000", "142155.610000", "142156.070000", "142156.530000", "142156.990000", "142157.450000", "142157.910000", "142158.370000", "142158.830000", "142159.290000", "142159.750000", "142200.210000", "142200.670000", "142201.130000", "142201.590000", "142202.050000", "142202.510000", "142202.970000", "142203.430000", "142203.890000", "142204.350000", "142204.810000", "142205.270000", "142205.730000", "142206.190000", "142206.650000", "142207.110000", "142207.570000", "142208.030000", "142208.490000", "142208.950000", "142209.410000", "142209.870000", "142210.330000", "142210.790000", "142211.250000", "142211.710000", "142212.170000", "142212.630000", "142213.090000", "142213.550000", "142214.010000", "142214.470000", "142214.930000", "142215.390000", "142215.850000", "142216.310000", "142216.770000", "142217.230000", "142217.690000", "142218.150000", "142218.610000", "142219.070000", "142219.530000", "142219.990000", "142220.450000", "142220.910000", "142221.370000", "142221.830000", "142222.290000", "142222.750000", "142223.210000", "142223.670000", "142224.130000", "142224.590000", "142225.050000", "142225.510000", "142225.970000", "142226.430000", "142226.890000", "142227.350000", "142227.810000", "142228.270000", "142228.730000", "142229.190000", "142229.650000", "142230.110000", "142230.570000", "142231.030000", "142231.490000", "142231.950000", "142232.410000", "142232.870000", "142233.330000", "142233.790000", "142234.250000", "142234.710000", "142235.170000", "142235.630000", "142236.090000", "142236.550000", "142237.010000", "142237.470000", "142237.930000", "142238.390000", "142238.850000", "142239.310000", "142239.770000", "142240.230000", "142240.690000", "142241.150000", "142241.610000", "142242.070000", "142242.530000", "142242.990000", "142243.450000", "142243.910000", "142244.370000", "142244.830000", "142245.290000", "142245.750000", "142246.210000", "142246.670000", "142247.130000", "142247.590000", "142248.050000", "142248.510000", "142248.970000", "142249.430000", "142249.890000", "142250.350000", "142250.810000", "142251.270000", "142251.730000", "142252.190000", "142252.650000", "142253.110000", "142253.570000", "142254.030000", "142254.490000", "142254.950000", "142255.410000", "142255.870000", "142256.330000", "142256.790000", "142257.250000", "142257.710000", "142258.170000", "142258.630000", "142259.090000", "142259.550000", "142300.010000", "142300.470000", "142300.930000", "142301.390000", "142301.850000", "142302.310000", "142302.770000", "142303.230000", "142303.690000", "142304.150000", "142304.610000", "142305.070000", "142305.530000", "142305.990000", "142306.450000", "142306.910000", "142307.370000", "142307.830000", "142308.290000", "142308.750000", "142309.210000", "142309.670000", "142310.130000", "142310.590000", "142311.050000", "142311.510000", "142311.970000", "142312.430000", "142312.890000", "142313.350000", "142313.810000", "142314.270000", "142314.730000", "142315.190000", "142315.650000", "142316.110000", "142316.570000", "142317.030000", "142317.490000", "142317.950000", "142318.410000", "142318.870000", "142319.330000", "142319.790000", "142320.250000", "142320.710000", "142321.170000", "142321.630000", "142322.090000", "142322.550000", "142323.010000", "142323.470000", "142323.930000", "142324.390000", "142324.850000", "142325.310000", "142325.770000", "142326.230000", "142326.690000", "142327.150000", "142327.610000", "142328.070000", "142328.530000", "142328.990000", "142329.450000", "142329.910000", "142330.370000", "142330.830000", "142331.290000", "142331.750000", "142332.210000", "142332.670000", "142333.130000", "142333.590000", "142334.050000", "142334.510000", "142334.970000", "142335.430000", "142335.890000", "142336.350000", "142336.810000", "142337.270000", "142337.730000", "142338.190000", "142338.650000", "142339.110000", "142339.570000", "142340.030000", "142340.490000", "142340.950000", "142341.410000", "142341.870000", "142342.330000", "142342.790000", "142343.250000", "142343.710000", "142344.170000", "142344.630000", "142345.090000", "142345.550000", "142346.010000", "142346.470000", "142346.930000", "142347.390000", "142347.850000", "142348.310000", "142348.770000", "142349.230000", "142349.690000", "142350.150000", "142350.610000", "142351.070000", "142351.530000", "142351.990000", "142352.450000", "142352.910000", "142353.370000", "142353.830000", "142354.290000", "142354.750000", "142355.210000", "142355.670000", "142356.130000", "142356.590000", "142357.050000", "142357.510000", "142357.970000", "142358.430000", "142358.890000", "142359.350000", "142359.810000", "142400.270000", "142400.730000", "142401.190000", "142401.650000", "142402.110000", "142402.570000", "142403.030000", "142403.490000", "142403.950000", "142404.410000", "142404.870000", "142405.330000", "142405.790000", "142406.250000", "142406.710000", "142407.170000", "142407.630000", "142408.090000", "142408.550000", "142409.010000", "142409.470000", "142409.930000", "142410.390000", "142410.850000", "142411.310000", "142411.770000", "142412.230000", "142412.690000", "142413.150000", "142413.610000", "142414.070000", "142414.530000", "142414.990000", "142415.450000", "142415.910000", "142416.370000", "142416.830000", "142417.290000", "142417.750000", "142418.210000", "142418.670000", "142419.130000", "142419.590000", "142420.050000", "142420.510000", "142420.970000", "142421.430000", "142421.890000", "142422.350000", "142422.810000", "142423.270000", "142423.730000", "142424.190000", "142424.650000", "142425.110000", "142425.570000", "142426.030000", "142426.490000", "142426.950000", "142427.410000", "142427.870000", "142428.330000", "142428.790000", "142429.250000", "142429.710000", "142430.170000", "142430.630000", "142431.090000", "142431.550000", "142432.010000", "142432.470000", "142432.930000", "142433.390000", "142433.850000", "142434.310000", "142434.770000", "142435.230000", "142435.690000", "142436.150000", "142436.610000", "142437.070000", "142437.530000", "142437.990000", "142438.450000", "142438.910000", "142439.370000", "142439.830000", "142440.290000", "142440.750000", "142441.210000", "142441.670000", "142442.130000", "142442.590000", "142443.050000", "142443.510000", "142443.970000", "142444.430000", "142444.890000", "142445.350000", "142445.810000", "142446.270000", "142446.730000", "142447.190000", "142447.650000", "142448.110000", "142448.570000", "142449.030000", "142449.490000", "142449.950000", "142450.410000", "142450.870000", "142451.330000", "142451.790000", "142452.250000", "142452.710000", "142453.170000", "142453.630000", "142454.090000", "142454.550000", "142455.010000", "142455.470000", "142455.930000", "142456.390000", "142456.850000", "142457.310000", "142457.770000", "142458.230000", "142458.690000", "142459.150000", "142459.610000", "142500.070000", "142500.530000", "142500.990000", "142501.450000", "142501.910000", "142502.370000", "142502.830000", "142503.290000", "142503.750000", "142504.210000", "142504.670000", "142505.130000", "142505.590000", "142506.050000", "142506.510000", "142506.970000", "142507.430000", "142507.890000", "142508.350000", "142508.810000", "142509.270000", "142509.730000", "142510.190000", "142510.650000", "142511.110000", "142511.570000", "142512.030000", "142512.490000", "142512.950000", "142513.410000", "142513.870000", "142514.330000", "142514.790000", "142515.250000", "142515.710000", "142516.170000", "142516.630000", "142517.090000", "142517.550000", "142518.010000", "142518.470000", "142518.930000", "142519.390000", "142519.850000", "142520.310000", "142520.770000", "142521.230000", "142521.690000", "142522.150000", "142522.610000", "142523.070000", "142523.530000", "142523.990000", "142524.450000", "142524.910000", "142525.370000", "142525.830000", "142526.290000", "142526.750000", "142527.210000", "142527.670000", "142528.130000", "142528.590000", "142529.050000", "142529.510000", "142529.970000", "142530.430000", "142530.890000", "142531.350000", "142531.810000", "142532.270000", "142532.730000", "142533.190000", "142533.650000", "142534.110000", "142534.570000", "142535.030000", "142535.490000", "142535.950000", "142536.410000", "142536.870000", "142537.330000", "142537.790000", "142538.250000", "142538.710000", "142539.170000", "142539.630000", "142540.090000", "142540.550000", "142541.010000", "142541.470000", "142541.930000", "142542.390000", "142542.850000", "142543.310000", "142543.770000", "142544.230000", "142544.690000", "142545.150000", "142545.610000", "142546.070000", "142546.530000", "142546.990000", "142547.450000", "142547.910000", "142548.370000", "142548.830000", "142549.290000", "142549.750000", "142550.210000", "142550.670000", "142551.130000", "142551.590000", "142552.050000", "142552.510000", "142552.970000", "142553.430000", "142553.890000", "142554.350000", "142554.810000", "142555.270000", "142555.730000", "142556.190000", "142556.650000", "142557.110000", "142557.570000", "142558.030000", "142558.490000", "142558.950000", "142559.410000", "142559.870000", "142600.330000", "142600.790000", "142601.250000", "142601.710000", "142602.170000", "142602.630000", "142603.090000", "142603.550000", "142604.010000", "142604.470000", "142604.930000", "142605.390000", "142605.850000", "142606.310000", "142606.770000", "142607.230000", "142607.690000", "142608.150000", "142608.610000", "142609.070000", "142609.530000", "142609.990000", "142610.450000", "142610.910000", "142611.370000", "142611.830000", "142612.290000", "142612.750000", "142613.210000", "142613.670000", "142614.130000", "142614.590000", "142615.050000", "142615.510000", "142615.970000", "142616.430000", "142616.890000", "142617.350000", "142617.810000", "142618.270000", "142618.730000", "142619.190000", "142619.650000", "142620.110000", "142620.570000", "142621.030000", "142621.490000", "142621.950000", "142622.410000", "142622.870000", "142623.330000", "142623.790000", "142624.250000", "142624.710000", "142625.170000", "142625.630000", "142626.090000", "142626.550000", "142627.010000", "142627.470000", "142627.930000", "142628.390000", "142628.850000", "142629.310000", "142629.770000", "142630.230000", "142630.690000", "142631.150000", "142631.610000", "142632.070000", "142632.530000", "142632.990000", "142633.450000", "142633.910000", "142634.370000", "142634.830000", "142635.290000", "142635.750000", "142636.210000", "142636.670000", "142637.130000", "142637.590000", "142638.050000", "142638.510000", "142638.970000", "142639.430000", "142639.890000", "142640.350000", "142640.810000", "142641.270000", "142641.730000", "142642.190000", "142642.650000", "142643.110000", "142643.570000", "142644.030000", "142644.490000", "142644.950000", "142645.410000", "142645.870000", "142646.330000", "142646.790000", "142647.250000", "142647.710000", "142648.170000", "142648.630000", "142649.090000", "142649.550000", "142650.010000", "142650.470000", "142650.930000", "142651.390000", "142651.850000", "142652.310000", "142652.770000", "142653.230000", "142653.690000", "142654.150000", "142654.610000", "142655.070000", "142655.530000", "142655.990000", "142656.450000", "142656.910000", "142657.370000", "142657.830000", "142658.290000", "142658.750000", "142659.210000", "142659.670000", "142700.130000", "142700.590000", "142701.050000", "142701.510000", "142701.970000", "142702.430000", "142702.890000", "142703.350000", "142703.810000", "142704.270000", "142704.730000", "142705.190000", "142705.650000", "142706.110000", "142706.570000", "142707.030000", "142707.490000", "142707.950000", "142708.410000", "142708.870000", "142709.330000", "142709.790000", "142710.250000", "142710.710000", "142711.170000", "142711.630000", "142712.090000", "142712.550000", "142713.010000", "142713.470000", "142713.930000", "142714.390000", "142714.850000", "142715.310000", "142715.770000", "142716.230000", "142716.690000", "142717.150000", "142717.610000", "142718.070000", "142718.530000", "142718.990000", "142719.450000", "142719.910000", "142720.370000", "142720.830000", "142721.290000", "142721.750000", "142722.210000", "142722.670000", "142723.130000", "142723.590000", "142724.050000", "142724.510000", "142724.970000", "142725.430000", "142725.890000", "142726.350000", "142726.810000", "142727.270000", "142727.730000", "142728.190000", "142728.650000", "142729.110000", "142729.570000", "142730.030000", "142730.490000", "142730.950000", "142731.410000", "142731.870000", "142732.330000", "142732.790000", "142733.250000", "142733.710000", "142734.170000", "142734.630000", "142735.090000", "142735.550000", "142736.010000", "142736.470000", "142736.930000", "142737.390000", "142737.850000", "142738.310000", "142738.770000", "142739.230000", "142739.690000", "142740.150000", "142740.610000", "142741.070000", "142741.530000", "142741.990000", "142742.450000", "142742.910000", "142743.370000", "142743.830000", "142744.290000", "142744.750000", "142745.210000", "142745.670000", "142746.130000", "142746.590000", "142747.050000", "142747.510000", "142747.970000", "142748.430000", "142748.890000", "142749.350000", "142749.810000", "142750.270000", "142750.730000", "142751.190000", "142751.650000", "142752.110000", "142752.570000", "142753.030000", "142753.490000", "142753.950000", "142754.410000", "142754.870000", "142755.330000", "142755.790000", "142756.250000", "142756.710000", "142757.170000", "142757.630000", "142758.090000", "142758.550000", "142759.010000", "142759.470000", "142759.930000", "142800.390000", "142800.850000", "142801.310000", "142801.770000", "142802.230000", "142802.690000", "142803.150000", "142803.610000", "142804.070000", "142804.530000", "142804.990000", "142805.450000", "142805.910000", "142806.370000", "142806.830000", "142807.290000", "142807.750000", "142808.210000", "142808.670000", "142809.130000", "142809.590000", "142810.050000", "142810.510000", "142810.970000", "142811.430000", "142811.890000", "142812.350000", "142812.810000", "142813.270000", "142813.730000", "142814.190000", "142814.650000", "142815.110000", "142815.570000", "142816.030000", "142816.490000", "142816.950000", "142817.410000", "142817.870000", "142818.330000", "142818.790000", "142819.250000", "142819.710000", "142820.170000", "142820.630000", "142821.090000", "142821.550000", "142822.010000", "142822.470000", "142822.930000", "142823.390000", "142823.850000", "142824.310000", "142824.770000", "142825.230000", "142825.690000", "142826.150000", "142826.610000", "142827.070000", "142827.530000", "142827.990000", "142828.450000", "142828.910000", "142829.370000", "142829.830000", "142830.290000", "142830.750000", "142831.210000", "142831.670000", "142832.130000", "142832.590000", "142833.050000", "142833.510000", "142833.970000", "142834.430000", "142834.890000", "142835.350000", "142835.810000", "142836.270000", "142836.730000", "142837.190000", "142837.650000", "142838.110000", "142838.570000", "142839.030000", "142839.490000", "142839.950000", "142840.410000", "142840.870000", "142841.330000", "142841.790000", "142842.250000", "142842.710000", "142843.170000", "142843.630000"],
