{
  "AcquisitionMatrixPE": 140,
  "AcquisitionNumber": 1,
  "AcquisitionTime": "17:03:18.277500",
  "BandwidthPerPixelPhaseEncode": 10.352,
  "BaseResolution": 140,
  "BodyPartExamined": "BRAIN",
  "ConsistencyInfo": "N4_VE11C_LATEST_20160120",
  "ConversionSoftware": "dcm2niix",
  "ConversionSoftwareVersion": "v1.0.20201102",
  "DerivedVendorReportedEchoSpacing": 0.000689998,
  "DeviceSerialNumber": "66112",
  "DiffusionScheme": "Monopolar",
  "DwellTime": 2.1e-06,
  "EchoTime": 0.088,
  "EchoTrainLength": 105,
  "EffectiveEchoSpacing": 0.000689998,
  "FlipAngle": 90,
  "ImageComments": "Unaliased MB3/PE3",
  "ImageOrientationPatientDICOM": [0.981383, 0.189486, 0.0313536, -0.188274, 0.981384, -0.0379292],
  "ImageType": [
    "ORIGINAL",
    "PRIMARY",
    "DIFFUSION",
    "NONE",
    "MB",
    "ND"
],
  "ImagingFrequency": 123.252,
  "InPlanePhaseEncodingDirectionDICOM": "COL",
  "InstitutionAddress": "Maynard 3,Hanover,NH,US,03755",
  "InstitutionName": "Dartmouth College - PBS",
  "InstitutionalDepartmentName": "Department",
  "IntendedFor": [
    "ses-01/dwi/sub-0043_ses-01_acq-96dirX6b0Xmb_dwi.nii.gz"
],
  "MRAcquisitionType": "2D",
  "MagneticFieldStrength": 3,
  "Manufacturer": "Siemens",
  "ManufacturersModelName": "Prisma",
  "Modality": "MR",
  "MultibandAccelerationFactor": 3,
  "PartialFourier": 0.75,
  "PatientPosition": "HFS",
  "PercentPhaseFOV": 100,
  "PercentSampling": 100,
  "PhaseEncodingDirection": "j",
  "PhaseEncodingSteps": 105,
  "PhaseResolution": 1,
  "PixelBandwidth": 1700,
  "ProcedureStepDescription": "Wager_Wager^1076_spacetop",
  "ProtocolName": "dwi_acq-discorr-PA",
  "PulseSequenceDetails": "%CustomerSeq%\\cmrr_mbep2d_diff",
  "ReceiveCoilActiveElements": "HEA;HEP",
  "ReceiveCoilName": "Head_32",
  "ReconMatrixPE": 140,
  "RepetitionTime": 4.1,
  "SAR": 0.145243,
  "ScanOptions": "PFP\\FS",
  "ScanningSequence": "EP",
  "SequenceName": "ep_b0",
  "SequenceVariant": "SK\\SS",
  "SeriesDescription": "dwi_acq-discorr-PA",
  "SeriesNumber": 6,
  "ShimSetting": [4143, -7767, -7275, 617, -128, -307, -10, 95],
  "SliceThickness": 1.7,
  "SliceTiming": [0, 2.10938, 0.15625, 2.26562, 0.29688, 2.40625, 0.45312, 2.5625, 0.59375, 2.71875, 0.75, 2.875, 0.90625, 3.01562, 1.04688, 3.17188, 1.20312, 3.32812, 1.35938, 3.46875, 1.51562, 3.625, 1.65625, 3.78125, 1.8125, 3.92188, 1.96875, 0, 2.10938, 0.15625, 2.26562, 0.29688, 2.40625, 0.45312, 2.5625, 0.59375, 2.71875, 0.75, 2.875, 0.90625, 3.01562, 1.04688, 3.17188, 1.20312, 3.32812, 1.35938, 3.46875, 1.51562, 3.625, 1.65625, 3.78125, 1.8125, 3.92188, 1.96875, 0, 2.10938, 0.15625, 2.26562, 0.29688, 2.40625, 0.45312, 2.5625, 0.59375, 2.71875, 0.75, 2.875, 0.90625, 3.01562, 1.04688, 3.17188, 1.20312, 3.32812, 1.35938, 3.46875, 1.51562, 3.625, 1.65625, 3.78125, 1.8125, 3.92188, 1.96875],
  "SoftwareVersions": "syngo MR E11",
  "SpacingBetweenSlices": 1.7,
  "StationName": "AWP66112",
  "TotalReadoutTime": 0.0959097,
  "TxRefAmp": 236.381,
  "WipMemBlock": "fb93a5db-111f-4a1d-8b32-a259c36f69a0||Sequence: R016 ve11c/master r/e634e98; Dec 19 2017 11:11:25 by eja",
  "dcmmeta_affine": [
    [-1.6823704242706299, -0.3227556049823761, 0.06452679634094238, 135.97119140625],
    [-0.32483258843421936, 1.6823723316192627, -0.05324411392211914, -83.58244323730469],
    [0.0537489615380764, 0.06502150744199753, 1.69793701171875, -77.44478607177734],
    [0.0, 0.0, 0.0, 1.0]
],
  "dcmmeta_reorient_transform": [
    [0.0, -1.0, 0.0, 139.0],
    [1.0, 0.0, 0.0, 0.0],
    [0.0, 0.0, -1.0, 80.0],
    [0.0, 0.0, 0.0, 1.0]
],
  "dcmmeta_shape": [140, 140, 81],
  "dcmmeta_slice_dim": 2,
  "dcmmeta_version": 0.6,
  "global": {
    "const": {
      "AccessionNumber": "A003811",
      "AcquisitionMatrix": [140, 0, 0, 140],
      "AcquisitionNumber": 1,
      "AngioFlag": "N",
      "BitsAllocated": 16,
      "BitsStored": 16,
      "BodyPartExamined": "BRAIN",
      "Columns": 140,
      "EchoNumbers": 1,
      "EchoTime": 88.0,
      "EchoTrainLength": 105,
      "FlipAngle": 90.0,
      "HighBit": 15,
      "ImageOrientationPatient": [0.9813827656414, 0.18948567624742, 0.03135356118697, -0.1882741073193, 0.98138383694105, -0.0379292117502],
      "ImageType": [
        "ORIGINAL",
        "PRIMARY",
        "DIFFUSION",
        "NONE",
        "MB",
        "ND"
],
      "ImagedNucleus": "1H",
      "ImagingFrequency": 123.25222,
      "InPlanePhaseEncodingDirection": "COL",
      "MRAcquisitionType": "2D",
      "MagneticFieldStrength": 3.0,
      "Manufacturer": "SIEMENS",
      "ManufacturerModelName": "Prisma",
      "Modality": "MR",
      "NumberOfAverages": 1.0,
      "NumberOfPhaseEncodingSteps": 105,
      "PercentPhaseFieldOfView": 100.0,
      "PercentSampling": 100.0,
      "PerformedProcedureStepStartTime": "163646.553000",
      "PhotometricInterpretation": "MONOCHROME2",
      "PixelBandwidth": 1700.0,
      "PixelRepresentation": 0,
      "PixelSpacing": [1.7142857313156, 1.7142857313156],
      "ProtocolName": "dwi_acq-discorr-PA",
      "RepetitionTime": 4100.0,
      "Rows": 140,
      "SAR": 0.14524295310985,
      "SamplesPerPixel": 1,
      "ScanOptions": [
        "PFP",
        "FS"
],
      "ScanningSequence": "EP",
      "SequenceName": "ep_b0",
      "SequenceVariant": [
        "SK",
        "SS"
],
      "SeriesDescription": "dwi_acq-discorr-PA",
      "SeriesNumber": 6,
      "SeriesTime": "170323.884000",
      "SliceThickness": 1.7000000476837,
      "SmallestImagePixelValue": 0,
      "SoftwareVersions": "syngo MR E11",
      "SpacingBetweenSlices": 1.7,
      "SpecificCharacterSet": "ISO_IR 100",
      "StudyID": "1",
      "StudyTime": "163646.512000",
      "TransmitCoilName": "Body",
      "VariableFlipAngleFlag": "N",
      "WindowCenterWidthExplanation": "Algo1",
      "dBdt": 0.0},
    "slices": {
      "AcquisitionTime": ["170318.277500", "170320.392500", "170318.430000", "170320.545000", "170318.580000", "170320.695000", "170318.732500", "170320.847500", "170318.882500", "170320.997500", "170319.032500", "170321.150000", "170319.185000", "170321.300000", "170319.335000", "170321.452500", "170319.487500", "170321.602500", "170319.637500", "170321.752500", "170319.790000", "170321.905000", "170319.940000", "170322.055000", "170320.092500", "170322.207500", "170320.242500", "170318.277500", "170320.392500", "170318.430000", "170320.545000", "170318.580000", "170320.695000", "170318.732500", "170320.847500", "170318.882500", "170320.997500", "170319.032500", "170321.150000", "170319.185000", "170321.300000", "170319.335000", "170321.452500", "170319.487500", "170321.602500", "170319.637500", "170321.752500", "170319.790000", "170321.905000", "170319.940000", "170322.055000", "170320.092500", "170322.207500", "170320.242500", "170318.277500", "170320.392500", "170318.430000", "170320.545000", "170318.580000", "170320.695000", "170318.732500", "170320.847500", "170318.882500", "170320.997500", "170319.032500", "170321.150000", "170319.185000", "170321.300000", "170319.335000", "170321.452500", "170319.487500", "170321.602500", "170319.637500", "170321.752500", "170319.790000", "170321.905000", "170319.940000", "170322.055000", "170320.092500", "170322.207500", "170320.242500"],
      "ContentTime": ["170323.888000", "170324.056000", "170323.897000", "170324.064000", "170323.903000", "170324.073000", "170323.910000", "170324.081000", "170323.925000", "170324.097000", "170323.932000", "170324.104000", "170323.939000", "170324.113000", "170323.946000", "170324.120000", "170323.953000", "170324.128000", "170323.960000", "170324.136000", "170324.003000", "170324.146000", "170324.022000", "170324.154000", "170324.037000", "170324.213000", "170324.046000", "170323.892000", "170324.059000", "170323.899000", "170324.066000", "170323.906000", "170324.076000", "170323.913000", "170324.085000", "170323.928000", "170324.100000", "170323.934000", "170324.106000", "170323.941000", "170324.115000", "170323.948000", "170324.123000", "170323.955000", "170324.130000", "170323.972000", "170324.140000", "170324.017000", "170324.149000", "170324.027000", "170324.156000", "170324.040000", "170324.216000", "170324.051000", "170323.894000", "170324.061000", "170323.901000", "170324.069000", "170323.908000", "170324.078000", "170323.916000", "170324.095000", "170323.930000", "170324.102000", "170323.937000", "170324.110000", "170323.943000", "170324.118000", "170323.951000", "170324.126000", "170323.957000", "170324.134000", "170323.985000", "170324.144000", "170324.020000", "170324.151000", "170324.033000", "170324.211000", "170324.043000", "170324.218000", "170324.054000"],
      "CsaImage.ICE_Dims": [
        "X_1_1_1_1_1_1_1_1_1_1_1_92",
        "X_1_1_1_1_1_1_42_1_1_2_1_92",
        "X_1_1_1_1_1_1_2_1_1_3_1_92",
        "X_1_1_1_1_1_1_43_1_1_4_1_92",
        "X_1_1_1_1_1_1_3_1_1_5_1_92",
        "X_1_1_1_1_1_1_44_1_1_6_1_92",
        "X_1_1_1_1_1_1_4_1_1_7_1_92",
        "X_1_1_1_1_1_1_45_1_1_8_1_92",
        "X_1_1_1_1_1_1_5_1_1_9_1_92",
        "X_1_1_1_1_1_1_46_1_1_10_1_92",
        "X_1_1_1_1_1_1_6_1_1_11_1_92",
        "X_1_1_1_1_1_1_47_1_1_12_1_92",
        "X_1_1_1_1_1_1_7_1_1_13_1_92",
        "X_1_1_1_1_1_1_48_1_1_14_1_92",
        "X_1_1_1_1_1_1_8_1_1_15_1_92",
        "X_1_1_1_1_1_1_49_1_1_16_1_92",
        "X_1_1_1_1_1_1_9_1_1_17_1_92",
        "X_1_1_1_1_1_1_50_1_1_18_1_92",
        "X_1_1_1_1_1_1_10_1_1_19_1_92",
        "X_1_1_1_1_1_1_51_1_1_20_1_92",
        "X_1_1_1_1_1_1_11_1_1_21_1_92",
        "X_1_1_1_1_1_1_52_1_1_22_1_92",
        "X_1_1_1_1_1_1_12_1_1_23_1_92",
        "X_1_1_1_1_1_1_53_1_1_24_1_92",
        "X_1_1_1_1_1_1_13_1_1_25_1_92",
        "X_1_1_1_1_1_1_54_1_1_26_1_92",
        "X_1_1_1_1_1_1_14_1_1_27_1_92",
        "X_1_1_1_1_1_1_55_1_1_28_1_92",
        "X_1_1_1_1_1_1_15_1_1_29_1_92",
        "X_1_1_1_1_1_1_56_1_1_30_1_92",
        "X_1_1_1_1_1_1_16_1_1_31_1_92",
        "X_1_1_1_1_1_1_57_1_1_32_1_92",
        "X_1_1_1_1_1_1_17_1_1_33_1_92",
        "X_1_1_1_1_1_1_58_1_1_34_1_92",
        "X_1_1_1_1_1_1_18_1_1_35_1_92",
        "X_1_1_1_1_1_1_59_1_1_36_1_92",
        "X_1_1_1_1_1_1_19_1_1_37_1_92",
        "X_1_1_1_1_1_1_60_1_1_38_1_92",
        "X_1_1_1_1_1_1_20_1_1_39_1_92",
        "X_1_1_1_1_1_1_61_1_1_40_1_92",
        "X_1_1_1_1_1_1_21_1_1_41_1_92",
        "X_1_1_1_1_1_1_62_1_1_42_1_92",
        "X_1_1_1_1_1_1_22_1_1_43_1_92",
        "X_1_1_1_1_1_1_63_1_1_44_1_92",
        "X_1_1_1_1_1_1_23_1_1_45_1_92",
        "X_1_1_1_1_1_1_64_1_1_46_1_92",
        "X_1_1_1_1_1_1_24_1_1_47_1_92",
        "X_1_1_1_1_1_1_65_1_1_48_1_92",
        "X_1_1_1_1_1_1_25_1_1_49_1_92",
        "X_1_1_1_1_1_1_66_1_1_50_1_92",
        "X_1_1_1_1_1_1_26_1_1_51_1_92",
        "X_1_1_1_1_1_1_67_1_1_52_1_92",
        "X_1_1_1_1_1_1_27_1_1_53_1_92",
        "X_1_1_1_1_1_1_68_1_1_54_1_92",
        "X_1_1_1_1_1_1_28_1_1_55_1_92",
        "X_1_1_1_1_1_1_69_1_1_56_1_92",
        "X_1_1_1_1_1_1_29_1_1_57_1_92",
        "X_1_1_1_1_1_1_70_1_1_58_1_92",
        "X_1_1_1_1_1_1_30_1_1_59_1_92",
        "X_1_1_1_1_1_1_71_1_1_60_1_92",
        "X_1_1_1_1_1_1_31_1_1_61_1_92",
        "X_1_1_1_1_1_1_72_1_1_62_1_92",
        "X_1_1_1_1_1_1_32_1_1_63_1_92",
        "X_1_1_1_1_1_1_73_1_1_64_1_92",
        "X_1_1_1_1_1_1_33_1_1_65_1_92",
        "X_1_1_1_1_1_1_74_1_1_66_1_92",
        "X_1_1_1_1_1_1_34_1_1_67_1_92",
        "X_1_1_1_1_1_1_75_1_1_68_1_92",
        "X_1_1_1_1_1_1_35_1_1_69_1_92",
        "X_1_1_1_1_1_1_76_1_1_70_1_92",
        "X_1_1_1_1_1_1_36_1_1_71_1_92",
        "X_1_1_1_1_1_1_77_1_1_72_1_92",
        "X_1_1_1_1_1_1_37_1_1_73_1_92",
        "X_1_1_1_1_1_1_78_1_1_74_1_92",
        "X_1_1_1_1_1_1_38_1_1_75_1_92",
        "X_1_1_1_1_1_1_79_1_1_76_1_92",
        "X_1_1_1_1_1_1_39_1_1_77_1_92",
        "X_1_1_1_1_1_1_80_1_1_78_1_92",
        "X_1_1_1_1_1_1_40_1_1_79_1_92",
        "X_1_1_1_1_1_1_81_1_1_80_1_92",
        "X_1_1_1_1_1_1_41_1_1_81_1_92"
],
      "CsaImage.ProtocolSliceNumber": [0, 1, 2, 3, 4, 5, 6, 7, 8, 9, 10, 11, 12, 13, 14, 15, 16, 17, 18, 19, 20, 21, 22, 23, 24, 25, 26, 27, 28, 29, 30, 31, 32, 33, 34, 35, 36, 37, 38, 39, 40, 41, 42, 43, 44, 45, 46, 47, 48, 49, 50, 51, 52, 53, 54, 55, 56, 57, 58, 59, 60, 61, 62, 63, 64, 65, 66, 67, 68, 69, 70, 71, 72, 73, 74, 75, 76, 77, 78, 79, 80],
      "CsaImage.SlicePosition_PCS": [
        [-91.10816386, -150.26729864, -68.40706603],
        [-91.17269042, -150.21405501, -66.70912139],
        [-91.23721722, -150.16081042, -65.01118438],
        [-91.30174402, -150.10756678, -63.31323973],
        [-91.36627081, -150.05432219, -61.61530272],
        [-91.43079761, -150.00107855, -59.9173619],
        [-91.4953244, -149.94783491, -58.21942107],
        [-91.5598512, -149.89459032, -56.52148024],
        [-91.624378, -149.84134669, -54.82353942],
        [-91.68890479, -149.7881021, -53.12560241],
        [-91.75343135, -149.73485846, -51.42766158],
        [-91.81795815, -149.68161482, -49.72972075],
        [-91.88248494, -149.62837023, -48.03177993],
        [-91.94701174, -149.57512659, -46.3338391],
        [-92.01153854, -149.521882, -44.63589827],
        [-92.07606533, -149.46863837, -42.93795745],
        [-92.14059213, -149.41539473, -41.24001662],
        [-92.20511869, -149.36215014, -39.54207961],
        [-92.26964548, -149.3089065, -37.84413878],
        [-92.33417228, -149.25566191, -36.14619796],
        [-92.39869908, -149.20241827, -34.44825713],
        [-92.46322587, -149.14917464, -32.7503163],
        [-92.52775267, -149.09593005, -31.05237548],
        [-92.59227947, -149.04268641, -29.35443656],
        [-92.65680626, -148.98944182, -27.65649573],
        [-92.72133282, -148.93619818, -25.9585549],
        [-92.78585962, -148.88295454, -24.26061408],
        [-92.85038641, -148.82970995, -22.56267516],
        [-92.91491321, -148.77646632, -20.86473433],
        [-92.97944, -148.72322172, -19.16679351],
        [-93.0439668, -148.66997809, -17.46885268],
        [-93.1084936, -148.61673445, -15.77091376],
        [-93.17302016, -148.56348986, -14.07297293],
        [-93.23754707, -148.51024622, -12.37503211],
        [-93.30207375, -148.45700211, -10.67709224],
        [-93.36660054, -148.40375799, -8.97915236],
        [-93.43112734, -148.35051388, -7.28121154],
        [-93.49565414, -148.29726977, -5.58327119],
        [-93.56018081, -148.24402613, -3.88533084],
        [-93.62470761, -148.19078202, -2.18739049],
        [-93.68923441, -148.1375379, -0.48945026],
        [-93.75376108, -148.08429379, 1.20849009],
        [-93.81828788, -148.03104967, 2.90643032],
        [-93.88281468, -147.97780604, 4.60437067],
        [-93.94734147, -147.92456192, 6.30231126],
        [-94.01186815, -147.87131781, 8.00025161],
        [-94.07639495, -147.8180737, 9.69819196],
        [-94.14092174, -147.76482958, 11.39613183],
        [-94.20544848, -147.71158594, 13.09407266],
        [-94.26997528, -147.65834183, 14.79201253],
        [-94.33450201, -147.60509772, 16.48995336],
        [-94.39902875, -147.5518536, 18.18789323],
        [-94.46355555, -147.49860949, 19.88583406],
        [-94.52808228, -147.44536585, 21.58377488],
        [-94.59260908, -147.39212174, 23.2817138],
        [-94.65713582, -147.33887762, 24.97965463],
        [-94.72166261, -147.28563351, 26.67759546],
        [-94.78618935, -147.2323894, 28.37553628],
        [-94.85071612, -147.17914528, 30.0734752],
        [-94.91524288, -147.12590164, 31.77141603],
        [-94.97976965, -147.07265753, 33.46935685],
        [-95.04429641, -147.01941342, 35.16729768],
        [-95.10882318, -146.9661693, 36.86523851],
        [-95.17334995, -146.91292519, 38.56317552],
        [-95.23787671, -146.85968155, 40.26111634],
        [-95.30240348, -146.80643744, 41.95905717],
        [-95.36693023, -146.75319332, 43.656998],
        [-95.43145701, -146.69994921, 45.35493882],
        [-95.49598378, -146.6467051, 47.05287965],
        [-95.56051052, -146.59346146, 48.75082048],
        [-95.62503728, -146.54021735, 50.4487613],
        [-95.68956408, -146.48697323, 52.14669831],
        [-95.75409082, -146.43372912, 53.84463914],
        [-95.81861761, -146.380485, 55.54257997],
        [-95.88314435, -146.32724137, 57.24052079],
        [-95.94767115, -146.27399725, 58.93846162],
        [-96.01219788, -146.22075314, 60.63640245],
        [-96.07672462, -146.16750902, 62.33434327],
        [-96.14125142, -146.11426491, 64.0322841],
        [-96.20577815, -146.06102127, 65.73022493],
        [-96.27030495, -146.00777716, 67.42816194]
],
      "CsaImage.TimeAfterStart": [16.4, 18.515, 16.55, 18.6675, 16.7025, 18.8175, 16.8525, 18.97, 17.005, 19.12, 17.155, 19.27, 17.3075, 19.4225, 17.4575, 19.5725, 17.61, 19.725, 17.76, 19.875, 17.91, 20.0275, 18.0625, 20.1775, 18.2125, 20.33, 18.365, 16.4, 18.515, 16.55, 18.6675, 16.7025, 18.8175, 16.8525, 18.97, 17.005, 19.12, 17.155, 19.27, 17.3075, 19.4225, 17.4575, 19.5725, 17.61, 19.725, 17.76, 19.875, 17.91, 20.0275, 18.0625, 20.1775, 18.2125, 20.33, 18.365, 16.4, 18.515, 16.55, 18.6675, 16.7025, 18.8175, 16.8525, 18.97, 17.005, 19.12, 17.155, 19.27, 17.3075, 19.4225, 17.4575, 19.5725, 17.61, 19.725, 17.76, 19.875, 17.91, 20.0275, 18.0625, 20.1775, 18.2125, 20.33, 18.365],
      "ImagePositionPatient": [
        [-91.108163864552, -150.26729864399, -68.407066028577],
        [-91.172690422474, -150.21405500691, -66.709121387464],
        [-91.237217218815, -150.16081041615, -65.011184375745],
        [-91.301744015156, -150.10756677906, -63.313239734632],
        [-91.366270811497, -150.0543221883, -61.615302722913],
        [-91.430797607838, -150.00107855122, -59.917361896497],
        [-91.495324404179, -149.94783491413, -58.219421070081],
        [-91.55985120052, -149.89459032337, -56.521480243665],
        [-91.624377996861, -149.84134668629, -54.823539417249],
        [-91.688904793202, -149.78810209553, -53.12560240553],
        [-91.753431351124, -149.73485845844, -51.427661579114],
        [-91.817958147465, -149.68161482136, -49.729720752698],
        [-91.882484943806, -149.6283702306, -48.031779926282],
        [-91.947011740147, -149.57512659351, -46.333839099866],
        [-92.011538536488, -149.52188200275, -44.63589827345],
        [-92.076065332829, -149.46863836567, -42.937957447034],
        [-92.14059212917, -149.41539472858, -41.240016620618],
        [-92.205118687092, -149.36215013783, -39.5420796089],
        [-92.269645483433, -149.30890650074, -37.844138782484],
        [-92.334172279774, -149.25566190998, -36.146197956068],
        [-92.398699076115, -149.2024182729, -34.448257129652],
        [-92.463225872456, -149.14917463581, -32.750316303235],
        [-92.527752668797, -149.09593004505, -31.052375476819],
        [-92.592279465138, -149.04268640797, -29.354436557752],
        [-92.656806261479, -148.98944181721, -27.656495731336],
        [-92.721332819401, -148.93619818012, -25.95855490492],
        [-92.785859615742, -148.88295454304, -24.260614078504],
        [-92.850386412083, -148.82970995228, -22.562675159437],
        [-92.914913208424, -148.77646631519, -20.864734333021],
        [-92.979440004765, -148.72322172443, -19.166793506605],
        [-93.043966801106, -148.66997808735, -17.468852680189],
        [-93.108493597447, -148.61673445026, -15.770913761121],
        [-93.173020155369, -148.56348985951, -14.072972934705],
        [-93.237547070919, -148.51024622242, -12.375032108289],
        [-93.302073748051, -148.4570021085, -10.677092235547],
        [-93.366600544392, -148.40375799458, -8.9791523628058],
        [-93.431127340733, -148.35051388065, -7.2812115363898],
        [-93.495654137074, -148.29726976673, -5.5832711868109],
        [-93.560180814206, -148.24402612965, -3.8853308372321],
        [-93.624707610546, -148.19078201572, -2.1873904876532],
        [-93.689234406887, -148.1375379018, -0.4894502572836],
        [-93.753761084019, -148.08429378788, 1.2084900922952],
        [-93.81828788036, -148.03104967396, 2.9064303226648],
        [-93.882814676701, -147.97780603687, 4.6043706722436],
        [-93.947341473042, -147.92456192295, 6.3023112602411],
        [-94.011868150174, -147.87131780903, 8.0002516098199],
        [-94.076394946514, -147.81807369511, 9.6981919593988],
        [-94.140921742855, -147.76482958118, 11.39613183214],
        [-94.205448479592, -147.7115859441, 13.094072658557],
        [-94.269975275933, -147.65834183018, 14.792012531298],
        [-94.334502012669, -147.60509771626, 16.489953357714],
        [-94.399028749405, -147.55185360233, 18.187893230456],
        [-94.463555545746, -147.49860948841, 19.885834056872],
        [-94.528082282482, -147.44536585133, 21.583774883288],
        [-94.592609078823, -147.3921217374, 23.281713802355],
        [-94.65713581556, -147.33887762348, 24.979654628771],
        [-94.721662611901, -147.28563350956, 26.677595455187],
        [-94.786189348637, -147.23238939564, 28.375536281603],
        [-94.850716115176, -147.17914528172, 30.073475200671],
        [-94.915242881714, -147.12590164463, 31.771416027087],
        [-94.979769648253, -147.07265753071, 33.469356853503],
        [-95.044296414791, -147.01941341679, 35.167297679919],
        [-95.10882318133, -146.96616930286, 36.865238506335],
        [-95.173349947258, -146.91292518894, 38.563175518054],
        [-95.237876714407, -146.85968155186, 40.26111634447],
        [-95.302403480946, -146.80643743794, 41.959057170886],
        [-95.366930232583, -146.75319332401, 43.656997997302],
        [-95.431457014023, -146.69994921009, 45.354938823718],
        [-95.495983780562, -146.64670509617, 47.052879650134],
        [-95.560510517298, -146.59346145908, 48.75082047655],
        [-95.625037283837, -146.54021734516, 50.448761302966],
        [-95.689564080178, -146.48697323124, 52.146698314684],
        [-95.754090816914, -146.43372911732, 53.8446391411],
        [-95.818617613255, -146.3804850034, 55.542579967516],
        [-95.883144349991, -146.32724136631, 57.240520793932],
        [-95.947671146332, -146.27399725239, 58.938461620348],
        [-96.012197883068, -146.22075313847, 60.636402446765],
        [-96.076724619805, -146.16750902454, 62.334343273181],
        [-96.141251416146, -146.11426491062, 64.032284099597],
        [-96.205778152882, -146.06102127354, 65.730224926013],
        [-96.270304949223, -146.00777715961, 67.428161937731]
],
      "InstanceCreationTime": ["170323.888000", "170324.056000", "170323.897000", "170324.064000", "170323.903000", "170324.073000", "170323.910000", "170324.081000", "170323.925000", "170324.097000", "170323.932000", "170324.104000", "170323.939000", "170324.113000", "170323.946000", "170324.120000", "170323.953000", "170324.128000", "170323.960000", "170324.136000", "170324.003000", "170324.146000", "170324.022000", "170324.154000", "170324.037000", "170324.213000", "170324.046000", "170323.892000", "170324.059000", "170323.899000", "170324.066000", "170323.906000", "170324.076000", "170323.913000", "170324.085000", "170323.928000", "170324.100000", "170323.934000", "170324.106000", "170323.941000", "170324.115000", "170323.948000", "170324.123000", "170323.955000", "170324.130000", "170323.972000", "170324.140000", "170324.017000", "170324.149000", "170324.027000", "170324.156000", "170324.040000", "170324.216000", "170324.051000", "170323.894000", "170324.061000", "170323.901000", "170324.069000", "170323.908000", "170324.078000", "170323.916000", "170324.095000", "170323.930000", "170324.102000", "170323.937000", "170324.110000", "170323.943000", "170324.118000", "170323.951000", "170324.126000", "170323.957000", "170324.134000", "170323.985000", "170324.144000", "170324.020000", "170324.151000", "170324.033000", "170324.211000", "170324.043000", "170324.218000", "170324.054000"],
      "InstanceNumber": [1, 2, 3, 4, 5, 6, 7, 8, 9, 10, 11, 12, 13, 14, 15, 16, 17, 18, 19, 20, 21, 22, 23, 24, 25, 26, 27, 28, 29, 30, 31, 32, 33, 34, 35, 36, 37, 38, 39, 40, 41, 42, 43, 44, 45, 46, 47, 48, 49, 50, 51, 52, 53, 54, 55, 56, 57, 58, 59, 60, 61, 62, 63, 64, 65, 66, 67, 68, 69, 70, 71, 72, 73, 74, 75, 76, 77, 78, 79, 80, 81],
      "LargestImagePixelValue": [51499, 26594, 27091, 45126, 36693, 30260, 32525, 38546, 31838, 27646, 31722, 34360, 39479, 31984, 51051, 61173, 53188, 65535, 65535, 65535, 65535, 65535, 65535, 65535, 65535, 65535, 65535, 60482, 39724, 38408, 40842, 58111, 65535, 65535, 51990, 44619, 37980, 40983, 39743, 38900, 35686, 35289, 36392, 39243, 42854, 39202, 39223, 38936, 45054, 34185, 43212, 43723, 44562, 51620, 42719, 41872, 49585, 47794, 50855, 37510, 41837, 56557, 52110, 38779, 37866, 34297, 36296, 39292, 38949, 35301, 36002, 38945, 51110, 44998, 34712, 32869, 35812, 43836, 33754, 20962, 8800],
      "SliceLocation": [-69.572374230019, -67.87236994595, -66.172373243113, -64.472368949995, -62.772372247158, -61.072371764115, -59.372371281072, -57.67237076816, -55.972370285117, -54.272373582281, -52.572373108288, -50.872372625245, -49.172372112333, -47.47237162929, -45.772371116378, -44.072370633335, -42.372370150292, -40.672373456505, -38.972372973462, -37.27237246055, -35.572371977507, -33.872371494464, -32.172370981552, -30.472372403547, -28.772371890635, -27.072371416642, -25.372370933599, -23.672372325724, -21.972371842681, -20.272371329769, -18.572370846727, -16.872372268721, -15.172371764859, -13.472371277291, -11.772371736357, -10.072372190899, -8.3723716929213, -6.6723716712033, -4.9723716689446, -3.2723716472266, -1.5723717445734, 0.12762827261982, 1.827628175273, 3.5276281820565, 5.2276284419043, 6.9276284590975, 8.6276284808155, 10.327628026274, 12.027628507055, 13.727628052513, 15.427628548228, 17.127628091425, 18.827628589402, 20.527629070183, 22.227627663122, 23.927628158837, 25.627628656815, 27.32762915253, 29.027627744338, 30.72762822625, 32.427628723096, 34.127629219943, 35.827629716789, 37.527626403537, 39.227626885471, 40.927627382318, 42.627627878598, 44.32762837601, 46.027628872857, 47.727629353637, 49.427629850483, 51.127626538385, 52.8276270341, 54.527627532078, 56.227628012858, 57.927628510836, 59.627629006551, 61.327629502266, 63.027630000243, 64.727630481024, 66.427627168926],
      "WindowCenter": [6454.0, 4570.0, 4801.0, 6051.0, 5833.0, 5914.0, 6361.0, 6704.0, 6638.0, 6607.0, 6672.0, 7032.0, 7548.0, 7706.0, 8597.0, 8725.0, 8692.0, 9076.0, 9190.0, 9193.0, 9397.0, 8997.0, 8898.0, 9024.0, 8899.0, 8685.0, 8551.0, 8356.0, 8320.0, 8533.0, 8856.0, 9400.0, 9624.0, 9799.0, 9600.0, 9443.0, 9229.0, 9169.0, 9143.0, 9212.0, 9292.0, 9251.0, 9250.0, 9538.0, 9694.0, 9730.0, 9742.0, 9941.0, 9873.0, 9738.0, 9891.0, 9856.0, 9871.0, 10091.0, 9680.0, 9662.0, 9928.0, 9970.0, 10043.0, 9943.0, 10051.0, 10103.0, 10087.0, 10039.0, 10079.0, 9745.0, 9808.0, 9701.0, 9723.0, 9582.0, 9740.0, 9701.0, 10090.0, 9897.0, 9666.0, 9441.0, 9491.0, 8835.0, 5407.0, 3773.0, 1515.0],
      "WindowWidth": [14188.0, 10708.0, 10975.0, 12999.0, 12864.0, 13080.0, 13795.0, 14344.0, 14349.0, 14293.0, 14478.0, 15205.0, 16474.0, 16844.0, 18759.0, 19290.0, 19485.0, 20576.0, 21162.0, 21722.0, 22449.0, 21828.0, 21297.0, 21147.0, 20476.0, 19800.0, 19499.0, 18721.0, 18343.0, 18703.0, 19375.0, 20571.0, 21407.0, 21553.0, 20879.0, 20401.0, 19886.0, 19778.0, 19686.0, 19952.0, 20127.0, 20083.0, 20042.0, 20638.0, 20769.0, 20955.0, 20851.0, 21307.0, 21203.0, 20949.0, 21413.0, 21389.0, 21460.0, 21975.0, 20959.0, 20969.0, 21611.0, 21709.0, 21833.0, 21616.0, 21947.0, 22034.0, 22014.0, 21912.0, 22178.0, 21290.0, 21423.0, 21116.0, 21074.0, 20737.0, 21150.0, 21021.0, 22330.0, 21669.0, 21005.0, 20247.0, 20474.0, 18549.0, 12184.0, 8793.0, 4394.0]
    }
  }
}