{
  "AcquisitionMatrixPE": 82,
  "AcquisitionNumber": 1,
  "AcquisitionTime": "16:10:24.137500",
  "BandwidthPerPixelPhaseEncode": 24.888,
  "BaseResolution": 82,
  "BodyPartExamined": "BRAIN",
  "ConsistencyInfo": "N4_VE11C_LATEST_20160120",
  "ConversionSoftware": "dcm2niix",
  "ConversionSoftwareVersion": "v1.0.20201102",
  "DerivedVendorReportedEchoSpacing": 0.00049,
  "DeviceSerialNumber": "66112",
  "DwellTime": 2e-06,
  "EchoTime": 0.0272,
  "EchoTrainLength": 82,
  "EffectiveEchoSpacing": 0.00049,
  "FlipAngle": 44,
  "ImageComments": "Unaliased MB8/PE3",
  "ImageOrientationPatientDICOM": [0.999525, 0.0245972, 0.01857, -0.0258244, 0.997281, 0.0690228],
  "ImageType": [
    "ORIGINAL",
    "PRIMARY",
    "M",
    "MB",
    "ND",
    "NORM",
    "MOSAIC"
],
  "ImagingFrequency": 123.252,
  "InPlanePhaseEncodingDirectionDICOM": "COL",
  "InstitutionAddress": "Maynard 3,Hanover,NH,US,03755",
  "InstitutionName": "Dartmouth College - PBS",
  "InstitutionalDepartmentName": "Department",
  "MRAcquisitionType": "2D",
  "MagneticFieldStrength": 3,
  "Manufacturer": "Siemens",
  "ManufacturersModelName": "Prisma",
  "Modality": "MR",
  "MultibandAccelerationFactor": 8,
  "PartialFourier": 1,
  "PatientPosition": "HFS",
  "PercentPhaseFOV": 100,
  "PercentSampling": 100,
  "PhaseEncodingDirection": "j-",
  "PhaseEncodingSteps": 82,
  "PhaseResolution": 1,
  "PixelBandwidth": 3050,
  "ProcedureStepDescription": "Wager_Wager^1076_spacetop",
  "ProtocolName": "func_run-01_task-alignvideo_acq-ap-mb8",
  "PulseSequenceDetails": "%CustomerSeq%\\cmrr_mbep2d_bold",
  "ReceiveCoilActiveElements": "HEA;HEP",
  "ReceiveCoilName": "Head_32",
  "ReconMatrixPE": 82,
  "RepetitionTime": 0.46,
  "SAR": 0.12243,
  "ScanOptions": "FS",
  "ScanningSequence": "EP",
  "SequenceName": "epfid2d1_82",
  "SequenceVariant": "SK\\SS",
  "SeriesDescription": "func_run-01_task-alignvideo_acq-ap-mb8",
  "SeriesNumber": 28,
  "ShimSetting": [4144, -7837, -7141, 513, -98, -255, 98, 49],
  "SliceThickness": 2.7,
  "SliceTiming": [0, 0.2525, 0.0625, 0.315, 0.125, 0.3775, 0.1875, 0, 0.2525, 0.0625, 0.315, 0.125, 0.3775, 0.1875, 0, 0.2525, 0.0625, 0.315, 0.125, 0.3775, 0.1875, 0, 0.2525, 0.0625, 0.315, 0.125, 0.3775, 0.1875, 0, 0.2525, 0.0625, 0.315, 0.125, 0.3775, 0.1875, 0, 0.2525, 0.0625, 0.315, 0.125, 0.3775, 0.1875, 0, 0.2525, 0.0625, 0.315, 0.125, 0.3775, 0.1875, 0, 0.2525, 0.0625, 0.315, 0.125, 0.3775, 0.1875],
  "SoftwareVersions": "syngo MR E11",
  "SpacingBetweenSlices": 2.7,
  "StationName": "AWP66112",
  "TaskName": "alignvideo",
  "TotalReadoutTime": 0.03969,
  "TxRefAmp": 271.425,
  "WipMemBlock": "cd04a94b-ae30-4e50-a186-0320f0c9c44d||Sequence: R016 ve11c/master r/e634e98; Dec 19 2017 11:00:25 by eja",
  "dcmmeta_affine": [
    [-2.681652307510376, -0.06928486377000809, 0.04541859030723572, 111.35440063476562],
    [-0.06599254906177521, 2.675631523132324, 0.18756790459156036, -96.54729461669922],
    [0.04982186108827591, -0.18518319725990295, 2.69309401512146, -11.52586555480957],
    [0.0, 0.0, 0.0, 1.0]
],
  "dcmmeta_reorient_transform": [
    [0.0, -1.0, 0.0, 81.0],
    [1.0, 0.0, 0.0, 0.0],
    [0.0, 0.0, 1.0, 0.0],
    [0.0, 0.0, 0.0, 1.0]
],
  "dcmmeta_shape": [82, 82, 56, 839],
  "dcmmeta_slice_dim": 2,
  "dcmmeta_version": 0.6,
  "global": {
    "const": {
      "AccessionNumber": "A003598",
      "AcquisitionMatrix": [82, 0, 0, 82],
      "AngioFlag": "N",
      "BitsAllocated": 16,
      "BitsStored": 16,
      "BodyPartExamined": "BRAIN",
      "Columns": 656,
      "EchoNumbers": 1,
      "EchoTime": 27.2,
      "EchoTrainLength": 82,
      "FlipAngle": 44.0,
      "HighBit": 15,
      "ImageOrientationPatient": [0.99952495366452, 0.02459722249121, 0.01856996628072, -0.025824356509, 0.99728077903039, 0.06902282511922],
      "ImagePositionPatient": [-855.49180758076, -907.02493202782, -93.97215547736],
      "ImageType": [
        "ORIGINAL",
        "PRIMARY",
        "M",
        "MB",
        "ND",
        "NORM",
        "MOSAIC"
],
      "ImagedNucleus": "1H",
      "ImagingFrequency": 123.252065,
      "InPlanePhaseEncodingDirection": "COL",
      "MRAcquisitionType": "2D",
      "MagneticFieldStrength": 3.0,
      "Manufacturer": "SIEMENS",
      "ManufacturerModelName": "Prisma",
      "Modality": "MR",
      "NumberOfAverages": 1.0,
      "NumberOfPhaseEncodingSteps": 82,
      "PercentPhaseFieldOfView": 100.0,
      "PercentSampling": 100.0,
      "PerformedProcedureStepStartTime": "143257.239000",
      "PhotometricInterpretation": "MONOCHROME2",
      "PixelBandwidth": 3050.0,
      "PixelRepresentation": 0,
      "PixelSpacing": [2.6829268932343, 2.6829268932343],
      "ProtocolName": "func_run-01_task-alignvideo_acq-ap-mb8",
      "RepetitionTime": 460.0,
      "Rows": 656,
      "SAR": 0.1224299002566,
      "SamplesPerPixel": 1,
      "ScanOptions": "FS",
      "ScanningSequence": "EP",
      "SequenceName": "epfid2d1_82",
      "SequenceVariant": [
        "SK",
        "SS"
],
      "SeriesDescription": "func_run-01_task-alignvideo_acq-ap-mb8",
      "SeriesNumber": 28,
      "SeriesTime": "161038.969000",
      "SliceLocation": -16.330316067128,
      "SliceThickness": 2.7000000476837,
      "SmallestImagePixelValue": 0,
      "SoftwareVersions": "syngo MR E11",
      "SpacingBetweenSlices": 2.7000000180054,
      "SpecificCharacterSet": "ISO_IR 100",
      "StudyID": "1",
      "StudyTime": "143257.191000",
      "TransmitCoilName": "Body",
      "VariableFlipAngleFlag": "N",
      "WindowCenterWidthExplanation": "Algo1",
      "dBdt": 0.0},
    "slices": {}
  },
  "time": {
    "samples": {
      "AcquisitionNumber": [1, 2, 3, 4, 5, 6, 7, 8, 9, 10, 11, 12, 13, 14, 15, 16, 17, 18, 19, 20, 21, 22, 23, 24, 25, 26, 27, 28, 29, 30, 31, 32, 33, 34, 35, 36, 37, 38, 39, 40, 41, 42, 43, 44, 45, 46, 47, 48, 49, 50, 51, 52, 53, 54, 55, 56, 57, 58, 59, 60, 61, 62, 63, 64, 65, 66, 67, 68, 69, 70, 71, 72, 73, 74, 75, 76, 77, 78, 79, 80, 81, 82, 83, 84, 85, 86, 87, 88, 89, 90, 91, 92, 93, 94, 95, 96, 97, 98, 99, 100, 101, 102, 103, 104, 105, 106, 107, 108, 109, 110, 111, 112, 113, 114, 115, 116, 117, 118, 119, 120, 121, 122, 123, 124, 125, 126, 127, 128, 129, 130, 131, 132, 133, 134, 135, 136, 137, 138, 139, 140, 141, 142, 143, 144, 145, 146, 147, 148, 149, 150, 151, 152, 153, 154, 155, 156, 157, 158, 159, 160, 161, 162, 163, 164, 165, 166, 167, 168, 169, 170, 171, 172, 173, 174, 175, 176, 177, 178, 179, 180, 181, 182, 183, 184, 185, 186, 187, 188, 189, 190, 191, 192, 193, 194, 195, 196, 197, 198, 199, 200, 201, 202, 203, 204, 205, 206, 207, 208, 209, 210, 211, 212, 213, 214, 215, 216, 217, 218, 219, 220, 221, 222, 223, 224, 225, 226, 227, 228, 229, 230, 231, 232, 233, 234, 235, 236, 237, 238, 239, 240, 241, 242, 243, 244, 245, 246, 247, 248, 249, 250, 251, 252, 253, 254, 255, 256, 257, 258, 259, 260, 261, 262, 263, 264, 265, 266, 267, 268, 269, 270, 271, 272, 273, 274, 275, 276, 277, 278, 279, 280, 281, 282, 283, 284, 285, 286, 287, 288, 289, 290, 291, 292, 293, 294, 295, 296, 297, 298, 299, 300, 301, 302, 303, 304, 305, 306, 307, 308, 309, 310, 311, 312, 313, 314, 315, 316, 317, 318, 319, 320, 321, 322, 323, 324, 325, 326, 327, 328, 329, 330, 331, 332, 333, 334, 335, 336, 337, 338, 339, 340, 341, 342, 343, 344, 345, 346, 347, 348, 349, 350, 351, 352, 353, 354, 355, 356, 357, 358, 359, 360, 361, 362, 363, 364, 365, 366, 367, 368, 369, 370, 371, 372, 373, 374, 375, 376, 377, 378, 379, 380, 381, 382, 383, 384, 385, 386, 387, 388, 389, 390, 391, 392, 393, 394, 395, 396, 397, 398, 399, 400, 401, 402, 403, 404, 405, 406, 407, 408, 409, 410, 411, 412, 413, 414, 415, 416, 417, 418, 419, 420, 421, 422, 423, 424, 425, 426, 427, 428, 429, 430, 431, 432, 433, 434, 435, 436, 437, 438, 439, 440, 441, 442, 443, 444, 445, 446, 447, 448, 449, 450, 451, 452, 453, 454, 455, 456, 457, 458, 459, 460, 461, 462, 463, 464, 465, 466, 467, 468, 469, 470, 471, 472, 473, 474, 475, 476, 477, 478, 479, 480, 481, 482, 483, 484, 485, 486, 487, 488, 489, 490, 491, 492, 493, 494, 495, 496, 497, 498, 499, 500, 501, 502, 503, 504, 505, 506, 507, 508, 509, 510, 511, 512, 513, 514, 515, 516, 517, 518, 519, 520, 521, 522, 523, 524, 525, 526, 527, 528, 529, 530, 531, 532, 533, 534, 535, 536, 537, 538, 539, 540, 541, 542, 543, 544, 545, 546, 547, 548, 549, 550, 551, 552, 553, 554, 555, 556, 557, 558, 559, 560, 561, 562, 563, 564, 565, 566, 567, 568, 569, 570, 571, 572, 573, 574, 575, 576, 577, 578, 579, 580, 581, 582, 583, 584, 585, 586, 587, 588, 589, 590, 591, 592, 593, 594, 595, 596, 597, 598, 599, 600, 601, 602, 603, 604, 605, 606, 607, 608, 609, 610, 611, 612, 613, 614, 615, 616, 617, 618, 619, 620, 621, 622, 623, 624, 625, 626, 627, 628, 629, 630, 631, 632, 633, 634, 635, 636, 637, 638, 639, 640, 641, 642, 643, 644, 645, 646, 647, 648, 649, 650, 651, 652, 653, 654, 655, 656, 657, 658, 659, 660, 661, 662, 663, 664, 665, 666, 667, 668, 669, 670, 671, 672, 673, 674, 675, 676, 677, 678, 679, 680, 681, 682, 683, 684, 685, 686, 687, 688, 689, 690, 691, 692, 693, 694, 695, 696, 697, 698, 699, 700, 701, 702, 703, 704, 705, 706, 707, 708, 709, 710, 711, 712, 713, 714, 715, 716, 717, 718, 719, 720, 721, 722, 723, 724, 725, 726, 727, 728, 729, 730, 731, 732, 733, 734, 735, 736, 737, 738, 739, 740, 741, 742, 743, 744, 745, 746, 747, 748, 749, 750, 751, 752, 753, 754, 755, 756, 757, 758, 759, 760, 761, 762, 763, 764, 765, 766, 767, 768, 769, 770, 771, 772, 773, 774, 775, 776, 777, 778, 779, 780, 781, 782, 783, 784, 785, 786, 787, 788, 789, 790, 791, 792, 793, 794, 795, 796, 797, 798, 799, 800, 801, 802, 803, 804, 805, 806, 807, 808, 809, 810, 811, 812, 813, 814, 815, 816, 817, 818, 819, 820, 821, 822, 823, 824, 825, 826, 827, 828, 829, 830, 831, 832, 833, 834, 835, 836, 837, 838, 839],
      "AcquisitionTime": ["161024.137500", "161024.597500", "161025.057500", "161025.517500", "161025.977500", "161026.437500", "161026.897500", "161027.357500", "161027.817500", "161028.277500", "161028.737500", "161029.197500", "161029.657500", "161030.117500", "161030.577500", "161031.037500", "161031.497500", "161031.957500", "161032.417500", "161032.877500", "161033.337500", "161033.797500", "161034.257500", "161034.717500", "161035.177500", "161035.637500", "161036.097500", "161036.557500", "161037.017500", "161037.477500", "161037.937500", "161038.397500", "161038.857500", "161039.317500", "161039.777500", "161040.237500", "161040.697500", "161041.157500", "161041.617500", "161042.077500", "161042.537500", "161042.997500", "161043.457500", "161043.917500", "161044.377500", "161044.837500", "161045.297500", "161045.757500", "161046.217500", "161046.677500", "161047.137500", "161047.597500", "161048.057500", "161048.517500", "161048.977500", "161049.437500", "161049.897500", "161050.357500", "161050.817500", "161051.277500", "161051.737500", "161052.197500", "161052.657500", "161053.117500", "161053.577500", "161054.037500", "161054.497500", "161054.957500", "161055.417500", "161055.877500", "161056.337500", "161056.797500", "161057.257500", "161057.717500", "161058.177500", "161058.637500", "161059.097500", "161059.557500", "161100.017500", "161100.477500", "161100.937500", "161101.397500", "161101.857500", "161102.317500", "161102.777500", "161103.237500", "161103.697500", "161104.157500", "161104.617500", "161105.077500", "161105.537500", "161105.997500", "161106.457500", "161106.917500", "161107.377500", "161107.837500", "161108.297500", "161108.757500", "161109.217500", "161109.677500", "161110.137500", "161110.597500", "161111.057500", "161111.517500", "161111.977500", "161112.437500", "161112.897500", "161113.357500", "161113.817500", "161114.277500", "161114.737500", "161115.197500", "161115.657500", "161116.117500", "161116.577500", "161117.037500", "161117.497500", "161117.957500", "161118.417500", "161118.877500", "161119.337500", "161119.797500", "161120.257500", "161120.717500", "161121.177500", "161121.637500", "161122.097500", "161122.557500", "161123.017500", "161123.477500", "161123.937500", "161124.397500", "161124.857500", "161125.317500", "161125.777500", "161126.237500", "161126.697500", "161127.157500", "161127.617500", "161128.077500", "161128.537500", "161128.997500", "161129.457500", "161129.917500", "161130.377500", "161130.837500", "161131.297500", "161131.757500", "161132.217500", "161132.677500", "161133.137500", "161133.597500", "161134.057500", "161134.517500", "161134.977500", "161135.437500", "161135.897500", "161136.357500", "161136.817500", "161137.277500", "161137.737500", "161138.197500", "161138.657500", "161139.117500", "161139.577500", "161140.037500", "161140.497500", "161140.957500", "161141.417500", "161141.877500", "161142.337500", "161142.797500", "161143.257500", "161143.717500", "161144.177500", "161144.637500", "161145.097500", "161145.557500", "161146.017500", "161146.477500", "161146.937500", "161147.397500", "161147.857500", "161148.317500", "161148.777500", "161149.237500", "161149.697500", "161150.157500", "161150.617500", "161151.077500", "161151.537500", "161151.997500", "161152.457500", "161152.917500", "161153.377500", "161153.837500", "161154.297500", "161154.757500", "161155.217500", "161155.677500", "161156.137500", "161156.597500", "161157.057500", "161157.517500", "161157.977500", "161158.437500", "161158.897500", "161159.357500", "161159.817500", "161200.277500", "161200.737500", "161201.197500", "161201.657500", "161202.117500", "161202.577500", "161203.037500", "161203.497500", "161203.957500", "161204.417500", "161204.877500", "161205.337500", "161205.797500", "161206.257500", "161206.717500", "161207.177500", "161207.637500", "161208.097500", "161208.557500", "161209.017500", "161209.477500", "161209.937500", "161210.397500", "161210.857500", "161211.317500", "161211.777500", "161212.237500", "161212.697500", "161213.157500", "161213.617500", "161214.077500", "161214.537500", "161214.997500", "161215.457500", "161215.917500", "161216.377500", "161216.837500", "161217.297500", "161217.757500", "161218.217500", "161218.677500", "161219.137500", "161219.597500", "161220.057500", "161220.517500", "161220.977500", "161221.437500", "161221.897500", "161222.357500", "161222.817500", "161223.277500", "161223.737500", "161224.197500", "161224.657500", "161225.117500", "161225.577500", "161226.037500", "161226.497500", "161226.957500", "161227.417500", "161227.877500", "161228.337500", "161228.797500", "161229.257500", "161229.717500", "161230.177500", "161230.637500", "161231.097500", "161231.557500", "161232.017500", "161232.477500", "161232.937500", "161233.397500", "161233.857500", "161234.317500", "161234.777500", "161235.237500", "161235.697500", "161236.157500", "161236.617500", "161237.077500", "161237.537500", "161237.997500", "161238.457500", "161238.917500", "161239.377500", "161239.837500", "161240.297500", "161240.757500", "161241.217500", "161241.677500", "161242.137500", "161242.597500", "161243.057500", "161243.517500", "161243.977500", "161244.437500", "161244.897500", "161245.357500", "161245.817500", "161246.277500", "161246.737500", "161247.197500", "161247.657500", "161248.117500", "161248.577500", "161249.037500", "161249.497500", "161249.957500", "161250.417500", "161250.877500", "161251.337500", "161251.797500", "161252.257500", "161252.717500", "161253.177500", "161253.637500", "161254.097500", "161254.557500", "161255.017500", "161255.477500", "161255.937500", "161256.397500", "161256.857500", "161257.317500", "161257.777500", "161258.237500", "161258.697500", "161259.157500", "161259.617500", "161300.077500", "161300.537500", "161300.997500", "161301.457500", "161301.917500", "161302.377500", "161302.837500", "161303.297500", "161303.757500", "161304.217500", "161304.677500", "161305.137500", "161305.597500", "161306.057500", "161306.517500", "161306.977500", "161307.437500", "161307.897500", "161308.357500", "161308.817500", "161309.277500", "161309.737500", "161310.197500", "161310.657500", "161311.117500", "161311.577500", "161312.037500", "161312.497500", "161312.957500", "161313.417500", "161313.877500", "161314.337500", "161314.797500", "161315.257500", "161315.717500", "161316.177500", "161316.637500", "161317.097500", "161317.557500", "161318.017500", "161318.477500", "161318.937500", "161319.397500", "161319.857500", "161320.317500", "161320.777500", "161321.237500", "161321.697500", "161322.157500", "161322.617500", "161323.077500", "161323.537500", "161323.997500", "161324.457500", "161324.917500", "161325.377500", "161325.837500", "161326.297500", "161326.757500", "161327.217500", "161327.677500", "161328.137500", "161328.597500", "161329.057500", "161329.517500", "161329.977500", "161330.437500", "161330.897500", "161331.357500", "161331.817500", "161332.277500", "161332.737500", "161333.197500", "161333.657500", "161334.117500", "161334.577500", "161335.037500", "161335.497500", "161335.957500", "161336.417500", "161336.877500", "161337.337500", "161337.797500", "161338.257500", "161338.717500", "161339.177500", "161339.637500", "161340.097500", "161340.557500", "161341.017500", "161341.477500", "161341.937500", "161342.397500", "161342.857500", "161343.317500", "161343.777500", "161344.237500", "161344.697500", "161345.157500", "161345.617500", "161346.077500", "161346.537500", "161346.997500", "161347.457500", "161347.917500", "161348.377500", "161348.837500", "161349.297500", "161349.757500", "161350.217500", "161350.677500", "161351.137500", "161351.597500", "161352.057500", "161352.517500", "161352.977500", "161353.437500", "161353.897500", "161354.357500", "161354.817500", "161355.277500", "161355.737500", "161356.197500", "161356.657500", "161357.117500", "161357.577500", "161358.037500", "161358.497500", "161358.957500", "161359.417500", "161359.877500", "161400.337500", "161400.797500", "161401.257500", "161401.717500", "161402.177500", "161402.637500", "161403.097500", "161403.557500", "161404.017500", "161404.477500", "161404.937500", "161405.397500", "161405.857500", "161406.317500", "161406.777500", "161407.237500", "161407.697500", "161408.157500", "161408.617500", "161409.077500", "161409.537500", "161409.997500", "161410.457500", "161410.917500", "161411.377500", "161411.837500", "161412.297500", "161412.757500", "161413.217500", "161413.677500", "161414.137500", "161414.597500", "161415.057500", "161415.517500", "161415.977500", "161416.437500", "161416.897500", "161417.357500", "161417.817500", "161418.277500", "161418.737500", "161419.197500", "161419.657500", "161420.117500", "161420.577500", "161421.037500", "161421.497500", "161421.957500", "161422.417500", "161422.877500", "161423.337500", "161423.797500", "161424.257500", "161424.717500", "161425.177500", "161425.637500", "161426.097500", "161426.557500", "161427.017500", "161427.477500", "161427.937500", "161428.397500", "161428.857500", "161429.317500", "161429.777500", "161430.237500", "161430.697500", "161431.157500", "161431.617500", "161432.077500", "161432.537500", "161432.997500", "161433.457500", "161433.917500", "161434.377500", "161434.837500", "161435.297500", "161435.757500", "161436.217500", "161436.677500", "161437.137500", "161437.597500", "161438.057500", "161438.517500", "161438.977500", "161439.437500", "161439.897500", "161440.357500", "161440.817500", "161441.277500", "161441.737500", "161442.197500", "161442.657500", "161443.117500", "161443.577500", "161444.037500", "161444.497500", "161444.957500", "161445.417500", "161445.877500", "161446.337500", "161446.797500", "161447.257500", "161447.717500", "161448.177500", "161448.637500", "161449.097500", "161449.557500", "161450.017500", "161450.477500", "161450.937500", "161451.397500", "161451.857500", "161452.317500", "161452.777500", "161453.237500", "161453.697500", "161454.157500", "161454.617500", "161455.077500", "161455.537500", "161455.997500", "161456.457500", "161456.917500", "161457.377500", "161457.837500", "161458.297500", "161458.757500", "161459.217500", "161459.677500", "161500.137500", "161500.597500", "161501.057500", "161501.517500", "161501.977500", "161502.437500", "161502.897500", "161503.357500", "161503.817500", "161504.277500", "161504.737500", "161505.197500", "161505.657500", "161506.117500", "161506.577500", "161507.037500", "161507.497500", "161507.957500", "161508.417500", "161508.877500", "161509.337500", "161509.797500", "161510.257500", "161510.717500", "161511.177500", "161511.637500", "161512.097500", "161512.557500", "161513.017500", "161513.477500", "161513.937500", "161514.397500", "161514.857500", "161515.317500", "161515.777500", "161516.237500", "161516.697500", "161517.157500", "161517.617500", "161518.077500", "161518.537500", "161518.997500", "161519.457500", "161519.917500", "161520.377500", "161520.837500", "161521.297500", "161521.757500", "161522.217500", "161522.677500", "161523.137500", "161523.597500", "161524.057500", "161524.517500", "161524.977500", "161525.437500", "161525.897500", "161526.357500", "161526.817500", "161527.277500", "161527.737500", "161528.197500", "161528.657500", "161529.117500", "161529.577500", "161530.037500", "161530.497500", "161530.957500", "161531.417500", "161531.877500", "161532.337500", "161532.797500", "161533.257500", "161533.717500", "161534.177500", "161534.637500", "161535.097500", "161535.557500", "161536.017500", "161536.477500", "161536.937500", "161537.397500", "161537.857500", "161538.317500", "161538.777500", "161539.237500", "161539.697500", "161540.157500", "161540.617500", "161541.077500", "161541.537500", "161541.997500", "161542.457500", "161542.917500", "161543.377500", "161543.837500", "161544.297500", "161544.757500", "161545.217500", "161545.677500", "161546.137500", "161546.597500", "161547.057500", "161547.517500", "161547.977500", "161548.437500", "161548.897500", "161549.357500", "161549.817500", "161550.277500", "161550.737500", "161551.197500", "161551.657500", "161552.117500", "161552.577500", "161553.037500", "161553.497500", "161553.957500", "161554.417500", "161554.877500", "161555.337500", "161555.797500", "161556.257500", "161556.717500", "161557.177500", "161557.637500", "161558.097500", "161558.557500", "161559.017500", "161559.477500", "161559.937500", "161600.397500", "161600.857500", "161601.317500", "161601.777500", "161602.237500", "161602.697500", "161603.157500", "161603.617500", "161604.077500", "161604.537500", "161604.997500", "161605.457500", "161605.917500", "161606.377500", "161606.837500", "161607.297500", "161607.757500", "161608.217500", "161608.677500", "161609.137500", "161609.597500", "161610.057500", "161610.517500", "161610.977500", "161611.437500", "161611.897500", "161612.357500", "161612.817500", "161613.277500", "161613.737500", "161614.197500", "161614.657500", "161615.117500", "161615.577500", "161616.037500", "161616.497500", "161616.957500", "161617.417500", "161617.877500", "161618.337500", "161618.797500", "161619.257500", "161619.717500", "161620.177500", "161620.637500", "161621.097500", "161621.557500", "161622.017500", "161622.477500", "161622.937500", "161623.397500", "161623.857500", "161624.317500", "161624.777500", "161625.237500", "161625.697500", "161626.157500", "161626.617500", "161627.077500", "161627.537500", "161627.997500", "161628.457500", "161628.917500", "161629.377500", "161629.837500", "161630.297500", "161630.757500", "161631.217500", "161631.677500", "161632.137500", "161632.597500", "161633.057500", "161633.517500", "161633.977500", "161634.437500", "161634.897500", "161635.357500", "161635.817500", "161636.277500", "161636.737500", "161637.197500", "161637.657500", "161638.117500", "161638.577500", "161639.037500", "161639.497500", "161639.957500", "161640.417500", "161640.877500", "161641.337500", "161641.797500", "161642.257500", "161642.717500", "161643.177500", "161643.637500", "161644.097500", "161644.557500", "161645.017500", "161645.477500", "161645.937500", "161646.397500", "161646.857500", "161647.317500", "161647.777500", "161648.237500", "161648.697500", "161649.157500", "161649.617500"],
