{
  "AcquisitionMatrixPE": 82,
  "AcquisitionNumber": 1,
  "AcquisitionTime": "16:40:52.777500",
  "BandwidthPerPixelPhaseEncode": 24.888,
  "BaseResolution": 82,
  "BodyPartExamined": "BRAIN",
  "ConsistencyInfo": "N4_VE11C_LATEST_20160120",
  "ConversionSoftware": "dcm2niix",
  "ConversionSoftwareVersion": "v1.0.20201102",
  "DerivedVendorReportedEchoSpacing": 0.00049,
  "DeviceSerialNumber": "66112",
  "DwellTime": 2e-06,
  "EchoTime": 0.0272,
  "EchoTrainLength": 82,
  "EffectiveEchoSpacing": 0.00049,
  "FlipAngle": 44,
  "ImageComments": "Unaliased MB8/PE3",
  "ImageOrientationPatientDICOM": [0.999525, 0.0245972, 0.01857, -0.0258244, 0.997281, 0.0690228],
  "ImageType": [
    "ORIGINAL",
    "PRIMARY",
    "M",
    "MB",
    "ND",
    "NORM",
    "MOSAIC"
],
  "ImagingFrequency": 123.252,
  "InPlanePhaseEncodingDirectionDICOM": "COL",
  "InstitutionAddress": "Maynard 3,Hanover,NH,US,03755",
  "InstitutionName": "Dartmouth College - PBS",
  "InstitutionalDepartmentName": "Department",
  "MRAcquisitionType": "2D",
  "MagneticFieldStrength": 3,
  "Manufacturer": "Siemens",
  "ManufacturersModelName": "Prisma",
  "Modality": "MR",
  "MultibandAccelerationFactor": 8,
  "PartialFourier": 1,
  "PatientPosition": "HFS",
  "PercentPhaseFOV": 100,
  "PercentSampling": 100,
  "PhaseEncodingDirection": "j-",
  "PhaseEncodingSteps": 82,
  "PhaseResolution": 1,
  "PixelBandwidth": 3050,
  "ProcedureStepDescription": "Wager_Wager^1076_spacetop",
  "ProtocolName": "func_run-04_task-alignvideo_acq-ap-mb8",
  "PulseSequenceDetails": "%CustomerSeq%\\cmrr_mbep2d_bold",
  "ReceiveCoilActiveElements": "HEA;HEP",
  "ReceiveCoilName": "Head_32",
  "ReconMatrixPE": 82,
  "RepetitionTime": 0.46,
  "SAR": 0.122495,
  "ScanOptions": "FS",
  "ScanningSequence": "EP",
  "SequenceName": "epfid2d1_82",
  "SequenceVariant": "SK\\SS",
  "SeriesDescription": "func_run-04_task-alignvideo_acq-ap-mb8",
  "SeriesNumber": 34,
  "ShimSetting": [4144, -7837, -7141, 513, -98, -255, 98, 49],
  "SliceThickness": 2.7,
  "SliceTiming": [0, 0.2525, 0.065, 0.315, 0.1275, 0.3775, 0.19, 0, 0.2525, 0.065, 0.315, 0.1275, 0.3775, 0.19, 0, 0.2525, 0.065, 0.315, 0.1275, 0.3775, 0.19, 0, 0.2525, 0.065, 0.315, 0.1275, 0.3775, 0.19, 0, 0.2525, 0.065, 0.315, 0.1275, 0.3775, 0.19, 0, 0.2525, 0.065, 0.315, 0.1275, 0.3775, 0.19, 0, 0.2525, 0.065, 0.315, 0.1275, 0.3775, 0.19, 0, 0.2525, 0.065, 0.315, 0.1275, 0.3775, 0.19],
  "SoftwareVersions": "syngo MR E11",
  "SpacingBetweenSlices": 2.7,
  "StationName": "AWP66112",
  "TaskName": "alignvideo",
  "TotalReadoutTime": 0.03969,
  "TxRefAmp": 271.425,
  "WipMemBlock": "cc7cab79-f28b-4bbf-b211-a3405e718ec5||Sequence: R016 ve11c/master r/e634e98; Dec 19 2017 11:00:25 by eja",
  "dcmmeta_affine": [
    [-2.681652307510376, -0.06928486377000809, 0.04541859030723572, 111.35440063476562],
    [-0.06599254906177521, 2.675631523132324, 0.18756790459156036, -96.54729461669922],
    [0.04982186108827591, -0.18518319725990295, 2.69309401512146, -11.52586555480957],
    [0.0, 0.0, 0.0, 1.0]
],
  "dcmmeta_reorient_transform": [
    [0.0, -1.0, 0.0, 81.0],
    [1.0, 0.0, 0.0, 0.0],
    [0.0, 0.0, 1.0, 0.0],
    [0.0, 0.0, 0.0, 1.0]
],
  "dcmmeta_shape": [82, 82, 56, 914],
  "dcmmeta_slice_dim": 2,
  "dcmmeta_version": 0.6,
  "global": {
    "const": {
      "AccessionNumber": "A003598",
      "AcquisitionMatrix": [82, 0, 0, 82],
      "AngioFlag": "N",
      "BitsAllocated": 16,
      "BitsStored": 16,
      "BodyPartExamined": "BRAIN",
      "Columns": 656,
      "EchoNumbers": 1,
      "EchoTime": 27.2,
      "EchoTrainLength": 82,
      "FlipAngle": 44.0,
      "HighBit": 15,
      "ImageOrientationPatient": [0.99952495366452, 0.02459722249121, 0.01856996628072, -0.025824356509, 0.99728077903039, 0.06902282511922],
      "ImagePositionPatient": [-855.49180758076, -907.02493202782, -93.97215547736],
      "ImageType": [
        "ORIGINAL",
        "PRIMARY",
        "M",
        "MB",
        "ND",
        "NORM",
        "MOSAIC"
],
      "ImagedNucleus": "1H",
      "ImagingFrequency": 123.252069,
      "InPlanePhaseEncodingDirection": "COL",
      "MRAcquisitionType": "2D",
      "MagneticFieldStrength": 3.0,
      "Manufacturer": "SIEMENS",
      "ManufacturerModelName": "Prisma",
      "Modality": "MR",
      "NumberOfAverages": 1.0,
      "NumberOfPhaseEncodingSteps": 82,
      "PercentPhaseFieldOfView": 100.0,
      "PercentSampling": 100.0,
      "PerformedProcedureStepStartTime": "143257.239000",
      "PhotometricInterpretation": "MONOCHROME2",
      "PixelBandwidth": 3050.0,
      "PixelRepresentation": 0,
      "PixelSpacing": [2.6829268932343, 2.6829268932343],
      "ProtocolName": "func_run-04_task-alignvideo_acq-ap-mb8",
      "RepetitionTime": 460.0,
      "Rows": 656,
      "SAR": 0.12249471364878,
      "SamplesPerPixel": 1,
      "ScanOptions": "FS",
      "ScanningSequence": "EP",
      "SequenceName": "epfid2d1_82",
      "SequenceVariant": [
        "SK",
        "SS"
],
      "SeriesDescription": "func_run-04_task-alignvideo_acq-ap-mb8",
      "SeriesNumber": 34,
      "SeriesTime": "164118.966000",
      "SliceLocation": -16.330316067128,
      "SliceThickness": 2.7000000476837,
      "SmallestImagePixelValue": 0,
      "SoftwareVersions": "syngo MR E11",
      "SpacingBetweenSlices": 2.7000000180054,
      "SpecificCharacterSet": "ISO_IR 100",
      "StudyID": "1",
      "StudyTime": "143257.191000",
      "TransmitCoilName": "Body",
      "VariableFlipAngleFlag": "N",
      "WindowCenterWidthExplanation": "Algo1",
      "dBdt": 0.0},
    "slices": {}
  },
  "time": {
    "samples": {
      "AcquisitionNumber": [1, 2, 3, 4, 5, 6, 7, 8, 9, 10, 11, 12, 13, 14, 15, 16, 17, 18, 19, 20, 21, 22, 23, 24, 25, 26, 27, 28, 29, 30, 31, 32, 33, 34, 35, 36, 37, 38, 39, 40, 41, 42, 43, 44, 45, 46, 47, 48, 49, 50, 51, 52, 53, 54, 55, 56, 57, 58, 59, 60, 61, 62, 63, 64, 65, 66, 67, 68, 69, 70, 71, 72, 73, 74, 75, 76, 77, 78, 79, 80, 81, 82, 83, 84, 85, 86, 87, 88, 89, 90, 91, 92, 93, 94, 95, 96, 97, 98, 99, 100, 101, 102, 103, 104, 105, 106, 107, 108, 109, 110, 111, 112, 113, 114, 115, 116, 117, 118, 119, 120, 121, 122, 123, 124, 125, 126, 127, 128, 129, 130, 131, 132, 133, 134, 135, 136, 137, 138, 139, 140, 141, 142, 143, 144, 145, 146, 147, 148, 149, 150, 151, 152, 153, 154, 155, 156, 157, 158, 159, 160, 161, 162, 163, 164, 165, 166, 167, 168, 169, 170, 171, 172, 173, 174, 175, 176, 177, 178, 179, 180, 181, 182, 183, 184, 185, 186, 187, 188, 189, 190, 191, 192, 193, 194, 195, 196, 197, 198, 199, 200, 201, 202, 203, 204, 205, 206, 207, 208, 209, 210, 211, 212, 213, 214, 215, 216, 217, 218, 219, 220, 221, 222, 223, 224, 225, 226, 227, 228, 229, 230, 231, 232, 233, 234, 235, 236, 237, 238, 239, 240, 241, 242, 243, 244, 245, 246, 247, 248, 249, 250, 251, 252, 253, 254, 255, 256, 257, 258, 259, 260, 261, 262, 263, 264, 265, 266, 267, 268, 269, 270, 271, 272, 273, 274, 275, 276, 277, 278, 279, 280, 281, 282, 283, 284, 285, 286, 287, 288, 289, 290, 291, 292, 293, 294, 295, 296, 297, 298, 299, 300, 301, 302, 303, 304, 305, 306, 307, 308, 309, 310, 311, 312, 313, 314, 315, 316, 317, 318, 319, 320, 321, 322, 323, 324, 325, 326, 327, 328, 329, 330, 331, 332, 333, 334, 335, 336, 337, 338, 339, 340, 341, 342, 343, 344, 345, 346, 347, 348, 349, 350, 351, 352, 353, 354, 355, 356, 357, 358, 359, 360, 361, 362, 363, 364, 365, 366, 367, 368, 369, 370, 371, 372, 373, 374, 375, 376, 377, 378, 379, 380, 381, 382, 383, 384, 385, 386, 387, 388, 389, 390, 391, 392, 393, 394, 395, 396, 397, 398, 399, 400, 401, 402, 403, 404, 405, 406, 407, 408, 409, 410, 411, 412, 413, 414, 415, 416, 417, 418, 419, 420, 421, 422, 423, 424, 425, 426, 427, 428, 429, 430, 431, 432, 433, 434, 435, 436, 437, 438, 439, 440, 441, 442, 443, 444, 445, 446, 447, 448, 449, 450, 451, 452, 453, 454, 455, 456, 457, 458, 459, 460, 461, 462, 463, 464, 465, 466, 467, 468, 469, 470, 471, 472, 473, 474, 475, 476, 477, 478, 479, 480, 481, 482, 483, 484, 485, 486, 487, 488, 489, 490, 491, 492, 493, 494, 495, 496, 497, 498, 499, 500, 501, 502, 503, 504, 505, 506, 507, 508, 509, 510, 511, 512, 513, 514, 515, 516, 517, 518, 519, 520, 521, 522, 523, 524, 525, 526, 527, 528, 529, 530, 531, 532, 533, 534, 535, 536, 537, 538, 539, 540, 541, 542, 543, 544, 545, 546, 547, 548, 549, 550, 551, 552, 553, 554, 555, 556, 557, 558, 559, 560, 561, 562, 563, 564, 565, 566, 567, 568, 569, 570, 571, 572, 573, 574, 575, 576, 577, 578, 579, 580, 581, 582, 583, 584, 585, 586, 587, 588, 589, 590, 591, 592, 593, 594, 595, 596, 597, 598, 599, 600, 601, 602, 603, 604, 605, 606, 607, 608, 609, 610, 611, 612, 613, 614, 615, 616, 617, 618, 619, 620, 621, 622, 623, 624, 625, 626, 627, 628, 629, 630, 631, 632, 633, 634, 635, 636, 637, 638, 639, 640, 641, 642, 643, 644, 645, 646, 647, 648, 649, 650, 651, 652, 653, 654, 655, 656, 657, 658, 659, 660, 661, 662, 663, 664, 665, 666, 667, 668, 669, 670, 671, 672, 673, 674, 675, 676, 677, 678, 679, 680, 681, 682, 683, 684, 685, 686, 687, 688, 689, 690, 691, 692, 693, 694, 695, 696, 697, 698, 699, 700, 701, 702, 703, 704, 705, 706, 707, 708, 709, 710, 711, 712, 713, 714, 715, 716, 717, 718, 719, 720, 721, 722, 723, 724, 725, 726, 727, 728, 729, 730, 731, 732, 733, 734, 735, 736, 737, 738, 739, 740, 741, 742, 743, 744, 745, 746, 747, 748, 749, 750, 751, 752, 753, 754, 755, 756, 757, 758, 759, 760, 761, 762, 763, 764, 765, 766, 767, 768, 769, 770, 771, 772, 773, 774, 775, 776, 777, 778, 779, 780, 781, 782, 783, 784, 785, 786, 787, 788, 789, 790, 791, 792, 793, 794, 795, 796, 797, 798, 799, 800, 801, 802, 803, 804, 805, 806, 807, 808, 809, 810, 811, 812, 813, 814, 815, 816, 817, 818, 819, 820, 821, 822, 823, 824, 825, 826, 827, 828, 829, 830, 831, 832, 833, 834, 835, 836, 837, 838, 839, 840, 841, 842, 843, 844, 845, 846, 847, 848, 849, 850, 851, 852, 853, 854, 855, 856, 857, 858, 859, 860, 861, 862, 863, 864, 865, 866, 867, 868, 869, 870, 871, 872, 873, 874, 875, 876, 877, 878, 879, 880, 881, 882, 883, 884, 885, 886, 887, 888, 889, 890, 891, 892, 893, 894, 895, 896, 897, 898, 899, 900, 901, 902, 903, 904, 905, 906, 907, 908, 909, 910, 911, 912, 913, 914],
      "AcquisitionTime": ["164052.777500", "164053.237500", "164053.697500", "164054.157500", "164054.617500", "164055.077500", "164055.537500", "164055.997500", "164056.457500", "164056.917500", "164057.377500", "164057.837500", "164058.297500", "164058.757500", "164059.217500", "164059.677500", "164100.137500", "164100.597500", "164101.057500", "164101.517500", "164101.977500", "164102.437500", "164102.897500", "164103.357500", "164103.817500", "164104.277500", "164104.737500", "164105.197500", "164105.657500", "164106.117500", "164106.577500", "164107.037500", "164107.497500", "164107.957500", "164108.417500", "164108.877500", "164109.337500", "164109.797500", "164110.257500", "164110.717500", "164111.177500", "164111.637500", "164112.097500", "164112.557500", "164113.017500", "164113.477500", "164113.937500", "164114.397500", "164114.857500", "164115.317500", "164115.777500", "164116.237500", "164116.697500", "164117.157500", "164117.617500", "164118.077500", "164118.537500", "164118.997500", "164119.457500", "164119.917500", "164120.377500", "164120.837500", "164121.297500", "164121.757500", "164122.217500", "164122.677500", "164123.137500", "164123.597500", "164124.057500", "164124.517500", "164124.977500", "164125.437500", "164125.897500", "164126.357500", "164126.817500", "164127.277500", "164127.737500", "164128.197500", "164128.657500", "164129.117500", "164129.577500", "164130.037500", "164130.497500", "164130.957500", "164131.417500", "164131.877500", "164132.337500", "164132.797500", "164133.257500", "164133.717500", "164134.177500", "164134.637500", "164135.097500", "164135.557500", "164136.017500", "164136.477500", "164136.937500", "164137.397500", "164137.857500", "164138.317500", "164138.777500", "164139.237500", "164139.697500", "164140.157500", "164140.617500", "164141.077500", "164141.537500", "164141.997500", "164142.457500", "164142.917500", "164143.377500", "164143.837500", "164144.297500", "164144.757500", "164145.217500", "164145.677500", "164146.137500", "164146.597500", "164147.057500", "164147.517500", "164147.977500", "164148.437500", "164148.897500", "164149.357500", "164149.817500", "164150.277500", "164150.737500", "164151.197500", "164151.657500", "164152.117500", "164152.577500", "164153.037500", "164153.497500", "164153.957500", "164154.417500", "164154.877500", "164155.337500", "164155.797500", "164156.257500", "164156.717500", "164157.177500", "164157.637500", "164158.097500", "164158.557500", "164159.017500", "164159.477500", "164159.937500", "164200.397500", "164200.857500", "164201.317500", "164201.777500", "164202.237500", "164202.697500", "164203.157500", "164203.617500", "164204.077500", "164204.537500", "164204.997500", "164205.457500", "164205.917500", "164206.377500", "164206.837500", "164207.297500", "164207.757500", "164208.217500", "164208.677500", "164209.137500", "164209.597500", "164210.057500", "164210.517500", "164210.977500", "164211.437500", "164211.897500", "164212.357500", "164212.817500", "164213.277500", "164213.737500", "164214.197500", "164214.657500", "164215.117500", "164215.577500", "164216.037500", "164216.497500", "164216.957500", "164217.417500", "164217.877500", "164218.337500", "164218.797500", "164219.257500", "164219.717500", "164220.177500", "164220.637500", "164221.097500", "164221.557500", "164222.017500", "164222.477500", "164222.937500", "164223.397500", "164223.857500", "164224.317500", "164224.777500", "164225.237500", "164225.697500", "164226.157500", "164226.617500", "164227.077500", "164227.537500", "164227.997500", "164228.457500", "164228.917500", "164229.377500", "164229.837500", "164230.297500", "164230.757500", "164231.217500", "164231.677500", "164232.137500", "164232.597500", "164233.057500", "164233.517500", "164233.977500", "164234.437500", "164234.897500", "164235.357500", "164235.817500", "164236.277500", "164236.737500", "164237.197500", "164237.657500", "164238.117500", "164238.577500", "164239.037500", "164239.497500", "164239.957500", "164240.417500", "164240.877500", "164241.337500", "164241.797500", "164242.257500", "164242.717500", "164243.177500", "164243.637500", "164244.097500", "164244.557500", "164245.017500", "164245.477500", "164245.937500", "164246.397500", "164246.857500", "164247.317500", "164247.777500", "164248.237500", "164248.697500", "164249.157500", "164249.617500", "164250.077500", "164250.537500", "164250.997500", "164251.457500", "164251.917500", "164252.377500", "164252.837500", "164253.297500", "164253.757500", "164254.217500", "164254.677500", "164255.137500", "164255.597500", "164256.057500", "164256.517500", "164256.977500", "164257.437500", "164257.897500", "164258.357500", "164258.817500", "164259.277500", "164259.737500", "164300.197500", "164300.657500", "164301.117500", "164301.577500", "164302.037500", "164302.497500", "164302.957500", "164303.417500", "164303.877500", "164304.337500", "164304.797500", "164305.257500", "164305.717500", "164306.177500", "164306.637500", "164307.097500", "164307.557500", "164308.017500", "164308.477500", "164308.937500", "164309.397500", "164309.857500", "164310.317500", "164310.777500", "164311.237500", "164311.697500", "164312.157500", "164312.617500", "164313.077500", "164313.537500", "164313.997500", "164314.457500", "164314.917500", "164315.377500", "164315.837500", "164316.297500", "164316.757500", "164317.217500", "164317.677500", "164318.137500", "164318.597500", "164319.057500", "164319.517500", "164319.977500", "164320.437500", "164320.897500", "164321.357500", "164321.817500", "164322.277500", "164322.737500", "164323.197500", "164323.657500", "164324.117500", "164324.577500", "164325.037500", "164325.497500", "164325.957500", "164326.417500", "164326.877500", "164327.337500", "164327.797500", "164328.257500", "164328.717500", "164329.177500", "164329.637500", "164330.097500", "164330.557500", "164331.017500", "164331.477500", "164331.937500", "164332.397500", "164332.857500", "164333.317500", "164333.777500", "164334.237500", "164334.697500", "164335.157500", "164335.617500", "164336.077500", "164336.537500", "164336.997500", "164337.457500", "164337.917500", "164338.377500", "164338.837500", "164339.297500", "164339.757500", "164340.217500", "164340.677500", "164341.137500", "164341.597500", "164342.057500", "164342.517500", "164342.977500", "164343.437500", "164343.897500", "164344.357500", "164344.817500", "164345.277500", "164345.737500", "164346.197500", "164346.657500", "164347.117500", "164347.577500", "164348.037500", "164348.497500", "164348.957500", "164349.417500", "164349.877500", "164350.337500", "164350.797500", "164351.257500", "164351.717500", "164352.177500", "164352.637500", "164353.097500", "164353.557500", "164354.017500", "164354.477500", "164354.937500", "164355.397500", "164355.857500", "164356.317500", "164356.777500", "164357.237500", "164357.697500", "164358.157500", "164358.617500", "164359.077500", "164359.537500", "164359.997500", "164400.457500", "164400.917500", "164401.377500", "164401.837500", "164402.297500", "164402.757500", "164403.217500", "164403.677500", "164404.137500", "164404.597500", "164405.057500", "164405.517500", "164405.977500", "164406.437500", "164406.897500", "164407.357500", "164407.817500", "164408.277500", "164408.737500", "164409.197500", "164409.657500", "164410.117500", "164410.577500", "164411.037500", "164411.497500", "164411.957500", "164412.417500", "164412.877500", "164413.337500", "164413.797500", "164414.257500", "164414.717500", "164415.177500", "164415.637500", "164416.097500", "164416.557500", "164417.017500", "164417.477500", "164417.937500", "164418.397500", "164418.857500", "164419.317500", "164419.777500", "164420.237500", "164420.697500", "164421.157500", "164421.617500", "164422.077500", "164422.537500", "164422.997500", "164423.457500", "164423.917500", "164424.377500", "164424.837500", "164425.297500", "164425.757500", "164426.217500", "164426.677500", "164427.137500", "164427.597500", "164428.057500", "164428.517500", "164428.977500", "164429.437500", "164429.897500", "164430.357500", "164430.817500", "164431.277500", "164431.737500", "164432.197500", "164432.657500", "164433.117500", "164433.577500", "164434.037500", "164434.497500", "164434.957500", "164435.417500", "164435.877500", "164436.337500", "164436.797500", "164437.257500", "164437.717500", "164438.177500", "164438.637500", "164439.097500", "164439.557500", "164440.017500", "164440.477500", "164440.937500", "164441.397500", "164441.857500", "164442.317500", "164442.777500", "164443.237500", "164443.697500", "164444.157500", "164444.617500", "164445.077500", "164445.537500", "164445.997500", "164446.457500", "164446.917500", "164447.377500", "164447.837500", "164448.297500", "164448.757500", "164449.217500", "164449.677500", "164450.137500", "164450.597500", "164451.057500", "164451.517500", "164451.977500", "164452.437500", "164452.897500", "164453.357500", "164453.817500", "164454.277500", "164454.737500", "164455.197500", "164455.657500", "164456.117500", "164456.577500", "164457.037500", "164457.497500", "164457.957500", "164458.417500", "164458.877500", "164459.337500", "164459.797500", "164500.257500", "164500.717500", "164501.177500", "164501.637500", "164502.097500", "164502.557500", "164503.017500", "164503.477500", "164503.937500", "164504.397500", "164504.857500", "164505.317500", "164505.777500", "164506.237500", "164506.697500", "164507.157500", "164507.617500", "164508.077500", "164508.537500", "164508.997500", "164509.457500", "164509.917500", "164510.377500", "164510.837500", "164511.297500", "164511.757500", "164512.217500", "164512.677500", "164513.137500", "164513.597500", "164514.057500", "164514.517500", "164514.977500", "164515.437500", "164515.897500", "164516.357500", "164516.817500", "164517.277500", "164517.737500", "164518.197500", "164518.657500", "164519.117500", "164519.577500", "164520.037500", "164520.497500", "164520.957500", "164521.417500", "164521.877500", "164522.337500", "164522.797500", "164523.257500", "164523.717500", "164524.177500", "164524.637500", "164525.097500", "164525.557500", "164526.017500", "164526.477500", "164526.937500", "164527.397500", "164527.857500", "164528.317500", "164528.777500", "164529.237500", "164529.697500", "164530.157500", "164530.617500", "164531.077500", "164531.537500", "164531.997500", "164532.457500", "164532.917500", "164533.377500", "164533.837500", "164534.297500", "164534.757500", "164535.217500", "164535.677500", "164536.137500", "164536.597500", "164537.057500", "164537.517500", "164537.977500", "164538.437500", "164538.897500", "164539.357500", "164539.817500", "164540.277500", "164540.737500", "164541.197500", "164541.657500", "164542.117500", "164542.577500", "164543.037500", "164543.497500", "164543.957500", "164544.417500", "164544.877500", "164545.337500", "164545.797500", "164546.257500", "164546.717500", "164547.177500", "164547.637500", "164548.097500", "164548.557500", "164549.017500", "164549.477500", "164549.937500", "164550.397500", "164550.857500", "164551.317500", "164551.777500", "164552.237500", "164552.697500", "164553.157500", "164553.617500", "164554.077500", "164554.537500", "164554.997500", "164555.457500", "164555.917500", "164556.377500", "164556.837500", "164557.297500", "164557.757500", "164558.217500", "164558.677500", "164559.137500", "164559.597500", "164600.057500", "164600.517500", "164600.977500", "164601.437500", "164601.897500", "164602.357500", "164602.817500", "164603.277500", "164603.737500", "164604.197500", "164604.657500", "164605.117500", "164605.577500", "164606.037500", "164606.497500", "164606.957500", "164607.417500", "164607.877500", "164608.337500", "164608.797500", "164609.257500", "164609.717500", "164610.177500", "164610.637500", "164611.097500", "164611.557500", "164612.017500", "164612.477500", "164612.937500", "164613.397500", "164613.857500", "164614.317500", "164614.777500", "164615.237500", "164615.697500", "164616.157500", "164616.617500", "164617.077500", "164617.537500", "164617.997500", "164618.457500", "164618.917500", "164619.377500", "164619.837500", "164620.297500", "164620.757500", "164621.217500", "164621.677500", "164622.137500", "164622.597500", "164623.057500", "164623.517500", "164623.977500", "164624.437500", "164624.897500", "164625.357500", "164625.817500", "164626.277500", "164626.737500", "164627.197500", "164627.657500", "164628.117500", "164628.577500", "164629.037500", "164629.497500", "164629.957500", "164630.417500", "164630.877500", "164631.337500", "164631.797500", "164632.257500", "164632.717500", "164633.177500", "164633.637500", "164634.097500", "164634.557500", "164635.017500", "164635.477500", "164635.937500", "164636.397500", "164636.857500", "164637.317500", "164637.777500", "164638.237500", "164638.697500", "164639.157500", "164639.617500", "164640.077500", "164640.537500", "164640.997500", "164641.457500", "164641.917500", "164642.377500", "164642.837500", "164643.297500", "164643.757500", "164644.217500", "164644.677500", "164645.137500", "164645.597500", "164646.057500", "164646.517500", "164646.977500", "164647.437500", "164647.897500", "164648.357500", "164648.817500", "164649.277500", "164649.737500", "164650.197500", "164650.657500", "164651.117500", "164651.577500", "164652.037500", "164652.497500", "164652.957500", "164653.417500", "164653.877500", "164654.337500", "164654.797500", "164655.257500", "164655.717500", "164656.177500", "164656.637500", "164657.097500", "164657.557500", "164658.017500", "164658.477500", "164658.937500", "164659.397500", "164659.857500", "164700.317500", "164700.777500", "164701.237500", "164701.697500", "164702.157500", "164702.617500", "164703.077500", "164703.537500", "164703.997500", "164704.457500", "164704.917500", "164705.377500", "164705.837500", "164706.297500", "164706.757500", "164707.217500", "164707.677500", "164708.137500", "164708.597500", "164709.057500", "164709.517500", "164709.977500", "164710.437500", "164710.897500", "164711.357500", "164711.817500", "164712.277500", "164712.737500", "164713.197500", "164713.657500", "164714.117500", "164714.577500", "164715.037500", "164715.497500", "164715.957500", "164716.417500", "164716.877500", "164717.337500", "164717.797500", "164718.257500", "164718.717500", "164719.177500", "164719.637500", "164720.097500", "164720.557500", "164721.017500", "164721.477500", "164721.937500", "164722.397500", "164722.857500", "164723.317500", "164723.777500", "164724.237500", "164724.697500", "164725.157500", "164725.617500", "164726.077500", "164726.537500", "164726.997500", "164727.457500", "164727.917500", "164728.377500", "164728.837500", "164729.297500", "164729.757500", "164730.217500", "164730.677500", "164731.137500", "164731.597500", "164732.057500", "164732.517500", "164732.977500", "164733.437500", "164733.897500", "164734.357500", "164734.817500", "164735.277500", "164735.737500", "164736.197500", "164736.657500", "164737.117500", "164737.577500", "164738.037500", "164738.497500", "164738.957500", "164739.417500", "164739.877500", "164740.337500", "164740.797500", "164741.257500", "164741.717500", "164742.177500", "164742.637500", "164743.097500", "164743.557500", "164744.017500", "164744.477500", "164744.937500", "164745.397500", "164745.857500", "164746.317500", "164746.777500", "164747.237500", "164747.697500", "164748.157500", "164748.617500", "164749.077500", "164749.537500", "164749.997500", "164750.457500", "164750.917500", "164751.377500", "164751.837500", "164752.297500", "164752.757500"],
