{
  "AcquisitionMatrixPE": 82,
  "AcquisitionNumber": 1,
  "AcquisitionTime": "15:10:24.772500",
  "BandwidthPerPixelPhaseEncode": 24.888,
  "BaseResolution": 82,
  "BodyPartExamined": "BRAIN",
  "ConsistencyInfo": "N4_VE11C_LATEST_20160120",
  "ConversionSoftware": "dcm2niix",
  "ConversionSoftwareVersion": "v1.0.20201102",
  "DerivedVendorReportedEchoSpacing": 0.00049,
  "DeviceSerialNumber": "66112",
  "DwellTime": 2e-06,
  "EchoTime": 0.0272,
  "EchoTrainLength": 82,
  "EffectiveEchoSpacing": 0.00049,
  "FlipAngle": 44,
  "ImageComments": "Unaliased MB8/PE3",
  "ImageOrientationPatientDICOM": [0.999681, 0.0203897, 0.0149108, -0.0188458, 0.995084, -0.0972217],
  "ImageType": [
    "ORIGINAL",
    "PRIMARY",
    "M",
    "MB",
    "ND",
    "NORM",
    "MOSAIC"
],
  "ImagingFrequency": 123.252,
  "InPlanePhaseEncodingDirectionDICOM": "COL",
  "InstitutionAddress": "Maynard 3,Hanover,NH,US,03755",
  "InstitutionName": "Dartmouth College - PBS",
  "InstitutionalDepartmentName": "Department",
  "MRAcquisitionType": "2D",
  "MagneticFieldStrength": 3,
  "Manufacturer": "Siemens",
  "ManufacturersModelName": "Prisma",
  "Modality": "MR",
  "MultibandAccelerationFactor": 8,
  "PartialFourier": 1,
  "PatientPosition": "HFS",
  "PercentPhaseFOV": 100,
  "PercentSampling": 100,
  "PhaseEncodingDirection": "j-",
  "PhaseEncodingSteps": 82,
  "PhaseResolution": 1,
  "PixelBandwidth": 3050,
  "ProcedureStepDescription": "Wager_Wager^1076_spacetop",
  "ProtocolName": "func_run-02_task-narratives_acq-ap-mb8",
  "PulseSequenceDetails": "%CustomerSeq%\\cmrr_mbep2d_bold",
  "ReceiveCoilActiveElements": "HEA;HEP",
  "ReceiveCoilName": "Head_32",
  "ReconMatrixPE": 82,
  "RepetitionTime": 0.46,
  "SAR": 0.122617,
  "ScanOptions": "FS",
  "ScanningSequence": "EP",
  "SequenceName": "epfid2d1_82",
  "SequenceVariant": "SK\\SS",
  "SeriesDescription": "func_run-02_task-narratives_acq-ap-mb8",
  "SeriesNumber": 10,
  "ShimSetting": [4143, -7830, -7128, 534, -104, -237, 91, 44],
  "SliceThickness": 2.7,
  "SliceTiming": [0, 0.2525, 0.0625, 0.315, 0.1275, 0.3775, 0.19, 0, 0.2525, 0.0625, 0.315, 0.1275, 0.3775, 0.19, 0, 0.2525, 0.0625, 0.315, 0.1275, 0.3775, 0.19, 0, 0.2525, 0.0625, 0.315, 0.1275, 0.3775, 0.19, 0, 0.2525, 0.0625, 0.315, 0.1275, 0.3775, 0.19, 0, 0.2525, 0.0625, 0.315, 0.1275, 0.3775, 0.19, 0, 0.2525, 0.0625, 0.315, 0.1275, 0.3775, 0.19, 0, 0.2525, 0.0625, 0.315, 0.1275, 0.3775, 0.19],
  "SoftwareVersions": "syngo MR E11",
  "SpacingBetweenSlices": 2.7,
  "StationName": "AWP66112",
  "TaskName": "narratives",
  "TotalReadoutTime": 0.03969,
  "TxRefAmp": 271.425,
  "WipMemBlock": "d321c48e-6c52-4d87-b8d6-d4a2d1b7418d||Sequence: R016 ve11c/master r/e634e98; Dec 19 2017 11:00:25 by eja",
  "dcmmeta_affine": [
    [-2.682070732116699, -0.05056198686361313, 0.04541347175836563, 110.72689819335938],
    [-0.05470407009124756, 2.669738531112671, -0.2616562247276306, -76.00971984863281],
    [0.04000452905893326, 0.2608388066291809, 2.686908006668091, -21.255481719970703],
    [0.0, 0.0, 0.0, 1.0]
],
  "dcmmeta_reorient_transform": [
    [0.0, -1.0, 0.0, 81.0],
    [1.0, 0.0, 0.0, 0.0],
    [0.0, 0.0, 1.0, 0.0],
    [0.0, 0.0, 0.0, 1.0]
],
  "dcmmeta_shape": [82, 82, 56, 1098],
  "dcmmeta_slice_dim": 2,
  "dcmmeta_version": 0.6,
  "global": {
    "const": {
      "AccessionNumber": "A003598",
      "AcquisitionMatrix": [82, 0, 0, 82],
      "AngioFlag": "N",
      "BitsAllocated": 16,
      "BitsStored": 16,
      "BodyPartExamined": "BRAIN",
      "Columns": 656,
      "EchoNumbers": 1,
      "EchoTime": 27.2,
      "EchoTrainLength": 82,
      "FlipAngle": 44.0,
      "HighBit": 15,
      "ImageOrientationPatient": [0.99968091354029, 0.0203896982809, 0.0149107782249, -0.0188458303596, 0.99508430212577, -0.0972217380061],
      "ImagePositionPatient": [-861.87440800939, -922.15409082108, 63.251902712551],
      "ImageType": [
        "ORIGINAL",
        "PRIMARY",
        "M",
        "MB",
        "ND",
        "NORM",
        "MOSAIC"
],
      "ImagedNucleus": "1H",
      "ImagingFrequency": 123.252038,
      "InPlanePhaseEncodingDirection": "COL",
      "MRAcquisitionType": "2D",
      "MagneticFieldStrength": 3.0,
      "Manufacturer": "SIEMENS",
      "ManufacturerModelName": "Prisma",
      "Modality": "MR",
      "NumberOfAverages": 1.0,
      "NumberOfPhaseEncodingSteps": 82,
      "PercentPhaseFieldOfView": 100.0,
      "PercentSampling": 100.0,
      "PerformedProcedureStepStartTime": "143257.239000",
      "PhotometricInterpretation": "MONOCHROME2",
      "PixelBandwidth": 3050.0,
      "PixelRepresentation": 0,
      "PixelSpacing": [2.6829268932343, 2.6829268932343],
      "ProtocolName": "func_run-02_task-narratives_acq-ap-mb8",
      "RepetitionTime": 460.0,
      "Rows": 656,
      "SAR": 0.12261673120122,
      "SamplesPerPixel": 1,
      "ScanOptions": "FS",
      "ScanningSequence": "EP",
      "SequenceName": "epfid2d1_82",
      "SequenceVariant": [
        "SK",
        "SS"
],
      "SeriesDescription": "func_run-02_task-narratives_acq-ap-mb8",
      "SeriesNumber": 10,
      "SeriesTime": "151038.962000",
      "SliceLocation": -11.923930346162,
      "SliceThickness": 2.7000000476837,
      "SmallestImagePixelValue": 0,
      "SoftwareVersions": "syngo MR E11",
      "SpacingBetweenSlices": 2.7000000683342,
      "SpecificCharacterSet": "ISO_IR 100",
      "StudyID": "1",
      "StudyTime": "143257.191000",
      "TransmitCoilName": "Body",
      "VariableFlipAngleFlag": "N",
      "WindowCenterWidthExplanation": "Algo1",
      "dBdt": 0.0},
    "slices": {}
  },
  "time": {
    "samples": {
      "AcquisitionNumber": [1, 2, 3, 4, 5, 6, 7, 8, 9, 10, 11, 12, 13, 14, 15, 16, 17, 18, 19, 20, 21, 22, 23, 24, 25, 26, 27, 28, 29, 30, 31, 32, 33, 34, 35, 36, 37, 38, 39, 40, 41, 42, 43, 44, 45, 46, 47, 48, 49, 50, 51, 52, 53, 54, 55, 56, 57, 58, 59, 60, 61, 62, 63, 64, 65, 66, 67, 68, 69, 70, 71, 72, 73, 74, 75, 76, 77, 78, 79, 80, 81, 82, 83, 84, 85, 86, 87, 88, 89, 90, 91, 92, 93, 94, 95, 96, 97, 98, 99, 100, 101, 102, 103, 104, 105, 106, 107, 108, 109, 110, 111, 112, 113, 114, 115, 116, 117, 118, 119, 120, 121, 122, 123, 124, 125, 126, 127, 128, 129, 130, 131, 132, 133, 134, 135, 136, 137, 138, 139, 140, 141, 142, 143, 144, 145, 146, 147, 148, 149, 150, 151, 152, 153, 154, 155, 156, 157, 158, 159, 160, 161, 162, 163, 164, 165, 166, 167, 168, 169, 170, 171, 172, 173, 174, 175, 176, 177, 178, 179, 180, 181, 182, 183, 184, 185, 186, 187, 188, 189, 190, 191, 192, 193, 194, 195, 196, 197, 198, 199, 200, 201, 202, 203, 204, 205, 206, 207, 208, 209, 210, 211, 212, 213, 214, 215, 216, 217, 218, 219, 220, 221, 222, 223, 224, 225, 226, 227, 228, 229, 230, 231, 232, 233, 234, 235, 236, 237, 238, 239, 240, 241, 242, 243, 244, 245, 246, 247, 248, 249, 250, 251, 252, 253, 254, 255, 256, 257, 258, 259, 260, 261, 262, 263, 264, 265, 266, 267, 268, 269, 270, 271, 272, 273, 274, 275, 276, 277, 278, 279, 280, 281, 282, 283, 284, 285, 286, 287, 288, 289, 290, 291, 292, 293, 294, 295, 296, 297, 298, 299, 300, 301, 302, 303, 304, 305, 306, 307, 308, 309, 310, 311, 312, 313, 314, 315, 316, 317, 318, 319, 320, 321, 322, 323, 324, 325, 326, 327, 328, 329, 330, 331, 332, 333, 334, 335, 336, 337, 338, 339, 340, 341, 342, 343, 344, 345, 346, 347, 348, 349, 350, 351, 352, 353, 354, 355, 356, 357, 358, 359, 360, 361, 362, 363, 364, 365, 366, 367, 368, 369, 370, 371, 372, 373, 374, 375, 376, 377, 378, 379, 380, 381, 382, 383, 384, 385, 386, 387, 388, 389, 390, 391, 392, 393, 394, 395, 396, 397, 398, 399, 400, 401, 402, 403, 404, 405, 406, 407, 408, 409, 410, 411, 412, 413, 414, 415, 416, 417, 418, 419, 420, 421, 422, 423, 424, 425, 426, 427, 428, 429, 430, 431, 432, 433, 434, 435, 436, 437, 438, 439, 440, 441, 442, 443, 444, 445, 446, 447, 448, 449, 450, 451, 452, 453, 454, 455, 456, 457, 458, 459, 460, 461, 462, 463, 464, 465, 466, 467, 468, 469, 470, 471, 472, 473, 474, 475, 476, 477, 478, 479, 480, 481, 482, 483, 484, 485, 486, 487, 488, 489, 490, 491, 492, 493, 494, 495, 496, 497, 498, 499, 500, 501, 502, 503, 504, 505, 506, 507, 508, 509, 510, 511, 512, 513, 514, 515, 516, 517, 518, 519, 520, 521, 522, 523, 524, 525, 526, 527, 528, 529, 530, 531, 532, 533, 534, 535, 536, 537, 538, 539, 540, 541, 542, 543, 544, 545, 546, 547, 548, 549, 550, 551, 552, 553, 554, 555, 556, 557, 558, 559, 560, 561, 562, 563, 564, 565, 566, 567, 568, 569, 570, 571, 572, 573, 574, 575, 576, 577, 578, 579, 580, 581, 582, 583, 584, 585, 586, 587, 588, 589, 590, 591, 592, 593, 594, 595, 596, 597, 598, 599, 600, 601, 602, 603, 604, 605, 606, 607, 608, 609, 610, 611, 612, 613, 614, 615, 616, 617, 618, 619, 620, 621, 622, 623, 624, 625, 626, 627, 628, 629, 630, 631, 632, 633, 634, 635, 636, 637, 638, 639, 640, 641, 642, 643, 644, 645, 646, 647, 648, 649, 650, 651, 652, 653, 654, 655, 656, 657, 658, 659, 660, 661, 662, 663, 664, 665, 666, 667, 668, 669, 670, 671, 672, 673, 674, 675, 676, 677, 678, 679, 680, 681, 682, 683, 684, 685, 686, 687, 688, 689, 690, 691, 692, 693, 694, 695, 696, 697, 698, 699, 700, 701, 702, 703, 704, 705, 706, 707, 708, 709, 710, 711, 712, 713, 714, 715, 716, 717, 718, 719, 720, 721, 722, 723, 724, 725, 726, 727, 728, 729, 730, 731, 732, 733, 734, 735, 736, 737, 738, 739, 740, 741, 742, 743, 744, 745, 746, 747, 748, 749, 750, 751, 752, 753, 754, 755, 756, 757, 758, 759, 760, 761, 762, 763, 764, 765, 766, 767, 768, 769, 770, 771, 772, 773, 774, 775, 776, 777, 778, 779, 780, 781, 782, 783, 784, 785, 786, 787, 788, 789, 790, 791, 792, 793, 794, 795, 796, 797, 798, 799, 800, 801, 802, 803, 804, 805, 806, 807, 808, 809, 810, 811, 812, 813, 814, 815, 816, 817, 818, 819, 820, 821, 822, 823, 824, 825, 826, 827, 828, 829, 830, 831, 832, 833, 834, 835, 836, 837, 838, 839, 840, 841, 842, 843, 844, 845, 846, 847, 848, 849, 850, 851, 852, 853, 854, 855, 856, 857, 858, 859, 860, 861, 862, 863, 864, 865, 866, 867, 868, 869, 870, 871, 872, 873, 874, 875, 876, 877, 878, 879, 880, 881, 882, 883, 884, 885, 886, 887, 888, 889, 890, 891, 892, 893, 894, 895, 896, 897, 898, 899, 900, 901, 902, 903, 904, 905, 906, 907, 908, 909, 910, 911, 912, 913, 914, 915, 916, 917, 918, 919, 920, 921, 922, 923, 924, 925, 926, 927, 928, 929, 930, 931, 932, 933, 934, 935, 936, 937, 938, 939, 940, 941, 942, 943, 944, 945, 946, 947, 948, 949, 950, 951, 952, 953, 954, 955, 956, 957, 958, 959, 960, 961, 962, 963, 964, 965, 966, 967, 968, 969, 970, 971, 972, 973, 974, 975, 976, 977, 978, 979, 980, 981, 982, 983, 984, 985, 986, 987, 988, 989, 990, 991, 992, 993, 994, 995, 996, 997, 998, 999, 1000, 1001, 1002, 1003, 1004, 1005, 1006, 1007, 1008, 1009, 1010, 1011, 1012, 1013, 1014, 1015, 1016, 1017, 1018, 1019, 1020, 1021, 1022, 1023, 1024, 1025, 1026, 1027, 1028, 1029, 1030, 1031, 1032, 1033, 1034, 1035, 1036, 1037, 1038, 1039, 1040, 1041, 1042, 1043, 1044, 1045, 1046, 1047, 1048, 1049, 1050, 1051, 1052, 1053, 1054, 1055, 1056, 1057, 1058, 1059, 1060, 1061, 1062, 1063, 1064, 1065, 1066, 1067, 1068, 1069, 1070, 1071, 1072, 1073, 1074, 1075, 1076, 1077, 1078, 1079, 1080, 1081, 1082, 1083, 1084, 1085, 1086, 1087, 1088, 1089, 1090, 1091, 1092, 1093, 1094, 1095, 1096, 1097, 1098],
      "AcquisitionTime": ["151024.772500", "151025.232500", "151025.692500", "151026.152500", "151026.612500", "151027.072500", "151027.532500", "151027.992500", "151028.452500", "151028.912500", "151029.372500", "151029.832500", "151030.292500", "151030.752500", "151031.212500", "151031.672500", "151032.132500", "151032.592500", "151033.052500", "151033.512500", "151033.972500", "151034.432500", "151034.892500", "151035.352500", "151035.812500", "151036.272500", "151036.732500", "151037.192500", "151037.652500", "151038.112500", "151038.572500", "151039.032500", "151039.492500", "151039.952500", "151040.412500", "151040.872500", "151041.332500", "151041.792500", "151042.252500", "151042.712500", "151043.172500", "151043.632500", "151044.092500", "151044.552500", "151045.012500", "151045.472500", "151045.932500", "151046.392500", "151046.852500", "151047.312500", "151047.772500", "151048.232500", "151048.692500", "151049.152500", "151049.612500", "151050.072500", "151050.532500", "151050.992500", "151051.452500", "151051.912500", "151052.372500", "151052.832500", "151053.292500", "151053.752500", "151054.212500", "151054.672500", "151055.132500", "151055.592500", "151056.052500", "151056.512500", "151056.972500", "151057.432500", "151057.892500", "151058.352500", "151058.812500", "151059.272500", "151059.732500", "151100.192500", "151100.652500", "151101.112500", "151101.572500", "151102.032500", "151102.492500", "151102.952500", "151103.412500", "151103.872500", "151104.332500", "151104.792500", "151105.252500", "151105.712500", "151106.172500", "151106.632500", "151107.092500", "151107.552500", "151108.012500", "151108.472500", "151108.932500", "151109.392500", "151109.852500", "151110.312500", "151110.772500", "151111.232500", "151111.692500", "151112.152500", "151112.612500", "151113.072500", "151113.532500", "151113.992500", "151114.452500", "151114.912500", "151115.372500", "151115.832500", "151116.292500", "151116.752500", "151117.212500", "151117.672500", "151118.132500", "151118.592500", "151119.052500", "151119.512500", "151119.972500", "151120.432500", "151120.892500", "151121.352500", "151121.812500", "151122.272500", "151122.732500", "151123.192500", "151123.652500", "151124.112500", "151124.572500", "151125.032500", "151125.492500", "151125.952500", "151126.412500", "151126.872500", "151127.332500", "151127.792500", "151128.252500", "151128.712500", "151129.172500", "151129.632500", "151130.092500", "151130.552500", "151131.012500", "151131.472500", "151131.932500", "151132.392500", "151132.852500", "151133.312500", "151133.772500", "151134.232500", "151134.692500", "151135.152500", "151135.612500", "151136.072500", "151136.532500", "151136.992500", "151137.452500", "151137.912500", "151138.372500", "151138.832500", "151139.292500", "151139.752500", "151140.212500", "151140.672500", "151141.132500", "151141.592500", "151142.052500", "151142.512500", "151142.972500", "151143.432500", "151143.892500", "151144.352500", "151144.812500", "151145.272500", "151145.732500", "151146.192500", "151146.652500", "151147.112500", "151147.572500", "151148.032500", "151148.492500", "151148.952500", "151149.412500", "151149.872500", "151150.332500", "151150.792500", "151151.252500", "151151.712500", "151152.172500", "151152.632500", "151153.092500", "151153.552500", "151154.012500", "151154.472500", "151154.932500", "151155.392500", "151155.852500", "151156.312500", "151156.772500", "151157.232500", "151157.692500", "151158.152500", "151158.612500", "151159.072500", "151159.532500", "151159.992500", "151200.452500", "151200.912500", "151201.372500", "151201.832500", "151202.292500", "151202.752500", "151203.212500", "151203.672500", "151204.132500", "151204.592500", "151205.052500", "151205.512500", "151205.972500", "151206.432500", "151206.892500", "151207.352500", "151207.812500", "151208.272500", "151208.732500", "151209.192500", "151209.652500", "151210.112500", "151210.572500", "151211.032500", "151211.492500", "151211.952500", "151212.412500", "151212.872500", "151213.332500", "151213.792500", "151214.252500", "151214.712500", "151215.172500", "151215.632500", "151216.092500", "151216.552500", "151217.012500", "151217.472500", "151217.932500", "151218.392500", "151218.852500", "151219.312500", "151219.772500", "151220.232500", "151220.692500", "151221.152500", "151221.612500", "151222.072500", "151222.532500", "151222.992500", "151223.452500", "151223.912500", "151224.372500", "151224.832500", "151225.292500", "151225.752500", "151226.212500", "151226.672500", "151227.132500", "151227.592500", "151228.052500", "151228.512500", "151228.972500", "151229.432500", "151229.892500", "151230.352500", "151230.812500", "151231.272500", "151231.732500", "151232.192500", "151232.652500", "151233.112500", "151233.572500", "151234.032500", "151234.492500", "151234.952500", "151235.412500", "151235.872500", "151236.332500", "151236.792500", "151237.252500", "151237.712500", "151238.172500", "151238.632500", "151239.092500", "151239.552500", "151240.012500", "151240.472500", "151240.932500", "151241.392500", "151241.852500", "151242.312500", "151242.772500", "151243.232500", "151243.692500", "151244.152500", "151244.612500", "151245.072500", "151245.532500", "151245.992500", "151246.452500", "151246.912500", "151247.372500", "151247.832500", "151248.292500", "151248.752500", "151249.212500", "151249.672500", "151250.132500", "151250.592500", "151251.052500", "151251.512500", "151251.972500", "151252.432500", "151252.892500", "151253.352500", "151253.812500", "151254.272500", "151254.732500", "151255.192500", "151255.652500", "151256.112500", "151256.572500", "151257.032500", "151257.492500", "151257.952500", "151258.412500", "151258.872500", "151259.332500", "151259.792500", "151300.252500", "151300.712500", "151301.172500", "151301.632500", "151302.092500", "151302.552500", "151303.012500", "151303.472500", "151303.932500", "151304.392500", "151304.852500", "151305.312500", "151305.772500", "151306.232500", "151306.692500", "151307.152500", "151307.612500", "151308.072500", "151308.532500", "151308.992500", "151309.452500", "151309.912500", "151310.372500", "151310.832500", "151311.292500", "151311.752500", "151312.212500", "151312.672500", "151313.132500", "151313.592500", "151314.052500", "151314.512500", "151314.972500", "151315.432500", "151315.892500", "151316.352500", "151316.812500", "151317.272500", "151317.732500", "151318.192500", "151318.652500", "151319.112500", "151319.572500", "151320.032500", "151320.492500", "151320.952500", "151321.412500", "151321.872500", "151322.332500", "151322.792500", "151323.252500", "151323.712500", "151324.172500", "151324.632500", "151325.092500", "151325.552500", "151326.012500", "151326.472500", "151326.932500", "151327.392500", "151327.852500", "151328.312500", "151328.772500", "151329.232500", "151329.692500", "151330.152500", "151330.612500", "151331.072500", "151331.532500", "151331.992500", "151332.452500", "151332.912500", "151333.372500", "151333.832500", "151334.292500", "151334.752500", "151335.212500", "151335.672500", "151336.132500", "151336.592500", "151337.052500", "151337.512500", "151337.972500", "151338.432500", "151338.892500", "151339.352500", "151339.812500", "151340.272500", "151340.732500", "151341.192500", "151341.652500", "151342.112500", "151342.572500", "151343.032500", "151343.492500", "151343.952500", "151344.412500", "151344.872500", "151345.332500", "151345.792500", "151346.252500", "151346.712500", "151347.172500", "151347.632500", "151348.092500", "151348.552500", "151349.012500", "151349.472500", "151349.932500", "151350.392500", "151350.852500", "151351.312500", "151351.772500", "151352.232500", "151352.692500", "151353.152500", "151353.612500", "151354.072500", "151354.532500", "151354.992500", "151355.452500", "151355.912500", "151356.372500", "151356.832500", "151357.292500", "151357.752500", "151358.212500", "151358.672500", "151359.132500", "151359.592500", "151400.052500", "151400.512500", "151400.972500", "151401.432500", "151401.892500", "151402.352500", "151402.812500", "151403.272500", "151403.732500", "151404.192500", "151404.652500", "151405.112500", "151405.572500", "151406.032500", "151406.492500", "151406.952500", "151407.412500", "151407.872500", "151408.332500", "151408.792500", "151409.252500", "151409.712500", "151410.172500", "151410.632500", "151411.092500", "151411.552500", "151412.012500", "151412.472500", "151412.932500", "151413.392500", "151413.852500", "151414.312500", "151414.772500", "151415.232500", "151415.692500", "151416.152500", "151416.612500", "151417.072500", "151417.532500", "151417.992500", "151418.452500", "151418.912500", "151419.372500", "151419.832500", "151420.292500", "151420.752500", "151421.212500", "151421.672500", "151422.132500", "151422.592500", "151423.052500", "151423.512500", "151423.972500", "151424.432500", "151424.892500", "151425.352500", "151425.812500", "151426.272500", "151426.732500", "151427.192500", "151427.652500", "151428.112500", "151428.572500", "151429.032500", "151429.492500", "151429.952500", "151430.412500", "151430.872500", "151431.332500", "151431.792500", "151432.252500", "151432.712500", "151433.172500", "151433.632500", "151434.092500", "151434.552500", "151435.012500", "151435.472500", "151435.932500", "151436.392500", "151436.852500", "151437.312500", "151437.772500", "151438.232500", "151438.692500", "151439.152500", "151439.612500", "151440.072500", "151440.532500", "151440.992500", "151441.452500", "151441.912500", "151442.372500", "151442.832500", "151443.292500", "151443.752500", "151444.212500", "151444.672500", "151445.132500", "151445.592500", "151446.052500", "151446.512500", "151446.972500", "151447.432500", "151447.892500", "151448.352500", "151448.812500", "151449.272500", "151449.732500", "151450.192500", "151450.652500", "151451.112500", "151451.572500", "151452.032500", "151452.492500", "151452.952500", "151453.412500", "151453.872500", "151454.332500", "151454.792500", "151455.252500", "151455.712500", "151456.172500", "151456.632500", "151457.092500", "151457.552500", "151458.012500", "151458.472500", "151458.932500", "151459.392500", "151459.852500", "151500.312500", "151500.772500", "151501.232500", "151501.692500", "151502.152500", "151502.612500", "151503.072500", "151503.532500", "151503.992500", "151504.452500", "151504.912500", "151505.372500", "151505.832500", "151506.292500", "151506.752500", "151507.212500", "151507.672500", "151508.132500", "151508.592500", "151509.052500", "151509.512500", "151509.972500", "151510.432500", "151510.892500", "151511.352500", "151511.812500", "151512.272500", "151512.732500", "151513.192500", "151513.652500", "151514.112500", "151514.572500", "151515.032500", "151515.492500", "151515.952500", "151516.412500", "151516.872500", "151517.332500", "151517.792500", "151518.252500", "151518.712500", "151519.172500", "151519.632500", "151520.092500", "151520.552500", "151521.012500", "151521.472500", "151521.932500", "151522.392500", "151522.852500", "151523.312500", "151523.772500", "151524.232500", "151524.692500", "151525.152500", "151525.612500", "151526.072500", "151526.532500", "151526.992500", "151527.452500", "151527.912500", "151528.372500", "151528.832500", "151529.292500", "151529.752500", "151530.212500", "151530.672500", "151531.132500", "151531.592500", "151532.052500", "151532.512500", "151532.972500", "151533.432500", "151533.892500", "151534.352500", "151534.812500", "151535.272500", "151535.732500", "151536.192500", "151536.652500", "151537.112500", "151537.572500", "151538.032500", "151538.492500", "151538.952500", "151539.412500", "151539.872500", "151540.332500", "151540.792500", "151541.252500", "151541.712500", "151542.172500", "151542.632500", "151543.092500", "151543.552500", "151544.012500", "151544.472500", "151544.932500", "151545.392500", "151545.852500", "151546.312500", "151546.772500", "151547.232500", "151547.692500", "151548.152500", "151548.612500", "151549.072500", "151549.532500", "151549.992500", "151550.452500", "151550.912500", "151551.372500", "151551.832500", "151552.292500", "151552.752500", "151553.212500", "151553.672500", "151554.132500", "151554.592500", "151555.052500", "151555.512500", "151555.972500", "151556.432500", "151556.892500", "151557.352500", "151557.812500", "151558.272500", "151558.732500", "151559.192500", "151559.652500", "151600.112500", "151600.572500", "151601.032500", "151601.492500", "151601.952500", "151602.412500", "151602.872500", "151603.332500", "151603.792500", "151604.252500", "151604.712500", "151605.172500", "151605.632500", "151606.092500", "151606.552500", "151607.012500", "151607.472500", "151607.932500", "151608.392500", "151608.852500", "151609.312500", "151609.772500", "151610.232500", "151610.692500", "151611.152500", "151611.612500", "151612.072500", "151612.532500", "151612.992500", "151613.452500", "151613.912500", "151614.372500", "151614.832500", "151615.292500", "151615.752500", "151616.212500", "151616.672500", "151617.132500", "151617.592500", "151618.052500", "151618.512500", "151618.972500", "151619.432500", "151619.892500", "151620.352500", "151620.812500", "151621.272500", "151621.732500", "151622.192500", "151622.652500", "151623.112500", "151623.572500", "151624.032500", "151624.492500", "151624.952500", "151625.412500", "151625.872500", "151626.332500", "151626.792500", "151627.252500", "151627.712500", "151628.172500", "151628.632500", "151629.092500", "151629.552500", "151630.012500", "151630.472500", "151630.932500", "151631.392500", "151631.852500", "151632.312500", "151632.772500", "151633.232500", "151633.692500", "151634.152500", "151634.612500", "151635.072500", "151635.532500", "151635.992500", "151636.452500", "151636.912500", "151637.372500", "151637.832500", "151638.292500", "151638.752500", "151639.212500", "151639.672500", "151640.132500", "151640.592500", "151641.052500", "151641.512500", "151641.972500", "151642.432500", "151642.892500", "151643.352500", "151643.812500", "151644.272500", "151644.732500", "151645.192500", "151645.652500", "151646.112500", "151646.572500", "151647.032500", "151647.492500", "151647.952500", "151648.412500", "151648.872500", "151649.332500", "151649.792500", "151650.252500", "151650.712500", "151651.172500", "151651.632500", "151652.092500", "151652.552500", "151653.012500", "151653.472500", "151653.932500", "151654.392500", "151654.852500", "151655.312500", "151655.772500", "151656.232500", "151656.692500", "151657.152500", "151657.612500", "151658.072500", "151658.532500", "151658.992500", "151659.452500", "151659.912500", "151700.372500", "151700.832500", "151701.292500", "151701.752500", "151702.212500", "151702.672500", "151703.132500", "151703.592500", "151704.052500", "151704.512500", "151704.972500", "151705.432500", "151705.892500", "151706.352500", "151706.812500", "151707.272500", "151707.732500", "151708.192500", "151708.652500", "151709.112500", "151709.572500", "151710.032500", "151710.492500", "151710.952500", "151711.412500", "151711.872500", "151712.332500", "151712.792500", "151713.252500", "151713.712500", "151714.172500", "151714.632500", "151715.092500", "151715.552500", "151716.012500", "151716.472500", "151716.932500", "151717.392500", "151717.852500", "151718.312500", "151718.772500", "151719.232500", "151719.692500", "151720.152500", "151720.612500", "151721.072500", "151721.532500", "151721.992500", "151722.452500", "151722.912500", "151723.372500", "151723.832500", "151724.292500", "151724.752500", "151725.212500", "151725.672500", "151726.132500", "151726.592500", "151727.052500", "151727.512500", "151727.972500", "151728.432500", "151728.892500", "151729.352500", "151729.812500", "151730.272500", "151730.732500", "151731.192500", "151731.652500", "151732.112500", "151732.572500", "151733.032500", "151733.492500", "151733.952500", "151734.412500", "151734.872500", "151735.332500", "151735.792500", "151736.252500", "151736.712500", "151737.172500", "151737.632500", "151738.092500", "151738.552500", "151739.012500", "151739.472500", "151739.932500", "151740.392500", "151740.852500", "151741.312500", "151741.772500", "151742.232500", "151742.692500", "151743.152500", "151743.612500", "151744.072500", "151744.532500", "151744.992500", "151745.452500", "151745.912500", "151746.372500", "151746.832500", "151747.292500", "151747.752500", "151748.212500", "151748.672500", "151749.132500", "151749.592500", "151750.052500", "151750.512500", "151750.972500", "151751.432500", "151751.892500", "151752.352500", "151752.812500", "151753.272500", "151753.732500", "151754.192500", "151754.652500", "151755.112500", "151755.572500", "151756.032500", "151756.492500", "151756.952500", "151757.412500", "151757.872500", "151758.332500", "151758.792500", "151759.252500", "151759.712500", "151800.172500", "151800.632500", "151801.092500", "151801.552500", "151802.012500", "151802.472500", "151802.932500", "151803.392500", "151803.852500", "151804.312500", "151804.772500", "151805.232500", "151805.692500", "151806.152500", "151806.612500", "151807.072500", "151807.532500", "151807.992500", "151808.452500", "151808.912500", "151809.372500", "151809.832500", "151810.292500", "151810.752500", "151811.212500", "151811.672500", "151812.132500", "151812.592500", "151813.052500", "151813.512500", "151813.972500", "151814.432500", "151814.892500", "151815.352500", "151815.812500", "151816.272500", "151816.732500", "151817.192500", "151817.652500", "151818.112500", "151818.572500", "151819.032500", "151819.492500", "151819.952500", "151820.412500", "151820.872500", "151821.332500", "151821.792500", "151822.252500", "151822.712500", "151823.172500", "151823.632500", "151824.092500", "151824.552500", "151825.012500", "151825.472500", "151825.932500", "151826.392500", "151826.852500", "151827.312500", "151827.772500", "151828.232500", "151828.692500", "151829.152500", "151829.612500", "151830.072500", "151830.532500", "151830.992500", "151831.452500", "151831.912500", "151832.372500", "151832.832500", "151833.292500", "151833.752500", "151834.212500", "151834.672500", "151835.132500", "151835.592500", "151836.052500", "151836.512500", "151836.972500", "151837.432500", "151837.892500", "151838.352500", "151838.812500", "151839.272500", "151839.732500", "151840.192500", "151840.652500", "151841.112500", "151841.572500", "151842.032500", "151842.492500", "151842.952500", "151843.412500", "151843.872500", "151844.332500", "151844.792500", "151845.252500", "151845.712500", "151846.172500", "151846.632500", "151847.092500", "151847.552500", "151848.012500", "151848.472500", "151848.932500", "151849.392500"],
