{
  "AcquisitionMatrixPE": 82,
  "AcquisitionNumber": 1,
  "AcquisitionTime": "15:47:52.012500",
  "BandwidthPerPixelPhaseEncode": 24.888,
  "BaseResolution": 82,
  "BodyPartExamined": "BRAIN",
  "ConsistencyInfo": "N4_VE11C_LATEST_20160120",
  "ConversionSoftware": "dcm2niix",
  "ConversionSoftwareVersion": "v1.0.20201102",
  "DerivedVendorReportedEchoSpacing": 0.00049,
  "DeviceSerialNumber": "66112",
  "DwellTime": 2e-06,
  "EchoTime": 0.0272,
  "EchoTrainLength": 82,
  "EffectiveEchoSpacing": 0.00049,
  "FlipAngle": 44,
  "ImageComments": "Unaliased MB8/PE3",
  "ImageOrientationPatientDICOM": [0.999681, 0.0203897, 0.0149108, -0.0188458, 0.995084, -0.0972217],
  "ImageType": [
    "ORIGINAL",
    "PRIMARY",
    "M",
    "MB",
    "ND",
    "NORM",
    "MOSAIC"
],
  "ImagingFrequency": 123.252,
  "InPlanePhaseEncodingDirectionDICOM": "COL",
  "InstitutionAddress": "Maynard 3,Hanover,NH,US,03755",
  "InstitutionName": "Dartmouth College - PBS",
  "InstitutionalDepartmentName": "Department",
  "MRAcquisitionType": "2D",
  "MagneticFieldStrength": 3,
  "Manufacturer": "Siemens",
  "ManufacturersModelName": "Prisma",
  "Modality": "MR",
  "MultibandAccelerationFactor": 8,
  "PartialFourier": 1,
  "PatientPosition": "HFS",
  "PercentPhaseFOV": 100,
  "PercentSampling": 100,
  "PhaseEncodingDirection": "j-",
  "PhaseEncodingSteps": 82,
  "PhaseResolution": 1,
  "PixelBandwidth": 3050,
  "ProcedureStepDescription": "Wager_Wager^1076_spacetop",
  "ProtocolName": "func_run-02_task-faces_acq-ap-mb8",
  "PulseSequenceDetails": "%CustomerSeq%\\cmrr_mbep2d_bold",
  "ReceiveCoilActiveElements": "HEA;HEP",
  "ReceiveCoilName": "Head_32",
  "ReconMatrixPE": 82,
  "RepetitionTime": 0.46,
  "SAR": 0.122495,
  "ScanOptions": "FS",
  "ScanningSequence": "EP",
  "SequenceName": "epfid2d1_82",
  "SequenceVariant": "SK\\SS",
  "SeriesDescription": "func_run-02_task-faces_acq-ap-mb8",
  "SeriesNumber": 18,
  "ShimSetting": [4143, -7830, -7128, 534, -104, -237, 91, 44],
  "SliceThickness": 2.7,
  "SliceTiming": [0, 0.2525, 0.0625, 0.315, 0.1275, 0.3775, 0.19, 0, 0.2525, 0.0625, 0.315, 0.1275, 0.3775, 0.19, 0, 0.2525, 0.0625, 0.315, 0.1275, 0.3775, 0.19, 0, 0.2525, 0.0625, 0.315, 0.1275, 0.3775, 0.19, 0, 0.2525, 0.0625, 0.315, 0.1275, 0.3775, 0.19, 0, 0.2525, 0.0625, 0.315, 0.1275, 0.3775, 0.19, 0, 0.2525, 0.0625, 0.315, 0.1275, 0.3775, 0.19, 0, 0.2525, 0.0625, 0.315, 0.1275, 0.3775, 0.19],
  "SoftwareVersions": "syngo MR E11",
  "SpacingBetweenSlices": 2.7,
  "StationName": "AWP66112",
  "TaskName": "faces",
  "TotalReadoutTime": 0.03969,
  "TxRefAmp": 271.425,
  "WipMemBlock": "c2923e68-f387-4202-8433-ea0a39101c48||Sequence: R016 ve11c/master r/e634e98; Dec 19 2017 11:00:25 by eja",
  "dcmmeta_affine": [
    [-2.682070732116699, -0.05056198686361313, 0.04541347175836563, 110.72689819335938],
    [-0.05470407009124756, 2.669738531112671, -0.2616562247276306, -76.00971984863281],
    [0.04000452905893326, 0.2608388066291809, 2.686908006668091, -21.255481719970703],
    [0.0, 0.0, 0.0, 1.0]
],
  "dcmmeta_reorient_transform": [
    [0.0, -1.0, 0.0, 81.0],
    [1.0, 0.0, 0.0, 0.0],
    [0.0, 0.0, 1.0, 0.0],
    [0.0, 0.0, 0.0, 1.0]
],
  "dcmmeta_shape": [82, 82, 56, 914],
  "dcmmeta_slice_dim": 2,
  "dcmmeta_version": 0.6,
  "global": {
    "const": {
      "AccessionNumber": "A003598",
      "AcquisitionMatrix": [82, 0, 0, 82],
      "AngioFlag": "N",
      "BitsAllocated": 16,
      "BitsStored": 16,
      "BodyPartExamined": "BRAIN",
      "Columns": 656,
      "EchoNumbers": 1,
      "EchoTime": 27.2,
      "EchoTrainLength": 82,
      "FlipAngle": 44.0,
      "HighBit": 15,
      "ImageOrientationPatient": [0.99968091354029, 0.0203896982809, 0.0149107782249, -0.0188458303596, 0.99508430212577, -0.0972217380061],
      "ImagePositionPatient": [-861.87440800939, -922.15409082108, 63.251902712551],
      "ImageType": [
        "ORIGINAL",
        "PRIMARY",
        "M",
        "MB",
        "ND",
        "NORM",
        "MOSAIC"
],
      "ImagedNucleus": "1H",
      "ImagingFrequency": 123.252059,
      "InPlanePhaseEncodingDirection": "COL",
      "MRAcquisitionType": "2D",
      "MagneticFieldStrength": 3.0,
      "Manufacturer": "SIEMENS",
      "ManufacturerModelName": "Prisma",
      "Modality": "MR",
      "NumberOfAverages": 1.0,
      "NumberOfPhaseEncodingSteps": 82,
      "PercentPhaseFieldOfView": 100.0,
      "PercentSampling": 100.0,
      "PerformedProcedureStepStartTime": "143257.239000",
      "PhotometricInterpretation": "MONOCHROME2",
      "PixelBandwidth": 3050.0,
      "PixelRepresentation": 0,
      "PixelSpacing": [2.6829268932343, 2.6829268932343],
      "ProtocolName": "func_run-02_task-faces_acq-ap-mb8",
      "RepetitionTime": 460.0,
      "Rows": 656,
      "SAR": 0.12249471364878,
      "SamplesPerPixel": 1,
      "ScanOptions": "FS",
      "ScanningSequence": "EP",
      "SequenceName": "epfid2d1_82",
      "SequenceVariant": [
        "SK",
        "SS"
],
      "SeriesDescription": "func_run-02_task-faces_acq-ap-mb8",
      "SeriesNumber": 18,
      "SeriesTime": "154819.037000",
      "SliceLocation": -11.923930346162,
      "SliceThickness": 2.7000000476837,
      "SmallestImagePixelValue": 0,
      "SoftwareVersions": "syngo MR E11",
      "SpacingBetweenSlices": 2.7000000683342,
      "SpecificCharacterSet": "ISO_IR 100",
      "StudyID": "1",
      "StudyTime": "143257.191000",
      "TransmitCoilName": "Body",
      "VariableFlipAngleFlag": "N",
      "WindowCenterWidthExplanation": "Algo1",
      "dBdt": 0.0},
    "slices": {}
  },
  "time": {
    "samples": {
      "AcquisitionNumber": [1, 2, 3, 4, 5, 6, 7, 8, 9, 10, 11, 12, 13, 14, 15, 16, 17, 18, 19, 20, 21, 22, 23, 24, 25, 26, 27, 28, 29, 30, 31, 32, 33, 34, 35, 36, 37, 38, 39, 40, 41, 42, 43, 44, 45, 46, 47, 48, 49, 50, 51, 52, 53, 54, 55, 56, 57, 58, 59, 60, 61, 62, 63, 64, 65, 66, 67, 68, 69, 70, 71, 72, 73, 74, 75, 76, 77, 78, 79, 80, 81, 82, 83, 84, 85, 86, 87, 88, 89, 90, 91, 92, 93, 94, 95, 96, 97, 98, 99, 100, 101, 102, 103, 104, 105, 106, 107, 108, 109, 110, 111, 112, 113, 114, 115, 116, 117, 118, 119, 120, 121, 122, 123, 124, 125, 126, 127, 128, 129, 130, 131, 132, 133, 134, 135, 136, 137, 138, 139, 140, 141, 142, 143, 144, 145, 146, 147, 148, 149, 150, 151, 152, 153, 154, 155, 156, 157, 158, 159, 160, 161, 162, 163, 164, 165, 166, 167, 168, 169, 170, 171, 172, 173, 174, 175, 176, 177, 178, 179, 180, 181, 182, 183, 184, 185, 186, 187, 188, 189, 190, 191, 192, 193, 194, 195, 196, 197, 198, 199, 200, 201, 202, 203, 204, 205, 206, 207, 208, 209, 210, 211, 212, 213, 214, 215, 216, 217, 218, 219, 220, 221, 222, 223, 224, 225, 226, 227, 228, 229, 230, 231, 232, 233, 234, 235, 236, 237, 238, 239, 240, 241, 242, 243, 244, 245, 246, 247, 248, 249, 250, 251, 252, 253, 254, 255, 256, 257, 258, 259, 260, 261, 262, 263, 264, 265, 266, 267, 268, 269, 270, 271, 272, 273, 274, 275, 276, 277, 278, 279, 280, 281, 282, 283, 284, 285, 286, 287, 288, 289, 290, 291, 292, 293, 294, 295, 296, 297, 298, 299, 300, 301, 302, 303, 304, 305, 306, 307, 308, 309, 310, 311, 312, 313, 314, 315, 316, 317, 318, 319, 320, 321, 322, 323, 324, 325, 326, 327, 328, 329, 330, 331, 332, 333, 334, 335, 336, 337, 338, 339, 340, 341, 342, 343, 344, 345, 346, 347, 348, 349, 350, 351, 352, 353, 354, 355, 356, 357, 358, 359, 360, 361, 362, 363, 364, 365, 366, 367, 368, 369, 370, 371, 372, 373, 374, 375, 376, 377, 378, 379, 380, 381, 382, 383, 384, 385, 386, 387, 388, 389, 390, 391, 392, 393, 394, 395, 396, 397, 398, 399, 400, 401, 402, 403, 404, 405, 406, 407, 408, 409, 410, 411, 412, 413, 414, 415, 416, 417, 418, 419, 420, 421, 422, 423, 424, 425, 426, 427, 428, 429, 430, 431, 432, 433, 434, 435, 436, 437, 438, 439, 440, 441, 442, 443, 444, 445, 446, 447, 448, 449, 450, 451, 452, 453, 454, 455, 456, 457, 458, 459, 460, 461, 462, 463, 464, 465, 466, 467, 468, 469, 470, 471, 472, 473, 474, 475, 476, 477, 478, 479, 480, 481, 482, 483, 484, 485, 486, 487, 488, 489, 490, 491, 492, 493, 494, 495, 496, 497, 498, 499, 500, 501, 502, 503, 504, 505, 506, 507, 508, 509, 510, 511, 512, 513, 514, 515, 516, 517, 518, 519, 520, 521, 522, 523, 524, 525, 526, 527, 528, 529, 530, 531, 532, 533, 534, 535, 536, 537, 538, 539, 540, 541, 542, 543, 544, 545, 546, 547, 548, 549, 550, 551, 552, 553, 554, 555, 556, 557, 558, 559, 560, 561, 562, 563, 564, 565, 566, 567, 568, 569, 570, 571, 572, 573, 574, 575, 576, 577, 578, 579, 580, 581, 582, 583, 584, 585, 586, 587, 588, 589, 590, 591, 592, 593, 594, 595, 596, 597, 598, 599, 600, 601, 602, 603, 604, 605, 606, 607, 608, 609, 610, 611, 612, 613, 614, 615, 616, 617, 618, 619, 620, 621, 622, 623, 624, 625, 626, 627, 628, 629, 630, 631, 632, 633, 634, 635, 636, 637, 638, 639, 640, 641, 642, 643, 644, 645, 646, 647, 648, 649, 650, 651, 652, 653, 654, 655, 656, 657, 658, 659, 660, 661, 662, 663, 664, 665, 666, 667, 668, 669, 670, 671, 672, 673, 674, 675, 676, 677, 678, 679, 680, 681, 682, 683, 684, 685, 686, 687, 688, 689, 690, 691, 692, 693, 694, 695, 696, 697, 698, 699, 700, 701, 702, 703, 704, 705, 706, 707, 708, 709, 710, 711, 712, 713, 714, 715, 716, 717, 718, 719, 720, 721, 722, 723, 724, 725, 726, 727, 728, 729, 730, 731, 732, 733, 734, 735, 736, 737, 738, 739, 740, 741, 742, 743, 744, 745, 746, 747, 748, 749, 750, 751, 752, 753, 754, 755, 756, 757, 758, 759, 760, 761, 762, 763, 764, 765, 766, 767, 768, 769, 770, 771, 772, 773, 774, 775, 776, 777, 778, 779, 780, 781, 782, 783, 784, 785, 786, 787, 788, 789, 790, 791, 792, 793, 794, 795, 796, 797, 798, 799, 800, 801, 802, 803, 804, 805, 806, 807, 808, 809, 810, 811, 812, 813, 814, 815, 816, 817, 818, 819, 820, 821, 822, 823, 824, 825, 826, 827, 828, 829, 830, 831, 832, 833, 834, 835, 836, 837, 838, 839, 840, 841, 842, 843, 844, 845, 846, 847, 848, 849, 850, 851, 852, 853, 854, 855, 856, 857, 858, 859, 860, 861, 862, 863, 864, 865, 866, 867, 868, 869, 870, 871, 872, 873, 874, 875, 876, 877, 878, 879, 880, 881, 882, 883, 884, 885, 886, 887, 888, 889, 890, 891, 892, 893, 894, 895, 896, 897, 898, 899, 900, 901, 902, 903, 904, 905, 906, 907, 908, 909, 910, 911, 912, 913, 914],
      "AcquisitionTime": ["154752.012500", "154752.472500", "154752.932500", "154753.392500", "154753.852500", "154754.312500", "154754.772500", "154755.232500", "154755.692500", "154756.152500", "154756.612500", "154757.072500", "154757.532500", "154757.992500", "154758.452500", "154758.912500", "154759.372500", "154759.832500", "154800.292500", "154800.752500", "154801.212500", "154801.672500", "154802.132500", "154802.592500", "154803.052500", "154803.512500", "154803.972500", "154804.432500", "154804.892500", "154805.352500", "154805.812500", "154806.272500", "154806.732500", "154807.192500", "154807.652500", "154808.112500", "154808.572500", "154809.032500", "154809.492500", "154809.952500", "154810.412500", "154810.872500", "154811.332500", "154811.792500", "154812.252500", "154812.712500", "154813.172500", "154813.632500", "154814.092500", "154814.552500", "154815.012500", "154815.472500", "154815.932500", "154816.392500", "154816.852500", "154817.312500", "154817.772500", "154818.232500", "154818.692500", "154819.152500", "154819.612500", "154820.072500", "154820.532500", "154820.992500", "154821.452500", "154821.912500", "154822.372500", "154822.832500", "154823.292500", "154823.752500", "154824.212500", "154824.672500", "154825.132500", "154825.592500", "154826.052500", "154826.512500", "154826.972500", "154827.432500", "154827.892500", "154828.352500", "154828.812500", "154829.272500", "154829.732500", "154830.192500", "154830.652500", "154831.112500", "154831.572500", "154832.032500", "154832.492500", "154832.952500", "154833.412500", "154833.872500", "154834.332500", "154834.792500", "154835.252500", "154835.712500", "154836.172500", "154836.632500", "154837.092500", "154837.552500", "154838.012500", "154838.472500", "154838.932500", "154839.392500", "154839.852500", "154840.312500", "154840.772500", "154841.232500", "154841.692500", "154842.152500", "154842.612500", "154843.072500", "154843.532500", "154843.992500", "154844.452500", "154844.912500", "154845.372500", "154845.832500", "154846.292500", "154846.752500", "154847.212500", "154847.672500", "154848.132500", "154848.592500", "154849.052500", "154849.512500", "154849.972500", "154850.432500", "154850.892500", "154851.352500", "154851.812500", "154852.272500", "154852.732500", "154853.192500", "154853.652500", "154854.112500", "154854.572500", "154855.032500", "154855.492500", "154855.952500", "154856.412500", "154856.872500", "154857.332500", "154857.792500", "154858.252500", "154858.712500", "154859.172500", "154859.632500", "154900.092500", "154900.552500", "154901.012500", "154901.472500", "154901.932500", "154902.392500", "154902.852500", "154903.312500", "154903.772500", "154904.232500", "154904.692500", "154905.152500", "154905.612500", "154906.072500", "154906.532500", "154906.992500", "154907.452500", "154907.912500", "154908.372500", "154908.832500", "154909.292500", "154909.752500", "154910.212500", "154910.672500", "154911.132500", "154911.592500", "154912.052500", "154912.512500", "154912.972500", "154913.432500", "154913.892500", "154914.352500", "154914.812500", "154915.272500", "154915.732500", "154916.192500", "154916.652500", "154917.112500", "154917.572500", "154918.032500", "154918.492500", "154918.952500", "154919.412500", "154919.872500", "154920.332500", "154920.792500", "154921.252500", "154921.712500", "154922.172500", "154922.632500", "154923.092500", "154923.552500", "154924.012500", "154924.472500", "154924.932500", "154925.392500", "154925.852500", "154926.312500", "154926.772500", "154927.232500", "154927.692500", "154928.152500", "154928.612500", "154929.072500", "154929.532500", "154929.992500", "154930.452500", "154930.912500", "154931.372500", "154931.832500", "154932.292500", "154932.752500", "154933.212500", "154933.672500", "154934.132500", "154934.592500", "154935.052500", "154935.512500", "154935.972500", "154936.432500", "154936.892500", "154937.352500", "154937.812500", "154938.272500", "154938.732500", "154939.192500", "154939.652500", "154940.112500", "154940.572500", "154941.032500", "154941.492500", "154941.952500", "154942.412500", "154942.872500", "154943.332500", "154943.792500", "154944.252500", "154944.712500", "154945.172500", "154945.632500", "154946.092500", "154946.552500", "154947.012500", "154947.472500", "154947.932500", "154948.392500", "154948.852500", "154949.312500", "154949.772500", "154950.232500", "154950.692500", "154951.152500", "154951.612500", "154952.072500", "154952.532500", "154952.992500", "154953.452500", "154953.912500", "154954.372500", "154954.832500", "154955.292500", "154955.752500", "154956.212500", "154956.672500", "154957.132500", "154957.592500", "154958.052500", "154958.512500", "154958.972500", "154959.432500", "154959.892500", "155000.352500", "155000.812500", "155001.272500", "155001.732500", "155002.192500", "155002.652500", "155003.112500", "155003.572500", "155004.032500", "155004.492500", "155004.952500", "155005.412500", "155005.872500", "155006.332500", "155006.792500", "155007.252500", "155007.712500", "155008.172500", "155008.632500", "155009.092500", "155009.552500", "155010.012500", "155010.472500", "155010.932500", "155011.392500", "155011.852500", "155012.312500", "155012.772500", "155013.232500", "155013.692500", "155014.152500", "155014.612500", "155015.072500", "155015.532500", "155015.992500", "155016.452500", "155016.912500", "155017.372500", "155017.832500", "155018.292500", "155018.752500", "155019.212500", "155019.672500", "155020.132500", "155020.592500", "155021.052500", "155021.512500", "155021.972500", "155022.432500", "155022.892500", "155023.352500", "155023.812500", "155024.272500", "155024.732500", "155025.192500", "155025.652500", "155026.112500", "155026.572500", "155027.032500", "155027.492500", "155027.952500", "155028.412500", "155028.872500", "155029.332500", "155029.792500", "155030.252500", "155030.712500", "155031.172500", "155031.632500", "155032.092500", "155032.552500", "155033.012500", "155033.472500", "155033.932500", "155034.392500", "155034.852500", "155035.312500", "155035.772500", "155036.232500", "155036.692500", "155037.152500", "155037.612500", "155038.072500", "155038.532500", "155038.992500", "155039.452500", "155039.912500", "155040.372500", "155040.832500", "155041.292500", "155041.752500", "155042.212500", "155042.672500", "155043.132500", "155043.592500", "155044.052500", "155044.512500", "155044.972500", "155045.432500", "155045.892500", "155046.352500", "155046.812500", "155047.272500", "155047.732500", "155048.192500", "155048.652500", "155049.112500", "155049.572500", "155050.032500", "155050.492500", "155050.952500", "155051.412500", "155051.872500", "155052.332500", "155052.792500", "155053.252500", "155053.712500", "155054.172500", "155054.632500", "155055.092500", "155055.552500", "155056.012500", "155056.472500", "155056.932500", "155057.392500", "155057.852500", "155058.312500", "155058.772500", "155059.232500", "155059.692500", "155100.152500", "155100.612500", "155101.072500", "155101.532500", "155101.992500", "155102.452500", "155102.912500", "155103.372500", "155103.832500", "155104.292500", "155104.752500", "155105.212500", "155105.672500", "155106.132500", "155106.592500", "155107.052500", "155107.512500", "155107.972500", "155108.432500", "155108.892500", "155109.352500", "155109.812500", "155110.272500", "155110.732500", "155111.192500", "155111.652500", "155112.112500", "155112.572500", "155113.032500", "155113.492500", "155113.952500", "155114.412500", "155114.872500", "155115.332500", "155115.792500", "155116.252500", "155116.712500", "155117.172500", "155117.632500", "155118.092500", "155118.552500", "155119.012500", "155119.472500", "155119.932500", "155120.392500", "155120.852500", "155121.312500", "155121.772500", "155122.232500", "155122.692500", "155123.152500", "155123.612500", "155124.072500", "155124.532500", "155124.992500", "155125.452500", "155125.912500", "155126.372500", "155126.832500", "155127.292500", "155127.752500", "155128.212500", "155128.672500", "155129.132500", "155129.592500", "155130.052500", "155130.512500", "155130.972500", "155131.432500", "155131.892500", "155132.352500", "155132.812500", "155133.272500", "155133.732500", "155134.192500", "155134.652500", "155135.112500", "155135.572500", "155136.032500", "155136.492500", "155136.952500", "155137.412500", "155137.872500", "155138.332500", "155138.792500", "155139.252500", "155139.712500", "155140.172500", "155140.632500", "155141.092500", "155141.552500", "155142.012500", "155142.472500", "155142.932500", "155143.392500", "155143.852500", "155144.312500", "155144.772500", "155145.232500", "155145.692500", "155146.152500", "155146.612500", "155147.072500", "155147.532500", "155147.992500", "155148.452500", "155148.912500", "155149.372500", "155149.832500", "155150.292500", "155150.752500", "155151.212500", "155151.672500", "155152.132500", "155152.592500", "155153.052500", "155153.512500", "155153.972500", "155154.432500", "155154.892500", "155155.352500", "155155.812500", "155156.272500", "155156.732500", "155157.192500", "155157.652500", "155158.112500", "155158.572500", "155159.032500", "155159.492500", "155159.952500", "155200.412500", "155200.872500", "155201.332500", "155201.792500", "155202.252500", "155202.712500", "155203.172500", "155203.632500", "155204.092500", "155204.552500", "155205.012500", "155205.472500", "155205.932500", "155206.392500", "155206.852500", "155207.312500", "155207.772500", "155208.232500", "155208.692500", "155209.152500", "155209.612500", "155210.072500", "155210.532500", "155210.992500", "155211.452500", "155211.912500", "155212.372500", "155212.832500", "155213.292500", "155213.752500", "155214.212500", "155214.672500", "155215.132500", "155215.592500", "155216.052500", "155216.512500", "155216.972500", "155217.432500", "155217.892500", "155218.352500", "155218.812500", "155219.272500", "155219.732500", "155220.192500", "155220.652500", "155221.112500", "155221.572500", "155222.032500", "155222.492500", "155222.952500", "155223.412500", "155223.872500", "155224.332500", "155224.792500", "155225.252500", "155225.712500", "155226.172500", "155226.632500", "155227.092500", "155227.552500", "155228.012500", "155228.472500", "155228.932500", "155229.392500", "155229.852500", "155230.312500", "155230.772500", "155231.232500", "155231.692500", "155232.152500", "155232.612500", "155233.072500", "155233.532500", "155233.992500", "155234.452500", "155234.912500", "155235.372500", "155235.832500", "155236.292500", "155236.752500", "155237.212500", "155237.672500", "155238.132500", "155238.592500", "155239.052500", "155239.512500", "155239.972500", "155240.432500", "155240.892500", "155241.352500", "155241.812500", "155242.272500", "155242.732500", "155243.192500", "155243.652500", "155244.112500", "155244.572500", "155245.032500", "155245.492500", "155245.952500", "155246.412500", "155246.872500", "155247.332500", "155247.792500", "155248.252500", "155248.712500", "155249.172500", "155249.632500", "155250.092500", "155250.552500", "155251.012500", "155251.472500", "155251.932500", "155252.392500", "155252.852500", "155253.312500", "155253.772500", "155254.232500", "155254.692500", "155255.152500", "155255.612500", "155256.072500", "155256.532500", "155256.992500", "155257.452500", "155257.912500", "155258.372500", "155258.832500", "155259.292500", "155259.752500", "155300.212500", "155300.672500", "155301.132500", "155301.592500", "155302.052500", "155302.512500", "155302.972500", "155303.432500", "155303.892500", "155304.352500", "155304.812500", "155305.272500", "155305.732500", "155306.192500", "155306.652500", "155307.112500", "155307.572500", "155308.032500", "155308.492500", "155308.952500", "155309.412500", "155309.872500", "155310.332500", "155310.792500", "155311.252500", "155311.712500", "155312.172500", "155312.632500", "155313.092500", "155313.552500", "155314.012500", "155314.472500", "155314.932500", "155315.392500", "155315.852500", "155316.312500", "155316.772500", "155317.232500", "155317.692500", "155318.152500", "155318.612500", "155319.072500", "155319.532500", "155319.992500", "155320.452500", "155320.912500", "155321.372500", "155321.832500", "155322.292500", "155322.752500", "155323.212500", "155323.672500", "155324.132500", "155324.592500", "155325.052500", "155325.512500", "155325.972500", "155326.432500", "155326.892500", "155327.352500", "155327.812500", "155328.272500", "155328.732500", "155329.192500", "155329.652500", "155330.112500", "155330.572500", "155331.032500", "155331.492500", "155331.952500", "155332.412500", "155332.872500", "155333.332500", "155333.792500", "155334.252500", "155334.712500", "155335.172500", "155335.632500", "155336.092500", "155336.552500", "155337.012500", "155337.472500", "155337.932500", "155338.392500", "155338.852500", "155339.312500", "155339.772500", "155340.232500", "155340.692500", "155341.152500", "155341.612500", "155342.072500", "155342.532500", "155342.992500", "155343.452500", "155343.912500", "155344.372500", "155344.832500", "155345.292500", "155345.752500", "155346.212500", "155346.672500", "155347.132500", "155347.592500", "155348.052500", "155348.512500", "155348.972500", "155349.432500", "155349.892500", "155350.352500", "155350.812500", "155351.272500", "155351.732500", "155352.192500", "155352.652500", "155353.112500", "155353.572500", "155354.032500", "155354.492500", "155354.952500", "155355.412500", "155355.872500", "155356.332500", "155356.792500", "155357.252500", "155357.712500", "155358.172500", "155358.632500", "155359.092500", "155359.552500", "155400.012500", "155400.472500", "155400.932500", "155401.392500", "155401.852500", "155402.312500", "155402.772500", "155403.232500", "155403.692500", "155404.152500", "155404.612500", "155405.072500", "155405.532500", "155405.992500", "155406.452500", "155406.912500", "155407.372500", "155407.832500", "155408.292500", "155408.752500", "155409.212500", "155409.672500", "155410.132500", "155410.592500", "155411.052500", "155411.512500", "155411.972500", "155412.432500", "155412.892500", "155413.352500", "155413.812500", "155414.272500", "155414.732500", "155415.192500", "155415.652500", "155416.112500", "155416.572500", "155417.032500", "155417.492500", "155417.952500", "155418.412500", "155418.872500", "155419.332500", "155419.792500", "155420.252500", "155420.712500", "155421.172500", "155421.632500", "155422.092500", "155422.552500", "155423.012500", "155423.472500", "155423.932500", "155424.392500", "155424.852500", "155425.312500", "155425.772500", "155426.232500", "155426.692500", "155427.152500", "155427.612500", "155428.072500", "155428.532500", "155428.992500", "155429.452500", "155429.912500", "155430.372500", "155430.832500", "155431.292500", "155431.752500", "155432.212500", "155432.672500", "155433.132500", "155433.592500", "155434.052500", "155434.512500", "155434.972500", "155435.432500", "155435.892500", "155436.352500", "155436.812500", "155437.272500", "155437.732500", "155438.192500", "155438.652500", "155439.112500", "155439.572500", "155440.032500", "155440.492500", "155440.952500", "155441.412500", "155441.872500", "155442.332500", "155442.792500", "155443.252500", "155443.712500", "155444.172500", "155444.632500", "155445.092500", "155445.552500", "155446.012500", "155446.472500", "155446.932500", "155447.392500", "155447.852500", "155448.312500", "155448.772500", "155449.232500", "155449.692500", "155450.152500", "155450.612500", "155451.072500", "155451.532500", "155451.992500"],
