{
  "AcquisitionMatrixPE": 82,
  "AcquisitionNumber": 1,
  "AcquisitionTime": "15:02:38.627500",
  "BandwidthPerPixelPhaseEncode": 24.888,
  "BaseResolution": 82,
  "BodyPartExamined": "BRAIN",
  "ConsistencyInfo": "N4_VE11C_LATEST_20160120",
  "ConversionSoftware": "dcm2niix",
  "ConversionSoftwareVersion": "v1.0.20201102",
  "DerivedVendorReportedEchoSpacing": 0.00049,
  "DeviceSerialNumber": "66112",
  "DwellTime": 2e-06,
  "EchoTime": 0.0272,
  "EchoTrainLength": 82,
  "EffectiveEchoSpacing": 0.00049,
  "FlipAngle": 44,
  "ImageComments": "Unaliased MB8/PE3",
  "ImageOrientationPatientDICOM": [0.999681, 0.0203897, 0.0149108, -0.0188458, 0.995084, -0.0972217],
  "ImageType": [
    "ORIGINAL",
    "PRIMARY",
    "M",
    "MB",
    "ND",
    "NORM",
    "MOSAIC"
],
  "ImagingFrequency": 123.252,
  "InPlanePhaseEncodingDirectionDICOM": "COL",
  "InstitutionAddress": "Maynard 3,Hanover,NH,US,03755",
  "InstitutionName": "Dartmouth College - PBS",
  "InstitutionalDepartmentName": "Department",
  "MRAcquisitionType": "2D",
  "MagneticFieldStrength": 3,
  "Manufacturer": "Siemens",
  "ManufacturersModelName": "Prisma",
  "Modality": "MR",
  "MultibandAccelerationFactor": 8,
  "PartialFourier": 1,
  "PatientPosition": "HFS",
  "PercentPhaseFOV": 100,
  "PercentSampling": 100,
  "PhaseEncodingDirection": "j-",
  "PhaseEncodingSteps": 82,
  "PhaseResolution": 1,
  "PixelBandwidth": 3050,
  "ProcedureStepDescription": "Wager_Wager^1076_spacetop",
  "ProtocolName": "func_run-01_task-narratives_acq-ap-mb8",
  "PulseSequenceDetails": "%CustomerSeq%\\cmrr_mbep2d_bold",
  "ReceiveCoilActiveElements": "HEA;HEP",
  "ReceiveCoilName": "Head_32",
  "ReconMatrixPE": 82,
  "RepetitionTime": 0.46,
  "SAR": 0.122535,
  "ScanOptions": "FS",
  "ScanningSequence": "EP",
  "SequenceName": "epfid2d1_82",
  "SequenceVariant": "SK\\SS",
  "SeriesDescription": "func_run-01_task-narratives_acq-ap-mb8",
  "SeriesNumber": 8,
  "ShimSetting": [4143, -7830, -7128, 534, -104, -237, 91, 44],
  "SliceThickness": 2.7,
  "SliceTiming": [0, 0.25, 0.0625, 0.3125, 0.125, 0.3775, 0.1875, 0, 0.25, 0.0625, 0.3125, 0.125, 0.3775, 0.1875, 0, 0.25, 0.0625, 0.3125, 0.125, 0.3775, 0.1875, 0, 0.25, 0.0625, 0.3125, 0.125, 0.3775, 0.1875, 0, 0.25, 0.0625, 0.3125, 0.125, 0.3775, 0.1875, 0, 0.25, 0.0625, 0.3125, 0.125, 0.3775, 0.1875, 0, 0.25, 0.0625, 0.3125, 0.125, 0.3775, 0.1875, 0, 0.25, 0.0625, 0.3125, 0.125, 0.3775, 0.1875],
  "SoftwareVersions": "syngo MR E11",
  "SpacingBetweenSlices": 2.7,
  "StationName": "AWP66112",
  "TaskName": "narratives",
  "TotalReadoutTime": 0.03969,
  "TxRefAmp": 271.425,
  "WipMemBlock": "969238ef-15e6-4fd7-a6a0-5e5ef4349704||Sequence: R016 ve11c/master r/e634e98; Dec 19 2017 11:00:25 by eja",
  "dcmmeta_affine": [
    [-2.682070732116699, -0.05056198686361313, 0.04541347175836563, 110.72689819335938],
    [-0.05470407009124756, 2.669738531112671, -0.2616562247276306, -76.00971984863281],
    [0.04000452905893326, 0.2608388066291809, 2.686908006668091, -21.255481719970703],
    [0.0, 0.0, 0.0, 1.0]
],
  "dcmmeta_reorient_transform": [
    [0.0, -1.0, 0.0, 81.0],
    [1.0, 0.0, 0.0, 0.0],
    [0.0, 0.0, 1.0, 0.0],
    [0.0, 0.0, 0.0, 1.0]
],
  "dcmmeta_shape": [82, 82, 56, 967],
  "dcmmeta_slice_dim": 2,
  "dcmmeta_version": 0.6,
  "global": {
    "const": {
      "AccessionNumber": "A003598",
      "AcquisitionMatrix": [82, 0, 0, 82],
      "AngioFlag": "N",
      "BitsAllocated": 16,
      "BitsStored": 16,
      "BodyPartExamined": "BRAIN",
      "Columns": 656,
      "EchoNumbers": 1,
      "EchoTime": 27.2,
      "EchoTrainLength": 82,
      "FlipAngle": 44.0,
      "HighBit": 15,
      "ImageOrientationPatient": [0.99968091354029, 0.0203896982809, 0.0149107782249, -0.0188458303596, 0.99508430212577, -0.0972217380061],
      "ImagePositionPatient": [-861.87440800939, -922.15409082108, 63.251902712551],
      "ImageType": [
        "ORIGINAL",
        "PRIMARY",
        "M",
        "MB",
        "ND",
        "NORM",
        "MOSAIC"
],
      "ImagedNucleus": "1H",
      "ImagingFrequency": 123.252031,
      "InPlanePhaseEncodingDirection": "COL",
      "MRAcquisitionType": "2D",
      "MagneticFieldStrength": 3.0,
      "Manufacturer": "SIEMENS",
      "ManufacturerModelName": "Prisma",
      "Modality": "MR",
      "NumberOfAverages": 1.0,
      "NumberOfPhaseEncodingSteps": 82,
      "PercentPhaseFieldOfView": 100.0,
      "PercentSampling": 100.0,
      "PerformedProcedureStepStartTime": "143257.239000",
      "PhotometricInterpretation": "MONOCHROME2",
      "PixelBandwidth": 3050.0,
      "PixelRepresentation": 0,
      "PixelSpacing": [2.6829268932343, 2.6829268932343],
      "ProtocolName": "func_run-01_task-narratives_acq-ap-mb8",
      "RepetitionTime": 460.0,
      "Rows": 656,
      "SAR": 0.12253454508922,
      "SamplesPerPixel": 1,
      "ScanOptions": "FS",
      "ScanningSequence": "EP",
      "SequenceName": "epfid2d1_82",
      "SequenceVariant": [
        "SK",
        "SS"
],
      "SeriesDescription": "func_run-01_task-narratives_acq-ap-mb8",
      "SeriesNumber": 8,
      "SeriesTime": "150258.883000",
      "SliceLocation": -11.923930346162,
      "SliceThickness": 2.7000000476837,
      "SmallestImagePixelValue": 0,
      "SoftwareVersions": "syngo MR E11",
      "SpacingBetweenSlices": 2.7000000683342,
      "SpecificCharacterSet": "ISO_IR 100",
      "StudyID": "1",
      "StudyTime": "143257.191000",
      "TransmitCoilName": "Body",
      "VariableFlipAngleFlag": "N",
      "WindowCenterWidthExplanation": "Algo1",
      "dBdt": 0.0},
    "slices": {}
  },
  "time": {
    "samples": {
      "AcquisitionNumber": [1, 2, 3, 4, 5, 6, 7, 8, 9, 10, 11, 12, 13, 14, 15, 16, 17, 18, 19, 20, 21, 22, 23, 24, 25, 26, 27, 28, 29, 30, 31, 32, 33, 34, 35, 36, 37, 38, 39, 40, 41, 42, 43, 44, 45, 46, 47, 48, 49, 50, 51, 52, 53, 54, 55, 56, 57, 58, 59, 60, 61, 62, 63, 64, 65, 66, 67, 68, 69, 70, 71, 72, 73, 74, 75, 76, 77, 78, 79, 80, 81, 82, 83, 84, 85, 86, 87, 88, 89, 90, 91, 92, 93, 94, 95, 96, 97, 98, 99, 100, 101, 102, 103, 104, 105, 106, 107, 108, 109, 110, 111, 112, 113, 114, 115, 116, 117, 118, 119, 120, 121, 122, 123, 124, 125, 126, 127, 128, 129, 130, 131, 132, 133, 134, 135, 136, 137, 138, 139, 140, 141, 142, 143, 144, 145, 146, 147, 148, 149, 150, 151, 152, 153, 154, 155, 156, 157, 158, 159, 160, 161, 162, 163, 164, 165, 166, 167, 168, 169, 170, 171, 172, 173, 174, 175, 176, 177, 178, 179, 180, 181, 182, 183, 184, 185, 186, 187, 188, 189, 190, 191, 192, 193, 194, 195, 196, 197, 198, 199, 200, 201, 202, 203, 204, 205, 206, 207, 208, 209, 210, 211, 212, 213, 214, 215, 216, 217, 218, 219, 220, 221, 222, 223, 224, 225, 226, 227, 228, 229, 230, 231, 232, 233, 234, 235, 236, 237, 238, 239, 240, 241, 242, 243, 244, 245, 246, 247, 248, 249, 250, 251, 252, 253, 254, 255, 256, 257, 258, 259, 260, 261, 262, 263, 264, 265, 266, 267, 268, 269, 270, 271, 272, 273, 274, 275, 276, 277, 278, 279, 280, 281, 282, 283, 284, 285, 286, 287, 288, 289, 290, 291, 292, 293, 294, 295, 296, 297, 298, 299, 300, 301, 302, 303, 304, 305, 306, 307, 308, 309, 310, 311, 312, 313, 314, 315, 316, 317, 318, 319, 320, 321, 322, 323, 324, 325, 326, 327, 328, 329, 330, 331, 332, 333, 334, 335, 336, 337, 338, 339, 340, 341, 342, 343, 344, 345, 346, 347, 348, 349, 350, 351, 352, 353, 354, 355, 356, 357, 358, 359, 360, 361, 362, 363, 364, 365, 366, 367, 368, 369, 370, 371, 372, 373, 374, 375, 376, 377, 378, 379, 380, 381, 382, 383, 384, 385, 386, 387, 388, 389, 390, 391, 392, 393, 394, 395, 396, 397, 398, 399, 400, 401, 402, 403, 404, 405, 406, 407, 408, 409, 410, 411, 412, 413, 414, 415, 416, 417, 418, 419, 420, 421, 422, 423, 424, 425, 426, 427, 428, 429, 430, 431, 432, 433, 434, 435, 436, 437, 438, 439, 440, 441, 442, 443, 444, 445, 446, 447, 448, 449, 450, 451, 452, 453, 454, 455, 456, 457, 458, 459, 460, 461, 462, 463, 464, 465, 466, 467, 468, 469, 470, 471, 472, 473, 474, 475, 476, 477, 478, 479, 480, 481, 482, 483, 484, 485, 486, 487, 488, 489, 490, 491, 492, 493, 494, 495, 496, 497, 498, 499, 500, 501, 502, 503, 504, 505, 506, 507, 508, 509, 510, 511, 512, 513, 514, 515, 516, 517, 518, 519, 520, 521, 522, 523, 524, 525, 526, 527, 528, 529, 530, 531, 532, 533, 534, 535, 536, 537, 538, 539, 540, 541, 542, 543, 544, 545, 546, 547, 548, 549, 550, 551, 552, 553, 554, 555, 556, 557, 558, 559, 560, 561, 562, 563, 564, 565, 566, 567, 568, 569, 570, 571, 572, 573, 574, 575, 576, 577, 578, 579, 580, 581, 582, 583, 584, 585, 586, 587, 588, 589, 590, 591, 592, 593, 594, 595, 596, 597, 598, 599, 600, 601, 602, 603, 604, 605, 606, 607, 608, 609, 610, 611, 612, 613, 614, 615, 616, 617, 618, 619, 620, 621, 622, 623, 624, 625, 626, 627, 628, 629, 630, 631, 632, 633, 634, 635, 636, 637, 638, 639, 640, 641, 642, 643, 644, 645, 646, 647, 648, 649, 650, 651, 652, 653, 654, 655, 656, 657, 658, 659, 660, 661, 662, 663, 664, 665, 666, 667, 668, 669, 670, 671, 672, 673, 674, 675, 676, 677, 678, 679, 680, 681, 682, 683, 684, 685, 686, 687, 688, 689, 690, 691, 692, 693, 694, 695, 696, 697, 698, 699, 700, 701, 702, 703, 704, 705, 706, 707, 708, 709, 710, 711, 712, 713, 714, 715, 716, 717, 718, 719, 720, 721, 722, 723, 724, 725, 726, 727, 728, 729, 730, 731, 732, 733, 734, 735, 736, 737, 738, 739, 740, 741, 742, 743, 744, 745, 746, 747, 748, 749, 750, 751, 752, 753, 754, 755, 756, 757, 758, 759, 760, 761, 762, 763, 764, 765, 766, 767, 768, 769, 770, 771, 772, 773, 774, 775, 776, 777, 778, 779, 780, 781, 782, 783, 784, 785, 786, 787, 788, 789, 790, 791, 792, 793, 794, 795, 796, 797, 798, 799, 800, 801, 802, 803, 804, 805, 806, 807, 808, 809, 810, 811, 812, 813, 814, 815, 816, 817, 818, 819, 820, 821, 822, 823, 824, 825, 826, 827, 828, 829, 830, 831, 832, 833, 834, 835, 836, 837, 838, 839, 840, 841, 842, 843, 844, 845, 846, 847, 848, 849, 850, 851, 852, 853, 854, 855, 856, 857, 858, 859, 860, 861, 862, 863, 864, 865, 866, 867, 868, 869, 870, 871, 872, 873, 874, 875, 876, 877, 878, 879, 880, 881, 882, 883, 884, 885, 886, 887, 888, 889, 890, 891, 892, 893, 894, 895, 896, 897, 898, 899, 900, 901, 902, 903, 904, 905, 906, 907, 908, 909, 910, 911, 912, 913, 914, 915, 916, 917, 918, 919, 920, 921, 922, 923, 924, 925, 926, 927, 928, 929, 930, 931, 932, 933, 934, 935, 936, 937, 938, 939, 940, 941, 942, 943, 944, 945, 946, 947, 948, 949, 950, 951, 952, 953, 954, 955, 956, 957, 958, 959, 960, 961, 962, 963, 964, 965, 966, 967],
      "AcquisitionTime": ["150238.627500", "150239.087500", "150239.547500", "150240.007500", "150240.467500", "150240.927500", "150241.387500", "150241.847500", "150242.307500", "150242.767500", "150243.227500", "150243.687500", "150244.147500", "150244.607500", "150245.067500", "150245.527500", "150245.987500", "150246.447500", "150246.907500", "150247.367500", "150247.827500", "150248.287500", "150248.747500", "150249.207500", "150249.667500", "150250.127500", "150250.587500", "150251.047500", "150251.507500", "150251.967500", "150252.427500", "150252.887500", "150253.347500", "150253.807500", "150254.267500", "150254.727500", "150255.187500", "150255.647500", "150256.107500", "150256.567500", "150257.027500", "150257.487500", "150257.947500", "150258.407500", "150258.867500", "150259.327500", "150259.787500", "150300.247500", "150300.707500", "150301.167500", "150301.627500", "150302.087500", "150302.547500", "150303.007500", "150303.467500", "150303.927500", "150304.387500", "150304.847500", "150305.307500", "150305.767500", "150306.227500", "150306.687500", "150307.147500", "150307.607500", "150308.067500", "150308.527500", "150308.987500", "150309.447500", "150309.907500", "150310.367500", "150310.827500", "150311.287500", "150311.747500", "150312.207500", "150312.667500", "150313.127500", "150313.587500", "150314.047500", "150314.507500", "150314.967500", "150315.427500", "150315.887500", "150316.347500", "150316.807500", "150317.267500", "150317.727500", "150318.187500", "150318.647500", "150319.107500", "150319.567500", "150320.027500", "150320.487500", "150320.947500", "150321.407500", "150321.867500", "150322.327500", "150322.787500", "150323.247500", "150323.707500", "150324.167500", "150324.627500", "150325.087500", "150325.547500", "150326.007500", "150326.467500", "150326.927500", "150327.387500", "150327.847500", "150328.307500", "150328.767500", "150329.227500", "150329.687500", "150330.147500", "150330.607500", "150331.067500", "150331.527500", "150331.987500", "150332.447500", "150332.907500", "150333.367500", "150333.827500", "150334.287500", "150334.747500", "150335.207500", "150335.667500", "150336.127500", "150336.587500", "150337.047500", "150337.507500", "150337.967500", "150338.427500", "150338.887500", "150339.347500", "150339.807500", "150340.267500", "150340.727500", "150341.187500", "150341.647500", "150342.107500", "150342.567500", "150343.027500", "150343.487500", "150343.947500", "150344.407500", "150344.867500", "150345.327500", "150345.787500", "150346.247500", "150346.707500", "150347.167500", "150347.627500", "150348.087500", "150348.547500", "150349.007500", "150349.467500", "150349.927500", "150350.387500", "150350.847500", "150351.307500", "150351.767500", "150352.227500", "150352.687500", "150353.147500", "150353.607500", "150354.067500", "150354.527500", "150354.987500", "150355.447500", "150355.907500", "150356.367500", "150356.827500", "150357.287500", "150357.747500", "150358.207500", "150358.667500", "150359.127500", "150359.587500", "150400.047500", "150400.507500", "150400.967500", "150401.427500", "150401.887500", "150402.347500", "150402.807500", "150403.267500", "150403.727500", "150404.187500", "150404.647500", "150405.107500", "150405.567500", "150406.027500", "150406.487500", "150406.947500", "150407.407500", "150407.867500", "150408.327500", "150408.787500", "150409.247500", "150409.707500", "150410.167500", "150410.627500", "150411.087500", "150411.547500", "150412.007500", "150412.467500", "150412.927500", "150413.387500", "150413.847500", "150414.307500", "150414.767500", "150415.227500", "150415.687500", "150416.147500", "150416.607500", "150417.067500", "150417.527500", "150417.987500", "150418.447500", "150418.907500", "150419.367500", "150419.827500", "150420.287500", "150420.747500", "150421.207500", "150421.667500", "150422.127500", "150422.587500", "150423.047500", "150423.507500", "150423.967500", "150424.427500", "150424.887500", "150425.347500", "150425.807500", "150426.267500", "150426.727500", "150427.187500", "150427.647500", "150428.107500", "150428.567500", "150429.027500", "150429.487500", "150429.947500", "150430.407500", "150430.867500", "150431.327500", "150431.787500", "150432.247500", "150432.707500", "150433.167500", "150433.627500", "150434.087500", "150434.547500", "150435.007500", "150435.467500", "150435.927500", "150436.387500", "150436.847500", "150437.307500", "150437.767500", "150438.227500", "150438.687500", "150439.147500", "150439.607500", "150440.067500", "150440.527500", "150440.987500", "150441.447500", "150441.907500", "150442.367500", "150442.827500", "150443.287500", "150443.747500", "150444.207500", "150444.667500", "150445.127500", "150445.587500", "150446.047500", "150446.507500", "150446.967500", "150447.427500", "150447.887500", "150448.347500", "150448.807500", "150449.267500", "150449.727500", "150450.187500", "150450.647500", "150451.107500", "150451.567500", "150452.027500", "150452.487500", "150452.947500", "150453.407500", "150453.867500", "150454.327500", "150454.787500", "150455.247500", "150455.707500", "150456.167500", "150456.627500", "150457.087500", "150457.547500", "150458.007500", "150458.467500", "150458.927500", "150459.387500", "150459.847500", "150500.307500", "150500.767500", "150501.227500", "150501.687500", "150502.147500", "150502.607500", "150503.067500", "150503.527500", "150503.987500", "150504.447500", "150504.907500", "150505.367500", "150505.827500", "150506.287500", "150506.747500", "150507.207500", "150507.667500", "150508.127500", "150508.587500", "150509.047500", "150509.507500", "150509.967500", "150510.427500", "150510.887500", "150511.347500", "150511.807500", "150512.267500", "150512.727500", "150513.187500", "150513.647500", "150514.107500", "150514.567500", "150515.027500", "150515.487500", "150515.947500", "150516.407500", "150516.867500", "150517.327500", "150517.787500", "150518.247500", "150518.707500", "150519.167500", "150519.627500", "150520.087500", "150520.547500", "150521.007500", "150521.467500", "150521.927500", "150522.387500", "150522.847500", "150523.307500", "150523.767500", "150524.227500", "150524.687500", "150525.147500", "150525.607500", "150526.067500", "150526.527500", "150526.987500", "150527.447500", "150527.907500", "150528.367500", "150528.827500", "150529.287500", "150529.747500", "150530.207500", "150530.667500", "150531.127500", "150531.587500", "150532.047500", "150532.507500", "150532.967500", "150533.427500", "150533.887500", "150534.347500", "150534.807500", "150535.267500", "150535.727500", "150536.187500", "150536.647500", "150537.107500", "150537.567500", "150538.027500", "150538.487500", "150538.947500", "150539.407500", "150539.867500", "150540.327500", "150540.787500", "150541.247500", "150541.707500", "150542.167500", "150542.627500", "150543.087500", "150543.547500", "150544.007500", "150544.467500", "150544.927500", "150545.387500", "150545.847500", "150546.307500", "150546.767500", "150547.227500", "150547.687500", "150548.147500", "150548.607500", "150549.067500", "150549.527500", "150549.987500", "150550.447500", "150550.907500", "150551.367500", "150551.827500", "150552.287500", "150552.747500", "150553.207500", "150553.667500", "150554.127500", "150554.587500", "150555.047500", "150555.507500", "150555.967500", "150556.427500", "150556.887500", "150557.347500", "150557.807500", "150558.267500", "150558.727500", "150559.187500", "150559.647500", "150600.107500", "150600.567500", "150601.027500", "150601.487500", "150601.947500", "150602.407500", "150602.867500", "150603.327500", "150603.787500", "150604.247500", "150604.707500", "150605.167500", "150605.627500", "150606.087500", "150606.547500", "150607.007500", "150607.467500", "150607.927500", "150608.387500", "150608.847500", "150609.307500", "150609.767500", "150610.227500", "150610.687500", "150611.147500", "150611.607500", "150612.067500", "150612.527500", "150612.987500", "150613.447500", "150613.907500", "150614.367500", "150614.827500", "150615.287500", "150615.747500", "150616.207500", "150616.667500", "150617.127500", "150617.587500", "150618.047500", "150618.507500", "150618.967500", "150619.427500", "150619.887500", "150620.347500", "150620.807500", "150621.267500", "150621.727500", "150622.187500", "150622.647500", "150623.107500", "150623.567500", "150624.027500", "150624.487500", "150624.947500", "150625.407500", "150625.867500", "150626.327500", "150626.787500", "150627.247500", "150627.707500", "150628.167500", "150628.627500", "150629.087500", "150629.547500", "150630.007500", "150630.467500", "150630.927500", "150631.387500", "150631.847500", "150632.307500", "150632.767500", "150633.227500", "150633.687500", "150634.147500", "150634.607500", "150635.067500", "150635.527500", "150635.987500", "150636.447500", "150636.907500", "150637.367500", "150637.827500", "150638.287500", "150638.747500", "150639.207500", "150639.667500", "150640.127500", "150640.587500", "150641.047500", "150641.507500", "150641.967500", "150642.427500", "150642.887500", "150643.347500", "150643.807500", "150644.267500", "150644.727500", "150645.187500", "150645.647500", "150646.107500", "150646.567500", "150647.027500", "150647.487500", "150647.947500", "150648.407500", "150648.867500", "150649.327500", "150649.787500", "150650.247500", "150650.707500", "150651.167500", "150651.627500", "150652.087500", "150652.547500", "150653.007500", "150653.467500", "150653.927500", "150654.387500", "150654.847500", "150655.307500", "150655.767500", "150656.227500", "150656.687500", "150657.147500", "150657.607500", "150658.067500", "150658.527500", "150658.987500", "150659.447500", "150659.907500", "150700.367500", "150700.827500", "150701.287500", "150701.747500", "150702.207500", "150702.667500", "150703.127500", "150703.587500", "150704.047500", "150704.507500", "150704.967500", "150705.427500", "150705.887500", "150706.347500", "150706.807500", "150707.267500", "150707.727500", "150708.187500", "150708.647500", "150709.107500", "150709.567500", "150710.027500", "150710.487500", "150710.947500", "150711.407500", "150711.867500", "150712.327500", "150712.787500", "150713.247500", "150713.707500", "150714.167500", "150714.627500", "150715.087500", "150715.547500", "150716.007500", "150716.467500", "150716.927500", "150717.387500", "150717.847500", "150718.307500", "150718.767500", "150719.227500", "150719.687500", "150720.147500", "150720.607500", "150721.067500", "150721.527500", "150721.987500", "150722.447500", "150722.907500", "150723.367500", "150723.827500", "150724.287500", "150724.747500", "150725.207500", "150725.667500", "150726.127500", "150726.587500", "150727.047500", "150727.507500", "150727.967500", "150728.427500", "150728.887500", "150729.347500", "150729.807500", "150730.267500", "150730.727500", "150731.187500", "150731.647500", "150732.107500", "150732.567500", "150733.027500", "150733.487500", "150733.947500", "150734.407500", "150734.867500", "150735.327500", "150735.787500", "150736.247500", "150736.707500", "150737.167500", "150737.627500", "150738.087500", "150738.547500", "150739.007500", "150739.467500", "150739.927500", "150740.387500", "150740.847500", "150741.307500", "150741.767500", "150742.227500", "150742.687500", "150743.147500", "150743.607500", "150744.067500", "150744.527500", "150744.987500", "150745.447500", "150745.907500", "150746.367500", "150746.827500", "150747.287500", "150747.747500", "150748.207500", "150748.667500", "150749.127500", "150749.587500", "150750.047500", "150750.507500", "150750.967500", "150751.427500", "150751.887500", "150752.347500", "150752.807500", "150753.267500", "150753.727500", "150754.187500", "150754.647500", "150755.107500", "150755.567500", "150756.027500", "150756.487500", "150756.947500", "150757.407500", "150757.867500", "150758.327500", "150758.787500", "150759.247500", "150759.707500", "150800.167500", "150800.627500", "150801.087500", "150801.547500", "150802.007500", "150802.467500", "150802.927500", "150803.387500", "150803.847500", "150804.307500", "150804.767500", "150805.227500", "150805.687500", "150806.147500", "150806.607500", "150807.067500", "150807.527500", "150807.987500", "150808.447500", "150808.907500", "150809.367500", "150809.827500", "150810.287500", "150810.747500", "150811.207500", "150811.667500", "150812.127500", "150812.587500", "150813.047500", "150813.507500", "150813.967500", "150814.427500", "150814.887500", "150815.347500", "150815.807500", "150816.267500", "150816.727500", "150817.187500", "150817.647500", "150818.107500", "150818.567500", "150819.027500", "150819.487500", "150819.947500", "150820.407500", "150820.867500", "150821.327500", "150821.787500", "150822.247500", "150822.707500", "150823.167500", "150823.627500", "150824.087500", "150824.547500", "150825.007500", "150825.467500", "150825.927500", "150826.387500", "150826.847500", "150827.307500", "150827.767500", "150828.227500", "150828.687500", "150829.147500", "150829.607500", "150830.067500", "150830.527500", "150830.987500", "150831.447500", "150831.907500", "150832.367500", "150832.827500", "150833.287500", "150833.747500", "150834.207500", "150834.667500", "150835.127500", "150835.587500", "150836.047500", "150836.507500", "150836.967500", "150837.427500", "150837.887500", "150838.347500", "150838.807500", "150839.267500", "150839.727500", "150840.187500", "150840.647500", "150841.107500", "150841.567500", "150842.027500", "150842.487500", "150842.947500", "150843.407500", "150843.867500", "150844.327500", "150844.787500", "150845.247500", "150845.707500", "150846.167500", "150846.627500", "150847.087500", "150847.547500", "150848.007500", "150848.467500", "150848.927500", "150849.387500", "150849.847500", "150850.307500", "150850.767500", "150851.227500", "150851.687500", "150852.147500", "150852.607500", "150853.067500", "150853.527500", "150853.987500", "150854.447500", "150854.907500", "150855.367500", "150855.827500", "150856.287500", "150856.747500", "150857.207500", "150857.667500", "150858.127500", "150858.587500", "150859.047500", "150859.507500", "150859.967500", "150900.427500", "150900.887500", "150901.347500", "150901.807500", "150902.267500", "150902.727500", "150903.187500", "150903.647500", "150904.107500", "150904.567500", "150905.027500", "150905.487500", "150905.947500", "150906.407500", "150906.867500", "150907.327500", "150907.787500", "150908.247500", "150908.707500", "150909.167500", "150909.627500", "150910.087500", "150910.547500", "150911.007500", "150911.467500", "150911.927500", "150912.387500", "150912.847500", "150913.307500", "150913.767500", "150914.227500", "150914.687500", "150915.147500", "150915.607500", "150916.067500", "150916.527500", "150916.987500", "150917.447500", "150917.907500", "150918.367500", "150918.827500", "150919.287500", "150919.747500", "150920.207500", "150920.667500", "150921.127500", "150921.587500", "150922.047500", "150922.507500", "150922.967500", "150923.427500", "150923.887500", "150924.347500", "150924.807500", "150925.267500", "150925.727500", "150926.187500", "150926.647500", "150927.107500", "150927.567500", "150928.027500", "150928.487500", "150928.947500", "150929.407500", "150929.867500", "150930.327500", "150930.787500", "150931.247500", "150931.707500", "150932.167500", "150932.627500", "150933.087500", "150933.547500", "150934.007500", "150934.467500", "150934.927500", "150935.387500", "150935.847500", "150936.307500", "150936.767500", "150937.227500", "150937.687500", "150938.147500", "150938.607500", "150939.067500", "150939.527500", "150939.987500", "150940.447500", "150940.907500", "150941.367500", "150941.827500", "150942.287500", "150942.747500", "150943.207500", "150943.667500", "150944.127500", "150944.587500", "150945.047500", "150945.507500", "150945.967500", "150946.427500", "150946.887500", "150947.347500", "150947.807500", "150948.267500", "150948.727500", "150949.187500", "150949.647500", "150950.107500", "150950.567500", "150951.027500", "150951.487500", "150951.947500", "150952.407500", "150952.867500", "150953.327500", "150953.787500", "150954.247500", "150954.707500", "150955.167500", "150955.627500", "150956.087500", "150956.547500", "150957.007500", "150957.467500", "150957.927500", "150958.387500", "150958.847500", "150959.307500", "150959.767500", "151000.227500", "151000.687500", "151001.147500", "151001.607500", "151002.067500", "151002.527500", "151002.987500"],
