{
  "AcquisitionMatrixPE": 82,
  "AcquisitionNumber": 1,
  "AcquisitionTime": "17:33:34.605000",
  "BandwidthPerPixelPhaseEncode": 24.888,
  "BaseResolution": 82,
  "BodyPartExamined": "BRAIN",
  "ConsistencyInfo": "N4_VE11E_LATEST_20181129",
  "ConversionSoftware": "dcm2niix",
  "ConversionSoftwareVersion": "v1.0.20201102",
  "DerivedVendorReportedEchoSpacing": 0.00049,
  "DeviceSerialNumber": "66112",
  "DwellTime": 2e-06,
  "EchoTime": 0.0272,
  "EchoTrainLength": 82,
  "EffectiveEchoSpacing": 0.00049,
  "FlipAngle": 44,
  "ImageComments": "Unaliased MB8/PE3",
  "ImageOrientationPatientDICOM": [0.999093, 0.0364467, 0.0219999, -0.0369843, 0.999014, 0.0245453],
  "ImageType": [
    "ORIGINAL",
    "PRIMARY",
    "M",
    "MB",
    "ND",
    "NORM",
    "MOSAIC"
],
  "ImagingFrequency": 123.252,
  "InPlanePhaseEncodingDirectionDICOM": "COL",
  "InstitutionAddress": "Maynard 3,Hanover,NH,US,03755",
  "InstitutionName": "Dartmouth College - PBS",
  "InstitutionalDepartmentName": "Department",
  "MRAcquisitionType": "2D",
  "MagneticFieldStrength": 3,
  "Manufacturer": "Siemens",
  "ManufacturersModelName": "Prisma",
  "Modality": "MR",
  "MultibandAccelerationFactor": 8,
  "PartialFourier": 1,
  "PatientPosition": "HFS",
  "PercentPhaseFOV": 100,
  "PercentSampling": 100,
  "PhaseEncodingDirection": "j-",
  "PhaseEncodingSteps": 82,
  "PhaseResolution": 1,
  "PixelBandwidth": 3050,
  "ProcedureStepDescription": "Wager_Wager^1076_spacetop",
  "ProtocolName": "func_run-04_task-alignvideo_acq-ap-mb8",
  "PulseSequenceDetails": "%CustomerSeq%\\cmrr_mbep2d_bold",
  "ReceiveCoilActiveElements": "HEA;HEP",
  "ReceiveCoilName": "Head_32",
  "ReconMatrixPE": 82,
  "RepetitionTime": 0.46,
  "SAR": 0.123526,
  "ScanOptions": "FS",
  "ScanningSequence": "EP",
  "SequenceName": "epfid2d1_82",
  "SequenceVariant": "SK\\SS",
  "SeriesDescription": "func_run-04_task-alignvideo_acq-ap-mb8",
  "SeriesNumber": 34,
  "ShimSetting": [4155, -7778, -7191, 599, -49, -309, 153, 6],
  "SliceThickness": 2.7,
  "SliceTiming": [0, 0.25, 0.0625, 0.3125, 0.125, 0.3775, 0.1875, 0, 0.25, 0.0625, 0.3125, 0.125, 0.3775, 0.1875, 0, 0.25, 0.0625, 0.3125, 0.125, 0.3775, 0.1875, 0, 0.25, 0.0625, 0.3125, 0.125, 0.3775, 0.1875, 0, 0.25, 0.0625, 0.3125, 0.125, 0.3775, 0.1875, 0, 0.25, 0.0625, 0.3125, 0.125, 0.3775, 0.1875, 0, 0.25, 0.0625, 0.3125, 0.125, 0.3775, 0.1875, 0, 0.25, 0.0625, 0.3125, 0.125, 0.3775, 0.1875],
  "SoftwareVersions": "syngo MR E11",
  "SpacingBetweenSlices": 2.7,
  "StationName": "AWP66112",
  "TaskName": "alignvideo",
  "TotalReadoutTime": 0.03969,
  "TxRefAmp": 261.073,
  "WipMemBlock": "5b3aad44-3fa3-45ee-ac1a-7bab3b87906a||Sequence: R016 ve11e/master r/434b28f1; Aug  7 2019 18:53:46 by eja",
  "dcmmeta_affine": [
    [-2.680494546890259, -0.09922616928815842, 0.05692581832408905, 114.55065155029297],
    [-0.09778381884098053, 2.6802825927734375, 0.06840918958187103, -87.7139663696289],
    [0.05902417004108429, -0.06585334986448288, 2.698532819747925, -55.12203598022461],
    [0.0, 0.0, 0.0, 1.0]
],
  "dcmmeta_reorient_transform": [
    [0.0, -1.0, 0.0, 81.0],
    [1.0, 0.0, 0.0, 0.0],
    [0.0, 0.0, 1.0, 0.0],
    [0.0, 0.0, 0.0, 1.0]
],
  "dcmmeta_shape": [82, 82, 56, 914],
  "dcmmeta_slice_dim": 2,
  "dcmmeta_version": 0.6,
  "global": {
    "const": {
      "AccessionNumber": "A004187",
      "AcquisitionMatrix": [82, 0, 0, 82],
      "AngioFlag": "N",
      "BitsAllocated": 16,
      "BitsStored": 16,
      "BodyPartExamined": "BRAIN",
      "Columns": 656,
      "EchoNumbers": 1,
      "EchoTime": 27.2,
      "EchoTrainLength": 82,
      "FlipAngle": 44.0,
      "HighBit": 15,
      "ImageOrientationPatient": [0.9990934100189, 0.03644669657443, 0.0219999174003, -0.03698429821, 0.99901435826945, 0.02454533881189],
      "ImagePositionPatient": [-847.33736890091, -926.69394922146, -96.296004269218],
      "ImageType": [
        "ORIGINAL",
        "PRIMARY",
        "M",
        "MB",
        "ND",
        "NORM",
        "MOSAIC"
],
      "ImagedNucleus": "1H",
      "ImagingFrequency": 123.25217,
      "InPlanePhaseEncodingDirection": "COL",
      "MRAcquisitionType": "2D",
      "MagneticFieldStrength": 3.0,
      "Manufacturer": "SIEMENS",
      "ManufacturerModelName": "Prisma",
      "Modality": "MR",
      "NumberOfAverages": 1.0,
      "NumberOfPhaseEncodingSteps": 82,
      "PercentPhaseFieldOfView": 100.0,
      "PercentSampling": 100.0,
      "PerformedProcedureStepStartTime": "154622.304000",
      "PhotometricInterpretation": "MONOCHROME2",
      "PixelBandwidth": 3050.0,
      "PixelRepresentation": 0,
      "PixelSpacing": [2.6829268932343, 2.6829268932343],
      "ProtocolName": "func_run-04_task-alignvideo_acq-ap-mb8",
      "RepetitionTime": 460.0,
      "Rows": 656,
      "SAR": 0.12352619994582,
      "SamplesPerPixel": 1,
      "ScanOptions": "FS",
      "ScanningSequence": "EP",
      "SequenceName": "epfid2d1_82",
      "SequenceVariant": [
        "SK",
        "SS"
],
      "SeriesDescription": "func_run-04_task-alignvideo_acq-ap-mb8",
      "SeriesNumber": 34,
      "SeriesTime": "173347.585000",
      "SliceLocation": -54.899323743855,
      "SliceThickness": 2.7000000476837,
      "SmallestImagePixelValue": 0,
      "SoftwareVersions": "syngo MR E11",
      "SpacingBetweenSlices": 2.700000000111,
      "SpecificCharacterSet": "ISO_IR 100",
      "StudyID": "1",
      "StudyTime": "154622.192000",
      "TransmitCoilName": "Body",
      "VariableFlipAngleFlag": "N",
      "WindowCenterWidthExplanation": "Algo1"
    },
    "slices": {}
  },
  "time": {
    "samples": {
      "AcquisitionNumber": [1, 2, 3, 4, 5, 6, 7, 8, 9, 10, 11, 12, 13, 14, 15, 16, 17, 18, 19, 20, 21, 22, 23, 24, 25, 26, 27, 28, 29, 30, 31, 32, 33, 34, 35, 36, 37, 38, 39, 40, 41, 42, 43, 44, 45, 46, 47, 48, 49, 50, 51, 52, 53, 54, 55, 56, 57, 58, 59, 60, 61, 62, 63, 64, 65, 66, 67, 68, 69, 70, 71, 72, 73, 74, 75, 76, 77, 78, 79, 80, 81, 82, 83, 84, 85, 86, 87, 88, 89, 90, 91, 92, 93, 94, 95, 96, 97, 98, 99, 100, 101, 102, 103, 104, 105, 106, 107, 108, 109, 110, 111, 112, 113, 114, 115, 116, 117, 118, 119, 120, 121, 122, 123, 124, 125, 126, 127, 128, 129, 130, 131, 132, 133, 134, 135, 136, 137, 138, 139, 140, 141, 142, 143, 144, 145, 146, 147, 148, 149, 150, 151, 152, 153, 154, 155, 156, 157, 158, 159, 160, 161, 162, 163, 164, 165, 166, 167, 168, 169, 170, 171, 172, 173, 174, 175, 176, 177, 178, 179, 180, 181, 182, 183, 184, 185, 186, 187, 188, 189, 190, 191, 192, 193, 194, 195, 196, 197, 198, 199, 200, 201, 202, 203, 204, 205, 206, 207, 208, 209, 210, 211, 212, 213, 214, 215, 216, 217, 218, 219, 220, 221, 222, 223, 224, 225, 226, 227, 228, 229, 230, 231, 232, 233, 234, 235, 236, 237, 238, 239, 240, 241, 242, 243, 244, 245, 246, 247, 248, 249, 250, 251, 252, 253, 254, 255, 256, 257, 258, 259, 260, 261, 262, 263, 264, 265, 266, 267, 268, 269, 270, 271, 272, 273, 274, 275, 276, 277, 278, 279, 280, 281, 282, 283, 284, 285, 286, 287, 288, 289, 290, 291, 292, 293, 294, 295, 296, 297, 298, 299, 300, 301, 302, 303, 304, 305, 306, 307, 308, 309, 310, 311, 312, 313, 314, 315, 316, 317, 318, 319, 320, 321, 322, 323, 324, 325, 326, 327, 328, 329, 330, 331, 332, 333, 334, 335, 336, 337, 338, 339, 340, 341, 342, 343, 344, 345, 346, 347, 348, 349, 350, 351, 352, 353, 354, 355, 356, 357, 358, 359, 360, 361, 362, 363, 364, 365, 366, 367, 368, 369, 370, 371, 372, 373, 374, 375, 376, 377, 378, 379, 380, 381, 382, 383, 384, 385, 386, 387, 388, 389, 390, 391, 392, 393, 394, 395, 396, 397, 398, 399, 400, 401, 402, 403, 404, 405, 406, 407, 408, 409, 410, 411, 412, 413, 414, 415, 416, 417, 418, 419, 420, 421, 422, 423, 424, 425, 426, 427, 428, 429, 430, 431, 432, 433, 434, 435, 436, 437, 438, 439, 440, 441, 442, 443, 444, 445, 446, 447, 448, 449, 450, 451, 452, 453, 454, 455, 456, 457, 458, 459, 460, 461, 462, 463, 464, 465, 466, 467, 468, 469, 470, 471, 472, 473, 474, 475, 476, 477, 478, 479, 480, 481, 482, 483, 484, 485, 486, 487, 488, 489, 490, 491, 492, 493, 494, 495, 496, 497, 498, 499, 500, 501, 502, 503, 504, 505, 506, 507, 508, 509, 510, 511, 512, 513, 514, 515, 516, 517, 518, 519, 520, 521, 522, 523, 524, 525, 526, 527, 528, 529, 530, 531, 532, 533, 534, 535, 536, 537, 538, 539, 540, 541, 542, 543, 544, 545, 546, 547, 548, 549, 550, 551, 552, 553, 554, 555, 556, 557, 558, 559, 560, 561, 562, 563, 564, 565, 566, 567, 568, 569, 570, 571, 572, 573, 574, 575, 576, 577, 578, 579, 580, 581, 582, 583, 584, 585, 586, 587, 588, 589, 590, 591, 592, 593, 594, 595, 596, 597, 598, 599, 600, 601, 602, 603, 604, 605, 606, 607, 608, 609, 610, 611, 612, 613, 614, 615, 616, 617, 618, 619, 620, 621, 622, 623, 624, 625, 626, 627, 628, 629, 630, 631, 632, 633, 634, 635, 636, 637, 638, 639, 640, 641, 642, 643, 644, 645, 646, 647, 648, 649, 650, 651, 652, 653, 654, 655, 656, 657, 658, 659, 660, 661, 662, 663, 664, 665, 666, 667, 668, 669, 670, 671, 672, 673, 674, 675, 676, 677, 678, 679, 680, 681, 682, 683, 684, 685, 686, 687, 688, 689, 690, 691, 692, 693, 694, 695, 696, 697, 698, 699, 700, 701, 702, 703, 704, 705, 706, 707, 708, 709, 710, 711, 712, 713, 714, 715, 716, 717, 718, 719, 720, 721, 722, 723, 724, 725, 726, 727, 728, 729, 730, 731, 732, 733, 734, 735, 736, 737, 738, 739, 740, 741, 742, 743, 744, 745, 746, 747, 748, 749, 750, 751, 752, 753, 754, 755, 756, 757, 758, 759, 760, 761, 762, 763, 764, 765, 766, 767, 768, 769, 770, 771, 772, 773, 774, 775, 776, 777, 778, 779, 780, 781, 782, 783, 784, 785, 786, 787, 788, 789, 790, 791, 792, 793, 794, 795, 796, 797, 798, 799, 800, 801, 802, 803, 804, 805, 806, 807, 808, 809, 810, 811, 812, 813, 814, 815, 816, 817, 818, 819, 820, 821, 822, 823, 824, 825, 826, 827, 828, 829, 830, 831, 832, 833, 834, 835, 836, 837, 838, 839, 840, 841, 842, 843, 844, 845, 846, 847, 848, 849, 850, 851, 852, 853, 854, 855, 856, 857, 858, 859, 860, 861, 862, 863, 864, 865, 866, 867, 868, 869, 870, 871, 872, 873, 874, 875, 876, 877, 878, 879, 880, 881, 882, 883, 884, 885, 886, 887, 888, 889, 890, 891, 892, 893, 894, 895, 896, 897, 898, 899, 900, 901, 902, 903, 904, 905, 906, 907, 908, 909, 910, 911, 912, 913, 914],
      "AcquisitionTime": ["173334.605000", "173335.065000", "173335.525000", "173335.985000", "173336.445000", "173336.905000", "173337.365000", "173337.825000", "173338.285000", "173338.745000", "173339.205000", "173339.665000", "173340.125000", "173340.585000", "173341.045000", "173341.505000", "173341.965000", "173342.425000", "173342.885000", "173343.345000", "173343.805000", "173344.265000", "173344.725000", "173345.185000", "173345.645000", "173346.105000", "173346.565000", "173347.025000", "173347.485000", "173347.945000", "173348.405000", "173348.865000", "173349.325000", "173349.785000", "173350.245000", "173350.705000", "173351.165000", "173351.625000", "173352.085000", "173352.545000", "173353.005000", "173353.465000", "173353.925000", "173354.385000", "173354.845000", "173355.305000", "173355.765000", "173356.225000", "173356.685000", "173357.145000", "173357.605000", "173358.065000", "173358.525000", "173358.985000", "173359.445000", "173359.905000", "173400.365000", "173400.825000", "173401.285000", "173401.745000", "173402.205000", "173402.665000", "173403.125000", "173403.585000", "173404.045000", "173404.505000", "173404.965000", "173405.425000", "173405.885000", "173406.345000", "173406.805000", "173407.265000", "173407.725000", "173408.185000", "173408.645000", "173409.105000", "173409.565000", "173410.025000", "173410.485000", "173410.945000", "173411.405000", "173411.865000", "173412.325000", "173412.785000", "173413.245000", "173413.705000", "173414.165000", "173414.625000", "173415.085000", "173415.545000", "173416.005000", "173416.465000", "173416.925000", "173417.385000", "173417.845000", "173418.305000", "173418.765000", "173419.225000", "173419.685000", "173420.145000", "173420.605000", "173421.065000", "173421.525000", "173421.985000", "173422.445000", "173422.905000", "173423.365000", "173423.825000", "173424.285000", "173424.745000", "173425.205000", "173425.665000", "173426.125000", "173426.585000", "173427.045000", "173427.505000", "173427.965000", "173428.425000", "173428.885000", "173429.345000", "173429.805000", "173430.265000", "173430.725000", "173431.185000", "173431.645000", "173432.105000", "173432.565000", "173433.025000", "173433.485000", "173433.945000", "173434.405000", "173434.865000", "173435.325000", "173435.785000", "173436.245000", "173436.705000", "173437.165000", "173437.625000", "173438.085000", "173438.545000", "173439.005000", "173439.465000", "173439.925000", "173440.385000", "173440.845000", "173441.305000", "173441.765000", "173442.225000", "173442.685000", "173443.145000", "173443.605000", "173444.065000", "173444.525000", "173444.985000", "173445.445000", "173445.905000", "173446.365000", "173446.825000", "173447.285000", "173447.745000", "173448.205000", "173448.665000", "173449.125000", "173449.585000", "173450.045000", "173450.505000", "173450.965000", "173451.425000", "173451.885000", "173452.345000", "173452.805000", "173453.265000", "173453.725000", "173454.185000", "173454.645000", "173455.105000", "173455.565000", "173456.025000", "173456.485000", "173456.945000", "173457.405000", "173457.865000", "173458.325000", "173458.785000", "173459.245000", "173459.705000", "173500.165000", "173500.625000", "173501.085000", "173501.545000", "173502.005000", "173502.465000", "173502.925000", "173503.385000", "173503.845000", "173504.305000", "173504.765000", "173505.225000", "173505.685000", "173506.145000", "173506.605000", "173507.065000", "173507.525000", "173507.985000", "173508.445000", "173508.905000", "173509.365000", "173509.825000", "173510.285000", "173510.745000", "173511.205000", "173511.665000", "173512.125000", "173512.585000", "173513.045000", "173513.505000", "173513.965000", "173514.425000", "173514.885000", "173515.345000", "173515.805000", "173516.265000", "173516.725000", "173517.185000", "173517.645000", "173518.105000", "173518.565000", "173519.025000", "173519.485000", "173519.945000", "173520.405000", "173520.865000", "173521.325000", "173521.785000", "173522.245000", "173522.705000", "173523.165000", "173523.625000", "173524.085000", "173524.545000", "173525.005000", "173525.465000", "173525.925000", "173526.385000", "173526.845000", "173527.305000", "173527.765000", "173528.225000", "173528.685000", "173529.145000", "173529.605000", "173530.065000", "173530.525000", "173530.985000", "173531.445000", "173531.905000", "173532.365000", "173532.825000", "173533.285000", "173533.745000", "173534.205000", "173534.665000", "173535.125000", "173535.585000", "173536.045000", "173536.505000", "173536.965000", "173537.425000", "173537.885000", "173538.345000", "173538.805000", "173539.265000", "173539.725000", "173540.185000", "173540.645000", "173541.105000", "173541.565000", "173542.025000", "173542.485000", "173542.945000", "173543.405000", "173543.865000", "173544.325000", "173544.785000", "173545.245000", "173545.705000", "173546.165000", "173546.625000", "173547.085000", "173547.545000", "173548.005000", "173548.465000", "173548.925000", "173549.385000", "173549.845000", "173550.305000", "173550.765000", "173551.225000", "173551.685000", "173552.145000", "173552.605000", "173553.065000", "173553.525000", "173553.985000", "173554.445000", "173554.905000", "173555.365000", "173555.825000", "173556.285000", "173556.745000", "173557.205000", "173557.665000", "173558.125000", "173558.585000", "173559.045000", "173559.505000", "173559.965000", "173600.425000", "173600.885000", "173601.345000", "173601.805000", "173602.265000", "173602.725000", "173603.185000", "173603.645000", "173604.105000", "173604.565000", "173605.025000", "173605.485000", "173605.945000", "173606.405000", "173606.865000", "173607.325000", "173607.785000", "173608.245000", "173608.705000", "173609.165000", "173609.625000", "173610.085000", "173610.545000", "173611.005000", "173611.465000", "173611.925000", "173612.385000", "173612.845000", "173613.305000", "173613.765000", "173614.225000", "173614.685000", "173615.145000", "173615.605000", "173616.065000", "173616.525000", "173616.985000", "173617.445000", "173617.905000", "173618.365000", "173618.825000", "173619.285000", "173619.745000", "173620.205000", "173620.665000", "173621.125000", "173621.585000", "173622.045000", "173622.505000", "173622.965000", "173623.425000", "173623.885000", "173624.345000", "173624.805000", "173625.265000", "173625.725000", "173626.185000", "173626.645000", "173627.105000", "173627.565000", "173628.025000", "173628.485000", "173628.945000", "173629.405000", "173629.865000", "173630.325000", "173630.785000", "173631.245000", "173631.705000", "173632.165000", "173632.625000", "173633.085000", "173633.545000", "173634.005000", "173634.465000", "173634.925000", "173635.385000", "173635.845000", "173636.305000", "173636.765000", "173637.225000", "173637.685000", "173638.145000", "173638.605000", "173639.065000", "173639.525000", "173639.985000", "173640.445000", "173640.905000", "173641.365000", "173641.825000", "173642.285000", "173642.745000", "173643.205000", "173643.665000", "173644.125000", "173644.585000", "173645.045000", "173645.505000", "173645.965000", "173646.425000", "173646.885000", "173647.345000", "173647.805000", "173648.265000", "173648.725000", "173649.185000", "173649.645000", "173650.105000", "173650.565000", "173651.025000", "173651.485000", "173651.945000", "173652.405000", "173652.865000", "173653.325000", "173653.785000", "173654.245000", "173654.705000", "173655.165000", "173655.625000", "173656.085000", "173656.545000", "173657.005000", "173657.465000", "173657.925000", "173658.385000", "173658.845000", "173659.305000", "173659.765000", "173700.225000", "173700.685000", "173701.145000", "173701.605000", "173702.065000", "173702.525000", "173702.985000", "173703.445000", "173703.905000", "173704.365000", "173704.825000", "173705.285000", "173705.745000", "173706.205000", "173706.665000", "173707.125000", "173707.585000", "173708.045000", "173708.505000", "173708.965000", "173709.425000", "173709.885000", "173710.345000", "173710.805000", "173711.265000", "173711.725000", "173712.185000", "173712.645000", "173713.105000", "173713.565000", "173714.025000", "173714.485000", "173714.945000", "173715.405000", "173715.865000", "173716.325000", "173716.785000", "173717.245000", "173717.705000", "173718.165000", "173718.625000", "173719.085000", "173719.545000", "173720.005000", "173720.465000", "173720.925000", "173721.385000", "173721.845000", "173722.305000", "173722.765000", "173723.225000", "173723.685000", "173724.145000", "173724.605000", "173725.065000", "173725.525000", "173725.985000", "173726.445000", "173726.905000", "173727.365000", "173727.825000", "173728.285000", "173728.745000", "173729.205000", "173729.665000", "173730.125000", "173730.585000", "173731.045000", "173731.505000", "173731.965000", "173732.425000", "173732.885000", "173733.345000", "173733.805000", "173734.265000", "173734.725000", "173735.185000", "173735.645000", "173736.105000", "173736.565000", "173737.025000", "173737.485000", "173737.945000", "173738.405000", "173738.865000", "173739.325000", "173739.785000", "173740.245000", "173740.705000", "173741.165000", "173741.625000", "173742.085000", "173742.545000", "173743.005000", "173743.465000", "173743.925000", "173744.385000", "173744.845000", "173745.305000", "173745.765000", "173746.225000", "173746.685000", "173747.145000", "173747.605000", "173748.065000", "173748.525000", "173748.985000", "173749.445000", "173749.905000", "173750.365000", "173750.825000", "173751.285000", "173751.745000", "173752.205000", "173752.665000", "173753.125000", "173753.585000", "173754.045000", "173754.505000", "173754.965000", "173755.425000", "173755.885000", "173756.345000", "173756.805000", "173757.265000", "173757.725000", "173758.185000", "173758.645000", "173759.105000", "173759.565000", "173800.025000", "173800.485000", "173800.945000", "173801.405000", "173801.865000", "173802.325000", "173802.785000", "173803.245000", "173803.705000", "173804.165000", "173804.625000", "173805.085000", "173805.545000", "173806.005000", "173806.465000", "173806.925000", "173807.385000", "173807.845000", "173808.305000", "173808.765000", "173809.225000", "173809.685000", "173810.145000", "173810.605000", "173811.065000", "173811.525000", "173811.985000", "173812.445000", "173812.905000", "173813.365000", "173813.825000", "173814.285000", "173814.745000", "173815.205000", "173815.665000", "173816.125000", "173816.585000", "173817.045000", "173817.505000", "173817.965000", "173818.425000", "173818.885000", "173819.345000", "173819.805000", "173820.265000", "173820.725000", "173821.185000", "173821.645000", "173822.105000", "173822.565000", "173823.025000", "173823.485000", "173823.945000", "173824.405000", "173824.865000", "173825.325000", "173825.785000", "173826.245000", "173826.705000", "173827.165000", "173827.625000", "173828.085000", "173828.545000", "173829.005000", "173829.465000", "173829.925000", "173830.385000", "173830.845000", "173831.305000", "173831.765000", "173832.225000", "173832.685000", "173833.145000", "173833.605000", "173834.065000", "173834.525000", "173834.985000", "173835.445000", "173835.905000", "173836.365000", "173836.825000", "173837.285000", "173837.745000", "173838.205000", "173838.665000", "173839.125000", "173839.585000", "173840.045000", "173840.505000", "173840.965000", "173841.425000", "173841.885000", "173842.345000", "173842.805000", "173843.265000", "173843.725000", "173844.185000", "173844.645000", "173845.105000", "173845.565000", "173846.025000", "173846.485000", "173846.945000", "173847.405000", "173847.865000", "173848.325000", "173848.785000", "173849.245000", "173849.705000", "173850.165000", "173850.625000", "173851.085000", "173851.545000", "173852.005000", "173852.465000", "173852.925000", "173853.385000", "173853.845000", "173854.305000", "173854.765000", "173855.225000", "173855.685000", "173856.145000", "173856.605000", "173857.065000", "173857.525000", "173857.985000", "173858.445000", "173858.905000", "173859.365000", "173859.825000", "173900.285000", "173900.745000", "173901.205000", "173901.665000", "173902.125000", "173902.585000", "173903.045000", "173903.505000", "173903.965000", "173904.425000", "173904.885000", "173905.345000", "173905.805000", "173906.265000", "173906.725000", "173907.185000", "173907.645000", "173908.105000", "173908.565000", "173909.025000", "173909.485000", "173909.945000", "173910.405000", "173910.865000", "173911.325000", "173911.785000", "173912.245000", "173912.705000", "173913.165000", "173913.625000", "173914.085000", "173914.545000", "173915.005000", "173915.465000", "173915.925000", "173916.385000", "173916.845000", "173917.305000", "173917.765000", "173918.225000", "173918.685000", "173919.145000", "173919.605000", "173920.065000", "173920.525000", "173920.985000", "173921.445000", "173921.905000", "173922.365000", "173922.825000", "173923.285000", "173923.745000", "173924.205000", "173924.665000", "173925.125000", "173925.585000", "173926.045000", "173926.505000", "173926.965000", "173927.425000", "173927.885000", "173928.345000", "173928.805000", "173929.265000", "173929.725000", "173930.185000", "173930.645000", "173931.105000", "173931.565000", "173932.025000", "173932.485000", "173932.945000", "173933.405000", "173933.865000", "173934.325000", "173934.785000", "173935.245000", "173935.705000", "173936.165000", "173936.625000", "173937.085000", "173937.545000", "173938.005000", "173938.465000", "173938.925000", "173939.385000", "173939.845000", "173940.305000", "173940.765000", "173941.225000", "173941.685000", "173942.145000", "173942.605000", "173943.065000", "173943.525000", "173943.985000", "173944.445000", "173944.905000", "173945.365000", "173945.825000", "173946.285000", "173946.745000", "173947.205000", "173947.665000", "173948.125000", "173948.585000", "173949.045000", "173949.505000", "173949.965000", "173950.425000", "173950.885000", "173951.345000", "173951.805000", "173952.265000", "173952.725000", "173953.185000", "173953.645000", "173954.105000", "173954.565000", "173955.025000", "173955.485000", "173955.945000", "173956.405000", "173956.865000", "173957.325000", "173957.785000", "173958.245000", "173958.705000", "173959.165000", "173959.625000", "174000.085000", "174000.545000", "174001.005000", "174001.465000", "174001.925000", "174002.385000", "174002.845000", "174003.305000", "174003.765000", "174004.225000", "174004.685000", "174005.145000", "174005.605000", "174006.065000", "174006.525000", "174006.985000", "174007.445000", "174007.905000", "174008.365000", "174008.825000", "174009.285000", "174009.745000", "174010.205000", "174010.665000", "174011.125000", "174011.585000", "174012.045000", "174012.505000", "174012.965000", "174013.425000", "174013.885000", "174014.345000", "174014.805000", "174015.265000", "174015.725000", "174016.185000", "174016.645000", "174017.105000", "174017.565000", "174018.025000", "174018.485000", "174018.945000", "174019.405000", "174019.865000", "174020.325000", "174020.785000", "174021.245000", "174021.705000", "174022.165000", "174022.625000", "174023.085000", "174023.545000", "174024.005000", "174024.465000", "174024.925000", "174025.385000", "174025.845000", "174026.305000", "174026.765000", "174027.225000", "174027.685000", "174028.145000", "174028.605000", "174029.065000", "174029.525000", "174029.985000", "174030.445000", "174030.905000", "174031.365000", "174031.825000", "174032.285000", "174032.745000", "174033.205000", "174033.665000", "174034.125000", "174034.585000"],
