{
  "AcquisitionMatrixPE": 82,
  "AcquisitionNumber": 1,
  "AcquisitionTime": "16:01:42.137500",
  "BandwidthPerPixelPhaseEncode": 24.888,
  "BaseResolution": 82,
  "BodyPartExamined": "BRAIN",
  "ConsistencyInfo": "N4_VE11E_LATEST_20181129",
  "ConversionSoftware": "dcm2niix",
  "ConversionSoftwareVersion": "v1.0.20201102",
  "DerivedVendorReportedEchoSpacing": 0.00049,
  "DeviceSerialNumber": "66112",
  "DwellTime": 2e-06,
  "EchoTime": 0.0272,
  "EchoTrainLength": 82,
  "EffectiveEchoSpacing": 0.00049,
  "FlipAngle": 44,
  "ImageComments": "Unaliased MB8/PE3",
  "ImageOrientationPatientDICOM": [0.998831, 0.0445539, 0.0187751, -0.045706, 0.996758, 0.0662088],
  "ImageType": [
    "ORIGINAL",
    "PRIMARY",
    "M",
    "MB",
    "ND",
    "NORM",
    "MOSAIC"
],
  "ImagingFrequency": 123.252,
  "InPlanePhaseEncodingDirectionDICOM": "COL",
  "InstitutionAddress": "Maynard 3,Hanover,NH,US,03755",
  "InstitutionName": "Dartmouth College - PBS",
  "InstitutionalDepartmentName": "Department",
  "MRAcquisitionType": "2D",
  "MagneticFieldStrength": 3,
  "Manufacturer": "Siemens",
  "ManufacturersModelName": "Prisma",
  "Modality": "MR",
  "MultibandAccelerationFactor": 8,
  "PartialFourier": 1,
  "PatientPosition": "HFS",
  "PercentPhaseFOV": 100,
  "PercentSampling": 100,
  "PhaseEncodingDirection": "j-",
  "PhaseEncodingSteps": 82,
  "PhaseResolution": 1,
  "PixelBandwidth": 3050,
  "ProcedureStepDescription": "Wager_Wager^1076_spacetop",
  "ProtocolName": "func_run-01_task-narratives_acq-ap-mb8",
  "PulseSequenceDetails": "%CustomerSeq%\\cmrr_mbep2d_bold",
  "ReceiveCoilActiveElements": "HEA;HEP",
  "ReceiveCoilName": "Head_32",
  "ReconMatrixPE": 82,
  "RepetitionTime": 0.46,
  "SAR": 0.123566,
  "ScanOptions": "FS",
  "ScanningSequence": "EP",
  "SequenceName": "epfid2d1_82",
  "SequenceVariant": "SK\\SS",
  "SeriesDescription": "func_run-01_task-narratives_acq-ap-mb8",
  "SeriesNumber": 8,
  "ShimSetting": [4157, -7775, -7191, 601, -41, -299, 153, 2],
  "SliceThickness": 2.7,
  "SliceTiming": [0, 0.2525, 0.0625, 0.315, 0.125, 0.3775, 0.1875, 0, 0.2525, 0.0625, 0.315, 0.125, 0.3775, 0.1875, 0, 0.2525, 0.0625, 0.315, 0.125, 0.3775, 0.1875, 0, 0.2525, 0.0625, 0.315, 0.125, 0.3775, 0.1875, 0, 0.2525, 0.0625, 0.315, 0.125, 0.3775, 0.1875, 0, 0.2525, 0.0625, 0.315, 0.125, 0.3775, 0.1875, 0, 0.2525, 0.0625, 0.315, 0.125, 0.3775, 0.1875, 0, 0.2525, 0.0625, 0.315, 0.125, 0.3775, 0.1875],
  "SoftwareVersions": "syngo MR E11",
  "SpacingBetweenSlices": 2.7,
  "StationName": "AWP66112",
  "TaskName": "narratives",
  "TotalReadoutTime": 0.03969,
  "TxRefAmp": 261.073,
  "WipMemBlock": "ca501fce-7b63-4808-9faa-57fe0c76a040||Sequence: R016 ve11e/master r/434b28f1; Aug  7 2019 18:53:46 by eja",
  "dcmmeta_affine": [
    [-2.6797893047332764, -0.12262590229511261, 0.042563822120428085, 115.64253997802734],
    [-0.11953488737344742, 2.674229860305786, 0.18087172508239746, -88.33206939697266],
    [0.05037222430109978, -0.17763341963291168, 2.693598747253418, -48.42288589477539],
    [0.0, 0.0, 0.0, 1.0]
],
  "dcmmeta_reorient_transform": [
    [0.0, -1.0, 0.0, 81.0],
    [1.0, 0.0, 0.0, 0.0],
    [0.0, 0.0, 1.0, 0.0],
    [0.0, 0.0, 0.0, 1.0]
],
  "dcmmeta_shape": [82, 82, 56, 967],
  "dcmmeta_slice_dim": 2,
  "dcmmeta_version": 0.6,
  "global": {
    "const": {
      "AccessionNumber": "A004187",
      "AcquisitionMatrix": [82, 0, 0, 82],
      "AngioFlag": "N",
      "BitsAllocated": 16,
      "BitsStored": 16,
      "BodyPartExamined": "BRAIN",
      "Columns": 656,
      "EchoNumbers": 1,
      "EchoTime": 27.2,
      "EchoTrainLength": 82,
      "FlipAngle": 44.0,
      "HighBit": 15,
      "ImageOrientationPatient": [0.99883053839415, 0.04455391272133, 0.01877510139712, -0.0457060164554, 0.99675842232599, 0.06620881800778],
      "ImagePositionPatient": [-839.61574092071, -930.09107320719, -128.24881396359],
      "ImageType": [
        "ORIGINAL",
        "PRIMARY",
        "M",
        "MB",
        "ND",
        "NORM",
        "MOSAIC"
],
      "ImagedNucleus": "1H",
      "ImagingFrequency": 123.252151,
      "InPlanePhaseEncodingDirection": "COL",
      "MRAcquisitionType": "2D",
      "MagneticFieldStrength": 3.0,
      "Manufacturer": "SIEMENS",
      "ManufacturerModelName": "Prisma",
      "Modality": "MR",
      "NumberOfAverages": 1.0,
      "NumberOfPhaseEncodingSteps": 82,
      "PercentPhaseFieldOfView": 100.0,
      "PercentSampling": 100.0,
      "PerformedProcedureStepStartTime": "154622.304000",
      "PhotometricInterpretation": "MONOCHROME2",
      "PixelBandwidth": 3050.0,
      "PixelRepresentation": 0,
      "PixelSpacing": [2.6829268932343, 2.6829268932343],
      "ProtocolName": "func_run-01_task-narratives_acq-ap-mb8",
      "RepetitionTime": 460.0,
      "Rows": 656,
      "SAR": 0.12356637296354,
      "SamplesPerPixel": 1,
      "ScanOptions": "FS",
      "ScanningSequence": "EP",
      "SequenceName": "epfid2d1_82",
      "SequenceVariant": [
        "SK",
        "SS"
],
      "SeriesDescription": "func_run-01_task-narratives_acq-ap-mb8",
      "SeriesNumber": 8,
      "SeriesTime": "160207.487000",
      "SliceLocation": -52.402374098879,
      "SliceThickness": 2.7000000476837,
      "SmallestImagePixelValue": 0,
      "SoftwareVersions": "syngo MR E11",
      "SpacingBetweenSlices": 2.7000000696666,
      "SpecificCharacterSet": "ISO_IR 100",
      "StudyID": "1",
      "StudyTime": "154622.192000",
      "TransmitCoilName": "Body",
      "VariableFlipAngleFlag": "N",
      "WindowCenterWidthExplanation": "Algo1"
    },
    "slices": {}
  },
  "time": {
    "samples": {
      "AcquisitionNumber": [1, 2, 3, 4, 5, 6, 7, 8, 9, 10, 11, 12, 13, 14, 15, 16, 17, 18, 19, 20, 21, 22, 23, 24, 25, 26, 27, 28, 29, 30, 31, 32, 33, 34, 35, 36, 37, 38, 39, 40, 41, 42, 43, 44, 45, 46, 47, 48, 49, 50, 51, 52, 53, 54, 55, 56, 57, 58, 59, 60, 61, 62, 63, 64, 65, 66, 67, 68, 69, 70, 71, 72, 73, 74, 75, 76, 77, 78, 79, 80, 81, 82, 83, 84, 85, 86, 87, 88, 89, 90, 91, 92, 93, 94, 95, 96, 97, 98, 99, 100, 101, 102, 103, 104, 105, 106, 107, 108, 109, 110, 111, 112, 113, 114, 115, 116, 117, 118, 119, 120, 121, 122, 123, 124, 125, 126, 127, 128, 129, 130, 131, 132, 133, 134, 135, 136, 137, 138, 139, 140, 141, 142, 143, 144, 145, 146, 147, 148, 149, 150, 151, 152, 153, 154, 155, 156, 157, 158, 159, 160, 161, 162, 163, 164, 165, 166, 167, 168, 169, 170, 171, 172, 173, 174, 175, 176, 177, 178, 179, 180, 181, 182, 183, 184, 185, 186, 187, 188, 189, 190, 191, 192, 193, 194, 195, 196, 197, 198, 199, 200, 201, 202, 203, 204, 205, 206, 207, 208, 209, 210, 211, 212, 213, 214, 215, 216, 217, 218, 219, 220, 221, 222, 223, 224, 225, 226, 227, 228, 229, 230, 231, 232, 233, 234, 235, 236, 237, 238, 239, 240, 241, 242, 243, 244, 245, 246, 247, 248, 249, 250, 251, 252, 253, 254, 255, 256, 257, 258, 259, 260, 261, 262, 263, 264, 265, 266, 267, 268, 269, 270, 271, 272, 273, 274, 275, 276, 277, 278, 279, 280, 281, 282, 283, 284, 285, 286, 287, 288, 289, 290, 291, 292, 293, 294, 295, 296, 297, 298, 299, 300, 301, 302, 303, 304, 305, 306, 307, 308, 309, 310, 311, 312, 313, 314, 315, 316, 317, 318, 319, 320, 321, 322, 323, 324, 325, 326, 327, 328, 329, 330, 331, 332, 333, 334, 335, 336, 337, 338, 339, 340, 341, 342, 343, 344, 345, 346, 347, 348, 349, 350, 351, 352, 353, 354, 355, 356, 357, 358, 359, 360, 361, 362, 363, 364, 365, 366, 367, 368, 369, 370, 371, 372, 373, 374, 375, 376, 377, 378, 379, 380, 381, 382, 383, 384, 385, 386, 387, 388, 389, 390, 391, 392, 393, 394, 395, 396, 397, 398, 399, 400, 401, 402, 403, 404, 405, 406, 407, 408, 409, 410, 411, 412, 413, 414, 415, 416, 417, 418, 419, 420, 421, 422, 423, 424, 425, 426, 427, 428, 429, 430, 431, 432, 433, 434, 435, 436, 437, 438, 439, 440, 441, 442, 443, 444, 445, 446, 447, 448, 449, 450, 451, 452, 453, 454, 455, 456, 457, 458, 459, 460, 461, 462, 463, 464, 465, 466, 467, 468, 469, 470, 471, 472, 473, 474, 475, 476, 477, 478, 479, 480, 481, 482, 483, 484, 485, 486, 487, 488, 489, 490, 491, 492, 493, 494, 495, 496, 497, 498, 499, 500, 501, 502, 503, 504, 505, 506, 507, 508, 509, 510, 511, 512, 513, 514, 515, 516, 517, 518, 519, 520, 521, 522, 523, 524, 525, 526, 527, 528, 529, 530, 531, 532, 533, 534, 535, 536, 537, 538, 539, 540, 541, 542, 543, 544, 545, 546, 547, 548, 549, 550, 551, 552, 553, 554, 555, 556, 557, 558, 559, 560, 561, 562, 563, 564, 565, 566, 567, 568, 569, 570, 571, 572, 573, 574, 575, 576, 577, 578, 579, 580, 581, 582, 583, 584, 585, 586, 587, 588, 589, 590, 591, 592, 593, 594, 595, 596, 597, 598, 599, 600, 601, 602, 603, 604, 605, 606, 607, 608, 609, 610, 611, 612, 613, 614, 615, 616, 617, 618, 619, 620, 621, 622, 623, 624, 625, 626, 627, 628, 629, 630, 631, 632, 633, 634, 635, 636, 637, 638, 639, 640, 641, 642, 643, 644, 645, 646, 647, 648, 649, 650, 651, 652, 653, 654, 655, 656, 657, 658, 659, 660, 661, 662, 663, 664, 665, 666, 667, 668, 669, 670, 671, 672, 673, 674, 675, 676, 677, 678, 679, 680, 681, 682, 683, 684, 685, 686, 687, 688, 689, 690, 691, 692, 693, 694, 695, 696, 697, 698, 699, 700, 701, 702, 703, 704, 705, 706, 707, 708, 709, 710, 711, 712, 713, 714, 715, 716, 717, 718, 719, 720, 721, 722, 723, 724, 725, 726, 727, 728, 729, 730, 731, 732, 733, 734, 735, 736, 737, 738, 739, 740, 741, 742, 743, 744, 745, 746, 747, 748, 749, 750, 751, 752, 753, 754, 755, 756, 757, 758, 759, 760, 761, 762, 763, 764, 765, 766, 767, 768, 769, 770, 771, 772, 773, 774, 775, 776, 777, 778, 779, 780, 781, 782, 783, 784, 785, 786, 787, 788, 789, 790, 791, 792, 793, 794, 795, 796, 797, 798, 799, 800, 801, 802, 803, 804, 805, 806, 807, 808, 809, 810, 811, 812, 813, 814, 815, 816, 817, 818, 819, 820, 821, 822, 823, 824, 825, 826, 827, 828, 829, 830, 831, 832, 833, 834, 835, 836, 837, 838, 839, 840, 841, 842, 843, 844, 845, 846, 847, 848, 849, 850, 851, 852, 853, 854, 855, 856, 857, 858, 859, 860, 861, 862, 863, 864, 865, 866, 867, 868, 869, 870, 871, 872, 873, 874, 875, 876, 877, 878, 879, 880, 881, 882, 883, 884, 885, 886, 887, 888, 889, 890, 891, 892, 893, 894, 895, 896, 897, 898, 899, 900, 901, 902, 903, 904, 905, 906, 907, 908, 909, 910, 911, 912, 913, 914, 915, 916, 917, 918, 919, 920, 921, 922, 923, 924, 925, 926, 927, 928, 929, 930, 931, 932, 933, 934, 935, 936, 937, 938, 939, 940, 941, 942, 943, 944, 945, 946, 947, 948, 949, 950, 951, 952, 953, 954, 955, 956, 957, 958, 959, 960, 961, 962, 963, 964, 965, 966, 967],
      "AcquisitionTime": ["160142.137500", "160142.597500", "160143.057500", "160143.517500", "160143.977500", "160144.437500", "160144.897500", "160145.357500", "160145.817500", "160146.277500", "160146.737500", "160147.197500", "160147.657500", "160148.117500", "160148.577500", "160149.037500", "160149.497500", "160149.957500", "160150.417500", "160150.877500", "160151.337500", "160151.797500", "160152.257500", "160152.717500", "160153.177500", "160153.637500", "160154.097500", "160154.557500", "160155.017500", "160155.477500", "160155.937500", "160156.397500", "160156.857500", "160157.317500", "160157.777500", "160158.237500", "160158.697500", "160159.157500", "160159.617500", "160200.077500", "160200.537500", "160200.997500", "160201.457500", "160201.917500", "160202.377500", "160202.837500", "160203.297500", "160203.757500", "160204.217500", "160204.677500", "160205.137500", "160205.597500", "160206.057500", "160206.517500", "160206.977500", "160207.437500", "160207.897500", "160208.357500", "160208.817500", "160209.277500", "160209.737500", "160210.197500", "160210.657500", "160211.117500", "160211.577500", "160212.037500", "160212.497500", "160212.957500", "160213.417500", "160213.877500", "160214.337500", "160214.797500", "160215.257500", "160215.717500", "160216.177500", "160216.637500", "160217.097500", "160217.557500", "160218.017500", "160218.477500", "160218.937500", "160219.397500", "160219.857500", "160220.317500", "160220.777500", "160221.237500", "160221.697500", "160222.157500", "160222.617500", "160223.077500", "160223.537500", "160223.997500", "160224.457500", "160224.917500", "160225.377500", "160225.837500", "160226.297500", "160226.757500", "160227.217500", "160227.677500", "160228.137500", "160228.597500", "160229.057500", "160229.517500", "160229.977500", "160230.437500", "160230.897500", "160231.357500", "160231.817500", "160232.277500", "160232.737500", "160233.197500", "160233.657500", "160234.117500", "160234.577500", "160235.037500", "160235.497500", "160235.957500", "160236.417500", "160236.877500", "160237.337500", "160237.797500", "160238.257500", "160238.717500", "160239.177500", "160239.637500", "160240.097500", "160240.557500", "160241.017500", "160241.477500", "160241.937500", "160242.397500", "160242.857500", "160243.317500", "160243.777500", "160244.237500", "160244.697500", "160245.157500", "160245.617500", "160246.077500", "160246.537500", "160246.997500", "160247.457500", "160247.917500", "160248.377500", "160248.837500", "160249.297500", "160249.757500", "160250.217500", "160250.677500", "160251.137500", "160251.597500", "160252.057500", "160252.517500", "160252.977500", "160253.437500", "160253.897500", "160254.357500", "160254.817500", "160255.277500", "160255.737500", "160256.197500", "160256.657500", "160257.117500", "160257.577500", "160258.037500", "160258.497500", "160258.957500", "160259.417500", "160259.877500", "160300.337500", "160300.797500", "160301.257500", "160301.717500", "160302.177500", "160302.637500", "160303.097500", "160303.557500", "160304.017500", "160304.477500", "160304.937500", "160305.397500", "160305.857500", "160306.317500", "160306.777500", "160307.237500", "160307.697500", "160308.157500", "160308.617500", "160309.077500", "160309.537500", "160309.997500", "160310.457500", "160310.917500", "160311.377500", "160311.837500", "160312.297500", "160312.757500", "160313.217500", "160313.677500", "160314.137500", "160314.597500", "160315.057500", "160315.517500", "160315.977500", "160316.437500", "160316.897500", "160317.357500", "160317.817500", "160318.277500", "160318.737500", "160319.197500", "160319.657500", "160320.117500", "160320.577500", "160321.037500", "160321.497500", "160321.957500", "160322.417500", "160322.877500", "160323.337500", "160323.797500", "160324.257500", "160324.717500", "160325.177500", "160325.637500", "160326.097500", "160326.557500", "160327.017500", "160327.477500", "160327.937500", "160328.397500", "160328.857500", "160329.317500", "160329.777500", "160330.237500", "160330.697500", "160331.157500", "160331.617500", "160332.077500", "160332.537500", "160332.997500", "160333.457500", "160333.917500", "160334.377500", "160334.837500", "160335.297500", "160335.757500", "160336.217500", "160336.677500", "160337.137500", "160337.597500", "160338.057500", "160338.517500", "160338.977500", "160339.437500", "160339.897500", "160340.357500", "160340.817500", "160341.277500", "160341.737500", "160342.197500", "160342.657500", "160343.117500", "160343.577500", "160344.037500", "160344.497500", "160344.957500", "160345.417500", "160345.877500", "160346.337500", "160346.797500", "160347.257500", "160347.717500", "160348.177500", "160348.637500", "160349.097500", "160349.557500", "160350.017500", "160350.477500", "160350.937500", "160351.397500", "160351.857500", "160352.317500", "160352.777500", "160353.237500", "160353.697500", "160354.157500", "160354.617500", "160355.077500", "160355.537500", "160355.997500", "160356.457500", "160356.917500", "160357.377500", "160357.837500", "160358.297500", "160358.757500", "160359.217500", "160359.677500", "160400.137500", "160400.597500", "160401.057500", "160401.517500", "160401.977500", "160402.437500", "160402.897500", "160403.357500", "160403.817500", "160404.277500", "160404.737500", "160405.197500", "160405.657500", "160406.117500", "160406.577500", "160407.037500", "160407.497500", "160407.957500", "160408.417500", "160408.877500", "160409.337500", "160409.797500", "160410.257500", "160410.717500", "160411.177500", "160411.637500", "160412.097500", "160412.557500", "160413.017500", "160413.477500", "160413.937500", "160414.397500", "160414.857500", "160415.317500", "160415.777500", "160416.237500", "160416.697500", "160417.157500", "160417.617500", "160418.077500", "160418.537500", "160418.997500", "160419.457500", "160419.917500", "160420.377500", "160420.837500", "160421.297500", "160421.757500", "160422.217500", "160422.677500", "160423.137500", "160423.597500", "160424.057500", "160424.517500", "160424.977500", "160425.437500", "160425.897500", "160426.357500", "160426.817500", "160427.277500", "160427.737500", "160428.197500", "160428.657500", "160429.117500", "160429.577500", "160430.037500", "160430.497500", "160430.957500", "160431.417500", "160431.877500", "160432.337500", "160432.797500", "160433.257500", "160433.717500", "160434.177500", "160434.637500", "160435.097500", "160435.557500", "160436.017500", "160436.477500", "160436.937500", "160437.397500", "160437.857500", "160438.317500", "160438.777500", "160439.237500", "160439.697500", "160440.157500", "160440.617500", "160441.077500", "160441.537500", "160441.997500", "160442.457500", "160442.917500", "160443.377500", "160443.837500", "160444.297500", "160444.757500", "160445.217500", "160445.677500", "160446.137500", "160446.597500", "160447.057500", "160447.517500", "160447.977500", "160448.437500", "160448.897500", "160449.357500", "160449.817500", "160450.277500", "160450.737500", "160451.197500", "160451.657500", "160452.117500", "160452.577500", "160453.037500", "160453.497500", "160453.957500", "160454.417500", "160454.877500", "160455.337500", "160455.797500", "160456.257500", "160456.717500", "160457.177500", "160457.637500", "160458.097500", "160458.557500", "160459.017500", "160459.477500", "160459.937500", "160500.397500", "160500.857500", "160501.317500", "160501.777500", "160502.237500", "160502.697500", "160503.157500", "160503.617500", "160504.077500", "160504.537500", "160504.997500", "160505.457500", "160505.917500", "160506.377500", "160506.837500", "160507.297500", "160507.757500", "160508.217500", "160508.677500", "160509.137500", "160509.597500", "160510.057500", "160510.517500", "160510.977500", "160511.437500", "160511.897500", "160512.357500", "160512.817500", "160513.277500", "160513.737500", "160514.197500", "160514.657500", "160515.117500", "160515.577500", "160516.037500", "160516.497500", "160516.957500", "160517.417500", "160517.877500", "160518.337500", "160518.797500", "160519.257500", "160519.717500", "160520.177500", "160520.637500", "160521.097500", "160521.557500", "160522.017500", "160522.477500", "160522.937500", "160523.397500", "160523.857500", "160524.317500", "160524.777500", "160525.237500", "160525.697500", "160526.157500", "160526.617500", "160527.077500", "160527.537500", "160527.997500", "160528.457500", "160528.917500", "160529.377500", "160529.837500", "160530.297500", "160530.757500", "160531.217500", "160531.677500", "160532.137500", "160532.597500", "160533.057500", "160533.517500", "160533.977500", "160534.437500", "160534.897500", "160535.357500", "160535.817500", "160536.277500", "160536.737500", "160537.197500", "160537.657500", "160538.117500", "160538.577500", "160539.037500", "160539.497500", "160539.957500", "160540.417500", "160540.877500", "160541.337500", "160541.797500", "160542.257500", "160542.717500", "160543.177500", "160543.637500", "160544.097500", "160544.557500", "160545.017500", "160545.477500", "160545.937500", "160546.397500", "160546.857500", "160547.317500", "160547.777500", "160548.237500", "160548.697500", "160549.157500", "160549.617500", "160550.077500", "160550.537500", "160550.997500", "160551.457500", "160551.917500", "160552.377500", "160552.837500", "160553.297500", "160553.757500", "160554.217500", "160554.677500", "160555.137500", "160555.597500", "160556.057500", "160556.517500", "160556.977500", "160557.437500", "160557.897500", "160558.357500", "160558.817500", "160559.277500", "160559.737500", "160600.197500", "160600.657500", "160601.117500", "160601.577500", "160602.037500", "160602.497500", "160602.957500", "160603.417500", "160603.877500", "160604.337500", "160604.797500", "160605.257500", "160605.717500", "160606.177500", "160606.637500", "160607.097500", "160607.557500", "160608.017500", "160608.477500", "160608.937500", "160609.397500", "160609.857500", "160610.317500", "160610.777500", "160611.237500", "160611.697500", "160612.157500", "160612.617500", "160613.077500", "160613.537500", "160613.997500", "160614.457500", "160614.917500", "160615.377500", "160615.837500", "160616.297500", "160616.757500", "160617.217500", "160617.677500", "160618.137500", "160618.597500", "160619.057500", "160619.517500", "160619.977500", "160620.437500", "160620.897500", "160621.357500", "160621.817500", "160622.277500", "160622.737500", "160623.197500", "160623.657500", "160624.117500", "160624.577500", "160625.037500", "160625.497500", "160625.957500", "160626.417500", "160626.877500", "160627.337500", "160627.797500", "160628.257500", "160628.717500", "160629.177500", "160629.637500", "160630.097500", "160630.557500", "160631.017500", "160631.477500", "160631.937500", "160632.397500", "160632.857500", "160633.317500", "160633.777500", "160634.237500", "160634.697500", "160635.157500", "160635.617500", "160636.077500", "160636.537500", "160636.997500", "160637.457500", "160637.917500", "160638.377500", "160638.837500", "160639.297500", "160639.757500", "160640.217500", "160640.677500", "160641.137500", "160641.597500", "160642.057500", "160642.517500", "160642.977500", "160643.437500", "160643.897500", "160644.357500", "160644.817500", "160645.277500", "160645.737500", "160646.197500", "160646.657500", "160647.117500", "160647.577500", "160648.037500", "160648.497500", "160648.957500", "160649.417500", "160649.877500", "160650.337500", "160650.797500", "160651.257500", "160651.717500", "160652.177500", "160652.637500", "160653.097500", "160653.557500", "160654.017500", "160654.477500", "160654.937500", "160655.397500", "160655.857500", "160656.317500", "160656.777500", "160657.237500", "160657.697500", "160658.157500", "160658.617500", "160659.077500", "160659.537500", "160659.997500", "160700.457500", "160700.917500", "160701.377500", "160701.837500", "160702.297500", "160702.757500", "160703.217500", "160703.677500", "160704.137500", "160704.597500", "160705.057500", "160705.517500", "160705.977500", "160706.437500", "160706.897500", "160707.357500", "160707.817500", "160708.277500", "160708.737500", "160709.197500", "160709.657500", "160710.117500", "160710.577500", "160711.037500", "160711.497500", "160711.957500", "160712.417500", "160712.877500", "160713.337500", "160713.797500", "160714.257500", "160714.717500", "160715.177500", "160715.637500", "160716.097500", "160716.557500", "160717.017500", "160717.477500", "160717.937500", "160718.397500", "160718.857500", "160719.317500", "160719.777500", "160720.237500", "160720.697500", "160721.157500", "160721.617500", "160722.077500", "160722.537500", "160722.997500", "160723.457500", "160723.917500", "160724.377500", "160724.837500", "160725.297500", "160725.757500", "160726.217500", "160726.677500", "160727.137500", "160727.597500", "160728.057500", "160728.517500", "160728.977500", "160729.437500", "160729.897500", "160730.357500", "160730.817500", "160731.277500", "160731.737500", "160732.197500", "160732.657500", "160733.117500", "160733.577500", "160734.037500", "160734.497500", "160734.957500", "160735.417500", "160735.877500", "160736.337500", "160736.797500", "160737.257500", "160737.717500", "160738.177500", "160738.637500", "160739.097500", "160739.557500", "160740.017500", "160740.477500", "160740.937500", "160741.397500", "160741.857500", "160742.317500", "160742.777500", "160743.237500", "160743.697500", "160744.157500", "160744.617500", "160745.077500", "160745.537500", "160745.997500", "160746.457500", "160746.917500", "160747.377500", "160747.837500", "160748.297500", "160748.757500", "160749.217500", "160749.677500", "160750.137500", "160750.597500", "160751.057500", "160751.517500", "160751.977500", "160752.437500", "160752.897500", "160753.357500", "160753.817500", "160754.277500", "160754.737500", "160755.197500", "160755.657500", "160756.117500", "160756.577500", "160757.037500", "160757.497500", "160757.957500", "160758.417500", "160758.877500", "160759.337500", "160759.797500", "160800.257500", "160800.717500", "160801.177500", "160801.637500", "160802.097500", "160802.557500", "160803.017500", "160803.477500", "160803.937500", "160804.397500", "160804.857500", "160805.317500", "160805.777500", "160806.237500", "160806.697500", "160807.157500", "160807.617500", "160808.077500", "160808.537500", "160808.997500", "160809.457500", "160809.917500", "160810.377500", "160810.837500", "160811.297500", "160811.757500", "160812.217500", "160812.677500", "160813.137500", "160813.597500", "160814.057500", "160814.517500", "160814.977500", "160815.437500", "160815.897500", "160816.357500", "160816.817500", "160817.277500", "160817.737500", "160818.197500", "160818.657500", "160819.117500", "160819.577500", "160820.037500", "160820.497500", "160820.957500", "160821.417500", "160821.877500", "160822.337500", "160822.797500", "160823.257500", "160823.717500", "160824.177500", "160824.637500", "160825.097500", "160825.557500", "160826.017500", "160826.477500", "160826.937500", "160827.397500", "160827.857500", "160828.317500", "160828.777500", "160829.237500", "160829.697500", "160830.157500", "160830.617500", "160831.077500", "160831.537500", "160831.997500", "160832.457500", "160832.917500", "160833.377500", "160833.837500", "160834.297500", "160834.757500", "160835.217500", "160835.677500", "160836.137500", "160836.597500", "160837.057500", "160837.517500", "160837.977500", "160838.437500", "160838.897500", "160839.357500", "160839.817500", "160840.277500", "160840.737500", "160841.197500", "160841.657500", "160842.117500", "160842.577500", "160843.037500", "160843.497500", "160843.957500", "160844.417500", "160844.877500", "160845.337500", "160845.797500", "160846.257500", "160846.717500", "160847.177500", "160847.637500", "160848.097500", "160848.557500", "160849.017500", "160849.477500", "160849.937500", "160850.397500", "160850.857500", "160851.317500", "160851.777500", "160852.237500", "160852.697500", "160853.157500", "160853.617500", "160854.077500", "160854.537500", "160854.997500", "160855.457500", "160855.917500", "160856.377500", "160856.837500", "160857.297500", "160857.757500", "160858.217500", "160858.677500", "160859.137500", "160859.597500", "160900.057500", "160900.517500", "160900.977500", "160901.437500", "160901.897500", "160902.357500", "160902.817500", "160903.277500", "160903.737500", "160904.197500", "160904.657500", "160905.117500", "160905.577500", "160906.037500", "160906.497500"],
