{
  "AcquisitionMatrixPE": 82,
  "AcquisitionNumber": 1,
  "AcquisitionTime": "16:53:42.752500",
  "BandwidthPerPixelPhaseEncode": 24.888,
  "BaseResolution": 82,
  "BodyPartExamined": "BRAIN",
  "ConsistencyInfo": "N4_VE11E_LATEST_20181129",
  "ConversionSoftware": "dcm2niix",
  "ConversionSoftwareVersion": "v1.0.20201102",
  "DerivedVendorReportedEchoSpacing": 0.00049,
  "DeviceSerialNumber": "66112",
  "DwellTime": 2e-06,
  "EchoTime": 0.0272,
  "EchoTrainLength": 82,
  "EffectiveEchoSpacing": 0.00049,
  "FlipAngle": 44,
  "ImageComments": "Unaliased MB8/PE3",
  "ImageOrientationPatientDICOM": [0.998831, 0.0445539, 0.0187751, -0.045706, 0.996758, 0.0662088],
  "ImageType": [
    "ORIGINAL",
    "PRIMARY",
    "M",
    "MB",
    "ND",
    "NORM",
    "MOSAIC"
],
  "ImagingFrequency": 123.252,
  "InPlanePhaseEncodingDirectionDICOM": "COL",
  "InstitutionAddress": "Maynard 3,Hanover,NH,US,03755",
  "InstitutionName": "Dartmouth College - PBS",
  "InstitutionalDepartmentName": "Department",
  "MRAcquisitionType": "2D",
  "MagneticFieldStrength": 3,
  "Manufacturer": "Siemens",
  "ManufacturersModelName": "Prisma",
  "Modality": "MR",
  "MultibandAccelerationFactor": 8,
  "PartialFourier": 1,
  "PatientPosition": "HFS",
  "PercentPhaseFOV": 100,
  "PercentSampling": 100,
  "PhaseEncodingDirection": "j-",
  "PhaseEncodingSteps": 82,
  "PhaseResolution": 1,
  "PixelBandwidth": 3050,
  "ProcedureStepDescription": "Wager_Wager^1076_spacetop",
  "ProtocolName": "func_run-03_task-faces_acq-ap-mb8",
  "PulseSequenceDetails": "%CustomerSeq%\\cmrr_mbep2d_bold",
  "ReceiveCoilActiveElements": "HEA;HEP",
  "ReceiveCoilName": "Head_32",
  "ReconMatrixPE": 82,
  "RepetitionTime": 0.46,
  "SAR": 0.123526,
  "ScanOptions": "FS",
  "ScanningSequence": "EP",
  "SequenceName": "epfid2d1_82",
  "SequenceVariant": "SK\\SS",
  "SeriesDescription": "func_run-03_task-faces_acq-ap-mb8",
  "SeriesNumber": 20,
  "ShimSetting": [4157, -7775, -7191, 601, -41, -299, 153, 2],
  "SliceThickness": 2.7,
  "SliceTiming": [0, 0.2525, 0.065, 0.315, 0.1275, 0.3775, 0.19, 0, 0.2525, 0.065, 0.315, 0.1275, 0.3775, 0.19, 0, 0.2525, 0.065, 0.315, 0.1275, 0.3775, 0.19, 0, 0.2525, 0.065, 0.315, 0.1275, 0.3775, 0.19, 0, 0.2525, 0.065, 0.315, 0.1275, 0.3775, 0.19, 0, 0.2525, 0.065, 0.315, 0.1275, 0.3775, 0.19, 0, 0.2525, 0.065, 0.315, 0.1275, 0.3775, 0.19, 0, 0.2525, 0.065, 0.315, 0.1275, 0.3775, 0.19],
  "SoftwareVersions": "syngo MR E11",
  "SpacingBetweenSlices": 2.7,
  "StationName": "AWP66112",
  "TaskName": "faces",
  "TotalReadoutTime": 0.03969,
  "TxRefAmp": 261.073,
  "WipMemBlock": "49fe9edc-6837-4363-977f-07f299292bcf||Sequence: R016 ve11e/master r/434b28f1; Aug  7 2019 18:53:46 by eja",
  "dcmmeta_affine": [
    [-2.6797893047332764, -0.12262590229511261, 0.042563822120428085, 115.64253997802734],
    [-0.11953488737344742, 2.674229860305786, 0.18087172508239746, -88.33206939697266],
    [0.05037222430109978, -0.17763341963291168, 2.693598747253418, -48.42288589477539],
    [0.0, 0.0, 0.0, 1.0]
],
  "dcmmeta_reorient_transform": [
    [0.0, -1.0, 0.0, 81.0],
    [1.0, 0.0, 0.0, 0.0],
    [0.0, 0.0, 1.0, 0.0],
    [0.0, 0.0, 0.0, 1.0]
],
  "dcmmeta_shape": [82, 82, 56, 914],
  "dcmmeta_slice_dim": 2,
  "dcmmeta_version": 0.6,
  "global": {
    "const": {
      "AccessionNumber": "A004187",
      "AcquisitionMatrix": [82, 0, 0, 82],
      "AngioFlag": "N",
      "BitsAllocated": 16,
      "BitsStored": 16,
      "BodyPartExamined": "BRAIN",
      "Columns": 656,
      "EchoNumbers": 1,
      "EchoTime": 27.2,
      "EchoTrainLength": 82,
      "FlipAngle": 44.0,
      "HighBit": 15,
      "ImageOrientationPatient": [0.99883053839415, 0.04455391272133, 0.01877510139712, -0.0457060164554, 0.99675842232599, 0.06620881800778],
      "ImagePositionPatient": [-839.61574092071, -930.09107320719, -128.24881396359],
      "ImageType": [
        "ORIGINAL",
        "PRIMARY",
        "M",
        "MB",
        "ND",
        "NORM",
        "MOSAIC"
],
      "ImagedNucleus": "1H",
      "ImagingFrequency": 123.252164,
      "InPlanePhaseEncodingDirection": "COL",
      "MRAcquisitionType": "2D",
      "MagneticFieldStrength": 3.0,
      "Manufacturer": "SIEMENS",
      "ManufacturerModelName": "Prisma",
      "Modality": "MR",
      "NumberOfAverages": 1.0,
      "NumberOfPhaseEncodingSteps": 82,
      "PercentPhaseFieldOfView": 100.0,
      "PercentSampling": 100.0,
      "PerformedProcedureStepStartTime": "154622.304000",
      "PhotometricInterpretation": "MONOCHROME2",
      "PixelBandwidth": 3050.0,
      "PixelRepresentation": 0,
      "PixelSpacing": [2.6829268932343, 2.6829268932343],
      "ProtocolName": "func_run-03_task-faces_acq-ap-mb8",
      "RepetitionTime": 460.0,
      "Rows": 656,
      "SAR": 0.12352619994582,
      "SamplesPerPixel": 1,
      "ScanOptions": "FS",
      "ScanningSequence": "EP",
      "SequenceName": "epfid2d1_82",
      "SequenceVariant": [
        "SK",
        "SS"
],
      "SeriesDescription": "func_run-03_task-faces_acq-ap-mb8",
      "SeriesNumber": 20,
      "SeriesTime": "165407.488000",
      "SliceLocation": -52.402374098879,
      "SliceThickness": 2.7000000476837,
      "SmallestImagePixelValue": 0,
      "SoftwareVersions": "syngo MR E11",
      "SpacingBetweenSlices": 2.7000000696666,
      "SpecificCharacterSet": "ISO_IR 100",
      "StudyID": "1",
      "StudyTime": "154622.192000",
      "TransmitCoilName": "Body",
      "VariableFlipAngleFlag": "N",
      "WindowCenterWidthExplanation": "Algo1"
    },
    "slices": {}
  },
  "time": {
    "samples": {
      "AcquisitionNumber": [1, 2, 3, 4, 5, 6, 7, 8, 9, 10, 11, 12, 13, 14, 15, 16, 17, 18, 19, 20, 21, 22, 23, 24, 25, 26, 27, 28, 29, 30, 31, 32, 33, 34, 35, 36, 37, 38, 39, 40, 41, 42, 43, 44, 45, 46, 47, 48, 49, 50, 51, 52, 53, 54, 55, 56, 57, 58, 59, 60, 61, 62, 63, 64, 65, 66, 67, 68, 69, 70, 71, 72, 73, 74, 75, 76, 77, 78, 79, 80, 81, 82, 83, 84, 85, 86, 87, 88, 89, 90, 91, 92, 93, 94, 95, 96, 97, 98, 99, 100, 101, 102, 103, 104, 105, 106, 107, 108, 109, 110, 111, 112, 113, 114, 115, 116, 117, 118, 119, 120, 121, 122, 123, 124, 125, 126, 127, 128, 129, 130, 131, 132, 133, 134, 135, 136, 137, 138, 139, 140, 141, 142, 143, 144, 145, 146, 147, 148, 149, 150, 151, 152, 153, 154, 155, 156, 157, 158, 159, 160, 161, 162, 163, 164, 165, 166, 167, 168, 169, 170, 171, 172, 173, 174, 175, 176, 177, 178, 179, 180, 181, 182, 183, 184, 185, 186, 187, 188, 189, 190, 191, 192, 193, 194, 195, 196, 197, 198, 199, 200, 201, 202, 203, 204, 205, 206, 207, 208, 209, 210, 211, 212, 213, 214, 215, 216, 217, 218, 219, 220, 221, 222, 223, 224, 225, 226, 227, 228, 229, 230, 231, 232, 233, 234, 235, 236, 237, 238, 239, 240, 241, 242, 243, 244, 245, 246, 247, 248, 249, 250, 251, 252, 253, 254, 255, 256, 257, 258, 259, 260, 261, 262, 263, 264, 265, 266, 267, 268, 269, 270, 271, 272, 273, 274, 275, 276, 277, 278, 279, 280, 281, 282, 283, 284, 285, 286, 287, 288, 289, 290, 291, 292, 293, 294, 295, 296, 297, 298, 299, 300, 301, 302, 303, 304, 305, 306, 307, 308, 309, 310, 311, 312, 313, 314, 315, 316, 317, 318, 319, 320, 321, 322, 323, 324, 325, 326, 327, 328, 329, 330, 331, 332, 333, 334, 335, 336, 337, 338, 339, 340, 341, 342, 343, 344, 345, 346, 347, 348, 349, 350, 351, 352, 353, 354, 355, 356, 357, 358, 359, 360, 361, 362, 363, 364, 365, 366, 367, 368, 369, 370, 371, 372, 373, 374, 375, 376, 377, 378, 379, 380, 381, 382, 383, 384, 385, 386, 387, 388, 389, 390, 391, 392, 393, 394, 395, 396, 397, 398, 399, 400, 401, 402, 403, 404, 405, 406, 407, 408, 409, 410, 411, 412, 413, 414, 415, 416, 417, 418, 419, 420, 421, 422, 423, 424, 425, 426, 427, 428, 429, 430, 431, 432, 433, 434, 435, 436, 437, 438, 439, 440, 441, 442, 443, 444, 445, 446, 447, 448, 449, 450, 451, 452, 453, 454, 455, 456, 457, 458, 459, 460, 461, 462, 463, 464, 465, 466, 467, 468, 469, 470, 471, 472, 473, 474, 475, 476, 477, 478, 479, 480, 481, 482, 483, 484, 485, 486, 487, 488, 489, 490, 491, 492, 493, 494, 495, 496, 497, 498, 499, 500, 501, 502, 503, 504, 505, 506, 507, 508, 509, 510, 511, 512, 513, 514, 515, 516, 517, 518, 519, 520, 521, 522, 523, 524, 525, 526, 527, 528, 529, 530, 531, 532, 533, 534, 535, 536, 537, 538, 539, 540, 541, 542, 543, 544, 545, 546, 547, 548, 549, 550, 551, 552, 553, 554, 555, 556, 557, 558, 559, 560, 561, 562, 563, 564, 565, 566, 567, 568, 569, 570, 571, 572, 573, 574, 575, 576, 577, 578, 579, 580, 581, 582, 583, 584, 585, 586, 587, 588, 589, 590, 591, 592, 593, 594, 595, 596, 597, 598, 599, 600, 601, 602, 603, 604, 605, 606, 607, 608, 609, 610, 611, 612, 613, 614, 615, 616, 617, 618, 619, 620, 621, 622, 623, 624, 625, 626, 627, 628, 629, 630, 631, 632, 633, 634, 635, 636, 637, 638, 639, 640, 641, 642, 643, 644, 645, 646, 647, 648, 649, 650, 651, 652, 653, 654, 655, 656, 657, 658, 659, 660, 661, 662, 663, 664, 665, 666, 667, 668, 669, 670, 671, 672, 673, 674, 675, 676, 677, 678, 679, 680, 681, 682, 683, 684, 685, 686, 687, 688, 689, 690, 691, 692, 693, 694, 695, 696, 697, 698, 699, 700, 701, 702, 703, 704, 705, 706, 707, 708, 709, 710, 711, 712, 713, 714, 715, 716, 717, 718, 719, 720, 721, 722, 723, 724, 725, 726, 727, 728, 729, 730, 731, 732, 733, 734, 735, 736, 737, 738, 739, 740, 741, 742, 743, 744, 745, 746, 747, 748, 749, 750, 751, 752, 753, 754, 755, 756, 757, 758, 759, 760, 761, 762, 763, 764, 765, 766, 767, 768, 769, 770, 771, 772, 773, 774, 775, 776, 777, 778, 779, 780, 781, 782, 783, 784, 785, 786, 787, 788, 789, 790, 791, 792, 793, 794, 795, 796, 797, 798, 799, 800, 801, 802, 803, 804, 805, 806, 807, 808, 809, 810, 811, 812, 813, 814, 815, 816, 817, 818, 819, 820, 821, 822, 823, 824, 825, 826, 827, 828, 829, 830, 831, 832, 833, 834, 835, 836, 837, 838, 839, 840, 841, 842, 843, 844, 845, 846, 847, 848, 849, 850, 851, 852, 853, 854, 855, 856, 857, 858, 859, 860, 861, 862, 863, 864, 865, 866, 867, 868, 869, 870, 871, 872, 873, 874, 875, 876, 877, 878, 879, 880, 881, 882, 883, 884, 885, 886, 887, 888, 889, 890, 891, 892, 893, 894, 895, 896, 897, 898, 899, 900, 901, 902, 903, 904, 905, 906, 907, 908, 909, 910, 911, 912, 913, 914],
      "AcquisitionTime": ["165342.752500", "165343.212500", "165343.672500", "165344.132500", "165344.592500", "165345.052500", "165345.512500", "165345.972500", "165346.432500", "165346.892500", "165347.352500", "165347.812500", "165348.272500", "165348.732500", "165349.192500", "165349.652500", "165350.112500", "165350.572500", "165351.032500", "165351.492500", "165351.952500", "165352.412500", "165352.872500", "165353.332500", "165353.792500", "165354.252500", "165354.712500", "165355.172500", "165355.632500", "165356.092500", "165356.552500", "165357.012500", "165357.472500", "165357.932500", "165358.392500", "165358.852500", "165359.312500", "165359.772500", "165400.232500", "165400.692500", "165401.152500", "165401.612500", "165402.072500", "165402.532500", "165402.992500", "165403.452500", "165403.912500", "165404.372500", "165404.832500", "165405.292500", "165405.752500", "165406.212500", "165406.672500", "165407.132500", "165407.592500", "165408.052500", "165408.512500", "165408.972500", "165409.432500", "165409.892500", "165410.352500", "165410.812500", "165411.272500", "165411.732500", "165412.192500", "165412.652500", "165413.112500", "165413.572500", "165414.032500", "165414.492500", "165414.952500", "165415.412500", "165415.872500", "165416.332500", "165416.792500", "165417.252500", "165417.712500", "165418.172500", "165418.632500", "165419.092500", "165419.552500", "165420.012500", "165420.472500", "165420.932500", "165421.392500", "165421.852500", "165422.312500", "165422.772500", "165423.232500", "165423.692500", "165424.152500", "165424.612500", "165425.072500", "165425.532500", "165425.992500", "165426.452500", "165426.912500", "165427.372500", "165427.832500", "165428.292500", "165428.752500", "165429.212500", "165429.672500", "165430.132500", "165430.592500", "165431.052500", "165431.512500", "165431.972500", "165432.432500", "165432.892500", "165433.352500", "165433.812500", "165434.272500", "165434.732500", "165435.192500", "165435.652500", "165436.112500", "165436.572500", "165437.032500", "165437.492500", "165437.952500", "165438.412500", "165438.872500", "165439.332500", "165439.792500", "165440.252500", "165440.712500", "165441.172500", "165441.632500", "165442.092500", "165442.552500", "165443.012500", "165443.472500", "165443.932500", "165444.392500", "165444.852500", "165445.312500", "165445.772500", "165446.232500", "165446.692500", "165447.152500", "165447.612500", "165448.072500", "165448.532500", "165448.992500", "165449.452500", "165449.912500", "165450.372500", "165450.832500", "165451.292500", "165451.752500", "165452.212500", "165452.672500", "165453.132500", "165453.592500", "165454.052500", "165454.512500", "165454.972500", "165455.432500", "165455.892500", "165456.352500", "165456.812500", "165457.272500", "165457.732500", "165458.192500", "165458.652500", "165459.112500", "165459.572500", "165500.032500", "165500.492500", "165500.952500", "165501.412500", "165501.872500", "165502.332500", "165502.792500", "165503.252500", "165503.712500", "165504.172500", "165504.632500", "165505.092500", "165505.552500", "165506.012500", "165506.472500", "165506.932500", "165507.392500", "165507.852500", "165508.312500", "165508.772500", "165509.232500", "165509.692500", "165510.152500", "165510.612500", "165511.072500", "165511.532500", "165511.992500", "165512.452500", "165512.912500", "165513.372500", "165513.832500", "165514.292500", "165514.752500", "165515.212500", "165515.672500", "165516.132500", "165516.592500", "165517.052500", "165517.512500", "165517.972500", "165518.432500", "165518.892500", "165519.352500", "165519.812500", "165520.272500", "165520.732500", "165521.192500", "165521.652500", "165522.112500", "165522.572500", "165523.032500", "165523.492500", "165523.952500", "165524.412500", "165524.872500", "165525.332500", "165525.792500", "165526.252500", "165526.712500", "165527.172500", "165527.632500", "165528.092500", "165528.552500", "165529.012500", "165529.472500", "165529.932500", "165530.392500", "165530.852500", "165531.312500", "165531.772500", "165532.232500", "165532.692500", "165533.152500", "165533.612500", "165534.072500", "165534.532500", "165534.992500", "165535.452500", "165535.912500", "165536.372500", "165536.832500", "165537.292500", "165537.752500", "165538.212500", "165538.672500", "165539.132500", "165539.592500", "165540.052500", "165540.512500", "165540.972500", "165541.432500", "165541.892500", "165542.352500", "165542.812500", "165543.272500", "165543.732500", "165544.192500", "165544.652500", "165545.112500", "165545.572500", "165546.032500", "165546.492500", "165546.952500", "165547.412500", "165547.872500", "165548.332500", "165548.792500", "165549.252500", "165549.712500", "165550.172500", "165550.632500", "165551.092500", "165551.552500", "165552.012500", "165552.472500", "165552.932500", "165553.392500", "165553.852500", "165554.312500", "165554.772500", "165555.232500", "165555.692500", "165556.152500", "165556.612500", "165557.072500", "165557.532500", "165557.992500", "165558.452500", "165558.912500", "165559.372500", "165559.832500", "165600.292500", "165600.752500", "165601.212500", "165601.672500", "165602.132500", "165602.592500", "165603.052500", "165603.512500", "165603.972500", "165604.432500", "165604.892500", "165605.352500", "165605.812500", "165606.272500", "165606.732500", "165607.192500", "165607.652500", "165608.112500", "165608.572500", "165609.032500", "165609.492500", "165609.952500", "165610.412500", "165610.872500", "165611.332500", "165611.792500", "165612.252500", "165612.712500", "165613.172500", "165613.632500", "165614.092500", "165614.552500", "165615.012500", "165615.472500", "165615.932500", "165616.392500", "165616.852500", "165617.312500", "165617.772500", "165618.232500", "165618.692500", "165619.152500", "165619.612500", "165620.072500", "165620.532500", "165620.992500", "165621.452500", "165621.912500", "165622.372500", "165622.832500", "165623.292500", "165623.752500", "165624.212500", "165624.672500", "165625.132500", "165625.592500", "165626.052500", "165626.512500", "165626.972500", "165627.432500", "165627.892500", "165628.352500", "165628.812500", "165629.272500", "165629.732500", "165630.192500", "165630.652500", "165631.112500", "165631.572500", "165632.032500", "165632.492500", "165632.952500", "165633.412500", "165633.872500", "165634.332500", "165634.792500", "165635.252500", "165635.712500", "165636.172500", "165636.632500", "165637.092500", "165637.552500", "165638.012500", "165638.472500", "165638.932500", "165639.392500", "165639.852500", "165640.312500", "165640.772500", "165641.232500", "165641.692500", "165642.152500", "165642.612500", "165643.072500", "165643.532500", "165643.992500", "165644.452500", "165644.912500", "165645.372500", "165645.832500", "165646.292500", "165646.752500", "165647.212500", "165647.672500", "165648.132500", "165648.592500", "165649.052500", "165649.512500", "165649.972500", "165650.432500", "165650.892500", "165651.352500", "165651.812500", "165652.272500", "165652.732500", "165653.192500", "165653.652500", "165654.112500", "165654.572500", "165655.032500", "165655.492500", "165655.952500", "165656.412500", "165656.872500", "165657.332500", "165657.792500", "165658.252500", "165658.712500", "165659.172500", "165659.632500", "165700.092500", "165700.552500", "165701.012500", "165701.472500", "165701.932500", "165702.392500", "165702.852500", "165703.312500", "165703.772500", "165704.232500", "165704.692500", "165705.152500", "165705.612500", "165706.072500", "165706.532500", "165706.992500", "165707.452500", "165707.912500", "165708.372500", "165708.832500", "165709.292500", "165709.752500", "165710.212500", "165710.672500", "165711.132500", "165711.592500", "165712.052500", "165712.512500", "165712.972500", "165713.432500", "165713.892500", "165714.352500", "165714.812500", "165715.272500", "165715.732500", "165716.192500", "165716.652500", "165717.112500", "165717.572500", "165718.032500", "165718.492500", "165718.952500", "165719.412500", "165719.872500", "165720.332500", "165720.792500", "165721.252500", "165721.712500", "165722.172500", "165722.632500", "165723.092500", "165723.552500", "165724.012500", "165724.472500", "165724.932500", "165725.392500", "165725.852500", "165726.312500", "165726.772500", "165727.232500", "165727.692500", "165728.152500", "165728.612500", "165729.072500", "165729.532500", "165729.992500", "165730.452500", "165730.912500", "165731.372500", "165731.832500", "165732.292500", "165732.752500", "165733.212500", "165733.672500", "165734.132500", "165734.592500", "165735.052500", "165735.512500", "165735.972500", "165736.432500", "165736.892500", "165737.352500", "165737.812500", "165738.272500", "165738.732500", "165739.192500", "165739.652500", "165740.112500", "165740.572500", "165741.032500", "165741.492500", "165741.952500", "165742.412500", "165742.872500", "165743.332500", "165743.792500", "165744.252500", "165744.712500", "165745.172500", "165745.632500", "165746.092500", "165746.552500", "165747.012500", "165747.472500", "165747.932500", "165748.392500", "165748.852500", "165749.312500", "165749.772500", "165750.232500", "165750.692500", "165751.152500", "165751.612500", "165752.072500", "165752.532500", "165752.992500", "165753.452500", "165753.912500", "165754.372500", "165754.832500", "165755.292500", "165755.752500", "165756.212500", "165756.672500", "165757.132500", "165757.592500", "165758.052500", "165758.512500", "165758.972500", "165759.432500", "165759.892500", "165800.352500", "165800.812500", "165801.272500", "165801.732500", "165802.192500", "165802.652500", "165803.112500", "165803.572500", "165804.032500", "165804.492500", "165804.952500", "165805.412500", "165805.872500", "165806.332500", "165806.792500", "165807.252500", "165807.712500", "165808.172500", "165808.632500", "165809.092500", "165809.552500", "165810.012500", "165810.472500", "165810.932500", "165811.392500", "165811.852500", "165812.312500", "165812.772500", "165813.232500", "165813.692500", "165814.152500", "165814.612500", "165815.072500", "165815.532500", "165815.992500", "165816.452500", "165816.912500", "165817.372500", "165817.832500", "165818.292500", "165818.752500", "165819.212500", "165819.672500", "165820.132500", "165820.592500", "165821.052500", "165821.512500", "165821.972500", "165822.432500", "165822.892500", "165823.352500", "165823.812500", "165824.272500", "165824.732500", "165825.192500", "165825.652500", "165826.112500", "165826.572500", "165827.032500", "165827.492500", "165827.952500", "165828.412500", "165828.872500", "165829.332500", "165829.792500", "165830.252500", "165830.712500", "165831.172500", "165831.632500", "165832.092500", "165832.552500", "165833.012500", "165833.472500", "165833.932500", "165834.392500", "165834.852500", "165835.312500", "165835.772500", "165836.232500", "165836.692500", "165837.152500", "165837.612500", "165838.072500", "165838.532500", "165838.992500", "165839.452500", "165839.912500", "165840.372500", "165840.832500", "165841.292500", "165841.752500", "165842.212500", "165842.672500", "165843.132500", "165843.592500", "165844.052500", "165844.512500", "165844.972500", "165845.432500", "165845.892500", "165846.352500", "165846.812500", "165847.272500", "165847.732500", "165848.192500", "165848.652500", "165849.112500", "165849.572500", "165850.032500", "165850.492500", "165850.952500", "165851.412500", "165851.872500", "165852.332500", "165852.792500", "165853.252500", "165853.712500", "165854.172500", "165854.632500", "165855.092500", "165855.552500", "165856.012500", "165856.472500", "165856.932500", "165857.392500", "165857.852500", "165858.312500", "165858.772500", "165859.232500", "165859.692500", "165900.152500", "165900.612500", "165901.072500", "165901.532500", "165901.992500", "165902.452500", "165902.912500", "165903.372500", "165903.832500", "165904.292500", "165904.752500", "165905.212500", "165905.672500", "165906.132500", "165906.592500", "165907.052500", "165907.512500", "165907.972500", "165908.432500", "165908.892500", "165909.352500", "165909.812500", "165910.272500", "165910.732500", "165911.192500", "165911.652500", "165912.112500", "165912.572500", "165913.032500", "165913.492500", "165913.952500", "165914.412500", "165914.872500", "165915.332500", "165915.792500", "165916.252500", "165916.712500", "165917.172500", "165917.632500", "165918.092500", "165918.552500", "165919.012500", "165919.472500", "165919.932500", "165920.392500", "165920.852500", "165921.312500", "165921.772500", "165922.232500", "165922.692500", "165923.152500", "165923.612500", "165924.072500", "165924.532500", "165924.992500", "165925.452500", "165925.912500", "165926.372500", "165926.832500", "165927.292500", "165927.752500", "165928.212500", "165928.672500", "165929.132500", "165929.592500", "165930.052500", "165930.512500", "165930.972500", "165931.432500", "165931.892500", "165932.352500", "165932.812500", "165933.272500", "165933.732500", "165934.192500", "165934.652500", "165935.112500", "165935.572500", "165936.032500", "165936.492500", "165936.952500", "165937.412500", "165937.872500", "165938.332500", "165938.792500", "165939.252500", "165939.712500", "165940.172500", "165940.632500", "165941.092500", "165941.552500", "165942.012500", "165942.472500", "165942.932500", "165943.392500", "165943.852500", "165944.312500", "165944.772500", "165945.232500", "165945.692500", "165946.152500", "165946.612500", "165947.072500", "165947.532500", "165947.992500", "165948.452500", "165948.912500", "165949.372500", "165949.832500", "165950.292500", "165950.752500", "165951.212500", "165951.672500", "165952.132500", "165952.592500", "165953.052500", "165953.512500", "165953.972500", "165954.432500", "165954.892500", "165955.352500", "165955.812500", "165956.272500", "165956.732500", "165957.192500", "165957.652500", "165958.112500", "165958.572500", "165959.032500", "165959.492500", "165959.952500", "170000.412500", "170000.872500", "170001.332500", "170001.792500", "170002.252500", "170002.712500", "170003.172500", "170003.632500", "170004.092500", "170004.552500", "170005.012500", "170005.472500", "170005.932500", "170006.392500", "170006.852500", "170007.312500", "170007.772500", "170008.232500", "170008.692500", "170009.152500", "170009.612500", "170010.072500", "170010.532500", "170010.992500", "170011.452500", "170011.912500", "170012.372500", "170012.832500", "170013.292500", "170013.752500", "170014.212500", "170014.672500", "170015.132500", "170015.592500", "170016.052500", "170016.512500", "170016.972500", "170017.432500", "170017.892500", "170018.352500", "170018.812500", "170019.272500", "170019.732500", "170020.192500", "170020.652500", "170021.112500", "170021.572500", "170022.032500", "170022.492500", "170022.952500", "170023.412500", "170023.872500", "170024.332500", "170024.792500", "170025.252500", "170025.712500", "170026.172500", "170026.632500", "170027.092500", "170027.552500", "170028.012500", "170028.472500", "170028.932500", "170029.392500", "170029.852500", "170030.312500", "170030.772500", "170031.232500", "170031.692500", "170032.152500", "170032.612500", "170033.072500", "170033.532500", "170033.992500", "170034.452500", "170034.912500", "170035.372500", "170035.832500", "170036.292500", "170036.752500", "170037.212500", "170037.672500", "170038.132500", "170038.592500", "170039.052500", "170039.512500", "170039.972500", "170040.432500", "170040.892500", "170041.352500", "170041.812500", "170042.272500", "170042.732500"],
