{
  "AcquisitionMatrixPE": 82,
  "AcquisitionNumber": 1,
  "AcquisitionTime": "10:29:33.857500",
  "BandwidthPerPixelPhaseEncode": 24.888,
  "BaseResolution": 82,
  "BodyPartExamined": "BRAIN",
  "ConsistencyInfo": "N4_VE11E_LATEST_20181129",
  "ConversionSoftware": "dcm2niix",
  "ConversionSoftwareVersion": "v1.0.20201102",
  "DerivedVendorReportedEchoSpacing": 0.00049,
  "DeviceSerialNumber": "66112",
  "DwellTime": 2e-06,
  "EchoTime": 0.0272,
  "EchoTrainLength": 82,
  "EffectiveEchoSpacing": 0.00049,
  "FlipAngle": 44,
  "ImageComments": "Unaliased MB8/PE3",
  "ImageOrientationPatientDICOM": [0.99997, -0.0076198, 0.00120656, 0.0075049, 0.997029, 0.0766543],
  "ImageType": [
    "ORIGINAL",
    "PRIMARY",
    "M",
    "MB",
    "ND",
    "NORM",
    "MOSAIC"
],
  "ImagingFrequency": 123.252,
  "InPlanePhaseEncodingDirectionDICOM": "COL",
  "InstitutionAddress": "Maynard 3,Hanover,NH,US,03755",
  "InstitutionName": "Dartmouth College - PBS",
  "InstitutionalDepartmentName": "Department",
  "MRAcquisitionType": "2D",
  "MagneticFieldStrength": 3,
  "Manufacturer": "Siemens",
  "ManufacturersModelName": "Prisma",
  "Modality": "MR",
  "MultibandAccelerationFactor": 8,
  "PartialFourier": 1,
  "PatientPosition": "HFS",
  "PercentPhaseFOV": 100,
  "PercentSampling": 100,
  "PhaseEncodingDirection": "j-",
  "PhaseEncodingSteps": 82,
  "PhaseResolution": 1,
  "PixelBandwidth": 3050,
  "ProcedureStepDescription": "Wager_Wager^1076_spacetop",
  "ProtocolName": "func_run-01_task-social_acq-ap-mb8",
  "PulseSequenceDetails": "%CustomerSeq%\\cmrr_mbep2d_bold",
  "ReceiveCoilActiveElements": "HEA;HEP",
  "ReceiveCoilName": "Head_32",
  "ReconMatrixPE": 82,
  "RepetitionTime": 0.46,
  "SAR": 0.100453,
  "ScanOptions": "FS",
  "ScanningSequence": "EP",
  "SequenceName": "epfid2d1_82",
  "SequenceVariant": "SK\\SS",
  "SeriesDescription": "func_run-01_task-social_acq-ap-mb8",
  "SeriesNumber": 8,
  "ShimSetting": [4170, -7718, -7248, 682, 21, 10, -25, 88],
  "SliceThickness": 2.7,
  "SliceTiming": [0, 0.25, 0.0625, 0.3125, 0.125, 0.3775, 0.1875, 0, 0.25, 0.0625, 0.3125, 0.125, 0.3775, 0.1875, 0, 0.25, 0.0625, 0.3125, 0.125, 0.3775, 0.1875, 0, 0.25, 0.0625, 0.3125, 0.125, 0.3775, 0.1875, 0, 0.25, 0.0625, 0.3125, 0.125, 0.3775, 0.1875, 0, 0.25, 0.0625, 0.3125, 0.125, 0.3775, 0.1875, 0, 0.25, 0.0625, 0.3125, 0.125, 0.3775, 0.1875, 0, 0.25, 0.0625, 0.3125, 0.125, 0.3775, 0.1875],
  "SoftwareVersions": "syngo MR E11",
  "SpacingBetweenSlices": 2.7,
  "StationName": "AWP66112",
  "TaskName": "social",
  "TotalReadoutTime": 0.03969,
  "TxRefAmp": 243.953,
  "WipMemBlock": "3c56ea18-3977-4e41-9fd9-21bebdb935d7||Sequence: R016 ve11e/master r/434b28f1; Aug  7 2019 18:53:46 by eja",
  "dcmmeta_affine": [
    [-2.682847023010254, 0.020135093480348587, 0.00482508260756731, 110.50930786132812],
    [0.02044336125254631, 2.674957275390625, 0.20693591237068176, -99.76696014404297],
    [0.0032371170818805695, -0.20565779507160187, 2.69205379486084, -46.573734283447266],
    [0.0, 0.0, 0.0, 1.0]
],
  "dcmmeta_reorient_transform": [
    [0.0, -1.0, 0.0, 81.0],
    [1.0, 0.0, 0.0, 0.0],
    [0.0, 0.0, 1.0, 0.0],
    [0.0, 0.0, 0.0, 1.0]
],
  "dcmmeta_shape": [82, 82, 56, 872],
  "dcmmeta_slice_dim": 2,
  "dcmmeta_version": 0.6,
  "global": {
    "const": {
      "AccessionNumber": "A004030",
      "AcquisitionMatrix": [82, 0, 0, 82],
      "AngioFlag": "N",
      "BitsAllocated": 16,
      "BitsStored": 16,
      "BodyPartExamined": "BRAIN",
      "Columns": 656,
      "EchoNumbers": 1,
      "EchoTime": 27.2,
      "EchoTrainLength": 82,
      "FlipAngle": 44.0,
      "HighBit": 15,
      "ImageOrientationPatient": [0.99997024100221, -0.0076197978084, 0.00120656178173, 0.00750489833166, 0.99702948774776, 0.076654269695],
      "ImagePositionPatient": [-887.89612773642, -878.75005645785, -123.18485739927],
      "ImageType": [
        "ORIGINAL",
        "PRIMARY",
        "M",
        "MB",
        "ND",
        "NORM",
        "MOSAIC"
],
      "ImagedNucleus": "1H",
      "ImagingFrequency": 123.252337,
      "InPlanePhaseEncodingDirection": "COL",
      "MRAcquisitionType": "2D",
      "MagneticFieldStrength": 3.0,
      "Manufacturer": "SIEMENS",
      "ManufacturerModelName": "Prisma",
      "Modality": "MR",
      "NumberOfAverages": 1.0,
      "NumberOfPhaseEncodingSteps": 82,
      "PercentPhaseFieldOfView": 100.0,
      "PercentSampling": 100.0,
      "PerformedProcedureStepStartTime": "101959.709000",
      "PhotometricInterpretation": "MONOCHROME2",
      "PixelBandwidth": 3050.0,
      "PixelRepresentation": 0,
      "PixelSpacing": [2.6829268932343, 2.6829268932343],
      "ProtocolName": "func_run-01_task-social_acq-ap-mb8",
      "RepetitionTime": 460.0,
      "Rows": 656,
      "SAR": 0.10045266771281,
      "SamplesPerPixel": 1,
      "ScanOptions": "FS",
      "ScanningSequence": "EP",
      "SequenceName": "epfid2d1_82",
      "SequenceVariant": [
        "SK",
        "SS"
],
      "SeriesDescription": "func_run-01_task-social_acq-ap-mb8",
      "SeriesNumber": 8,
      "SeriesTime": "102958.575000",
      "SliceLocation": -53.885612159776,
      "SliceThickness": 2.7000000476837,
      "SmallestImagePixelValue": 0,
      "SoftwareVersions": "syngo MR E11",
      "SpacingBetweenSlices": 2.6999999401633,
      "SpecificCharacterSet": "ISO_IR 100",
      "StudyID": "3",
      "StudyTime": "101959.622000",
      "TransmitCoilName": "Body",
      "VariableFlipAngleFlag": "N",
      "WindowCenterWidthExplanation": "Algo1"
    },
    "slices": {}
  },
  "time": {
    "samples": {
      "AcquisitionNumber": [1, 2, 3, 4, 5, 6, 7, 8, 9, 10, 11, 12, 13, 14, 15, 16, 17, 18, 19, 20, 21, 22, 23, 24, 25, 26, 27, 28, 29, 30, 31, 32, 33, 34, 35, 36, 37, 38, 39, 40, 41, 42, 43, 44, 45, 46, 47, 48, 49, 50, 51, 52, 53, 54, 55, 56, 57, 58, 59, 60, 61, 62, 63, 64, 65, 66, 67, 68, 69, 70, 71, 72, 73, 74, 75, 76, 77, 78, 79, 80, 81, 82, 83, 84, 85, 86, 87, 88, 89, 90, 91, 92, 93, 94, 95, 96, 97, 98, 99, 100, 101, 102, 103, 104, 105, 106, 107, 108, 109, 110, 111, 112, 113, 114, 115, 116, 117, 118, 119, 120, 121, 122, 123, 124, 125, 126, 127, 128, 129, 130, 131, 132, 133, 134, 135, 136, 137, 138, 139, 140, 141, 142, 143, 144, 145, 146, 147, 148, 149, 150, 151, 152, 153, 154, 155, 156, 157, 158, 159, 160, 161, 162, 163, 164, 165, 166, 167, 168, 169, 170, 171, 172, 173, 174, 175, 176, 177, 178, 179, 180, 181, 182, 183, 184, 185, 186, 187, 188, 189, 190, 191, 192, 193, 194, 195, 196, 197, 198, 199, 200, 201, 202, 203, 204, 205, 206, 207, 208, 209, 210, 211, 212, 213, 214, 215, 216, 217, 218, 219, 220, 221, 222, 223, 224, 225, 226, 227, 228, 229, 230, 231, 232, 233, 234, 235, 236, 237, 238, 239, 240, 241, 242, 243, 244, 245, 246, 247, 248, 249, 250, 251, 252, 253, 254, 255, 256, 257, 258, 259, 260, 261, 262, 263, 264, 265, 266, 267, 268, 269, 270, 271, 272, 273, 274, 275, 276, 277, 278, 279, 280, 281, 282, 283, 284, 285, 286, 287, 288, 289, 290, 291, 292, 293, 294, 295, 296, 297, 298, 299, 300, 301, 302, 303, 304, 305, 306, 307, 308, 309, 310, 311, 312, 313, 314, 315, 316, 317, 318, 319, 320, 321, 322, 323, 324, 325, 326, 327, 328, 329, 330, 331, 332, 333, 334, 335, 336, 337, 338, 339, 340, 341, 342, 343, 344, 345, 346, 347, 348, 349, 350, 351, 352, 353, 354, 355, 356, 357, 358, 359, 360, 361, 362, 363, 364, 365, 366, 367, 368, 369, 370, 371, 372, 373, 374, 375, 376, 377, 378, 379, 380, 381, 382, 383, 384, 385, 386, 387, 388, 389, 390, 391, 392, 393, 394, 395, 396, 397, 398, 399, 400, 401, 402, 403, 404, 405, 406, 407, 408, 409, 410, 411, 412, 413, 414, 415, 416, 417, 418, 419, 420, 421, 422, 423, 424, 425, 426, 427, 428, 429, 430, 431, 432, 433, 434, 435, 436, 437, 438, 439, 440, 441, 442, 443, 444, 445, 446, 447, 448, 449, 450, 451, 452, 453, 454, 455, 456, 457, 458, 459, 460, 461, 462, 463, 464, 465, 466, 467, 468, 469, 470, 471, 472, 473, 474, 475, 476, 477, 478, 479, 480, 481, 482, 483, 484, 485, 486, 487, 488, 489, 490, 491, 492, 493, 494, 495, 496, 497, 498, 499, 500, 501, 502, 503, 504, 505, 506, 507, 508, 509, 510, 511, 512, 513, 514, 515, 516, 517, 518, 519, 520, 521, 522, 523, 524, 525, 526, 527, 528, 529, 530, 531, 532, 533, 534, 535, 536, 537, 538, 539, 540, 541, 542, 543, 544, 545, 546, 547, 548, 549, 550, 551, 552, 553, 554, 555, 556, 557, 558, 559, 560, 561, 562, 563, 564, 565, 566, 567, 568, 569, 570, 571, 572, 573, 574, 575, 576, 577, 578, 579, 580, 581, 582, 583, 584, 585, 586, 587, 588, 589, 590, 591, 592, 593, 594, 595, 596, 597, 598, 599, 600, 601, 602, 603, 604, 605, 606, 607, 608, 609, 610, 611, 612, 613, 614, 615, 616, 617, 618, 619, 620, 621, 622, 623, 624, 625, 626, 627, 628, 629, 630, 631, 632, 633, 634, 635, 636, 637, 638, 639, 640, 641, 642, 643, 644, 645, 646, 647, 648, 649, 650, 651, 652, 653, 654, 655, 656, 657, 658, 659, 660, 661, 662, 663, 664, 665, 666, 667, 668, 669, 670, 671, 672, 673, 674, 675, 676, 677, 678, 679, 680, 681, 682, 683, 684, 685, 686, 687, 688, 689, 690, 691, 692, 693, 694, 695, 696, 697, 698, 699, 700, 701, 702, 703, 704, 705, 706, 707, 708, 709, 710, 711, 712, 713, 714, 715, 716, 717, 718, 719, 720, 721, 722, 723, 724, 725, 726, 727, 728, 729, 730, 731, 732, 733, 734, 735, 736, 737, 738, 739, 740, 741, 742, 743, 744, 745, 746, 747, 748, 749, 750, 751, 752, 753, 754, 755, 756, 757, 758, 759, 760, 761, 762, 763, 764, 765, 766, 767, 768, 769, 770, 771, 772, 773, 774, 775, 776, 777, 778, 779, 780, 781, 782, 783, 784, 785, 786, 787, 788, 789, 790, 791, 792, 793, 794, 795, 796, 797, 798, 799, 800, 801, 802, 803, 804, 805, 806, 807, 808, 809, 810, 811, 812, 813, 814, 815, 816, 817, 818, 819, 820, 821, 822, 823, 824, 825, 826, 827, 828, 829, 830, 831, 832, 833, 834, 835, 836, 837, 838, 839, 840, 841, 842, 843, 844, 845, 846, 847, 848, 849, 850, 851, 852, 853, 854, 855, 856, 857, 858, 859, 860, 861, 862, 863, 864, 865, 866, 867, 868, 869, 870, 871, 872],
      "AcquisitionTime": ["102933.857500", "102934.317500", "102934.777500", "102935.237500", "102935.697500", "102936.157500", "102936.617500", "102937.077500", "102937.537500", "102937.997500", "102938.457500", "102938.917500", "102939.377500", "102939.837500", "102940.297500", "102940.757500", "102941.217500", "102941.677500", "102942.137500", "102942.597500", "102943.057500", "102943.517500", "102943.977500", "102944.437500", "102944.897500", "102945.357500", "102945.817500", "102946.277500", "102946.737500", "102947.197500", "102947.657500", "102948.117500", "102948.577500", "102949.037500", "102949.497500", "102949.957500", "102950.417500", "102950.877500", "102951.337500", "102951.797500", "102952.257500", "102952.717500", "102953.177500", "102953.637500", "102954.097500", "102954.557500", "102955.017500", "102955.477500", "102955.937500", "102956.397500", "102956.857500", "102957.317500", "102957.777500", "102958.237500", "102958.697500", "102959.157500", "102959.617500", "103000.077500", "103000.537500", "103000.997500", "103001.457500", "103001.917500", "103002.377500", "103002.837500", "103003.297500", "103003.757500", "103004.217500", "103004.677500", "103005.137500", "103005.597500", "103006.057500", "103006.517500", "103006.977500", "103007.437500", "103007.897500", "103008.357500", "103008.817500", "103009.277500", "103009.737500", "103010.197500", "103010.657500", "103011.117500", "103011.577500", "103012.037500", "103012.497500", "103012.957500", "103013.417500", "103013.877500", "103014.337500", "103014.797500", "103015.257500", "103015.717500", "103016.177500", "103016.637500", "103017.097500", "103017.557500", "103018.017500", "103018.477500", "103018.937500", "103019.397500", "103019.857500", "103020.317500", "103020.777500", "103021.237500", "103021.697500", "103022.157500", "103022.617500", "103023.077500", "103023.537500", "103023.997500", "103024.457500", "103024.917500", "103025.377500", "103025.837500", "103026.297500", "103026.757500", "103027.217500", "103027.677500", "103028.137500", "103028.597500", "103029.057500", "103029.517500", "103029.977500", "103030.437500", "103030.897500", "103031.357500", "103031.817500", "103032.277500", "103032.737500", "103033.197500", "103033.657500", "103034.117500", "103034.577500", "103035.037500", "103035.497500", "103035.957500", "103036.417500", "103036.877500", "103037.337500", "103037.797500", "103038.257500", "103038.717500", "103039.177500", "103039.637500", "103040.097500", "103040.557500", "103041.017500", "103041.477500", "103041.937500", "103042.397500", "103042.857500", "103043.317500", "103043.777500", "103044.237500", "103044.697500", "103045.157500", "103045.617500", "103046.077500", "103046.537500", "103046.997500", "103047.457500", "103047.917500", "103048.377500", "103048.837500", "103049.297500", "103049.757500", "103050.217500", "103050.677500", "103051.137500", "103051.597500", "103052.057500", "103052.517500", "103052.977500", "103053.437500", "103053.897500", "103054.357500", "103054.817500", "103055.277500", "103055.737500", "103056.197500", "103056.657500", "103057.117500", "103057.577500", "103058.037500", "103058.497500", "103058.957500", "103059.417500", "103059.877500", "103100.337500", "103100.797500", "103101.257500", "103101.717500", "103102.177500", "103102.637500", "103103.097500", "103103.557500", "103104.017500", "103104.477500", "103104.937500", "103105.397500", "103105.857500", "103106.317500", "103106.777500", "103107.237500", "103107.697500", "103108.157500", "103108.617500", "103109.077500", "103109.537500", "103109.997500", "103110.457500", "103110.917500", "103111.377500", "103111.837500", "103112.297500", "103112.757500", "103113.217500", "103113.677500", "103114.137500", "103114.597500", "103115.057500", "103115.517500", "103115.977500", "103116.437500", "103116.897500", "103117.357500", "103117.817500", "103118.277500", "103118.737500", "103119.197500", "103119.657500", "103120.117500", "103120.577500", "103121.037500", "103121.497500", "103121.957500", "103122.417500", "103122.877500", "103123.337500", "103123.797500", "103124.257500", "103124.717500", "103125.177500", "103125.637500", "103126.097500", "103126.557500", "103127.017500", "103127.477500", "103127.937500", "103128.397500", "103128.857500", "103129.317500", "103129.777500", "103130.237500", "103130.697500", "103131.157500", "103131.617500", "103132.077500", "103132.537500", "103132.997500", "103133.457500", "103133.917500", "103134.377500", "103134.837500", "103135.297500", "103135.757500", "103136.217500", "103136.677500", "103137.137500", "103137.597500", "103138.057500", "103138.517500", "103138.977500", "103139.437500", "103139.897500", "103140.357500", "103140.817500", "103141.277500", "103141.737500", "103142.197500", "103142.657500", "103143.117500", "103143.577500", "103144.037500", "103144.497500", "103144.957500", "103145.417500", "103145.877500", "103146.337500", "103146.797500", "103147.257500", "103147.717500", "103148.177500", "103148.637500", "103149.097500", "103149.557500", "103150.017500", "103150.477500", "103150.937500", "103151.397500", "103151.857500", "103152.317500", "103152.777500", "103153.237500", "103153.697500", "103154.157500", "103154.617500", "103155.077500", "103155.537500", "103155.997500", "103156.457500", "103156.917500", "103157.377500", "103157.837500", "103158.297500", "103158.757500", "103159.217500", "103159.677500", "103200.137500", "103200.597500", "103201.057500", "103201.517500", "103201.977500", "103202.437500", "103202.897500", "103203.357500", "103203.817500", "103204.277500", "103204.737500", "103205.197500", "103205.657500", "103206.117500", "103206.577500", "103207.037500", "103207.497500", "103207.957500", "103208.417500", "103208.877500", "103209.337500", "103209.797500", "103210.257500", "103210.717500", "103211.177500", "103211.637500", "103212.097500", "103212.557500", "103213.017500", "103213.477500", "103213.937500", "103214.397500", "103214.857500", "103215.317500", "103215.777500", "103216.237500", "103216.697500", "103217.157500", "103217.617500", "103218.077500", "103218.537500", "103218.997500", "103219.457500", "103219.917500", "103220.377500", "103220.837500", "103221.297500", "103221.757500", "103222.217500", "103222.677500", "103223.137500", "103223.597500", "103224.057500", "103224.517500", "103224.977500", "103225.437500", "103225.897500", "103226.357500", "103226.817500", "103227.277500", "103227.737500", "103228.197500", "103228.657500", "103229.117500", "103229.577500", "103230.037500", "103230.497500", "103230.957500", "103231.417500", "103231.877500", "103232.337500", "103232.797500", "103233.257500", "103233.717500", "103234.177500", "103234.637500", "103235.097500", "103235.557500", "103236.017500", "103236.477500", "103236.937500", "103237.397500", "103237.857500", "103238.317500", "103238.777500", "103239.237500", "103239.697500", "103240.157500", "103240.617500", "103241.077500", "103241.537500", "103241.997500", "103242.457500", "103242.917500", "103243.377500", "103243.837500", "103244.297500", "103244.757500", "103245.217500", "103245.677500", "103246.137500", "103246.597500", "103247.057500", "103247.517500", "103247.977500", "103248.437500", "103248.897500", "103249.357500", "103249.817500", "103250.277500", "103250.737500", "103251.197500", "103251.657500", "103252.117500", "103252.577500", "103253.037500", "103253.497500", "103253.957500", "103254.417500", "103254.877500", "103255.337500", "103255.797500", "103256.257500", "103256.717500", "103257.177500", "103257.637500", "103258.097500", "103258.557500", "103259.017500", "103259.477500", "103259.937500", "103300.397500", "103300.857500", "103301.317500", "103301.777500", "103302.237500", "103302.697500", "103303.157500", "103303.617500", "103304.077500", "103304.537500", "103304.997500", "103305.457500", "103305.917500", "103306.377500", "103306.837500", "103307.297500", "103307.757500", "103308.217500", "103308.677500", "103309.137500", "103309.597500", "103310.057500", "103310.517500", "103310.977500", "103311.437500", "103311.897500", "103312.357500", "103312.817500", "103313.277500", "103313.737500", "103314.197500", "103314.657500", "103315.117500", "103315.577500", "103316.037500", "103316.497500", "103316.957500", "103317.417500", "103317.877500", "103318.337500", "103318.797500", "103319.257500", "103319.717500", "103320.177500", "103320.637500", "103321.097500", "103321.557500", "103322.017500", "103322.477500", "103322.937500", "103323.397500", "103323.857500", "103324.317500", "103324.777500", "103325.237500", "103325.697500", "103326.157500", "103326.617500", "103327.077500", "103327.537500", "103327.997500", "103328.457500", "103328.917500", "103329.377500", "103329.837500", "103330.297500", "103330.757500", "103331.217500", "103331.677500", "103332.137500", "103332.597500", "103333.057500", "103333.517500", "103333.977500", "103334.437500", "103334.897500", "103335.357500", "103335.817500", "103336.277500", "103336.737500", "103337.197500", "103337.657500", "103338.117500", "103338.577500", "103339.037500", "103339.497500", "103339.957500", "103340.417500", "103340.877500", "103341.337500", "103341.797500", "103342.257500", "103342.717500", "103343.177500", "103343.637500", "103344.097500", "103344.557500", "103345.017500", "103345.477500", "103345.937500", "103346.397500", "103346.857500", "103347.317500", "103347.777500", "103348.237500", "103348.697500", "103349.157500", "103349.617500", "103350.077500", "103350.537500", "103350.997500", "103351.457500", "103351.917500", "103352.377500", "103352.837500", "103353.297500", "103353.757500", "103354.217500", "103354.677500", "103355.137500", "103355.597500", "103356.057500", "103356.517500", "103356.977500", "103357.437500", "103357.897500", "103358.357500", "103358.817500", "103359.277500", "103359.737500", "103400.197500", "103400.657500", "103401.117500", "103401.577500", "103402.037500", "103402.497500", "103402.957500", "103403.417500", "103403.877500", "103404.337500", "103404.797500", "103405.257500", "103405.717500", "103406.177500", "103406.637500", "103407.097500", "103407.557500", "103408.017500", "103408.477500", "103408.937500", "103409.397500", "103409.857500", "103410.317500", "103410.777500", "103411.237500", "103411.697500", "103412.157500", "103412.617500", "103413.077500", "103413.537500", "103413.997500", "103414.457500", "103414.917500", "103415.377500", "103415.837500", "103416.297500", "103416.757500", "103417.217500", "103417.677500", "103418.137500", "103418.597500", "103419.057500", "103419.517500", "103419.977500", "103420.437500", "103420.897500", "103421.357500", "103421.817500", "103422.277500", "103422.737500", "103423.197500", "103423.657500", "103424.117500", "103424.577500", "103425.037500", "103425.497500", "103425.957500", "103426.417500", "103426.877500", "103427.337500", "103427.797500", "103428.257500", "103428.717500", "103429.177500", "103429.637500", "103430.097500", "103430.557500", "103431.017500", "103431.477500", "103431.937500", "103432.397500", "103432.857500", "103433.317500", "103433.777500", "103434.237500", "103434.697500", "103435.157500", "103435.617500", "103436.077500", "103436.537500", "103436.997500", "103437.457500", "103437.917500", "103438.377500", "103438.837500", "103439.297500", "103439.757500", "103440.217500", "103440.677500", "103441.137500", "103441.597500", "103442.057500", "103442.517500", "103442.977500", "103443.437500", "103443.897500", "103444.357500", "103444.817500", "103445.277500", "103445.737500", "103446.197500", "103446.657500", "103447.117500", "103447.577500", "103448.037500", "103448.497500", "103448.957500", "103449.417500", "103449.877500", "103450.337500", "103450.797500", "103451.257500", "103451.717500", "103452.177500", "103452.637500", "103453.097500", "103453.557500", "103454.017500", "103454.477500", "103454.937500", "103455.397500", "103455.857500", "103456.317500", "103456.777500", "103457.237500", "103457.697500", "103458.157500", "103458.617500", "103459.077500", "103459.537500", "103459.997500", "103500.457500", "103500.917500", "103501.377500", "103501.837500", "103502.297500", "103502.757500", "103503.217500", "103503.677500", "103504.137500", "103504.597500", "103505.057500", "103505.517500", "103505.977500", "103506.437500", "103506.897500", "103507.357500", "103507.817500", "103508.277500", "103508.737500", "103509.197500", "103509.657500", "103510.117500", "103510.577500", "103511.037500", "103511.497500", "103511.957500", "103512.417500", "103512.877500", "103513.337500", "103513.797500", "103514.257500", "103514.717500", "103515.177500", "103515.637500", "103516.097500", "103516.557500", "103517.017500", "103517.477500", "103517.937500", "103518.397500", "103518.857500", "103519.317500", "103519.777500", "103520.237500", "103520.697500", "103521.157500", "103521.617500", "103522.077500", "103522.537500", "103522.997500", "103523.457500", "103523.917500", "103524.377500", "103524.837500", "103525.297500", "103525.757500", "103526.217500", "103526.677500", "103527.137500", "103527.597500", "103528.057500", "103528.517500", "103528.977500", "103529.437500", "103529.897500", "103530.357500", "103530.817500", "103531.277500", "103531.737500", "103532.197500", "103532.657500", "103533.117500", "103533.577500", "103534.037500", "103534.497500", "103534.957500", "103535.417500", "103535.877500", "103536.337500", "103536.797500", "103537.257500", "103537.717500", "103538.177500", "103538.637500", "103539.097500", "103539.557500", "103540.017500", "103540.477500", "103540.937500", "103541.397500", "103541.857500", "103542.317500", "103542.777500", "103543.237500", "103543.697500", "103544.157500", "103544.617500", "103545.077500", "103545.537500", "103545.997500", "103546.457500", "103546.917500", "103547.377500", "103547.837500", "103548.297500", "103548.757500", "103549.217500", "103549.677500", "103550.137500", "103550.597500", "103551.057500", "103551.517500", "103551.977500", "103552.437500", "103552.897500", "103553.357500", "103553.817500", "103554.277500", "103554.737500", "103555.197500", "103555.657500", "103556.117500", "103556.577500", "103557.037500", "103557.497500", "103557.957500", "103558.417500", "103558.877500", "103559.337500", "103559.797500", "103600.257500", "103600.717500", "103601.177500", "103601.637500", "103602.097500", "103602.557500", "103603.017500", "103603.477500", "103603.937500", "103604.397500", "103604.857500", "103605.317500", "103605.777500", "103606.237500", "103606.697500", "103607.157500", "103607.617500", "103608.077500", "103608.537500", "103608.997500", "103609.457500", "103609.917500", "103610.377500", "103610.837500", "103611.297500", "103611.757500", "103612.217500", "103612.677500", "103613.137500", "103613.597500", "103614.057500", "103614.517500"],
