{
  "AcquisitionMatrixPE": 82,
  "AcquisitionNumber": 1,
  "AcquisitionTime": "10:52:27.415000",
  "BandwidthPerPixelPhaseEncode": 24.888,
  "BaseResolution": 82,
  "BodyPartExamined": "BRAIN",
  "ConsistencyInfo": "N4_VE11E_LATEST_20181129",
  "ConversionSoftware": "dcm2niix",
  "ConversionSoftwareVersion": "v1.0.20201102",
  "DerivedVendorReportedEchoSpacing": 0.00049,
  "DeviceSerialNumber": "66112",
  "DwellTime": 2e-06,
  "EchoTime": 0.0272,
  "EchoTrainLength": 82,
  "EffectiveEchoSpacing": 0.00049,
  "FlipAngle": 44,
  "ImageComments": "Unaliased MB8/PE3",
  "ImageOrientationPatientDICOM": [0.99997, -0.0076198, 0.00120656, 0.0075049, 0.997029, 0.0766543],
  "ImageType": [
    "ORIGINAL",
    "PRIMARY",
    "M",
    "MB",
    "ND",
    "NORM",
    "MOSAIC"
],
  "ImagingFrequency": 123.252,
  "InPlanePhaseEncodingDirectionDICOM": "COL",
  "InstitutionAddress": "Maynard 3,Hanover,NH,US,03755",
  "InstitutionName": "Dartmouth College - PBS",
  "InstitutionalDepartmentName": "Department",
  "MRAcquisitionType": "2D",
  "MagneticFieldStrength": 3,
  "Manufacturer": "Siemens",
  "ManufacturersModelName": "Prisma",
  "Modality": "MR",
  "MultibandAccelerationFactor": 8,
  "PartialFourier": 1,
  "PatientPosition": "HFS",
  "PercentPhaseFOV": 100,
  "PercentSampling": 100,
  "PhaseEncodingDirection": "j-",
  "PhaseEncodingSteps": 82,
  "PhaseResolution": 1,
  "PixelBandwidth": 3050,
  "ProcedureStepDescription": "Wager_Wager^1076_spacetop",
  "ProtocolName": "func_run-05_task-social_acq-ap-mb8",
  "PulseSequenceDetails": "%CustomerSeq%\\cmrr_mbep2d_bold",
  "ReceiveCoilActiveElements": "HEA;HEP",
  "ReceiveCoilName": "Head_32",
  "ReconMatrixPE": 82,
  "RepetitionTime": 0.46,
  "SAR": 0.100453,
  "ScanOptions": "FS",
  "ScanningSequence": "EP",
  "SequenceName": "epfid2d1_82",
  "SequenceVariant": "SK\\SS",
  "SeriesDescription": "func_run-05_task-social_acq-ap-mb8",
  "SeriesNumber": 14,
  "ShimSetting": [4170, -7718, -7248, 682, 21, 10, -25, 88],
  "SliceThickness": 2.7,
  "SliceTiming": [0, 0.2525, 0.065, 0.315, 0.1275, 0.3775, 0.19, 0, 0.2525, 0.065, 0.315, 0.1275, 0.3775, 0.19, 0, 0.2525, 0.065, 0.315, 0.1275, 0.3775, 0.19, 0, 0.2525, 0.065, 0.315, 0.1275, 0.3775, 0.19, 0, 0.2525, 0.065, 0.315, 0.1275, 0.3775, 0.19, 0, 0.2525, 0.065, 0.315, 0.1275, 0.3775, 0.19, 0, 0.2525, 0.065, 0.315, 0.1275, 0.3775, 0.19, 0, 0.2525, 0.065, 0.315, 0.1275, 0.3775, 0.19],
  "SoftwareVersions": "syngo MR E11",
  "SpacingBetweenSlices": 2.7,
  "StationName": "AWP66112",
  "TaskName": "social",
  "TotalReadoutTime": 0.03969,
  "TxRefAmp": 243.953,
  "WipMemBlock": "39fbe584-27f0-4cc9-bd45-eaf0725a3dc2||Sequence: R016 ve11e/master r/434b28f1; Aug  7 2019 18:53:46 by eja",
  "dcmmeta_affine": [
    [-2.682847023010254, 0.020135093480348587, 0.00482508260756731, 110.50930786132812],
    [0.02044336125254631, 2.674957275390625, 0.20693591237068176, -99.76696014404297],
    [0.0032371170818805695, -0.20565779507160187, 2.69205379486084, -46.573734283447266],
    [0.0, 0.0, 0.0, 1.0]
],
  "dcmmeta_reorient_transform": [
    [0.0, -1.0, 0.0, 81.0],
    [1.0, 0.0, 0.0, 0.0],
    [0.0, 0.0, 1.0, 0.0],
    [0.0, 0.0, 0.0, 1.0]
],
  "dcmmeta_shape": [82, 82, 56, 872],
  "dcmmeta_slice_dim": 2,
  "dcmmeta_version": 0.6,
  "global": {
    "const": {
      "AccessionNumber": "A004030",
      "AcquisitionMatrix": [82, 0, 0, 82],
      "AngioFlag": "N",
      "BitsAllocated": 16,
      "BitsStored": 16,
      "BodyPartExamined": "BRAIN",
      "Columns": 656,
      "EchoNumbers": 1,
      "EchoTime": 27.2,
      "EchoTrainLength": 82,
      "FlipAngle": 44.0,
      "HighBit": 15,
      "ImageOrientationPatient": [0.99997024100221, -0.0076197978084, 0.00120656178173, 0.00750489833166, 0.99702948774776, 0.076654269695],
      "ImagePositionPatient": [-887.89612773642, -878.75005645785, -123.18485739927],
      "ImageType": [
        "ORIGINAL",
        "PRIMARY",
        "M",
        "MB",
        "ND",
        "NORM",
        "MOSAIC"
],
      "ImagedNucleus": "1H",
      "ImagingFrequency": 123.252345,
      "InPlanePhaseEncodingDirection": "COL",
      "MRAcquisitionType": "2D",
      "MagneticFieldStrength": 3.0,
      "Manufacturer": "SIEMENS",
      "ManufacturerModelName": "Prisma",
      "Modality": "MR",
      "NumberOfAverages": 1.0,
      "NumberOfPhaseEncodingSteps": 82,
      "PercentPhaseFieldOfView": 100.0,
      "PercentSampling": 100.0,
      "PerformedProcedureStepStartTime": "101959.709000",
      "PhotometricInterpretation": "MONOCHROME2",
      "PixelBandwidth": 3050.0,
      "PixelRepresentation": 0,
      "PixelSpacing": [2.6829268932343, 2.6829268932343],
      "ProtocolName": "func_run-05_task-social_acq-ap-mb8",
      "RepetitionTime": 460.0,
      "Rows": 656,
      "SAR": 0.10045266771281,
      "SamplesPerPixel": 1,
      "ScanOptions": "FS",
      "ScanningSequence": "EP",
      "SequenceName": "epfid2d1_82",
      "SequenceVariant": [
        "SK",
        "SS"
],
      "SeriesDescription": "func_run-05_task-social_acq-ap-mb8",
      "SeriesNumber": 14,
      "SeriesTime": "105238.691000",
      "SliceLocation": -53.885612159776,
      "SliceThickness": 2.7000000476837,
      "SmallestImagePixelValue": 0,
      "SoftwareVersions": "syngo MR E11",
      "SpacingBetweenSlices": 2.6999999401633,
      "SpecificCharacterSet": "ISO_IR 100",
      "StudyID": "3",
      "StudyTime": "101959.622000",
      "TransmitCoilName": "Body",
      "VariableFlipAngleFlag": "N",
      "WindowCenterWidthExplanation": "Algo1"
    },
    "slices": {}
  },
  "time": {
    "samples": {
      "AcquisitionNumber": [1, 2, 3, 4, 5, 6, 7, 8, 9, 10, 11, 12, 13, 14, 15, 16, 17, 18, 19, 20, 21, 22, 23, 24, 25, 26, 27, 28, 29, 30, 31, 32, 33, 34, 35, 36, 37, 38, 39, 40, 41, 42, 43, 44, 45, 46, 47, 48, 49, 50, 51, 52, 53, 54, 55, 56, 57, 58, 59, 60, 61, 62, 63, 64, 65, 66, 67, 68, 69, 70, 71, 72, 73, 74, 75, 76, 77, 78, 79, 80, 81, 82, 83, 84, 85, 86, 87, 88, 89, 90, 91, 92, 93, 94, 95, 96, 97, 98, 99, 100, 101, 102, 103, 104, 105, 106, 107, 108, 109, 110, 111, 112, 113, 114, 115, 116, 117, 118, 119, 120, 121, 122, 123, 124, 125, 126, 127, 128, 129, 130, 131, 132, 133, 134, 135, 136, 137, 138, 139, 140, 141, 142, 143, 144, 145, 146, 147, 148, 149, 150, 151, 152, 153, 154, 155, 156, 157, 158, 159, 160, 161, 162, 163, 164, 165, 166, 167, 168, 169, 170, 171, 172, 173, 174, 175, 176, 177, 178, 179, 180, 181, 182, 183, 184, 185, 186, 187, 188, 189, 190, 191, 192, 193, 194, 195, 196, 197, 198, 199, 200, 201, 202, 203, 204, 205, 206, 207, 208, 209, 210, 211, 212, 213, 214, 215, 216, 217, 218, 219, 220, 221, 222, 223, 224, 225, 226, 227, 228, 229, 230, 231, 232, 233, 234, 235, 236, 237, 238, 239, 240, 241, 242, 243, 244, 245, 246, 247, 248, 249, 250, 251, 252, 253, 254, 255, 256, 257, 258, 259, 260, 261, 262, 263, 264, 265, 266, 267, 268, 269, 270, 271, 272, 273, 274, 275, 276, 277, 278, 279, 280, 281, 282, 283, 284, 285, 286, 287, 288, 289, 290, 291, 292, 293, 294, 295, 296, 297, 298, 299, 300, 301, 302, 303, 304, 305, 306, 307, 308, 309, 310, 311, 312, 313, 314, 315, 316, 317, 318, 319, 320, 321, 322, 323, 324, 325, 326, 327, 328, 329, 330, 331, 332, 333, 334, 335, 336, 337, 338, 339, 340, 341, 342, 343, 344, 345, 346, 347, 348, 349, 350, 351, 352, 353, 354, 355, 356, 357, 358, 359, 360, 361, 362, 363, 364, 365, 366, 367, 368, 369, 370, 371, 372, 373, 374, 375, 376, 377, 378, 379, 380, 381, 382, 383, 384, 385, 386, 387, 388, 389, 390, 391, 392, 393, 394, 395, 396, 397, 398, 399, 400, 401, 402, 403, 404, 405, 406, 407, 408, 409, 410, 411, 412, 413, 414, 415, 416, 417, 418, 419, 420, 421, 422, 423, 424, 425, 426, 427, 428, 429, 430, 431, 432, 433, 434, 435, 436, 437, 438, 439, 440, 441, 442, 443, 444, 445, 446, 447, 448, 449, 450, 451, 452, 453, 454, 455, 456, 457, 458, 459, 460, 461, 462, 463, 464, 465, 466, 467, 468, 469, 470, 471, 472, 473, 474, 475, 476, 477, 478, 479, 480, 481, 482, 483, 484, 485, 486, 487, 488, 489, 490, 491, 492, 493, 494, 495, 496, 497, 498, 499, 500, 501, 502, 503, 504, 505, 506, 507, 508, 509, 510, 511, 512, 513, 514, 515, 516, 517, 518, 519, 520, 521, 522, 523, 524, 525, 526, 527, 528, 529, 530, 531, 532, 533, 534, 535, 536, 537, 538, 539, 540, 541, 542, 543, 544, 545, 546, 547, 548, 549, 550, 551, 552, 553, 554, 555, 556, 557, 558, 559, 560, 561, 562, 563, 564, 565, 566, 567, 568, 569, 570, 571, 572, 573, 574, 575, 576, 577, 578, 579, 580, 581, 582, 583, 584, 585, 586, 587, 588, 589, 590, 591, 592, 593, 594, 595, 596, 597, 598, 599, 600, 601, 602, 603, 604, 605, 606, 607, 608, 609, 610, 611, 612, 613, 614, 615, 616, 617, 618, 619, 620, 621, 622, 623, 624, 625, 626, 627, 628, 629, 630, 631, 632, 633, 634, 635, 636, 637, 638, 639, 640, 641, 642, 643, 644, 645, 646, 647, 648, 649, 650, 651, 652, 653, 654, 655, 656, 657, 658, 659, 660, 661, 662, 663, 664, 665, 666, 667, 668, 669, 670, 671, 672, 673, 674, 675, 676, 677, 678, 679, 680, 681, 682, 683, 684, 685, 686, 687, 688, 689, 690, 691, 692, 693, 694, 695, 696, 697, 698, 699, 700, 701, 702, 703, 704, 705, 706, 707, 708, 709, 710, 711, 712, 713, 714, 715, 716, 717, 718, 719, 720, 721, 722, 723, 724, 725, 726, 727, 728, 729, 730, 731, 732, 733, 734, 735, 736, 737, 738, 739, 740, 741, 742, 743, 744, 745, 746, 747, 748, 749, 750, 751, 752, 753, 754, 755, 756, 757, 758, 759, 760, 761, 762, 763, 764, 765, 766, 767, 768, 769, 770, 771, 772, 773, 774, 775, 776, 777, 778, 779, 780, 781, 782, 783, 784, 785, 786, 787, 788, 789, 790, 791, 792, 793, 794, 795, 796, 797, 798, 799, 800, 801, 802, 803, 804, 805, 806, 807, 808, 809, 810, 811, 812, 813, 814, 815, 816, 817, 818, 819, 820, 821, 822, 823, 824, 825, 826, 827, 828, 829, 830, 831, 832, 833, 834, 835, 836, 837, 838, 839, 840, 841, 842, 843, 844, 845, 846, 847, 848, 849, 850, 851, 852, 853, 854, 855, 856, 857, 858, 859, 860, 861, 862, 863, 864, 865, 866, 867, 868, 869, 870, 871, 872],
      "AcquisitionTime": ["105227.415000", "105227.875000", "105228.335000", "105228.795000", "105229.255000", "105229.715000", "105230.175000", "105230.635000", "105231.095000", "105231.555000", "105232.015000", "105232.475000", "105232.935000", "105233.395000", "105233.855000", "105234.315000", "105234.775000", "105235.235000", "105235.695000", "105236.155000", "105236.615000", "105237.075000", "105237.535000", "105237.995000", "105238.455000", "105238.915000", "105239.375000", "105239.835000", "105240.295000", "105240.755000", "105241.215000", "105241.675000", "105242.135000", "105242.595000", "105243.055000", "105243.515000", "105243.975000", "105244.435000", "105244.895000", "105245.355000", "105245.815000", "105246.275000", "105246.735000", "105247.195000", "105247.655000", "105248.115000", "105248.575000", "105249.035000", "105249.495000", "105249.955000", "105250.415000", "105250.875000", "105251.335000", "105251.795000", "105252.255000", "105252.715000", "105253.175000", "105253.635000", "105254.095000", "105254.555000", "105255.015000", "105255.475000", "105255.935000", "105256.395000", "105256.855000", "105257.315000", "105257.775000", "105258.235000", "105258.695000", "105259.155000", "105259.615000", "105300.075000", "105300.535000", "105300.995000", "105301.455000", "105301.915000", "105302.375000", "105302.835000", "105303.295000", "105303.755000", "105304.215000", "105304.675000", "105305.135000", "105305.595000", "105306.055000", "105306.515000", "105306.975000", "105307.435000", "105307.895000", "105308.355000", "105308.815000", "105309.275000", "105309.735000", "105310.195000", "105310.655000", "105311.115000", "105311.575000", "105312.035000", "105312.495000", "105312.955000", "105313.415000", "105313.875000", "105314.335000", "105314.795000", "105315.255000", "105315.715000", "105316.175000", "105316.635000", "105317.095000", "105317.555000", "105318.015000", "105318.475000", "105318.935000", "105319.395000", "105319.855000", "105320.315000", "105320.775000", "105321.235000", "105321.695000", "105322.155000", "105322.615000", "105323.075000", "105323.535000", "105323.995000", "105324.455000", "105324.915000", "105325.375000", "105325.835000", "105326.295000", "105326.755000", "105327.215000", "105327.675000", "105328.135000", "105328.595000", "105329.055000", "105329.515000", "105329.975000", "105330.435000", "105330.895000", "105331.355000", "105331.815000", "105332.275000", "105332.735000", "105333.195000", "105333.655000", "105334.115000", "105334.575000", "105335.035000", "105335.495000", "105335.955000", "105336.415000", "105336.875000", "105337.335000", "105337.795000", "105338.255000", "105338.715000", "105339.175000", "105339.635000", "105340.095000", "105340.555000", "105341.015000", "105341.475000", "105341.935000", "105342.395000", "105342.855000", "105343.315000", "105343.775000", "105344.235000", "105344.695000", "105345.155000", "105345.615000", "105346.075000", "105346.535000", "105346.995000", "105347.455000", "105347.915000", "105348.375000", "105348.835000", "105349.295000", "105349.755000", "105350.215000", "105350.675000", "105351.135000", "105351.595000", "105352.055000", "105352.515000", "105352.975000", "105353.435000", "105353.895000", "105354.355000", "105354.815000", "105355.275000", "105355.735000", "105356.195000", "105356.655000", "105357.115000", "105357.575000", "105358.035000", "105358.495000", "105358.955000", "105359.415000", "105359.875000", "105400.335000", "105400.795000", "105401.255000", "105401.715000", "105402.175000", "105402.635000", "105403.095000", "105403.555000", "105404.015000", "105404.475000", "105404.935000", "105405.395000", "105405.855000", "105406.315000", "105406.775000", "105407.235000", "105407.695000", "105408.155000", "105408.615000", "105409.075000", "105409.535000", "105409.995000", "105410.455000", "105410.915000", "105411.375000", "105411.835000", "105412.295000", "105412.755000", "105413.215000", "105413.675000", "105414.135000", "105414.595000", "105415.055000", "105415.515000", "105415.975000", "105416.435000", "105416.895000", "105417.355000", "105417.815000", "105418.275000", "105418.735000", "105419.195000", "105419.655000", "105420.115000", "105420.575000", "105421.035000", "105421.495000", "105421.955000", "105422.415000", "105422.875000", "105423.335000", "105423.795000", "105424.255000", "105424.715000", "105425.175000", "105425.635000", "105426.095000", "105426.555000", "105427.015000", "105427.475000", "105427.935000", "105428.395000", "105428.855000", "105429.315000", "105429.775000", "105430.235000", "105430.695000", "105431.155000", "105431.615000", "105432.075000", "105432.535000", "105432.995000", "105433.455000", "105433.915000", "105434.375000", "105434.835000", "105435.295000", "105435.755000", "105436.215000", "105436.675000", "105437.135000", "105437.595000", "105438.055000", "105438.515000", "105438.975000", "105439.435000", "105439.895000", "105440.355000", "105440.815000", "105441.275000", "105441.735000", "105442.195000", "105442.655000", "105443.115000", "105443.575000", "105444.035000", "105444.495000", "105444.955000", "105445.415000", "105445.875000", "105446.335000", "105446.795000", "105447.255000", "105447.715000", "105448.175000", "105448.635000", "105449.095000", "105449.555000", "105450.015000", "105450.475000", "105450.935000", "105451.395000", "105451.855000", "105452.315000", "105452.775000", "105453.235000", "105453.695000", "105454.155000", "105454.615000", "105455.075000", "105455.535000", "105455.995000", "105456.455000", "105456.915000", "105457.375000", "105457.835000", "105458.295000", "105458.755000", "105459.215000", "105459.675000", "105500.135000", "105500.595000", "105501.055000", "105501.515000", "105501.975000", "105502.435000", "105502.895000", "105503.355000", "105503.815000", "105504.275000", "105504.735000", "105505.195000", "105505.655000", "105506.115000", "105506.575000", "105507.035000", "105507.495000", "105507.955000", "105508.415000", "105508.875000", "105509.335000", "105509.795000", "105510.255000", "105510.715000", "105511.175000", "105511.635000", "105512.095000", "105512.555000", "105513.015000", "105513.475000", "105513.935000", "105514.395000", "105514.855000", "105515.315000", "105515.775000", "105516.235000", "105516.695000", "105517.155000", "105517.615000", "105518.075000", "105518.535000", "105518.995000", "105519.455000", "105519.915000", "105520.375000", "105520.835000", "105521.295000", "105521.755000", "105522.215000", "105522.675000", "105523.135000", "105523.595000", "105524.055000", "105524.515000", "105524.975000", "105525.435000", "105525.895000", "105526.355000", "105526.815000", "105527.275000", "105527.735000", "105528.195000", "105528.655000", "105529.115000", "105529.575000", "105530.035000", "105530.495000", "105530.955000", "105531.415000", "105531.875000", "105532.335000", "105532.795000", "105533.255000", "105533.715000", "105534.175000", "105534.635000", "105535.095000", "105535.555000", "105536.015000", "105536.475000", "105536.935000", "105537.395000", "105537.855000", "105538.315000", "105538.775000", "105539.235000", "105539.695000", "105540.155000", "105540.615000", "105541.075000", "105541.535000", "105541.995000", "105542.455000", "105542.915000", "105543.375000", "105543.835000", "105544.295000", "105544.755000", "105545.215000", "105545.675000", "105546.135000", "105546.595000", "105547.055000", "105547.515000", "105547.975000", "105548.435000", "105548.895000", "105549.355000", "105549.815000", "105550.275000", "105550.735000", "105551.195000", "105551.655000", "105552.115000", "105552.575000", "105553.035000", "105553.495000", "105553.955000", "105554.415000", "105554.875000", "105555.335000", "105555.795000", "105556.255000", "105556.715000", "105557.175000", "105557.635000", "105558.095000", "105558.555000", "105559.015000", "105559.475000", "105559.935000", "105600.395000", "105600.855000", "105601.315000", "105601.775000", "105602.235000", "105602.695000", "105603.155000", "105603.615000", "105604.075000", "105604.535000", "105604.995000", "105605.455000", "105605.915000", "105606.375000", "105606.835000", "105607.295000", "105607.755000", "105608.215000", "105608.675000", "105609.135000", "105609.595000", "105610.055000", "105610.515000", "105610.975000", "105611.435000", "105611.895000", "105612.355000", "105612.815000", "105613.275000", "105613.735000", "105614.195000", "105614.655000", "105615.115000", "105615.575000", "105616.035000", "105616.495000", "105616.955000", "105617.415000", "105617.875000", "105618.335000", "105618.795000", "105619.255000", "105619.715000", "105620.175000", "105620.635000", "105621.095000", "105621.555000", "105622.015000", "105622.475000", "105622.935000", "105623.395000", "105623.855000", "105624.315000", "105624.775000", "105625.235000", "105625.695000", "105626.155000", "105626.615000", "105627.075000", "105627.535000", "105627.995000", "105628.455000", "105628.915000", "105629.375000", "105629.835000", "105630.295000", "105630.755000", "105631.215000", "105631.675000", "105632.135000", "105632.595000", "105633.055000", "105633.515000", "105633.975000", "105634.435000", "105634.895000", "105635.355000", "105635.815000", "105636.275000", "105636.735000", "105637.195000", "105637.655000", "105638.115000", "105638.575000", "105639.035000", "105639.495000", "105639.955000", "105640.415000", "105640.875000", "105641.335000", "105641.795000", "105642.255000", "105642.715000", "105643.175000", "105643.635000", "105644.095000", "105644.555000", "105645.015000", "105645.475000", "105645.935000", "105646.395000", "105646.855000", "105647.315000", "105647.775000", "105648.235000", "105648.695000", "105649.155000", "105649.615000", "105650.075000", "105650.535000", "105650.995000", "105651.455000", "105651.915000", "105652.375000", "105652.835000", "105653.295000", "105653.755000", "105654.215000", "105654.675000", "105655.135000", "105655.595000", "105656.055000", "105656.515000", "105656.975000", "105657.435000", "105657.895000", "105658.355000", "105658.815000", "105659.275000", "105659.735000", "105700.195000", "105700.655000", "105701.115000", "105701.575000", "105702.035000", "105702.495000", "105702.955000", "105703.415000", "105703.875000", "105704.335000", "105704.795000", "105705.255000", "105705.715000", "105706.175000", "105706.635000", "105707.095000", "105707.555000", "105708.015000", "105708.475000", "105708.935000", "105709.395000", "105709.855000", "105710.315000", "105710.775000", "105711.235000", "105711.695000", "105712.155000", "105712.615000", "105713.075000", "105713.535000", "105713.995000", "105714.455000", "105714.915000", "105715.375000", "105715.835000", "105716.295000", "105716.755000", "105717.215000", "105717.675000", "105718.135000", "105718.595000", "105719.055000", "105719.515000", "105719.975000", "105720.435000", "105720.895000", "105721.355000", "105721.815000", "105722.275000", "105722.735000", "105723.195000", "105723.655000", "105724.115000", "105724.575000", "105725.035000", "105725.495000", "105725.955000", "105726.415000", "105726.875000", "105727.335000", "105727.795000", "105728.255000", "105728.715000", "105729.175000", "105729.635000", "105730.095000", "105730.555000", "105731.015000", "105731.475000", "105731.935000", "105732.395000", "105732.855000", "105733.315000", "105733.775000", "105734.235000", "105734.695000", "105735.155000", "105735.615000", "105736.075000", "105736.535000", "105736.995000", "105737.455000", "105737.915000", "105738.375000", "105738.835000", "105739.295000", "105739.755000", "105740.215000", "105740.675000", "105741.135000", "105741.595000", "105742.055000", "105742.515000", "105742.975000", "105743.435000", "105743.895000", "105744.355000", "105744.815000", "105745.275000", "105745.735000", "105746.195000", "105746.655000", "105747.115000", "105747.575000", "105748.035000", "105748.495000", "105748.955000", "105749.415000", "105749.875000", "105750.335000", "105750.795000", "105751.255000", "105751.715000", "105752.175000", "105752.635000", "105753.095000", "105753.555000", "105754.015000", "105754.475000", "105754.935000", "105755.395000", "105755.855000", "105756.315000", "105756.775000", "105757.235000", "105757.695000", "105758.155000", "105758.615000", "105759.075000", "105759.535000", "105759.995000", "105800.455000", "105800.915000", "105801.375000", "105801.835000", "105802.295000", "105802.755000", "105803.215000", "105803.675000", "105804.135000", "105804.595000", "105805.055000", "105805.515000", "105805.975000", "105806.435000", "105806.895000", "105807.355000", "105807.815000", "105808.275000", "105808.735000", "105809.195000", "105809.655000", "105810.115000", "105810.575000", "105811.035000", "105811.495000", "105811.955000", "105812.415000", "105812.875000", "105813.335000", "105813.795000", "105814.255000", "105814.715000", "105815.175000", "105815.635000", "105816.095000", "105816.555000", "105817.015000", "105817.475000", "105817.935000", "105818.395000", "105818.855000", "105819.315000", "105819.775000", "105820.235000", "105820.695000", "105821.155000", "105821.615000", "105822.075000", "105822.535000", "105822.995000", "105823.455000", "105823.915000", "105824.375000", "105824.835000", "105825.295000", "105825.755000", "105826.215000", "105826.675000", "105827.135000", "105827.595000", "105828.055000", "105828.515000", "105828.975000", "105829.435000", "105829.895000", "105830.355000", "105830.815000", "105831.275000", "105831.735000", "105832.195000", "105832.655000", "105833.115000", "105833.575000", "105834.035000", "105834.495000", "105834.955000", "105835.415000", "105835.875000", "105836.335000", "105836.795000", "105837.255000", "105837.715000", "105838.175000", "105838.635000", "105839.095000", "105839.555000", "105840.015000", "105840.475000", "105840.935000", "105841.395000", "105841.855000", "105842.315000", "105842.775000", "105843.235000", "105843.695000", "105844.155000", "105844.615000", "105845.075000", "105845.535000", "105845.995000", "105846.455000", "105846.915000", "105847.375000", "105847.835000", "105848.295000", "105848.755000", "105849.215000", "105849.675000", "105850.135000", "105850.595000", "105851.055000", "105851.515000", "105851.975000", "105852.435000", "105852.895000", "105853.355000", "105853.815000", "105854.275000", "105854.735000", "105855.195000", "105855.655000", "105856.115000", "105856.575000", "105857.035000", "105857.495000", "105857.955000", "105858.415000", "105858.875000", "105859.335000", "105859.795000", "105900.255000", "105900.715000", "105901.175000", "105901.635000", "105902.095000", "105902.555000", "105903.015000", "105903.475000", "105903.935000", "105904.395000", "105904.855000", "105905.315000", "105905.775000", "105906.235000", "105906.695000", "105907.155000", "105907.615000", "105908.075000"],
