{
  "AcquisitionMatrixPE": 82,
  "AcquisitionNumber": 1,
  "AcquisitionTime": "12:02:44.432500",
  "BandwidthPerPixelPhaseEncode": 24.888,
  "BaseResolution": 82,
  "BodyPartExamined": "BRAIN",
  "ConsistencyInfo": "N4_VE11E_LATEST_20181129",
  "ConversionSoftware": "dcm2niix",
  "ConversionSoftwareVersion": "v1.0.20201102",
  "DerivedVendorReportedEchoSpacing": 0.00049,
  "DeviceSerialNumber": "66112",
  "DwellTime": 2e-06,
  "EchoTime": 0.0272,
  "EchoTrainLength": 82,
  "EffectiveEchoSpacing": 0.00049,
  "FlipAngle": 44,
  "ImageComments": "Unaliased MB8/PE3",
  "ImageOrientationPatientDICOM": [0.998222, 0.0585695, -0.0110455, -0.0593053, 0.994516, -0.0861404],
  "ImageType": [
    "ORIGINAL",
    "PRIMARY",
    "M",
    "MB",
    "ND",
    "NORM",
    "MOSAIC"
],
  "ImagingFrequency": 123.252,
  "InPlanePhaseEncodingDirectionDICOM": "COL",
  "InstitutionAddress": "Maynard 3,Hanover,NH,US,03755",
  "InstitutionName": "Dartmouth College - PBS",
  "InstitutionalDepartmentName": "Department",
  "MRAcquisitionType": "2D",
  "MagneticFieldStrength": 3,
  "Manufacturer": "Siemens",
  "ManufacturersModelName": "Prisma",
  "Modality": "MR",
  "MultibandAccelerationFactor": 8,
  "PartialFourier": 1,
  "PatientPosition": "HFS",
  "PercentPhaseFOV": 100,
  "PercentSampling": 100,
  "PhaseEncodingDirection": "j-",
  "PhaseEncodingSteps": 82,
  "PhaseResolution": 1,
  "PixelBandwidth": 3050,
  "ProcedureStepDescription": "Wager_Wager^1076_spacetop",
  "ProtocolName": "func_run-03_task-faces_acq-ap-mb8",
  "PulseSequenceDetails": "%CustomerSeq%\\cmrr_mbep2d_bold",
  "ReceiveCoilActiveElements": "HEA;HEP",
  "ReceiveCoilName": "Head_32",
  "ReconMatrixPE": 82,
  "RepetitionTime": 0.46,
  "SAR": 0.104537,
  "ScanOptions": "FS",
  "ScanningSequence": "EP",
  "SequenceName": "epfid2d1_82",
  "SequenceVariant": "SK\\SS",
  "SeriesDescription": "func_run-03_task-faces_acq-ap-mb8",
  "SeriesNumber": 20,
  "ShimSetting": [4145, -7683, -7279, 556, -64, 57, -28, 73],
  "SliceThickness": 2.7,
  "SliceTiming": [0, 0.25, 0.0625, 0.3125, 0.125, 0.3775, 0.1875, 0, 0.25, 0.0625, 0.3125, 0.125, 0.3775, 0.1875, 0, 0.25, 0.0625, 0.3125, 0.125, 0.3775, 0.1875, 0, 0.25, 0.0625, 0.3125, 0.125, 0.3775, 0.1875, 0, 0.25, 0.0625, 0.3125, 0.125, 0.3775, 0.1875, 0, 0.25, 0.0625, 0.3125, 0.125, 0.3775, 0.1875, 0, 0.25, 0.0625, 0.3125, 0.125, 0.3775, 0.1875, 0, 0.25, 0.0625, 0.3125, 0.125, 0.3775, 0.1875],
  "SoftwareVersions": "syngo MR E11",
  "SpacingBetweenSlices": 2.7,
  "StationName": "AWP66112",
  "TaskName": "faces",
  "TotalReadoutTime": 0.03969,
  "TxRefAmp": 253.631,
  "WipMemBlock": "0b5a8e79-e41c-4065-8cd9-e04379bd0cc5||Sequence: R016 ve11e/master r/434b28f1; Aug  7 2019 18:53:46 by eja",
  "dcmmeta_affine": [
    [-2.678157329559326, -0.15911169350147247, -0.016037316992878914, 121.63204193115234],
    [-0.15713781118392944, 2.6682145595550537, -0.23393426835536957, -78.99569702148438],
    [-0.029634326696395874, 0.2311083972454071, 2.6897988319396973, -92.24765014648438],
    [0.0, 0.0, 0.0, 1.0]
],
  "dcmmeta_reorient_transform": [
    [0.0, -1.0, 0.0, 81.0],
    [1.0, 0.0, 0.0, 0.0],
    [0.0, 0.0, 1.0, 0.0],
    [0.0, 0.0, 0.0, 1.0]
],
  "dcmmeta_shape": [82, 82, 56, 914],
  "dcmmeta_slice_dim": 2,
  "dcmmeta_version": 0.6,
  "global": {
    "const": {
      "AccessionNumber": "A003931",
      "AcquisitionMatrix": [82, 0, 0, 82],
      "AngioFlag": "N",
      "BitsAllocated": 16,
      "BitsStored": 16,
      "BodyPartExamined": "BRAIN",
      "Columns": 656,
      "EchoNumbers": 1,
      "EchoTime": 27.2,
      "EchoTrainLength": 82,
      "FlipAngle": 44.0,
      "HighBit": 15,
      "ImageOrientationPatient": [0.99822222211517, 0.05856954614275, -0.0110455212678, -0.0593052668898, 0.9945163229715, -0.0861404008719],
      "ImagePositionPatient": [-831.71006743384, -948.00582624927, 1.3052907681191],
      "ImageType": [
        "ORIGINAL",
        "PRIMARY",
        "M",
        "MB",
        "ND",
        "NORM",
        "MOSAIC"
],
      "ImagedNucleus": "1H",
      "ImagingFrequency": 123.252218,
      "InPlanePhaseEncodingDirection": "COL",
      "MRAcquisitionType": "2D",
      "MagneticFieldStrength": 3.0,
      "Manufacturer": "SIEMENS",
      "ManufacturerModelName": "Prisma",
      "Modality": "MR",
      "NumberOfAverages": 1.0,
      "NumberOfPhaseEncodingSteps": 82,
      "PercentPhaseFieldOfView": 100.0,
      "PercentSampling": 100.0,
      "PerformedProcedureStepStartTime": "104941.314000",
      "PhotometricInterpretation": "MONOCHROME2",
      "PixelBandwidth": 3050.0,
      "PixelRepresentation": 0,
      "PixelSpacing": [2.6829268932343, 2.6829268932343],
      "ProtocolName": "func_run-03_task-faces_acq-ap-mb8",
      "RepetitionTime": 460.0,
      "Rows": 656,
      "SAR": 0.10453745024914,
      "SamplesPerPixel": 1,
      "ScanOptions": "FS",
      "ScanningSequence": "EP",
      "SequenceName": "epfid2d1_82",
      "SequenceVariant": [
        "SK",
        "SS"
],
      "SeriesDescription": "func_run-03_task-faces_acq-ap-mb8",
      "SeriesNumber": 20,
      "SeriesTime": "120256.819000",
      "SliceLocation": -85.777212421817,
      "SliceThickness": 2.7000000476837,
      "SmallestImagePixelValue": 0,
      "SoftwareVersions": "syngo MR E11",
      "SpacingBetweenSlices": 2.7000000095169,
      "SpecificCharacterSet": "ISO_IR 100",
      "StudyID": "2",
      "StudyTime": "104941.221000",
      "TransmitCoilName": "Body",
      "VariableFlipAngleFlag": "N",
      "WindowCenterWidthExplanation": "Algo1"
    },
    "slices": {}
  },
  "time": {
    "samples": {
      "AcquisitionNumber": [1, 2, 3, 4, 5, 6, 7, 8, 9, 10, 11, 12, 13, 14, 15, 16, 17, 18, 19, 20, 21, 22, 23, 24, 25, 26, 27, 28, 29, 30, 31, 32, 33, 34, 35, 36, 37, 38, 39, 40, 41, 42, 43, 44, 45, 46, 47, 48, 49, 50, 51, 52, 53, 54, 55, 56, 57, 58, 59, 60, 61, 62, 63, 64, 65, 66, 67, 68, 69, 70, 71, 72, 73, 74, 75, 76, 77, 78, 79, 80, 81, 82, 83, 84, 85, 86, 87, 88, 89, 90, 91, 92, 93, 94, 95, 96, 97, 98, 99, 100, 101, 102, 103, 104, 105, 106, 107, 108, 109, 110, 111, 112, 113, 114, 115, 116, 117, 118, 119, 120, 121, 122, 123, 124, 125, 126, 127, 128, 129, 130, 131, 132, 133, 134, 135, 136, 137, 138, 139, 140, 141, 142, 143, 144, 145, 146, 147, 148, 149, 150, 151, 152, 153, 154, 155, 156, 157, 158, 159, 160, 161, 162, 163, 164, 165, 166, 167, 168, 169, 170, 171, 172, 173, 174, 175, 176, 177, 178, 179, 180, 181, 182, 183, 184, 185, 186, 187, 188, 189, 190, 191, 192, 193, 194, 195, 196, 197, 198, 199, 200, 201, 202, 203, 204, 205, 206, 207, 208, 209, 210, 211, 212, 213, 214, 215, 216, 217, 218, 219, 220, 221, 222, 223, 224, 225, 226, 227, 228, 229, 230, 231, 232, 233, 234, 235, 236, 237, 238, 239, 240, 241, 242, 243, 244, 245, 246, 247, 248, 249, 250, 251, 252, 253, 254, 255, 256, 257, 258, 259, 260, 261, 262, 263, 264, 265, 266, 267, 268, 269, 270, 271, 272, 273, 274, 275, 276, 277, 278, 279, 280, 281, 282, 283, 284, 285, 286, 287, 288, 289, 290, 291, 292, 293, 294, 295, 296, 297, 298, 299, 300, 301, 302, 303, 304, 305, 306, 307, 308, 309, 310, 311, 312, 313, 314, 315, 316, 317, 318, 319, 320, 321, 322, 323, 324, 325, 326, 327, 328, 329, 330, 331, 332, 333, 334, 335, 336, 337, 338, 339, 340, 341, 342, 343, 344, 345, 346, 347, 348, 349, 350, 351, 352, 353, 354, 355, 356, 357, 358, 359, 360, 361, 362, 363, 364, 365, 366, 367, 368, 369, 370, 371, 372, 373, 374, 375, 376, 377, 378, 379, 380, 381, 382, 383, 384, 385, 386, 387, 388, 389, 390, 391, 392, 393, 394, 395, 396, 397, 398, 399, 400, 401, 402, 403, 404, 405, 406, 407, 408, 409, 410, 411, 412, 413, 414, 415, 416, 417, 418, 419, 420, 421, 422, 423, 424, 425, 426, 427, 428, 429, 430, 431, 432, 433, 434, 435, 436, 437, 438, 439, 440, 441, 442, 443, 444, 445, 446, 447, 448, 449, 450, 451, 452, 453, 454, 455, 456, 457, 458, 459, 460, 461, 462, 463, 464, 465, 466, 467, 468, 469, 470, 471, 472, 473, 474, 475, 476, 477, 478, 479, 480, 481, 482, 483, 484, 485, 486, 487, 488, 489, 490, 491, 492, 493, 494, 495, 496, 497, 498, 499, 500, 501, 502, 503, 504, 505, 506, 507, 508, 509, 510, 511, 512, 513, 514, 515, 516, 517, 518, 519, 520, 521, 522, 523, 524, 525, 526, 527, 528, 529, 530, 531, 532, 533, 534, 535, 536, 537, 538, 539, 540, 541, 542, 543, 544, 545, 546, 547, 548, 549, 550, 551, 552, 553, 554, 555, 556, 557, 558, 559, 560, 561, 562, 563, 564, 565, 566, 567, 568, 569, 570, 571, 572, 573, 574, 575, 576, 577, 578, 579, 580, 581, 582, 583, 584, 585, 586, 587, 588, 589, 590, 591, 592, 593, 594, 595, 596, 597, 598, 599, 600, 601, 602, 603, 604, 605, 606, 607, 608, 609, 610, 611, 612, 613, 614, 615, 616, 617, 618, 619, 620, 621, 622, 623, 624, 625, 626, 627, 628, 629, 630, 631, 632, 633, 634, 635, 636, 637, 638, 639, 640, 641, 642, 643, 644, 645, 646, 647, 648, 649, 650, 651, 652, 653, 654, 655, 656, 657, 658, 659, 660, 661, 662, 663, 664, 665, 666, 667, 668, 669, 670, 671, 672, 673, 674, 675, 676, 677, 678, 679, 680, 681, 682, 683, 684, 685, 686, 687, 688, 689, 690, 691, 692, 693, 694, 695, 696, 697, 698, 699, 700, 701, 702, 703, 704, 705, 706, 707, 708, 709, 710, 711, 712, 713, 714, 715, 716, 717, 718, 719, 720, 721, 722, 723, 724, 725, 726, 727, 728, 729, 730, 731, 732, 733, 734, 735, 736, 737, 738, 739, 740, 741, 742, 743, 744, 745, 746, 747, 748, 749, 750, 751, 752, 753, 754, 755, 756, 757, 758, 759, 760, 761, 762, 763, 764, 765, 766, 767, 768, 769, 770, 771, 772, 773, 774, 775, 776, 777, 778, 779, 780, 781, 782, 783, 784, 785, 786, 787, 788, 789, 790, 791, 792, 793, 794, 795, 796, 797, 798, 799, 800, 801, 802, 803, 804, 805, 806, 807, 808, 809, 810, 811, 812, 813, 814, 815, 816, 817, 818, 819, 820, 821, 822, 823, 824, 825, 826, 827, 828, 829, 830, 831, 832, 833, 834, 835, 836, 837, 838, 839, 840, 841, 842, 843, 844, 845, 846, 847, 848, 849, 850, 851, 852, 853, 854, 855, 856, 857, 858, 859, 860, 861, 862, 863, 864, 865, 866, 867, 868, 869, 870, 871, 872, 873, 874, 875, 876, 877, 878, 879, 880, 881, 882, 883, 884, 885, 886, 887, 888, 889, 890, 891, 892, 893, 894, 895, 896, 897, 898, 899, 900, 901, 902, 903, 904, 905, 906, 907, 908, 909, 910, 911, 912, 913, 914],
      "AcquisitionTime": ["120244.432500", "120244.892500", "120245.352500", "120245.812500", "120246.272500", "120246.732500", "120247.192500", "120247.652500", "120248.112500", "120248.572500", "120249.032500", "120249.492500", "120249.952500", "120250.412500", "120250.872500", "120251.332500", "120251.792500", "120252.252500", "120252.712500", "120253.172500", "120253.632500", "120254.092500", "120254.552500", "120255.012500", "120255.472500", "120255.932500", "120256.392500", "120256.852500", "120257.312500", "120257.772500", "120258.232500", "120258.692500", "120259.152500", "120259.612500", "120300.072500", "120300.532500", "120300.992500", "120301.452500", "120301.912500", "120302.372500", "120302.832500", "120303.292500", "120303.752500", "120304.212500", "120304.672500", "120305.132500", "120305.592500", "120306.052500", "120306.512500", "120306.972500", "120307.432500", "120307.892500", "120308.352500", "120308.812500", "120309.272500", "120309.732500", "120310.192500", "120310.652500", "120311.112500", "120311.572500", "120312.032500", "120312.492500", "120312.952500", "120313.412500", "120313.872500", "120314.332500", "120314.792500", "120315.252500", "120315.712500", "120316.172500", "120316.632500", "120317.092500", "120317.552500", "120318.012500", "120318.472500", "120318.932500", "120319.392500", "120319.852500", "120320.312500", "120320.772500", "120321.232500", "120321.692500", "120322.152500", "120322.612500", "120323.072500", "120323.532500", "120323.992500", "120324.452500", "120324.912500", "120325.372500", "120325.832500", "120326.292500", "120326.752500", "120327.212500", "120327.672500", "120328.132500", "120328.592500", "120329.052500", "120329.512500", "120329.972500", "120330.432500", "120330.892500", "120331.352500", "120331.812500", "120332.272500", "120332.732500", "120333.192500", "120333.652500", "120334.112500", "120334.572500", "120335.032500", "120335.492500", "120335.952500", "120336.412500", "120336.872500", "120337.332500", "120337.792500", "120338.252500", "120338.712500", "120339.172500", "120339.632500", "120340.092500", "120340.552500", "120341.012500", "120341.472500", "120341.932500", "120342.392500", "120342.852500", "120343.312500", "120343.772500", "120344.232500", "120344.692500", "120345.152500", "120345.612500", "120346.072500", "120346.532500", "120346.992500", "120347.452500", "120347.912500", "120348.372500", "120348.832500", "120349.292500", "120349.752500", "120350.212500", "120350.672500", "120351.132500", "120351.592500", "120352.052500", "120352.512500", "120352.972500", "120353.432500", "120353.892500", "120354.352500", "120354.812500", "120355.272500", "120355.732500", "120356.192500", "120356.652500", "120357.112500", "120357.572500", "120358.032500", "120358.492500", "120358.952500", "120359.412500", "120359.872500", "120400.332500", "120400.792500", "120401.252500", "120401.712500", "120402.172500", "120402.632500", "120403.092500", "120403.552500", "120404.012500", "120404.472500", "120404.932500", "120405.392500", "120405.852500", "120406.312500", "120406.772500", "120407.232500", "120407.692500", "120408.152500", "120408.612500", "120409.072500", "120409.532500", "120409.992500", "120410.452500", "120410.912500", "120411.372500", "120411.832500", "120412.292500", "120412.752500", "120413.212500", "120413.672500", "120414.132500", "120414.592500", "120415.052500", "120415.512500", "120415.972500", "120416.432500", "120416.892500", "120417.352500", "120417.812500", "120418.272500", "120418.732500", "120419.192500", "120419.652500", "120420.112500", "120420.572500", "120421.032500", "120421.492500", "120421.952500", "120422.412500", "120422.872500", "120423.332500", "120423.792500", "120424.252500", "120424.712500", "120425.172500", "120425.632500", "120426.092500", "120426.552500", "120427.012500", "120427.472500", "120427.932500", "120428.392500", "120428.852500", "120429.312500", "120429.772500", "120430.232500", "120430.692500", "120431.152500", "120431.612500", "120432.072500", "120432.532500", "120432.992500", "120433.452500", "120433.912500", "120434.372500", "120434.832500", "120435.292500", "120435.752500", "120436.212500", "120436.672500", "120437.132500", "120437.592500", "120438.052500", "120438.512500", "120438.972500", "120439.432500", "120439.892500", "120440.352500", "120440.812500", "120441.272500", "120441.732500", "120442.192500", "120442.652500", "120443.112500", "120443.572500", "120444.032500", "120444.492500", "120444.952500", "120445.412500", "120445.872500", "120446.332500", "120446.792500", "120447.252500", "120447.712500", "120448.172500", "120448.632500", "120449.092500", "120449.552500", "120450.012500", "120450.472500", "120450.932500", "120451.392500", "120451.852500", "120452.312500", "120452.772500", "120453.232500", "120453.692500", "120454.152500", "120454.612500", "120455.072500", "120455.532500", "120455.992500", "120456.452500", "120456.912500", "120457.372500", "120457.832500", "120458.292500", "120458.752500", "120459.212500", "120459.672500", "120500.132500", "120500.592500", "120501.052500", "120501.512500", "120501.972500", "120502.432500", "120502.892500", "120503.352500", "120503.812500", "120504.272500", "120504.732500", "120505.192500", "120505.652500", "120506.112500", "120506.572500", "120507.032500", "120507.492500", "120507.952500", "120508.412500", "120508.872500", "120509.332500", "120509.792500", "120510.252500", "120510.712500", "120511.172500", "120511.632500", "120512.092500", "120512.552500", "120513.012500", "120513.472500", "120513.932500", "120514.392500", "120514.852500", "120515.312500", "120515.772500", "120516.232500", "120516.692500", "120517.152500", "120517.612500", "120518.072500", "120518.532500", "120518.992500", "120519.452500", "120519.912500", "120520.372500", "120520.832500", "120521.292500", "120521.752500", "120522.212500", "120522.672500", "120523.132500", "120523.592500", "120524.052500", "120524.512500", "120524.972500", "120525.432500", "120525.892500", "120526.352500", "120526.812500", "120527.272500", "120527.732500", "120528.192500", "120528.652500", "120529.112500", "120529.572500", "120530.032500", "120530.492500", "120530.952500", "120531.412500", "120531.872500", "120532.332500", "120532.792500", "120533.252500", "120533.712500", "120534.172500", "120534.632500", "120535.092500", "120535.552500", "120536.012500", "120536.472500", "120536.932500", "120537.392500", "120537.852500", "120538.312500", "120538.772500", "120539.232500", "120539.692500", "120540.152500", "120540.612500", "120541.072500", "120541.532500", "120541.992500", "120542.452500", "120542.912500", "120543.372500", "120543.832500", "120544.292500", "120544.752500", "120545.212500", "120545.672500", "120546.132500", "120546.592500", "120547.052500", "120547.512500", "120547.972500", "120548.432500", "120548.892500", "120549.352500", "120549.812500", "120550.272500", "120550.732500", "120551.192500", "120551.652500", "120552.112500", "120552.572500", "120553.032500", "120553.492500", "120553.952500", "120554.412500", "120554.872500", "120555.332500", "120555.792500", "120556.252500", "120556.712500", "120557.172500", "120557.632500", "120558.092500", "120558.552500", "120559.012500", "120559.472500", "120559.932500", "120600.392500", "120600.852500", "120601.312500", "120601.772500", "120602.232500", "120602.692500", "120603.152500", "120603.612500", "120604.072500", "120604.532500", "120604.992500", "120605.452500", "120605.912500", "120606.372500", "120606.832500", "120607.292500", "120607.752500", "120608.212500", "120608.672500", "120609.132500", "120609.592500", "120610.052500", "120610.512500", "120610.972500", "120611.432500", "120611.892500", "120612.352500", "120612.812500", "120613.272500", "120613.732500", "120614.192500", "120614.652500", "120615.112500", "120615.572500", "120616.032500", "120616.492500", "120616.952500", "120617.412500", "120617.872500", "120618.332500", "120618.792500", "120619.252500", "120619.712500", "120620.172500", "120620.632500", "120621.092500", "120621.552500", "120622.012500", "120622.472500", "120622.932500", "120623.392500", "120623.852500", "120624.312500", "120624.772500", "120625.232500", "120625.692500", "120626.152500", "120626.612500", "120627.072500", "120627.532500", "120627.992500", "120628.452500", "120628.912500", "120629.372500", "120629.832500", "120630.292500", "120630.752500", "120631.212500", "120631.672500", "120632.132500", "120632.592500", "120633.052500", "120633.512500", "120633.972500", "120634.432500", "120634.892500", "120635.352500", "120635.812500", "120636.272500", "120636.732500", "120637.192500", "120637.652500", "120638.112500", "120638.572500", "120639.032500", "120639.492500", "120639.952500", "120640.412500", "120640.872500", "120641.332500", "120641.792500", "120642.252500", "120642.712500", "120643.172500", "120643.632500", "120644.092500", "120644.552500", "120645.012500", "120645.472500", "120645.932500", "120646.392500", "120646.852500", "120647.312500", "120647.772500", "120648.232500", "120648.692500", "120649.152500", "120649.612500", "120650.072500", "120650.532500", "120650.992500", "120651.452500", "120651.912500", "120652.372500", "120652.832500", "120653.292500", "120653.752500", "120654.212500", "120654.672500", "120655.132500", "120655.592500", "120656.052500", "120656.512500", "120656.972500", "120657.432500", "120657.892500", "120658.352500", "120658.812500", "120659.272500", "120659.732500", "120700.192500", "120700.652500", "120701.112500", "120701.572500", "120702.032500", "120702.492500", "120702.952500", "120703.412500", "120703.872500", "120704.332500", "120704.792500", "120705.252500", "120705.712500", "120706.172500", "120706.632500", "120707.092500", "120707.552500", "120708.012500", "120708.472500", "120708.932500", "120709.392500", "120709.852500", "120710.312500", "120710.772500", "120711.232500", "120711.692500", "120712.152500", "120712.612500", "120713.072500", "120713.532500", "120713.992500", "120714.452500", "120714.912500", "120715.372500", "120715.832500", "120716.292500", "120716.752500", "120717.212500", "120717.672500", "120718.132500", "120718.592500", "120719.052500", "120719.512500", "120719.972500", "120720.432500", "120720.892500", "120721.352500", "120721.812500", "120722.272500", "120722.732500", "120723.192500", "120723.652500", "120724.112500", "120724.572500", "120725.032500", "120725.492500", "120725.952500", "120726.412500", "120726.872500", "120727.332500", "120727.792500", "120728.252500", "120728.712500", "120729.172500", "120729.632500", "120730.092500", "120730.552500", "120731.012500", "120731.472500", "120731.932500", "120732.392500", "120732.852500", "120733.312500", "120733.772500", "120734.232500", "120734.692500", "120735.152500", "120735.612500", "120736.072500", "120736.532500", "120736.992500", "120737.452500", "120737.912500", "120738.372500", "120738.832500", "120739.292500", "120739.752500", "120740.212500", "120740.672500", "120741.132500", "120741.592500", "120742.052500", "120742.512500", "120742.972500", "120743.432500", "120743.892500", "120744.352500", "120744.812500", "120745.272500", "120745.732500", "120746.192500", "120746.652500", "120747.112500", "120747.572500", "120748.032500", "120748.492500", "120748.952500", "120749.412500", "120749.872500", "120750.332500", "120750.792500", "120751.252500", "120751.712500", "120752.172500", "120752.632500", "120753.092500", "120753.552500", "120754.012500", "120754.472500", "120754.932500", "120755.392500", "120755.852500", "120756.312500", "120756.772500", "120757.232500", "120757.692500", "120758.152500", "120758.612500", "120759.072500", "120759.532500", "120759.992500", "120800.452500", "120800.912500", "120801.372500", "120801.832500", "120802.292500", "120802.752500", "120803.212500", "120803.672500", "120804.132500", "120804.592500", "120805.052500", "120805.512500", "120805.972500", "120806.432500", "120806.892500", "120807.352500", "120807.812500", "120808.272500", "120808.732500", "120809.192500", "120809.652500", "120810.112500", "120810.572500", "120811.032500", "120811.492500", "120811.952500", "120812.412500", "120812.872500", "120813.332500", "120813.792500", "120814.252500", "120814.712500", "120815.172500", "120815.632500", "120816.092500", "120816.552500", "120817.012500", "120817.472500", "120817.932500", "120818.392500", "120818.852500", "120819.312500", "120819.772500", "120820.232500", "120820.692500", "120821.152500", "120821.612500", "120822.072500", "120822.532500", "120822.992500", "120823.452500", "120823.912500", "120824.372500", "120824.832500", "120825.292500", "120825.752500", "120826.212500", "120826.672500", "120827.132500", "120827.592500", "120828.052500", "120828.512500", "120828.972500", "120829.432500", "120829.892500", "120830.352500", "120830.812500", "120831.272500", "120831.732500", "120832.192500", "120832.652500", "120833.112500", "120833.572500", "120834.032500", "120834.492500", "120834.952500", "120835.412500", "120835.872500", "120836.332500", "120836.792500", "120837.252500", "120837.712500", "120838.172500", "120838.632500", "120839.092500", "120839.552500", "120840.012500", "120840.472500", "120840.932500", "120841.392500", "120841.852500", "120842.312500", "120842.772500", "120843.232500", "120843.692500", "120844.152500", "120844.612500", "120845.072500", "120845.532500", "120845.992500", "120846.452500", "120846.912500", "120847.372500", "120847.832500", "120848.292500", "120848.752500", "120849.212500", "120849.672500", "120850.132500", "120850.592500", "120851.052500", "120851.512500", "120851.972500", "120852.432500", "120852.892500", "120853.352500", "120853.812500", "120854.272500", "120854.732500", "120855.192500", "120855.652500", "120856.112500", "120856.572500", "120857.032500", "120857.492500", "120857.952500", "120858.412500", "120858.872500", "120859.332500", "120859.792500", "120900.252500", "120900.712500", "120901.172500", "120901.632500", "120902.092500", "120902.552500", "120903.012500", "120903.472500", "120903.932500", "120904.392500", "120904.852500", "120905.312500", "120905.772500", "120906.232500", "120906.692500", "120907.152500", "120907.612500", "120908.072500", "120908.532500", "120908.992500", "120909.452500", "120909.912500", "120910.372500", "120910.832500", "120911.292500", "120911.752500", "120912.212500", "120912.672500", "120913.132500", "120913.592500", "120914.052500", "120914.512500", "120914.972500", "120915.432500", "120915.892500", "120916.352500", "120916.812500", "120917.272500", "120917.732500", "120918.192500", "120918.652500", "120919.112500", "120919.572500", "120920.032500", "120920.492500", "120920.952500", "120921.412500", "120921.872500", "120922.332500", "120922.792500", "120923.252500", "120923.712500", "120924.172500", "120924.632500", "120925.092500", "120925.552500", "120926.012500", "120926.472500", "120926.932500", "120927.392500", "120927.852500", "120928.312500", "120928.772500", "120929.232500", "120929.692500", "120930.152500", "120930.612500", "120931.072500", "120931.532500", "120931.992500", "120932.452500", "120932.912500", "120933.372500", "120933.832500", "120934.292500", "120934.752500", "120935.212500", "120935.672500", "120936.132500", "120936.592500", "120937.052500", "120937.512500", "120937.972500", "120938.432500", "120938.892500", "120939.352500", "120939.812500", "120940.272500", "120940.732500", "120941.192500", "120941.652500", "120942.112500", "120942.572500", "120943.032500", "120943.492500", "120943.952500", "120944.412500"],
