{
  "AcquisitionMatrixPE": 82,
  "AcquisitionNumber": 1,
  "AcquisitionTime": "11:55:17.970000",
  "BandwidthPerPixelPhaseEncode": 24.888,
  "BaseResolution": 82,
  "BodyPartExamined": "BRAIN",
  "ConsistencyInfo": "N4_VE11E_LATEST_20181129",
  "ConversionSoftware": "dcm2niix",
  "ConversionSoftwareVersion": "v1.0.20201102",
  "DerivedVendorReportedEchoSpacing": 0.00049,
  "DeviceSerialNumber": "66112",
  "DwellTime": 2e-06,
  "EchoTime": 0.0272,
  "EchoTrainLength": 82,
  "EffectiveEchoSpacing": 0.00049,
  "FlipAngle": 44,
  "ImageComments": "Unaliased MB8/PE3",
  "ImageOrientationPatientDICOM": [0.998222, 0.0585695, -0.0110455, -0.0593053, 0.994516, -0.0861404],
  "ImageType": [
    "ORIGINAL",
    "PRIMARY",
    "M",
    "MB",
    "ND",
    "NORM",
    "MOSAIC"
],
  "ImagingFrequency": 123.252,
  "InPlanePhaseEncodingDirectionDICOM": "COL",
  "InstitutionAddress": "Maynard 3,Hanover,NH,US,03755",
  "InstitutionName": "Dartmouth College - PBS",
  "InstitutionalDepartmentName": "Department",
  "MRAcquisitionType": "2D",
  "MagneticFieldStrength": 3,
  "Manufacturer": "Siemens",
  "ManufacturersModelName": "Prisma",
  "Modality": "MR",
  "MultibandAccelerationFactor": 8,
  "PartialFourier": 1,
  "PatientPosition": "HFS",
  "PercentPhaseFOV": 100,
  "PercentSampling": 100,
  "PhaseEncodingDirection": "j-",
  "PhaseEncodingSteps": 82,
  "PhaseResolution": 1,
  "PixelBandwidth": 3050,
  "ProcedureStepDescription": "Wager_Wager^1076_spacetop",
  "ProtocolName": "func_run-02_task-faces_acq-ap-mb8",
  "PulseSequenceDetails": "%CustomerSeq%\\cmrr_mbep2d_bold",
  "ReceiveCoilActiveElements": "HEA;HEP",
  "ReceiveCoilName": "Head_32",
  "ReconMatrixPE": 82,
  "RepetitionTime": 0.46,
  "SAR": 0.104537,
  "ScanOptions": "FS",
  "ScanningSequence": "EP",
  "SequenceName": "epfid2d1_82",
  "SequenceVariant": "SK\\SS",
  "SeriesDescription": "func_run-02_task-faces_acq-ap-mb8",
  "SeriesNumber": 18,
  "ShimSetting": [4145, -7683, -7279, 556, -64, 57, -28, 73],
  "SliceThickness": 2.7,
  "SliceTiming": [0, 0.2525, 0.0625, 0.315, 0.1275, 0.3775, 0.19, 0, 0.2525, 0.0625, 0.315, 0.1275, 0.3775, 0.19, 0, 0.2525, 0.0625, 0.315, 0.1275, 0.3775, 0.19, 0, 0.2525, 0.0625, 0.315, 0.1275, 0.3775, 0.19, 0, 0.2525, 0.0625, 0.315, 0.1275, 0.3775, 0.19, 0, 0.2525, 0.0625, 0.315, 0.1275, 0.3775, 0.19, 0, 0.2525, 0.0625, 0.315, 0.1275, 0.3775, 0.19, 0, 0.2525, 0.0625, 0.315, 0.1275, 0.3775, 0.19],
  "SoftwareVersions": "syngo MR E11",
  "SpacingBetweenSlices": 2.7,
  "StationName": "AWP66112",
  "TaskName": "faces",
  "TotalReadoutTime": 0.03969,
  "TxRefAmp": 253.631,
  "WipMemBlock": "e3b2e818-3d52-4c61-bbe3-e1044bfae058||Sequence: R016 ve11e/master r/434b28f1; Aug  7 2019 18:53:46 by eja",
  "dcmmeta_affine": [
    [-2.678157329559326, -0.15911169350147247, -0.016037316992878914, 121.63204193115234],
    [-0.15713781118392944, 2.6682145595550537, -0.23393426835536957, -78.99569702148438],
    [-0.029634326696395874, 0.2311083972454071, 2.6897988319396973, -92.24765014648438],
    [0.0, 0.0, 0.0, 1.0]
],
  "dcmmeta_reorient_transform": [
    [0.0, -1.0, 0.0, 81.0],
    [1.0, 0.0, 0.0, 0.0],
    [0.0, 0.0, 1.0, 0.0],
    [0.0, 0.0, 0.0, 1.0]
],
  "dcmmeta_shape": [82, 82, 56, 914],
  "dcmmeta_slice_dim": 2,
  "dcmmeta_version": 0.6,
  "global": {
    "const": {
      "AccessionNumber": "A003931",
      "AcquisitionMatrix": [82, 0, 0, 82],
      "AngioFlag": "N",
      "BitsAllocated": 16,
      "BitsStored": 16,
      "BodyPartExamined": "BRAIN",
      "Columns": 656,
      "EchoNumbers": 1,
      "EchoTime": 27.2,
      "EchoTrainLength": 82,
      "FlipAngle": 44.0,
      "HighBit": 15,
      "ImageOrientationPatient": [0.99822222211517, 0.05856954614275, -0.0110455212678, -0.0593052668898, 0.9945163229715, -0.0861404008719],
      "ImagePositionPatient": [-831.71006743384, -948.00582624927, 1.3052907681191],
      "ImageType": [
        "ORIGINAL",
        "PRIMARY",
        "M",
        "MB",
        "ND",
        "NORM",
        "MOSAIC"
],
      "ImagedNucleus": "1H",
      "ImagingFrequency": 123.252215,
      "InPlanePhaseEncodingDirection": "COL",
      "MRAcquisitionType": "2D",
      "MagneticFieldStrength": 3.0,
      "Manufacturer": "SIEMENS",
      "ManufacturerModelName": "Prisma",
      "Modality": "MR",
      "NumberOfAverages": 1.0,
      "NumberOfPhaseEncodingSteps": 82,
      "PercentPhaseFieldOfView": 100.0,
      "PercentSampling": 100.0,
      "PerformedProcedureStepStartTime": "104941.314000",
      "PhotometricInterpretation": "MONOCHROME2",
      "PixelBandwidth": 3050.0,
      "PixelRepresentation": 0,
      "PixelSpacing": [2.6829268932343, 2.6829268932343],
      "ProtocolName": "func_run-02_task-faces_acq-ap-mb8",
      "RepetitionTime": 460.0,
      "Rows": 656,
      "SAR": 0.10453745024914,
      "SamplesPerPixel": 1,
      "ScanOptions": "FS",
      "ScanningSequence": "EP",
      "SequenceName": "epfid2d1_82",
      "SequenceVariant": [
        "SK",
        "SS"
],
      "SeriesDescription": "func_run-02_task-faces_acq-ap-mb8",
      "SeriesNumber": 18,
      "SeriesTime": "115537.002000",
      "SliceLocation": -85.777212421817,
      "SliceThickness": 2.7000000476837,
      "SmallestImagePixelValue": 0,
      "SoftwareVersions": "syngo MR E11",
      "SpacingBetweenSlices": 2.7000000095169,
      "SpecificCharacterSet": "ISO_IR 100",
      "StudyID": "2",
      "StudyTime": "104941.221000",
      "TransmitCoilName": "Body",
      "VariableFlipAngleFlag": "N",
      "WindowCenterWidthExplanation": "Algo1"
    },
    "slices": {}
  },
  "time": {
    "samples": {
      "AcquisitionNumber": [1, 2, 3, 4, 5, 6, 7, 8, 9, 10, 11, 12, 13, 14, 15, 16, 17, 18, 19, 20, 21, 22, 23, 24, 25, 26, 27, 28, 29, 30, 31, 32, 33, 34, 35, 36, 37, 38, 39, 40, 41, 42, 43, 44, 45, 46, 47, 48, 49, 50, 51, 52, 53, 54, 55, 56, 57, 58, 59, 60, 61, 62, 63, 64, 65, 66, 67, 68, 69, 70, 71, 72, 73, 74, 75, 76, 77, 78, 79, 80, 81, 82, 83, 84, 85, 86, 87, 88, 89, 90, 91, 92, 93, 94, 95, 96, 97, 98, 99, 100, 101, 102, 103, 104, 105, 106, 107, 108, 109, 110, 111, 112, 113, 114, 115, 116, 117, 118, 119, 120, 121, 122, 123, 124, 125, 126, 127, 128, 129, 130, 131, 132, 133, 134, 135, 136, 137, 138, 139, 140, 141, 142, 143, 144, 145, 146, 147, 148, 149, 150, 151, 152, 153, 154, 155, 156, 157, 158, 159, 160, 161, 162, 163, 164, 165, 166, 167, 168, 169, 170, 171, 172, 173, 174, 175, 176, 177, 178, 179, 180, 181, 182, 183, 184, 185, 186, 187, 188, 189, 190, 191, 192, 193, 194, 195, 196, 197, 198, 199, 200, 201, 202, 203, 204, 205, 206, 207, 208, 209, 210, 211, 212, 213, 214, 215, 216, 217, 218, 219, 220, 221, 222, 223, 224, 225, 226, 227, 228, 229, 230, 231, 232, 233, 234, 235, 236, 237, 238, 239, 240, 241, 242, 243, 244, 245, 246, 247, 248, 249, 250, 251, 252, 253, 254, 255, 256, 257, 258, 259, 260, 261, 262, 263, 264, 265, 266, 267, 268, 269, 270, 271, 272, 273, 274, 275, 276, 277, 278, 279, 280, 281, 282, 283, 284, 285, 286, 287, 288, 289, 290, 291, 292, 293, 294, 295, 296, 297, 298, 299, 300, 301, 302, 303, 304, 305, 306, 307, 308, 309, 310, 311, 312, 313, 314, 315, 316, 317, 318, 319, 320, 321, 322, 323, 324, 325, 326, 327, 328, 329, 330, 331, 332, 333, 334, 335, 336, 337, 338, 339, 340, 341, 342, 343, 344, 345, 346, 347, 348, 349, 350, 351, 352, 353, 354, 355, 356, 357, 358, 359, 360, 361, 362, 363, 364, 365, 366, 367, 368, 369, 370, 371, 372, 373, 374, 375, 376, 377, 378, 379, 380, 381, 382, 383, 384, 385, 386, 387, 388, 389, 390, 391, 392, 393, 394, 395, 396, 397, 398, 399, 400, 401, 402, 403, 404, 405, 406, 407, 408, 409, 410, 411, 412, 413, 414, 415, 416, 417, 418, 419, 420, 421, 422, 423, 424, 425, 426, 427, 428, 429, 430, 431, 432, 433, 434, 435, 436, 437, 438, 439, 440, 441, 442, 443, 444, 445, 446, 447, 448, 449, 450, 451, 452, 453, 454, 455, 456, 457, 458, 459, 460, 461, 462, 463, 464, 465, 466, 467, 468, 469, 470, 471, 472, 473, 474, 475, 476, 477, 478, 479, 480, 481, 482, 483, 484, 485, 486, 487, 488, 489, 490, 491, 492, 493, 494, 495, 496, 497, 498, 499, 500, 501, 502, 503, 504, 505, 506, 507, 508, 509, 510, 511, 512, 513, 514, 515, 516, 517, 518, 519, 520, 521, 522, 523, 524, 525, 526, 527, 528, 529, 530, 531, 532, 533, 534, 535, 536, 537, 538, 539, 540, 541, 542, 543, 544, 545, 546, 547, 548, 549, 550, 551, 552, 553, 554, 555, 556, 557, 558, 559, 560, 561, 562, 563, 564, 565, 566, 567, 568, 569, 570, 571, 572, 573, 574, 575, 576, 577, 578, 579, 580, 581, 582, 583, 584, 585, 586, 587, 588, 589, 590, 591, 592, 593, 594, 595, 596, 597, 598, 599, 600, 601, 602, 603, 604, 605, 606, 607, 608, 609, 610, 611, 612, 613, 614, 615, 616, 617, 618, 619, 620, 621, 622, 623, 624, 625, 626, 627, 628, 629, 630, 631, 632, 633, 634, 635, 636, 637, 638, 639, 640, 641, 642, 643, 644, 645, 646, 647, 648, 649, 650, 651, 652, 653, 654, 655, 656, 657, 658, 659, 660, 661, 662, 663, 664, 665, 666, 667, 668, 669, 670, 671, 672, 673, 674, 675, 676, 677, 678, 679, 680, 681, 682, 683, 684, 685, 686, 687, 688, 689, 690, 691, 692, 693, 694, 695, 696, 697, 698, 699, 700, 701, 702, 703, 704, 705, 706, 707, 708, 709, 710, 711, 712, 713, 714, 715, 716, 717, 718, 719, 720, 721, 722, 723, 724, 725, 726, 727, 728, 729, 730, 731, 732, 733, 734, 735, 736, 737, 738, 739, 740, 741, 742, 743, 744, 745, 746, 747, 748, 749, 750, 751, 752, 753, 754, 755, 756, 757, 758, 759, 760, 761, 762, 763, 764, 765, 766, 767, 768, 769, 770, 771, 772, 773, 774, 775, 776, 777, 778, 779, 780, 781, 782, 783, 784, 785, 786, 787, 788, 789, 790, 791, 792, 793, 794, 795, 796, 797, 798, 799, 800, 801, 802, 803, 804, 805, 806, 807, 808, 809, 810, 811, 812, 813, 814, 815, 816, 817, 818, 819, 820, 821, 822, 823, 824, 825, 826, 827, 828, 829, 830, 831, 832, 833, 834, 835, 836, 837, 838, 839, 840, 841, 842, 843, 844, 845, 846, 847, 848, 849, 850, 851, 852, 853, 854, 855, 856, 857, 858, 859, 860, 861, 862, 863, 864, 865, 866, 867, 868, 869, 870, 871, 872, 873, 874, 875, 876, 877, 878, 879, 880, 881, 882, 883, 884, 885, 886, 887, 888, 889, 890, 891, 892, 893, 894, 895, 896, 897, 898, 899, 900, 901, 902, 903, 904, 905, 906, 907, 908, 909, 910, 911, 912, 913, 914],
      "AcquisitionTime": ["115517.970000", "115518.430000", "115518.890000", "115519.350000", "115519.810000", "115520.270000", "115520.730000", "115521.190000", "115521.650000", "115522.110000", "115522.570000", "115523.030000", "115523.490000", "115523.950000", "115524.410000", "115524.870000", "115525.330000", "115525.790000", "115526.250000", "115526.710000", "115527.170000", "115527.630000", "115528.090000", "115528.550000", "115529.010000", "115529.470000", "115529.930000", "115530.390000", "115530.850000", "115531.310000", "115531.770000", "115532.230000", "115532.690000", "115533.150000", "115533.610000", "115534.070000", "115534.530000", "115534.990000", "115535.450000", "115535.910000", "115536.370000", "115536.830000", "115537.290000", "115537.750000", "115538.210000", "115538.670000", "115539.130000", "115539.590000", "115540.050000", "115540.510000", "115540.970000", "115541.430000", "115541.890000", "115542.350000", "115542.810000", "115543.270000", "115543.730000", "115544.190000", "115544.650000", "115545.110000", "115545.570000", "115546.030000", "115546.490000", "115546.950000", "115547.410000", "115547.870000", "115548.330000", "115548.790000", "115549.250000", "115549.710000", "115550.170000", "115550.630000", "115551.090000", "115551.550000", "115552.010000", "115552.470000", "115552.930000", "115553.390000", "115553.850000", "115554.310000", "115554.770000", "115555.230000", "115555.690000", "115556.150000", "115556.610000", "115557.070000", "115557.530000", "115557.990000", "115558.450000", "115558.910000", "115559.370000", "115559.830000", "115600.290000", "115600.750000", "115601.210000", "115601.670000", "115602.130000", "115602.590000", "115603.050000", "115603.510000", "115603.970000", "115604.430000", "115604.890000", "115605.350000", "115605.810000", "115606.270000", "115606.730000", "115607.190000", "115607.650000", "115608.110000", "115608.570000", "115609.030000", "115609.490000", "115609.950000", "115610.410000", "115610.870000", "115611.330000", "115611.790000", "115612.250000", "115612.710000", "115613.170000", "115613.630000", "115614.090000", "115614.550000", "115615.010000", "115615.470000", "115615.930000", "115616.390000", "115616.850000", "115617.310000", "115617.770000", "115618.230000", "115618.690000", "115619.150000", "115619.610000", "115620.070000", "115620.530000", "115620.990000", "115621.450000", "115621.910000", "115622.370000", "115622.830000", "115623.290000", "115623.750000", "115624.210000", "115624.670000", "115625.130000", "115625.590000", "115626.050000", "115626.510000", "115626.970000", "115627.430000", "115627.890000", "115628.350000", "115628.810000", "115629.270000", "115629.730000", "115630.190000", "115630.650000", "115631.110000", "115631.570000", "115632.030000", "115632.490000", "115632.950000", "115633.410000", "115633.870000", "115634.330000", "115634.790000", "115635.250000", "115635.710000", "115636.170000", "115636.630000", "115637.090000", "115637.550000", "115638.010000", "115638.470000", "115638.930000", "115639.390000", "115639.850000", "115640.310000", "115640.770000", "115641.230000", "115641.690000", "115642.150000", "115642.610000", "115643.070000", "115643.530000", "115643.990000", "115644.450000", "115644.910000", "115645.370000", "115645.830000", "115646.290000", "115646.750000", "115647.210000", "115647.670000", "115648.130000", "115648.590000", "115649.050000", "115649.510000", "115649.970000", "115650.430000", "115650.890000", "115651.350000", "115651.810000", "115652.270000", "115652.730000", "115653.190000", "115653.650000", "115654.110000", "115654.570000", "115655.030000", "115655.490000", "115655.950000", "115656.410000", "115656.870000", "115657.330000", "115657.790000", "115658.250000", "115658.710000", "115659.170000", "115659.630000", "115700.090000", "115700.550000", "115701.010000", "115701.470000", "115701.930000", "115702.390000", "115702.850000", "115703.310000", "115703.770000", "115704.230000", "115704.690000", "115705.150000", "115705.610000", "115706.070000", "115706.530000", "115706.990000", "115707.450000", "115707.910000", "115708.370000", "115708.830000", "115709.290000", "115709.750000", "115710.210000", "115710.670000", "115711.130000", "115711.590000", "115712.050000", "115712.510000", "115712.970000", "115713.430000", "115713.890000", "115714.350000", "115714.810000", "115715.270000", "115715.730000", "115716.190000", "115716.650000", "115717.110000", "115717.570000", "115718.030000", "115718.490000", "115718.950000", "115719.410000", "115719.870000", "115720.330000", "115720.790000", "115721.250000", "115721.710000", "115722.170000", "115722.630000", "115723.090000", "115723.550000", "115724.010000", "115724.470000", "115724.930000", "115725.390000", "115725.850000", "115726.310000", "115726.770000", "115727.230000", "115727.690000", "115728.150000", "115728.610000", "115729.070000", "115729.530000", "115729.990000", "115730.450000", "115730.910000", "115731.370000", "115731.830000", "115732.290000", "115732.750000", "115733.210000", "115733.670000", "115734.130000", "115734.590000", "115735.050000", "115735.510000", "115735.970000", "115736.430000", "115736.890000", "115737.350000", "115737.810000", "115738.270000", "115738.730000", "115739.190000", "115739.650000", "115740.110000", "115740.570000", "115741.030000", "115741.490000", "115741.950000", "115742.410000", "115742.870000", "115743.330000", "115743.790000", "115744.250000", "115744.710000", "115745.170000", "115745.630000", "115746.090000", "115746.550000", "115747.010000", "115747.470000", "115747.930000", "115748.390000", "115748.850000", "115749.310000", "115749.770000", "115750.230000", "115750.690000", "115751.150000", "115751.610000", "115752.070000", "115752.530000", "115752.990000", "115753.450000", "115753.910000", "115754.370000", "115754.830000", "115755.290000", "115755.750000", "115756.210000", "115756.670000", "115757.130000", "115757.590000", "115758.050000", "115758.510000", "115758.970000", "115759.430000", "115759.890000", "115800.350000", "115800.810000", "115801.270000", "115801.730000", "115802.190000", "115802.650000", "115803.110000", "115803.570000", "115804.030000", "115804.490000", "115804.950000", "115805.410000", "115805.870000", "115806.330000", "115806.790000", "115807.250000", "115807.710000", "115808.170000", "115808.630000", "115809.090000", "115809.550000", "115810.010000", "115810.470000", "115810.930000", "115811.390000", "115811.850000", "115812.310000", "115812.770000", "115813.230000", "115813.690000", "115814.150000", "115814.610000", "115815.070000", "115815.530000", "115815.990000", "115816.450000", "115816.910000", "115817.370000", "115817.830000", "115818.290000", "115818.750000", "115819.210000", "115819.670000", "115820.130000", "115820.590000", "115821.050000", "115821.510000", "115821.970000", "115822.430000", "115822.890000", "115823.350000", "115823.810000", "115824.270000", "115824.730000", "115825.190000", "115825.650000", "115826.110000", "115826.570000", "115827.030000", "115827.490000", "115827.950000", "115828.410000", "115828.870000", "115829.330000", "115829.790000", "115830.250000", "115830.710000", "115831.170000", "115831.630000", "115832.090000", "115832.550000", "115833.010000", "115833.470000", "115833.930000", "115834.390000", "115834.850000", "115835.310000", "115835.770000", "115836.230000", "115836.690000", "115837.150000", "115837.610000", "115838.070000", "115838.530000", "115838.990000", "115839.450000", "115839.910000", "115840.370000", "115840.830000", "115841.290000", "115841.750000", "115842.210000", "115842.670000", "115843.130000", "115843.590000", "115844.050000", "115844.510000", "115844.970000", "115845.430000", "115845.890000", "115846.350000", "115846.810000", "115847.270000", "115847.730000", "115848.190000", "115848.650000", "115849.110000", "115849.570000", "115850.030000", "115850.490000", "115850.950000", "115851.410000", "115851.870000", "115852.330000", "115852.790000", "115853.250000", "115853.710000", "115854.170000", "115854.630000", "115855.090000", "115855.550000", "115856.010000", "115856.470000", "115856.930000", "115857.390000", "115857.850000", "115858.310000", "115858.770000", "115859.230000", "115859.690000", "115900.150000", "115900.610000", "115901.070000", "115901.530000", "115901.990000", "115902.450000", "115902.910000", "115903.370000", "115903.830000", "115904.290000", "115904.750000", "115905.210000", "115905.670000", "115906.130000", "115906.590000", "115907.050000", "115907.510000", "115907.970000", "115908.430000", "115908.890000", "115909.350000", "115909.810000", "115910.270000", "115910.730000", "115911.190000", "115911.650000", "115912.110000", "115912.570000", "115913.030000", "115913.490000", "115913.950000", "115914.410000", "115914.870000", "115915.330000", "115915.790000", "115916.250000", "115916.710000", "115917.170000", "115917.630000", "115918.090000", "115918.550000", "115919.010000", "115919.470000", "115919.930000", "115920.390000", "115920.850000", "115921.310000", "115921.770000", "115922.230000", "115922.690000", "115923.150000", "115923.610000", "115924.070000", "115924.530000", "115924.990000", "115925.450000", "115925.910000", "115926.370000", "115926.830000", "115927.290000", "115927.750000", "115928.210000", "115928.670000", "115929.130000", "115929.590000", "115930.050000", "115930.510000", "115930.970000", "115931.430000", "115931.890000", "115932.350000", "115932.810000", "115933.270000", "115933.730000", "115934.190000", "115934.650000", "115935.110000", "115935.570000", "115936.030000", "115936.490000", "115936.950000", "115937.410000", "115937.870000", "115938.330000", "115938.790000", "115939.250000", "115939.710000", "115940.170000", "115940.630000", "115941.090000", "115941.550000", "115942.010000", "115942.470000", "115942.930000", "115943.390000", "115943.850000", "115944.310000", "115944.770000", "115945.230000", "115945.690000", "115946.150000", "115946.610000", "115947.070000", "115947.530000", "115947.990000", "115948.450000", "115948.910000", "115949.370000", "115949.830000", "115950.290000", "115950.750000", "115951.210000", "115951.670000", "115952.130000", "115952.590000", "115953.050000", "115953.510000", "115953.970000", "115954.430000", "115954.890000", "115955.350000", "115955.810000", "115956.270000", "115956.730000", "115957.190000", "115957.650000", "115958.110000", "115958.570000", "115959.030000", "115959.490000", "115959.950000", "120000.410000", "120000.870000", "120001.330000", "120001.790000", "120002.250000", "120002.710000", "120003.170000", "120003.630000", "120004.090000", "120004.550000", "120005.010000", "120005.470000", "120005.930000", "120006.390000", "120006.850000", "120007.310000", "120007.770000", "120008.230000", "120008.690000", "120009.150000", "120009.610000", "120010.070000", "120010.530000", "120010.990000", "120011.450000", "120011.910000", "120012.370000", "120012.830000", "120013.290000", "120013.750000", "120014.210000", "120014.670000", "120015.130000", "120015.590000", "120016.050000", "120016.510000", "120016.970000", "120017.430000", "120017.890000", "120018.350000", "120018.810000", "120019.270000", "120019.730000", "120020.190000", "120020.650000", "120021.110000", "120021.570000", "120022.030000", "120022.490000", "120022.950000", "120023.410000", "120023.870000", "120024.330000", "120024.790000", "120025.250000", "120025.710000", "120026.170000", "120026.630000", "120027.090000", "120027.550000", "120028.010000", "120028.470000", "120028.930000", "120029.390000", "120029.850000", "120030.310000", "120030.770000", "120031.230000", "120031.690000", "120032.150000", "120032.610000", "120033.070000", "120033.530000", "120033.990000", "120034.450000", "120034.910000", "120035.370000", "120035.830000", "120036.290000", "120036.750000", "120037.210000", "120037.670000", "120038.130000", "120038.590000", "120039.050000", "120039.510000", "120039.970000", "120040.430000", "120040.890000", "120041.350000", "120041.810000", "120042.270000", "120042.730000", "120043.190000", "120043.650000", "120044.110000", "120044.570000", "120045.030000", "120045.490000", "120045.950000", "120046.410000", "120046.870000", "120047.330000", "120047.790000", "120048.250000", "120048.710000", "120049.170000", "120049.630000", "120050.090000", "120050.550000", "120051.010000", "120051.470000", "120051.930000", "120052.390000", "120052.850000", "120053.310000", "120053.770000", "120054.230000", "120054.690000", "120055.150000", "120055.610000", "120056.070000", "120056.530000", "120056.990000", "120057.450000", "120057.910000", "120058.370000", "120058.830000", "120059.290000", "120059.750000", "120100.210000", "120100.670000", "120101.130000", "120101.590000", "120102.050000", "120102.510000", "120102.970000", "120103.430000", "120103.890000", "120104.350000", "120104.810000", "120105.270000", "120105.730000", "120106.190000", "120106.650000", "120107.110000", "120107.570000", "120108.030000", "120108.490000", "120108.950000", "120109.410000", "120109.870000", "120110.330000", "120110.790000", "120111.250000", "120111.710000", "120112.170000", "120112.630000", "120113.090000", "120113.550000", "120114.010000", "120114.470000", "120114.930000", "120115.390000", "120115.850000", "120116.310000", "120116.770000", "120117.230000", "120117.690000", "120118.150000", "120118.610000", "120119.070000", "120119.530000", "120119.990000", "120120.450000", "120120.910000", "120121.370000", "120121.830000", "120122.290000", "120122.750000", "120123.210000", "120123.670000", "120124.130000", "120124.590000", "120125.050000", "120125.510000", "120125.970000", "120126.430000", "120126.890000", "120127.350000", "120127.810000", "120128.270000", "120128.730000", "120129.190000", "120129.650000", "120130.110000", "120130.570000", "120131.030000", "120131.490000", "120131.950000", "120132.410000", "120132.870000", "120133.330000", "120133.790000", "120134.250000", "120134.710000", "120135.170000", "120135.630000", "120136.090000", "120136.550000", "120137.010000", "120137.470000", "120137.930000", "120138.390000", "120138.850000", "120139.310000", "120139.770000", "120140.230000", "120140.690000", "120141.150000", "120141.610000", "120142.070000", "120142.530000", "120142.990000", "120143.450000", "120143.910000", "120144.370000", "120144.830000", "120145.290000", "120145.750000", "120146.210000", "120146.670000", "120147.130000", "120147.590000", "120148.050000", "120148.510000", "120148.970000", "120149.430000", "120149.890000", "120150.350000", "120150.810000", "120151.270000", "120151.730000", "120152.190000", "120152.650000", "120153.110000", "120153.570000", "120154.030000", "120154.490000", "120154.950000", "120155.410000", "120155.870000", "120156.330000", "120156.790000", "120157.250000", "120157.710000", "120158.170000", "120158.630000", "120159.090000", "120159.550000", "120200.010000", "120200.470000", "120200.930000", "120201.390000", "120201.850000", "120202.310000", "120202.770000", "120203.230000", "120203.690000", "120204.150000", "120204.610000", "120205.070000", "120205.530000", "120205.990000", "120206.450000", "120206.910000", "120207.370000", "120207.830000", "120208.290000", "120208.750000", "120209.210000", "120209.670000", "120210.130000", "120210.590000", "120211.050000", "120211.510000", "120211.970000", "120212.430000", "120212.890000", "120213.350000", "120213.810000", "120214.270000", "120214.730000", "120215.190000", "120215.650000", "120216.110000", "120216.570000", "120217.030000", "120217.490000", "120217.950000"],
