{
  "AcquisitionMatrixPE": 82,
  "AcquisitionNumber": 1,
  "AcquisitionTime": "11:47:52.670000",
  "BandwidthPerPixelPhaseEncode": 24.888,
  "BaseResolution": 82,
  "BodyPartExamined": "BRAIN",
  "ConsistencyInfo": "N4_VE11E_LATEST_20181129",
  "ConversionSoftware": "dcm2niix",
  "ConversionSoftwareVersion": "v1.0.20201102",
  "DerivedVendorReportedEchoSpacing": 0.00049,
  "DeviceSerialNumber": "66112",
  "DwellTime": 2e-06,
  "EchoTime": 0.0272,
  "EchoTrainLength": 82,
  "EffectiveEchoSpacing": 0.00049,
  "FlipAngle": 44,
  "ImageComments": "Unaliased MB8/PE3",
  "ImageOrientationPatientDICOM": [0.998222, 0.0585695, -0.0110455, -0.0593053, 0.994516, -0.0861404],
  "ImageType": [
    "ORIGINAL",
    "PRIMARY",
    "M",
    "MB",
    "ND",
    "NORM",
    "MOSAIC"
],
  "ImagingFrequency": 123.252,
  "InPlanePhaseEncodingDirectionDICOM": "COL",
  "InstitutionAddress": "Maynard 3,Hanover,NH,US,03755",
  "InstitutionName": "Dartmouth College - PBS",
  "InstitutionalDepartmentName": "Department",
  "MRAcquisitionType": "2D",
  "MagneticFieldStrength": 3,
  "Manufacturer": "Siemens",
  "ManufacturersModelName": "Prisma",
  "Modality": "MR",
  "MultibandAccelerationFactor": 8,
  "PartialFourier": 1,
  "PatientPosition": "HFS",
  "PercentPhaseFOV": 100,
  "PercentSampling": 100,
  "PhaseEncodingDirection": "j-",
  "PhaseEncodingSteps": 82,
  "PhaseResolution": 1,
  "PixelBandwidth": 3050,
  "ProcedureStepDescription": "Wager_Wager^1076_spacetop",
  "ProtocolName": "func_run-01_task-faces_acq-ap-mb8",
  "PulseSequenceDetails": "%CustomerSeq%\\cmrr_mbep2d_bold",
  "ReceiveCoilActiveElements": "HEA;HEP",
  "ReceiveCoilName": "Head_32",
  "ReconMatrixPE": 82,
  "RepetitionTime": 0.46,
  "SAR": 0.104537,
  "ScanOptions": "FS",
  "ScanningSequence": "EP",
  "SequenceName": "epfid2d1_82",
  "SequenceVariant": "SK\\SS",
  "SeriesDescription": "func_run-01_task-faces_acq-ap-mb8",
  "SeriesNumber": 16,
  "ShimSetting": [4145, -7683, -7279, 556, -64, 57, -28, 73],
  "SliceThickness": 2.7,
  "SliceTiming": [0, 0.25, 0.0625, 0.315, 0.125, 0.3775, 0.1875, 0, 0.25, 0.0625, 0.315, 0.125, 0.3775, 0.1875, 0, 0.25, 0.0625, 0.315, 0.125, 0.3775, 0.1875, 0, 0.25, 0.0625, 0.315, 0.125, 0.3775, 0.1875, 0, 0.25, 0.0625, 0.315, 0.125, 0.3775, 0.1875, 0, 0.25, 0.0625, 0.315, 0.125, 0.3775, 0.1875, 0, 0.25, 0.0625, 0.315, 0.125, 0.3775, 0.1875, 0, 0.25, 0.0625, 0.315, 0.125, 0.3775, 0.1875],
  "SoftwareVersions": "syngo MR E11",
  "SpacingBetweenSlices": 2.7,
  "StationName": "AWP66112",
  "TaskName": "faces",
  "TotalReadoutTime": 0.03969,
  "TxRefAmp": 253.631,
  "WipMemBlock": "b38d8549-0d95-4a1f-9e10-2ffd4aba4b2e||Sequence: R016 ve11e/master r/434b28f1; Aug  7 2019 18:53:46 by eja",
  "dcmmeta_affine": [
    [-2.678157329559326, -0.15911169350147247, -0.016037316992878914, 121.63204193115234],
    [-0.15713781118392944, 2.6682145595550537, -0.23393426835536957, -78.99569702148438],
    [-0.029634326696395874, 0.2311083972454071, 2.6897988319396973, -92.24765014648438],
    [0.0, 0.0, 0.0, 1.0]
],
  "dcmmeta_reorient_transform": [
    [0.0, -1.0, 0.0, 81.0],
    [1.0, 0.0, 0.0, 0.0],
    [0.0, 0.0, 1.0, 0.0],
    [0.0, 0.0, 0.0, 1.0]
],
  "dcmmeta_shape": [82, 82, 56, 914],
  "dcmmeta_slice_dim": 2,
  "dcmmeta_version": 0.6,
  "global": {
    "const": {
      "AccessionNumber": "A003931",
      "AcquisitionMatrix": [82, 0, 0, 82],
      "AngioFlag": "N",
      "BitsAllocated": 16,
      "BitsStored": 16,
      "BodyPartExamined": "BRAIN",
      "Columns": 656,
      "EchoNumbers": 1,
      "EchoTime": 27.2,
      "EchoTrainLength": 82,
      "FlipAngle": 44.0,
      "HighBit": 15,
      "ImageOrientationPatient": [0.99822222211517, 0.05856954614275, -0.0110455212678, -0.0593052668898, 0.9945163229715, -0.0861404008719],
      "ImagePositionPatient": [-831.71006743384, -948.00582624927, 1.3052907681191],
      "ImageType": [
        "ORIGINAL",
        "PRIMARY",
        "M",
        "MB",
        "ND",
        "NORM",
        "MOSAIC"
],
      "ImagedNucleus": "1H",
      "ImagingFrequency": 123.252212,
      "InPlanePhaseEncodingDirection": "COL",
      "MRAcquisitionType": "2D",
      "MagneticFieldStrength": 3.0,
      "Manufacturer": "SIEMENS",
      "ManufacturerModelName": "Prisma",
      "Modality": "MR",
      "NumberOfAverages": 1.0,
      "NumberOfPhaseEncodingSteps": 82,
      "PercentPhaseFieldOfView": 100.0,
      "PercentSampling": 100.0,
      "PerformedProcedureStepStartTime": "104941.314000",
      "PhotometricInterpretation": "MONOCHROME2",
      "PixelBandwidth": 3050.0,
      "PixelRepresentation": 0,
      "PixelSpacing": [2.6829268932343, 2.6829268932343],
      "ProtocolName": "func_run-01_task-faces_acq-ap-mb8",
      "RepetitionTime": 460.0,
      "Rows": 656,
      "SAR": 0.10453745024914,
      "SamplesPerPixel": 1,
      "ScanOptions": "FS",
      "ScanningSequence": "EP",
      "SequenceName": "epfid2d1_82",
      "SequenceVariant": [
        "SK",
        "SS"
],
      "SeriesDescription": "func_run-01_task-faces_acq-ap-mb8",
      "SeriesNumber": 16,
      "SeriesTime": "114816.901000",
      "SliceLocation": -85.777212421817,
      "SliceThickness": 2.7000000476837,
      "SmallestImagePixelValue": 0,
      "SoftwareVersions": "syngo MR E11",
      "SpacingBetweenSlices": 2.7000000095169,
      "SpecificCharacterSet": "ISO_IR 100",
      "StudyID": "2",
      "StudyTime": "104941.221000",
      "TransmitCoilName": "Body",
      "VariableFlipAngleFlag": "N",
      "WindowCenterWidthExplanation": "Algo1"
    },
    "slices": {}
  },
  "time": {
    "samples": {
      "AcquisitionNumber": [1, 2, 3, 4, 5, 6, 7, 8, 9, 10, 11, 12, 13, 14, 15, 16, 17, 18, 19, 20, 21, 22, 23, 24, 25, 26, 27, 28, 29, 30, 31, 32, 33, 34, 35, 36, 37, 38, 39, 40, 41, 42, 43, 44, 45, 46, 47, 48, 49, 50, 51, 52, 53, 54, 55, 56, 57, 58, 59, 60, 61, 62, 63, 64, 65, 66, 67, 68, 69, 70, 71, 72, 73, 74, 75, 76, 77, 78, 79, 80, 81, 82, 83, 84, 85, 86, 87, 88, 89, 90, 91, 92, 93, 94, 95, 96, 97, 98, 99, 100, 101, 102, 103, 104, 105, 106, 107, 108, 109, 110, 111, 112, 113, 114, 115, 116, 117, 118, 119, 120, 121, 122, 123, 124, 125, 126, 127, 128, 129, 130, 131, 132, 133, 134, 135, 136, 137, 138, 139, 140, 141, 142, 143, 144, 145, 146, 147, 148, 149, 150, 151, 152, 153, 154, 155, 156, 157, 158, 159, 160, 161, 162, 163, 164, 165, 166, 167, 168, 169, 170, 171, 172, 173, 174, 175, 176, 177, 178, 179, 180, 181, 182, 183, 184, 185, 186, 187, 188, 189, 190, 191, 192, 193, 194, 195, 196, 197, 198, 199, 200, 201, 202, 203, 204, 205, 206, 207, 208, 209, 210, 211, 212, 213, 214, 215, 216, 217, 218, 219, 220, 221, 222, 223, 224, 225, 226, 227, 228, 229, 230, 231, 232, 233, 234, 235, 236, 237, 238, 239, 240, 241, 242, 243, 244, 245, 246, 247, 248, 249, 250, 251, 252, 253, 254, 255, 256, 257, 258, 259, 260, 261, 262, 263, 264, 265, 266, 267, 268, 269, 270, 271, 272, 273, 274, 275, 276, 277, 278, 279, 280, 281, 282, 283, 284, 285, 286, 287, 288, 289, 290, 291, 292, 293, 294, 295, 296, 297, 298, 299, 300, 301, 302, 303, 304, 305, 306, 307, 308, 309, 310, 311, 312, 313, 314, 315, 316, 317, 318, 319, 320, 321, 322, 323, 324, 325, 326, 327, 328, 329, 330, 331, 332, 333, 334, 335, 336, 337, 338, 339, 340, 341, 342, 343, 344, 345, 346, 347, 348, 349, 350, 351, 352, 353, 354, 355, 356, 357, 358, 359, 360, 361, 362, 363, 364, 365, 366, 367, 368, 369, 370, 371, 372, 373, 374, 375, 376, 377, 378, 379, 380, 381, 382, 383, 384, 385, 386, 387, 388, 389, 390, 391, 392, 393, 394, 395, 396, 397, 398, 399, 400, 401, 402, 403, 404, 405, 406, 407, 408, 409, 410, 411, 412, 413, 414, 415, 416, 417, 418, 419, 420, 421, 422, 423, 424, 425, 426, 427, 428, 429, 430, 431, 432, 433, 434, 435, 436, 437, 438, 439, 440, 441, 442, 443, 444, 445, 446, 447, 448, 449, 450, 451, 452, 453, 454, 455, 456, 457, 458, 459, 460, 461, 462, 463, 464, 465, 466, 467, 468, 469, 470, 471, 472, 473, 474, 475, 476, 477, 478, 479, 480, 481, 482, 483, 484, 485, 486, 487, 488, 489, 490, 491, 492, 493, 494, 495, 496, 497, 498, 499, 500, 501, 502, 503, 504, 505, 506, 507, 508, 509, 510, 511, 512, 513, 514, 515, 516, 517, 518, 519, 520, 521, 522, 523, 524, 525, 526, 527, 528, 529, 530, 531, 532, 533, 534, 535, 536, 537, 538, 539, 540, 541, 542, 543, 544, 545, 546, 547, 548, 549, 550, 551, 552, 553, 554, 555, 556, 557, 558, 559, 560, 561, 562, 563, 564, 565, 566, 567, 568, 569, 570, 571, 572, 573, 574, 575, 576, 577, 578, 579, 580, 581, 582, 583, 584, 585, 586, 587, 588, 589, 590, 591, 592, 593, 594, 595, 596, 597, 598, 599, 600, 601, 602, 603, 604, 605, 606, 607, 608, 609, 610, 611, 612, 613, 614, 615, 616, 617, 618, 619, 620, 621, 622, 623, 624, 625, 626, 627, 628, 629, 630, 631, 632, 633, 634, 635, 636, 637, 638, 639, 640, 641, 642, 643, 644, 645, 646, 647, 648, 649, 650, 651, 652, 653, 654, 655, 656, 657, 658, 659, 660, 661, 662, 663, 664, 665, 666, 667, 668, 669, 670, 671, 672, 673, 674, 675, 676, 677, 678, 679, 680, 681, 682, 683, 684, 685, 686, 687, 688, 689, 690, 691, 692, 693, 694, 695, 696, 697, 698, 699, 700, 701, 702, 703, 704, 705, 706, 707, 708, 709, 710, 711, 712, 713, 714, 715, 716, 717, 718, 719, 720, 721, 722, 723, 724, 725, 726, 727, 728, 729, 730, 731, 732, 733, 734, 735, 736, 737, 738, 739, 740, 741, 742, 743, 744, 745, 746, 747, 748, 749, 750, 751, 752, 753, 754, 755, 756, 757, 758, 759, 760, 761, 762, 763, 764, 765, 766, 767, 768, 769, 770, 771, 772, 773, 774, 775, 776, 777, 778, 779, 780, 781, 782, 783, 784, 785, 786, 787, 788, 789, 790, 791, 792, 793, 794, 795, 796, 797, 798, 799, 800, 801, 802, 803, 804, 805, 806, 807, 808, 809, 810, 811, 812, 813, 814, 815, 816, 817, 818, 819, 820, 821, 822, 823, 824, 825, 826, 827, 828, 829, 830, 831, 832, 833, 834, 835, 836, 837, 838, 839, 840, 841, 842, 843, 844, 845, 846, 847, 848, 849, 850, 851, 852, 853, 854, 855, 856, 857, 858, 859, 860, 861, 862, 863, 864, 865, 866, 867, 868, 869, 870, 871, 872, 873, 874, 875, 876, 877, 878, 879, 880, 881, 882, 883, 884, 885, 886, 887, 888, 889, 890, 891, 892, 893, 894, 895, 896, 897, 898, 899, 900, 901, 902, 903, 904, 905, 906, 907, 908, 909, 910, 911, 912, 913, 914],
      "AcquisitionTime": ["114752.670000", "114753.130000", "114753.590000", "114754.050000", "114754.510000", "114754.970000", "114755.430000", "114755.890000", "114756.350000", "114756.810000", "114757.270000", "114757.730000", "114758.190000", "114758.650000", "114759.110000", "114759.570000", "114800.030000", "114800.490000", "114800.950000", "114801.410000", "114801.870000", "114802.330000", "114802.790000", "114803.250000", "114803.710000", "114804.170000", "114804.630000", "114805.090000", "114805.550000", "114806.010000", "114806.470000", "114806.930000", "114807.390000", "114807.850000", "114808.310000", "114808.770000", "114809.230000", "114809.690000", "114810.150000", "114810.610000", "114811.070000", "114811.530000", "114811.990000", "114812.450000", "114812.910000", "114813.370000", "114813.830000", "114814.290000", "114814.750000", "114815.210000", "114815.670000", "114816.130000", "114816.590000", "114817.050000", "114817.510000", "114817.970000", "114818.430000", "114818.890000", "114819.350000", "114819.810000", "114820.270000", "114820.730000", "114821.190000", "114821.650000", "114822.110000", "114822.570000", "114823.030000", "114823.490000", "114823.950000", "114824.410000", "114824.870000", "114825.330000", "114825.790000", "114826.250000", "114826.710000", "114827.170000", "114827.630000", "114828.090000", "114828.550000", "114829.010000", "114829.470000", "114829.930000", "114830.390000", "114830.850000", "114831.310000", "114831.770000", "114832.230000", "114832.690000", "114833.150000", "114833.610000", "114834.070000", "114834.530000", "114834.990000", "114835.450000", "114835.910000", "114836.370000", "114836.830000", "114837.290000", "114837.750000", "114838.210000", "114838.670000", "114839.130000", "114839.590000", "114840.050000", "114840.510000", "114840.970000", "114841.430000", "114841.890000", "114842.350000", "114842.810000", "114843.270000", "114843.730000", "114844.190000", "114844.650000", "114845.110000", "114845.570000", "114846.030000", "114846.490000", "114846.950000", "114847.410000", "114847.870000", "114848.330000", "114848.790000", "114849.250000", "114849.710000", "114850.170000", "114850.630000", "114851.090000", "114851.550000", "114852.010000", "114852.470000", "114852.930000", "114853.390000", "114853.850000", "114854.310000", "114854.770000", "114855.230000", "114855.690000", "114856.150000", "114856.610000", "114857.070000", "114857.530000", "114857.990000", "114858.450000", "114858.910000", "114859.370000", "114859.830000", "114900.290000", "114900.750000", "114901.210000", "114901.670000", "114902.130000", "114902.590000", "114903.050000", "114903.510000", "114903.970000", "114904.430000", "114904.890000", "114905.350000", "114905.810000", "114906.270000", "114906.730000", "114907.190000", "114907.650000", "114908.110000", "114908.570000", "114909.030000", "114909.490000", "114909.950000", "114910.410000", "114910.870000", "114911.330000", "114911.790000", "114912.250000", "114912.710000", "114913.170000", "114913.630000", "114914.090000", "114914.550000", "114915.010000", "114915.470000", "114915.930000", "114916.390000", "114916.850000", "114917.310000", "114917.770000", "114918.230000", "114918.690000", "114919.150000", "114919.610000", "114920.070000", "114920.530000", "114920.990000", "114921.450000", "114921.910000", "114922.370000", "114922.830000", "114923.290000", "114923.750000", "114924.210000", "114924.670000", "114925.130000", "114925.590000", "114926.050000", "114926.510000", "114926.970000", "114927.430000", "114927.890000", "114928.350000", "114928.810000", "114929.270000", "114929.730000", "114930.190000", "114930.650000", "114931.110000", "114931.570000", "114932.030000", "114932.490000", "114932.950000", "114933.410000", "114933.870000", "114934.330000", "114934.790000", "114935.250000", "114935.710000", "114936.170000", "114936.630000", "114937.090000", "114937.550000", "114938.010000", "114938.470000", "114938.930000", "114939.390000", "114939.850000", "114940.310000", "114940.770000", "114941.230000", "114941.690000", "114942.150000", "114942.610000", "114943.070000", "114943.530000", "114943.990000", "114944.450000", "114944.910000", "114945.370000", "114945.830000", "114946.290000", "114946.750000", "114947.210000", "114947.670000", "114948.130000", "114948.590000", "114949.050000", "114949.510000", "114949.970000", "114950.430000", "114950.890000", "114951.350000", "114951.810000", "114952.270000", "114952.730000", "114953.190000", "114953.650000", "114954.110000", "114954.570000", "114955.030000", "114955.490000", "114955.950000", "114956.410000", "114956.870000", "114957.330000", "114957.790000", "114958.250000", "114958.710000", "114959.170000", "114959.630000", "115000.090000", "115000.550000", "115001.010000", "115001.470000", "115001.930000", "115002.390000", "115002.850000", "115003.310000", "115003.770000", "115004.230000", "115004.690000", "115005.150000", "115005.610000", "115006.070000", "115006.530000", "115006.990000", "115007.450000", "115007.910000", "115008.370000", "115008.830000", "115009.290000", "115009.750000", "115010.210000", "115010.670000", "115011.130000", "115011.590000", "115012.050000", "115012.510000", "115012.970000", "115013.430000", "115013.890000", "115014.350000", "115014.810000", "115015.270000", "115015.730000", "115016.190000", "115016.650000", "115017.110000", "115017.570000", "115018.030000", "115018.490000", "115018.950000", "115019.410000", "115019.870000", "115020.330000", "115020.790000", "115021.250000", "115021.710000", "115022.170000", "115022.630000", "115023.090000", "115023.550000", "115024.010000", "115024.470000", "115024.930000", "115025.390000", "115025.850000", "115026.310000", "115026.770000", "115027.230000", "115027.690000", "115028.150000", "115028.610000", "115029.070000", "115029.530000", "115029.990000", "115030.450000", "115030.910000", "115031.370000", "115031.830000", "115032.290000", "115032.750000", "115033.210000", "115033.670000", "115034.130000", "115034.590000", "115035.050000", "115035.510000", "115035.970000", "115036.430000", "115036.890000", "115037.350000", "115037.810000", "115038.270000", "115038.730000", "115039.190000", "115039.650000", "115040.110000", "115040.570000", "115041.030000", "115041.490000", "115041.950000", "115042.410000", "115042.870000", "115043.330000", "115043.790000", "115044.250000", "115044.710000", "115045.170000", "115045.630000", "115046.090000", "115046.550000", "115047.010000", "115047.470000", "115047.930000", "115048.390000", "115048.850000", "115049.310000", "115049.770000", "115050.230000", "115050.690000", "115051.150000", "115051.610000", "115052.070000", "115052.530000", "115052.990000", "115053.450000", "115053.910000", "115054.370000", "115054.830000", "115055.290000", "115055.750000", "115056.210000", "115056.670000", "115057.130000", "115057.590000", "115058.050000", "115058.510000", "115058.970000", "115059.430000", "115059.890000", "115100.350000", "115100.810000", "115101.270000", "115101.730000", "115102.190000", "115102.650000", "115103.110000", "115103.570000", "115104.030000", "115104.490000", "115104.950000", "115105.410000", "115105.870000", "115106.330000", "115106.790000", "115107.250000", "115107.710000", "115108.170000", "115108.630000", "115109.090000", "115109.550000", "115110.010000", "115110.470000", "115110.930000", "115111.390000", "115111.850000", "115112.310000", "115112.770000", "115113.230000", "115113.690000", "115114.150000", "115114.610000", "115115.070000", "115115.530000", "115115.990000", "115116.450000", "115116.910000", "115117.370000", "115117.830000", "115118.290000", "115118.750000", "115119.210000", "115119.670000", "115120.130000", "115120.590000", "115121.050000", "115121.510000", "115121.970000", "115122.430000", "115122.890000", "115123.350000", "115123.810000", "115124.270000", "115124.730000", "115125.190000", "115125.650000", "115126.110000", "115126.570000", "115127.030000", "115127.490000", "115127.950000", "115128.410000", "115128.870000", "115129.330000", "115129.790000", "115130.250000", "115130.710000", "115131.170000", "115131.630000", "115132.090000", "115132.550000", "115133.010000", "115133.470000", "115133.930000", "115134.390000", "115134.850000", "115135.310000", "115135.770000", "115136.230000", "115136.690000", "115137.150000", "115137.610000", "115138.070000", "115138.530000", "115138.990000", "115139.450000", "115139.910000", "115140.370000", "115140.830000", "115141.290000", "115141.750000", "115142.210000", "115142.670000", "115143.130000", "115143.590000", "115144.050000", "115144.510000", "115144.970000", "115145.430000", "115145.890000", "115146.350000", "115146.810000", "115147.270000", "115147.730000", "115148.190000", "115148.650000", "115149.110000", "115149.570000", "115150.030000", "115150.490000", "115150.950000", "115151.410000", "115151.870000", "115152.330000", "115152.790000", "115153.250000", "115153.710000", "115154.170000", "115154.630000", "115155.090000", "115155.550000", "115156.010000", "115156.470000", "115156.930000", "115157.390000", "115157.850000", "115158.310000", "115158.770000", "115159.230000", "115159.690000", "115200.150000", "115200.610000", "115201.070000", "115201.530000", "115201.990000", "115202.450000", "115202.910000", "115203.370000", "115203.830000", "115204.290000", "115204.750000", "115205.210000", "115205.670000", "115206.130000", "115206.590000", "115207.050000", "115207.510000", "115207.970000", "115208.430000", "115208.890000", "115209.350000", "115209.810000", "115210.270000", "115210.730000", "115211.190000", "115211.650000", "115212.110000", "115212.570000", "115213.030000", "115213.490000", "115213.950000", "115214.410000", "115214.870000", "115215.330000", "115215.790000", "115216.250000", "115216.710000", "115217.170000", "115217.630000", "115218.090000", "115218.550000", "115219.010000", "115219.470000", "115219.930000", "115220.390000", "115220.850000", "115221.310000", "115221.770000", "115222.230000", "115222.690000", "115223.150000", "115223.610000", "115224.070000", "115224.530000", "115224.990000", "115225.450000", "115225.910000", "115226.370000", "115226.830000", "115227.290000", "115227.750000", "115228.210000", "115228.670000", "115229.130000", "115229.590000", "115230.050000", "115230.510000", "115230.970000", "115231.430000", "115231.890000", "115232.350000", "115232.810000", "115233.270000", "115233.730000", "115234.190000", "115234.650000", "115235.110000", "115235.570000", "115236.030000", "115236.490000", "115236.950000", "115237.410000", "115237.870000", "115238.330000", "115238.790000", "115239.250000", "115239.710000", "115240.170000", "115240.630000", "115241.090000", "115241.550000", "115242.010000", "115242.470000", "115242.930000", "115243.390000", "115243.850000", "115244.310000", "115244.770000", "115245.230000", "115245.690000", "115246.150000", "115246.610000", "115247.070000", "115247.530000", "115247.990000", "115248.450000", "115248.910000", "115249.370000", "115249.830000", "115250.290000", "115250.750000", "115251.210000", "115251.670000", "115252.130000", "115252.590000", "115253.050000", "115253.510000", "115253.970000", "115254.430000", "115254.890000", "115255.350000", "115255.810000", "115256.270000", "115256.730000", "115257.190000", "115257.650000", "115258.110000", "115258.570000", "115259.030000", "115259.490000", "115259.950000", "115300.410000", "115300.870000", "115301.330000", "115301.790000", "115302.250000", "115302.710000", "115303.170000", "115303.630000", "115304.090000", "115304.550000", "115305.010000", "115305.470000", "115305.930000", "115306.390000", "115306.850000", "115307.310000", "115307.770000", "115308.230000", "115308.690000", "115309.150000", "115309.610000", "115310.070000", "115310.530000", "115310.990000", "115311.450000", "115311.910000", "115312.370000", "115312.830000", "115313.290000", "115313.750000", "115314.210000", "115314.670000", "115315.130000", "115315.590000", "115316.050000", "115316.510000", "115316.970000", "115317.430000", "115317.890000", "115318.350000", "115318.810000", "115319.270000", "115319.730000", "115320.190000", "115320.650000", "115321.110000", "115321.570000", "115322.030000", "115322.490000", "115322.950000", "115323.410000", "115323.870000", "115324.330000", "115324.790000", "115325.250000", "115325.710000", "115326.170000", "115326.630000", "115327.090000", "115327.550000", "115328.010000", "115328.470000", "115328.930000", "115329.390000", "115329.850000", "115330.310000", "115330.770000", "115331.230000", "115331.690000", "115332.150000", "115332.610000", "115333.070000", "115333.530000", "115333.990000", "115334.450000", "115334.910000", "115335.370000", "115335.830000", "115336.290000", "115336.750000", "115337.210000", "115337.670000", "115338.130000", "115338.590000", "115339.050000", "115339.510000", "115339.970000", "115340.430000", "115340.890000", "115341.350000", "115341.810000", "115342.270000", "115342.730000", "115343.190000", "115343.650000", "115344.110000", "115344.570000", "115345.030000", "115345.490000", "115345.950000", "115346.410000", "115346.870000", "115347.330000", "115347.790000", "115348.250000", "115348.710000", "115349.170000", "115349.630000", "115350.090000", "115350.550000", "115351.010000", "115351.470000", "115351.930000", "115352.390000", "115352.850000", "115353.310000", "115353.770000", "115354.230000", "115354.690000", "115355.150000", "115355.610000", "115356.070000", "115356.530000", "115356.990000", "115357.450000", "115357.910000", "115358.370000", "115358.830000", "115359.290000", "115359.750000", "115400.210000", "115400.670000", "115401.130000", "115401.590000", "115402.050000", "115402.510000", "115402.970000", "115403.430000", "115403.890000", "115404.350000", "115404.810000", "115405.270000", "115405.730000", "115406.190000", "115406.650000", "115407.110000", "115407.570000", "115408.030000", "115408.490000", "115408.950000", "115409.410000", "115409.870000", "115410.330000", "115410.790000", "115411.250000", "115411.710000", "115412.170000", "115412.630000", "115413.090000", "115413.550000", "115414.010000", "115414.470000", "115414.930000", "115415.390000", "115415.850000", "115416.310000", "115416.770000", "115417.230000", "115417.690000", "115418.150000", "115418.610000", "115419.070000", "115419.530000", "115419.990000", "115420.450000", "115420.910000", "115421.370000", "115421.830000", "115422.290000", "115422.750000", "115423.210000", "115423.670000", "115424.130000", "115424.590000", "115425.050000", "115425.510000", "115425.970000", "115426.430000", "115426.890000", "115427.350000", "115427.810000", "115428.270000", "115428.730000", "115429.190000", "115429.650000", "115430.110000", "115430.570000", "115431.030000", "115431.490000", "115431.950000", "115432.410000", "115432.870000", "115433.330000", "115433.790000", "115434.250000", "115434.710000", "115435.170000", "115435.630000", "115436.090000", "115436.550000", "115437.010000", "115437.470000", "115437.930000", "115438.390000", "115438.850000", "115439.310000", "115439.770000", "115440.230000", "115440.690000", "115441.150000", "115441.610000", "115442.070000", "115442.530000", "115442.990000", "115443.450000", "115443.910000", "115444.370000", "115444.830000", "115445.290000", "115445.750000", "115446.210000", "115446.670000", "115447.130000", "115447.590000", "115448.050000", "115448.510000", "115448.970000", "115449.430000", "115449.890000", "115450.350000", "115450.810000", "115451.270000", "115451.730000", "115452.190000", "115452.650000"],
