{
  "AcquisitionMatrixPE": 82,
  "AcquisitionNumber": 1,
  "AcquisitionTime": "11:18:27.655000",
  "BandwidthPerPixelPhaseEncode": 24.888,
  "BaseResolution": 82,
  "BodyPartExamined": "BRAIN",
  "ConsistencyInfo": "N4_VE11E_LATEST_20181129",
  "ConversionSoftware": "dcm2niix",
  "ConversionSoftwareVersion": "v1.0.20201102",
  "DerivedVendorReportedEchoSpacing": 0.00049,
  "DeviceSerialNumber": "66112",
  "DwellTime": 2e-06,
  "EchoTime": 0.0272,
  "EchoTrainLength": 82,
  "EffectiveEchoSpacing": 0.00049,
  "FlipAngle": 44,
  "ImageComments": "Unaliased MB8/PE3",
  "ImageOrientationPatientDICOM": [0.998222, 0.0585695, -0.0110455, -0.0593053, 0.994516, -0.0861404],
  "ImageType": [
    "ORIGINAL",
    "PRIMARY",
    "M",
    "MB",
    "ND",
    "NORM",
    "MOSAIC"
],
  "ImagingFrequency": 123.252,
  "InPlanePhaseEncodingDirectionDICOM": "COL",
  "InstitutionAddress": "Maynard 3,Hanover,NH,US,03755",
  "InstitutionName": "Dartmouth College - PBS",
  "InstitutionalDepartmentName": "Department",
  "MRAcquisitionType": "2D",
  "MagneticFieldStrength": 3,
  "Manufacturer": "Siemens",
  "ManufacturersModelName": "Prisma",
  "Modality": "MR",
  "MultibandAccelerationFactor": 8,
  "PartialFourier": 1,
  "PatientPosition": "HFS",
  "PercentPhaseFOV": 100,
  "PercentSampling": 100,
  "PhaseEncodingDirection": "j-",
  "PhaseEncodingSteps": 82,
  "PhaseResolution": 1,
  "PixelBandwidth": 3050,
  "ProcedureStepDescription": "Wager_Wager^1076_spacetop",
  "ProtocolName": "func_run-02_task-narratives_acq-ap-mb8",
  "PulseSequenceDetails": "%CustomerSeq%\\cmrr_mbep2d_bold",
  "ReceiveCoilActiveElements": "HEA;HEP",
  "ReceiveCoilName": "Head_32",
  "ReconMatrixPE": 82,
  "RepetitionTime": 0.46,
  "SAR": 0.104642,
  "ScanOptions": "FS",
  "ScanningSequence": "EP",
  "SequenceName": "epfid2d1_82",
  "SequenceVariant": "SK\\SS",
  "SeriesDescription": "func_run-02_task-narratives_acq-ap-mb8",
  "SeriesNumber": 10,
  "ShimSetting": [4145, -7683, -7279, 556, -64, 57, -28, 73],
  "SliceThickness": 2.7,
  "SliceTiming": [0, 0.25, 0.0625, 0.3125, 0.125, 0.3775, 0.1875, 0, 0.25, 0.0625, 0.3125, 0.125, 0.3775, 0.1875, 0, 0.25, 0.0625, 0.3125, 0.125, 0.3775, 0.1875, 0, 0.25, 0.0625, 0.3125, 0.125, 0.3775, 0.1875, 0, 0.25, 0.0625, 0.3125, 0.125, 0.3775, 0.1875, 0, 0.25, 0.0625, 0.3125, 0.125, 0.3775, 0.1875, 0, 0.25, 0.0625, 0.3125, 0.125, 0.3775, 0.1875, 0, 0.25, 0.0625, 0.3125, 0.125, 0.3775, 0.1875],
  "SoftwareVersions": "syngo MR E11",
  "SpacingBetweenSlices": 2.7,
  "StationName": "AWP66112",
  "TaskName": "narratives",
  "TotalReadoutTime": 0.03969,
  "TxRefAmp": 253.631,
  "WipMemBlock": "a0cbb29c-341f-452a-bbcc-45d1d42c9ea1||Sequence: R016 ve11e/master r/434b28f1; Aug  7 2019 18:53:46 by eja",
  "dcmmeta_affine": [
    [-2.678157329559326, -0.15911169350147247, -0.016037316992878914, 121.63204193115234],
    [-0.15713781118392944, 2.6682145595550537, -0.23393426835536957, -78.99569702148438],
    [-0.029634326696395874, 0.2311083972454071, 2.6897988319396973, -92.24765014648438],
    [0.0, 0.0, 0.0, 1.0]
],
  "dcmmeta_reorient_transform": [
    [0.0, -1.0, 0.0, 81.0],
    [1.0, 0.0, 0.0, 0.0],
    [0.0, 0.0, 1.0, 0.0],
    [0.0, 0.0, 0.0, 1.0]
],
  "dcmmeta_shape": [82, 82, 56, 1098],
  "dcmmeta_slice_dim": 2,
  "dcmmeta_version": 0.6,
  "global": {
    "const": {
      "AccessionNumber": "A003931",
      "AcquisitionMatrix": [82, 0, 0, 82],
      "AngioFlag": "N",
      "BitsAllocated": 16,
      "BitsStored": 16,
      "BodyPartExamined": "BRAIN",
      "Columns": 656,
      "EchoNumbers": 1,
      "EchoTime": 27.2,
      "EchoTrainLength": 82,
      "FlipAngle": 44.0,
      "HighBit": 15,
      "ImageOrientationPatient": [0.99822222211517, 0.05856954614275, -0.0110455212678, -0.0593052668898, 0.9945163229715, -0.0861404008719],
      "ImagePositionPatient": [-831.71006743384, -948.00582624927, 1.3052907681191],
      "ImageType": [
        "ORIGINAL",
        "PRIMARY",
        "M",
        "MB",
        "ND",
        "NORM",
        "MOSAIC"
],
      "ImagedNucleus": "1H",
      "ImagingFrequency": 123.252203,
      "InPlanePhaseEncodingDirection": "COL",
      "MRAcquisitionType": "2D",
      "MagneticFieldStrength": 3.0,
      "Manufacturer": "SIEMENS",
      "ManufacturerModelName": "Prisma",
      "Modality": "MR",
      "NumberOfAverages": 1.0,
      "NumberOfPhaseEncodingSteps": 82,
      "PercentPhaseFieldOfView": 100.0,
      "PercentSampling": 100.0,
      "PerformedProcedureStepStartTime": "104941.314000",
      "PhotometricInterpretation": "MONOCHROME2",
      "PixelBandwidth": 3050.0,
      "PixelRepresentation": 0,
      "PixelSpacing": [2.6829268932343, 2.6829268932343],
      "ProtocolName": "func_run-02_task-narratives_acq-ap-mb8",
      "RepetitionTime": 460.0,
      "Rows": 656,
      "SAR": 0.10464157471461,
      "SamplesPerPixel": 1,
      "ScanOptions": "FS",
      "ScanningSequence": "EP",
      "SequenceName": "epfid2d1_82",
      "SequenceVariant": [
        "SK",
        "SS"
],
      "SeriesDescription": "func_run-02_task-narratives_acq-ap-mb8",
      "SeriesNumber": 10,
      "SeriesTime": "111856.886000",
      "SliceLocation": -85.777212421817,
      "SliceThickness": 2.7000000476837,
      "SmallestImagePixelValue": 0,
      "SoftwareVersions": "syngo MR E11",
      "SpacingBetweenSlices": 2.7000000095169,
      "SpecificCharacterSet": "ISO_IR 100",
      "StudyID": "2",
      "StudyTime": "104941.221000",
      "TransmitCoilName": "Body",
      "VariableFlipAngleFlag": "N",
      "WindowCenterWidthExplanation": "Algo1"
    },
    "slices": {}
  },
  "time": {
    "samples": {
      "AcquisitionNumber": [1, 2, 3, 4, 5, 6, 7, 8, 9, 10, 11, 12, 13, 14, 15, 16, 17, 18, 19, 20, 21, 22, 23, 24, 25, 26, 27, 28, 29, 30, 31, 32, 33, 34, 35, 36, 37, 38, 39, 40, 41, 42, 43, 44, 45, 46, 47, 48, 49, 50, 51, 52, 53, 54, 55, 56, 57, 58, 59, 60, 61, 62, 63, 64, 65, 66, 67, 68, 69, 70, 71, 72, 73, 74, 75, 76, 77, 78, 79, 80, 81, 82, 83, 84, 85, 86, 87, 88, 89, 90, 91, 92, 93, 94, 95, 96, 97, 98, 99, 100, 101, 102, 103, 104, 105, 106, 107, 108, 109, 110, 111, 112, 113, 114, 115, 116, 117, 118, 119, 120, 121, 122, 123, 124, 125, 126, 127, 128, 129, 130, 131, 132, 133, 134, 135, 136, 137, 138, 139, 140, 141, 142, 143, 144, 145, 146, 147, 148, 149, 150, 151, 152, 153, 154, 155, 156, 157, 158, 159, 160, 161, 162, 163, 164, 165, 166, 167, 168, 169, 170, 171, 172, 173, 174, 175, 176, 177, 178, 179, 180, 181, 182, 183, 184, 185, 186, 187, 188, 189, 190, 191, 192, 193, 194, 195, 196, 197, 198, 199, 200, 201, 202, 203, 204, 205, 206, 207, 208, 209, 210, 211, 212, 213, 214, 215, 216, 217, 218, 219, 220, 221, 222, 223, 224, 225, 226, 227, 228, 229, 230, 231, 232, 233, 234, 235, 236, 237, 238, 239, 240, 241, 242, 243, 244, 245, 246, 247, 248, 249, 250, 251, 252, 253, 254, 255, 256, 257, 258, 259, 260, 261, 262, 263, 264, 265, 266, 267, 268, 269, 270, 271, 272, 273, 274, 275, 276, 277, 278, 279, 280, 281, 282, 283, 284, 285, 286, 287, 288, 289, 290, 291, 292, 293, 294, 295, 296, 297, 298, 299, 300, 301, 302, 303, 304, 305, 306, 307, 308, 309, 310, 311, 312, 313, 314, 315, 316, 317, 318, 319, 320, 321, 322, 323, 324, 325, 326, 327, 328, 329, 330, 331, 332, 333, 334, 335, 336, 337, 338, 339, 340, 341, 342, 343, 344, 345, 346, 347, 348, 349, 350, 351, 352, 353, 354, 355, 356, 357, 358, 359, 360, 361, 362, 363, 364, 365, 366, 367, 368, 369, 370, 371, 372, 373, 374, 375, 376, 377, 378, 379, 380, 381, 382, 383, 384, 385, 386, 387, 388, 389, 390, 391, 392, 393, 394, 395, 396, 397, 398, 399, 400, 401, 402, 403, 404, 405, 406, 407, 408, 409, 410, 411, 412, 413, 414, 415, 416, 417, 418, 419, 420, 421, 422, 423, 424, 425, 426, 427, 428, 429, 430, 431, 432, 433, 434, 435, 436, 437, 438, 439, 440, 441, 442, 443, 444, 445, 446, 447, 448, 449, 450, 451, 452, 453, 454, 455, 456, 457, 458, 459, 460, 461, 462, 463, 464, 465, 466, 467, 468, 469, 470, 471, 472, 473, 474, 475, 476, 477, 478, 479, 480, 481, 482, 483, 484, 485, 486, 487, 488, 489, 490, 491, 492, 493, 494, 495, 496, 497, 498, 499, 500, 501, 502, 503, 504, 505, 506, 507, 508, 509, 510, 511, 512, 513, 514, 515, 516, 517, 518, 519, 520, 521, 522, 523, 524, 525, 526, 527, 528, 529, 530, 531, 532, 533, 534, 535, 536, 537, 538, 539, 540, 541, 542, 543, 544, 545, 546, 547, 548, 549, 550, 551, 552, 553, 554, 555, 556, 557, 558, 559, 560, 561, 562, 563, 564, 565, 566, 567, 568, 569, 570, 571, 572, 573, 574, 575, 576, 577, 578, 579, 580, 581, 582, 583, 584, 585, 586, 587, 588, 589, 590, 591, 592, 593, 594, 595, 596, 597, 598, 599, 600, 601, 602, 603, 604, 605, 606, 607, 608, 609, 610, 611, 612, 613, 614, 615, 616, 617, 618, 619, 620, 621, 622, 623, 624, 625, 626, 627, 628, 629, 630, 631, 632, 633, 634, 635, 636, 637, 638, 639, 640, 641, 642, 643, 644, 645, 646, 647, 648, 649, 650, 651, 652, 653, 654, 655, 656, 657, 658, 659, 660, 661, 662, 663, 664, 665, 666, 667, 668, 669, 670, 671, 672, 673, 674, 675, 676, 677, 678, 679, 680, 681, 682, 683, 684, 685, 686, 687, 688, 689, 690, 691, 692, 693, 694, 695, 696, 697, 698, 699, 700, 701, 702, 703, 704, 705, 706, 707, 708, 709, 710, 711, 712, 713, 714, 715, 716, 717, 718, 719, 720, 721, 722, 723, 724, 725, 726, 727, 728, 729, 730, 731, 732, 733, 734, 735, 736, 737, 738, 739, 740, 741, 742, 743, 744, 745, 746, 747, 748, 749, 750, 751, 752, 753, 754, 755, 756, 757, 758, 759, 760, 761, 762, 763, 764, 765, 766, 767, 768, 769, 770, 771, 772, 773, 774, 775, 776, 777, 778, 779, 780, 781, 782, 783, 784, 785, 786, 787, 788, 789, 790, 791, 792, 793, 794, 795, 796, 797, 798, 799, 800, 801, 802, 803, 804, 805, 806, 807, 808, 809, 810, 811, 812, 813, 814, 815, 816, 817, 818, 819, 820, 821, 822, 823, 824, 825, 826, 827, 828, 829, 830, 831, 832, 833, 834, 835, 836, 837, 838, 839, 840, 841, 842, 843, 844, 845, 846, 847, 848, 849, 850, 851, 852, 853, 854, 855, 856, 857, 858, 859, 860, 861, 862, 863, 864, 865, 866, 867, 868, 869, 870, 871, 872, 873, 874, 875, 876, 877, 878, 879, 880, 881, 882, 883, 884, 885, 886, 887, 888, 889, 890, 891, 892, 893, 894, 895, 896, 897, 898, 899, 900, 901, 902, 903, 904, 905, 906, 907, 908, 909, 910, 911, 912, 913, 914, 915, 916, 917, 918, 919, 920, 921, 922, 923, 924, 925, 926, 927, 928, 929, 930, 931, 932, 933, 934, 935, 936, 937, 938, 939, 940, 941, 942, 943, 944, 945, 946, 947, 948, 949, 950, 951, 952, 953, 954, 955, 956, 957, 958, 959, 960, 961, 962, 963, 964, 965, 966, 967, 968, 969, 970, 971, 972, 973, 974, 975, 976, 977, 978, 979, 980, 981, 982, 983, 984, 985, 986, 987, 988, 989, 990, 991, 992, 993, 994, 995, 996, 997, 998, 999, 1000, 1001, 1002, 1003, 1004, 1005, 1006, 1007, 1008, 1009, 1010, 1011, 1012, 1013, 1014, 1015, 1016, 1017, 1018, 1019, 1020, 1021, 1022, 1023, 1024, 1025, 1026, 1027, 1028, 1029, 1030, 1031, 1032, 1033, 1034, 1035, 1036, 1037, 1038, 1039, 1040, 1041, 1042, 1043, 1044, 1045, 1046, 1047, 1048, 1049, 1050, 1051, 1052, 1053, 1054, 1055, 1056, 1057, 1058, 1059, 1060, 1061, 1062, 1063, 1064, 1065, 1066, 1067, 1068, 1069, 1070, 1071, 1072, 1073, 1074, 1075, 1076, 1077, 1078, 1079, 1080, 1081, 1082, 1083, 1084, 1085, 1086, 1087, 1088, 1089, 1090, 1091, 1092, 1093, 1094, 1095, 1096, 1097, 1098],
      "AcquisitionTime": ["111827.655000", "111828.115000", "111828.575000", "111829.035000", "111829.495000", "111829.955000", "111830.415000", "111830.875000", "111831.335000", "111831.795000", "111832.255000", "111832.715000", "111833.175000", "111833.635000", "111834.095000", "111834.555000", "111835.015000", "111835.475000", "111835.935000", "111836.395000", "111836.855000", "111837.315000", "111837.775000", "111838.235000", "111838.695000", "111839.155000", "111839.615000", "111840.075000", "111840.535000", "111840.995000", "111841.455000", "111841.915000", "111842.375000", "111842.835000", "111843.295000", "111843.755000", "111844.215000", "111844.675000", "111845.135000", "111845.595000", "111846.055000", "111846.515000", "111846.975000", "111847.435000", "111847.895000", "111848.355000", "111848.815000", "111849.275000", "111849.735000", "111850.195000", "111850.655000", "111851.115000", "111851.575000", "111852.035000", "111852.495000", "111852.955000", "111853.415000", "111853.875000", "111854.335000", "111854.795000", "111855.255000", "111855.715000", "111856.175000", "111856.635000", "111857.095000", "111857.555000", "111858.015000", "111858.475000", "111858.935000", "111859.395000", "111859.855000", "111900.315000", "111900.775000", "111901.235000", "111901.695000", "111902.155000", "111902.615000", "111903.075000", "111903.535000", "111903.995000", "111904.455000", "111904.915000", "111905.375000", "111905.835000", "111906.295000", "111906.755000", "111907.215000", "111907.675000", "111908.135000", "111908.595000", "111909.055000", "111909.515000", "111909.975000", "111910.435000", "111910.895000", "111911.355000", "111911.815000", "111912.275000", "111912.735000", "111913.195000", "111913.655000", "111914.115000", "111914.575000", "111915.035000", "111915.495000", "111915.955000", "111916.415000", "111916.875000", "111917.335000", "111917.795000", "111918.255000", "111918.715000", "111919.175000", "111919.635000", "111920.095000", "111920.555000", "111921.015000", "111921.475000", "111921.935000", "111922.395000", "111922.855000", "111923.315000", "111923.775000", "111924.235000", "111924.695000", "111925.155000", "111925.615000", "111926.075000", "111926.535000", "111926.995000", "111927.455000", "111927.915000", "111928.375000", "111928.835000", "111929.295000", "111929.755000", "111930.215000", "111930.675000", "111931.135000", "111931.595000", "111932.055000", "111932.515000", "111932.975000", "111933.435000", "111933.895000", "111934.355000", "111934.815000", "111935.275000", "111935.735000", "111936.195000", "111936.655000", "111937.115000", "111937.575000", "111938.035000", "111938.495000", "111938.955000", "111939.415000", "111939.875000", "111940.335000", "111940.795000", "111941.255000", "111941.715000", "111942.175000", "111942.635000", "111943.095000", "111943.555000", "111944.015000", "111944.475000", "111944.935000", "111945.395000", "111945.855000", "111946.315000", "111946.775000", "111947.235000", "111947.695000", "111948.155000", "111948.615000", "111949.075000", "111949.535000", "111949.995000", "111950.455000", "111950.915000", "111951.375000", "111951.835000", "111952.295000", "111952.755000", "111953.215000", "111953.675000", "111954.135000", "111954.595000", "111955.055000", "111955.515000", "111955.975000", "111956.435000", "111956.895000", "111957.355000", "111957.815000", "111958.275000", "111958.735000", "111959.195000", "111959.655000", "112000.115000", "112000.575000", "112001.035000", "112001.495000", "112001.955000", "112002.415000", "112002.875000", "112003.335000", "112003.795000", "112004.255000", "112004.715000", "112005.175000", "112005.635000", "112006.095000", "112006.555000", "112007.015000", "112007.475000", "112007.935000", "112008.395000", "112008.855000", "112009.315000", "112009.775000", "112010.235000", "112010.695000", "112011.155000", "112011.615000", "112012.075000", "112012.535000", "112012.995000", "112013.455000", "112013.915000", "112014.375000", "112014.835000", "112015.295000", "112015.755000", "112016.215000", "112016.675000", "112017.135000", "112017.595000", "112018.055000", "112018.515000", "112018.975000", "112019.435000", "112019.895000", "112020.355000", "112020.815000", "112021.275000", "112021.735000", "112022.195000", "112022.655000", "112023.115000", "112023.575000", "112024.035000", "112024.495000", "112024.955000", "112025.415000", "112025.875000", "112026.335000", "112026.795000", "112027.255000", "112027.715000", "112028.175000", "112028.635000", "112029.095000", "112029.555000", "112030.015000", "112030.475000", "112030.935000", "112031.395000", "112031.855000", "112032.315000", "112032.775000", "112033.235000", "112033.695000", "112034.155000", "112034.615000", "112035.075000", "112035.535000", "112035.995000", "112036.455000", "112036.915000", "112037.375000", "112037.835000", "112038.295000", "112038.755000", "112039.215000", "112039.675000", "112040.135000", "112040.595000", "112041.055000", "112041.515000", "112041.975000", "112042.435000", "112042.895000", "112043.355000", "112043.815000", "112044.275000", "112044.735000", "112045.195000", "112045.655000", "112046.115000", "112046.575000", "112047.035000", "112047.495000", "112047.955000", "112048.415000", "112048.875000", "112049.335000", "112049.795000", "112050.255000", "112050.715000", "112051.175000", "112051.635000", "112052.095000", "112052.555000", "112053.015000", "112053.475000", "112053.935000", "112054.395000", "112054.855000", "112055.315000", "112055.775000", "112056.235000", "112056.695000", "112057.155000", "112057.615000", "112058.075000", "112058.535000", "112058.995000", "112059.455000", "112059.915000", "112100.375000", "112100.835000", "112101.295000", "112101.755000", "112102.215000", "112102.675000", "112103.135000", "112103.595000", "112104.055000", "112104.515000", "112104.975000", "112105.435000", "112105.895000", "112106.355000", "112106.815000", "112107.275000", "112107.735000", "112108.195000", "112108.655000", "112109.115000", "112109.575000", "112110.035000", "112110.495000", "112110.955000", "112111.415000", "112111.875000", "112112.335000", "112112.795000", "112113.255000", "112113.715000", "112114.175000", "112114.635000", "112115.095000", "112115.555000", "112116.015000", "112116.475000", "112116.935000", "112117.395000", "112117.855000", "112118.315000", "112118.775000", "112119.235000", "112119.695000", "112120.155000", "112120.615000", "112121.075000", "112121.535000", "112121.995000", "112122.455000", "112122.915000", "112123.375000", "112123.835000", "112124.295000", "112124.755000", "112125.215000", "112125.675000", "112126.135000", "112126.595000", "112127.055000", "112127.515000", "112127.975000", "112128.435000", "112128.895000", "112129.355000", "112129.815000", "112130.275000", "112130.735000", "112131.195000", "112131.655000", "112132.115000", "112132.575000", "112133.035000", "112133.495000", "112133.955000", "112134.415000", "112134.875000", "112135.335000", "112135.795000", "112136.255000", "112136.715000", "112137.175000", "112137.635000", "112138.095000", "112138.555000", "112139.015000", "112139.475000", "112139.935000", "112140.395000", "112140.855000", "112141.315000", "112141.775000", "112142.235000", "112142.695000", "112143.155000", "112143.615000", "112144.075000", "112144.535000", "112144.995000", "112145.455000", "112145.915000", "112146.375000", "112146.835000", "112147.295000", "112147.755000", "112148.215000", "112148.675000", "112149.135000", "112149.595000", "112150.055000", "112150.515000", "112150.975000", "112151.435000", "112151.895000", "112152.355000", "112152.815000", "112153.275000", "112153.735000", "112154.195000", "112154.655000", "112155.115000", "112155.575000", "112156.035000", "112156.495000", "112156.955000", "112157.415000", "112157.875000", "112158.335000", "112158.795000", "112159.255000", "112159.715000", "112200.175000", "112200.635000", "112201.095000", "112201.555000", "112202.015000", "112202.475000", "112202.935000", "112203.395000", "112203.855000", "112204.315000", "112204.775000", "112205.235000", "112205.695000", "112206.155000", "112206.615000", "112207.075000", "112207.535000", "112207.995000", "112208.455000", "112208.915000", "112209.375000", "112209.835000", "112210.295000", "112210.755000", "112211.215000", "112211.675000", "112212.135000", "112212.595000", "112213.055000", "112213.515000", "112213.975000", "112214.435000", "112214.895000", "112215.355000", "112215.815000", "112216.275000", "112216.735000", "112217.195000", "112217.655000", "112218.115000", "112218.575000", "112219.035000", "112219.495000", "112219.955000", "112220.415000", "112220.875000", "112221.335000", "112221.795000", "112222.255000", "112222.715000", "112223.175000", "112223.635000", "112224.095000", "112224.555000", "112225.015000", "112225.475000", "112225.935000", "112226.395000", "112226.855000", "112227.315000", "112227.775000", "112228.235000", "112228.695000", "112229.155000", "112229.615000", "112230.075000", "112230.535000", "112230.995000", "112231.455000", "112231.915000", "112232.375000", "112232.835000", "112233.295000", "112233.755000", "112234.215000", "112234.675000", "112235.135000", "112235.595000", "112236.055000", "112236.515000", "112236.975000", "112237.435000", "112237.895000", "112238.355000", "112238.815000", "112239.275000", "112239.735000", "112240.195000", "112240.655000", "112241.115000", "112241.575000", "112242.035000", "112242.495000", "112242.955000", "112243.415000", "112243.875000", "112244.335000", "112244.795000", "112245.255000", "112245.715000", "112246.175000", "112246.635000", "112247.095000", "112247.555000", "112248.015000", "112248.475000", "112248.935000", "112249.395000", "112249.855000", "112250.315000", "112250.775000", "112251.235000", "112251.695000", "112252.155000", "112252.615000", "112253.075000", "112253.535000", "112253.995000", "112254.455000", "112254.915000", "112255.375000", "112255.835000", "112256.295000", "112256.755000", "112257.215000", "112257.675000", "112258.135000", "112258.595000", "112259.055000", "112259.515000", "112259.975000", "112300.435000", "112300.895000", "112301.355000", "112301.815000", "112302.275000", "112302.735000", "112303.195000", "112303.655000", "112304.115000", "112304.575000", "112305.035000", "112305.495000", "112305.955000", "112306.415000", "112306.875000", "112307.335000", "112307.795000", "112308.255000", "112308.715000", "112309.175000", "112309.635000", "112310.095000", "112310.555000", "112311.015000", "112311.475000", "112311.935000", "112312.395000", "112312.855000", "112313.315000", "112313.775000", "112314.235000", "112314.695000", "112315.155000", "112315.615000", "112316.075000", "112316.535000", "112316.995000", "112317.455000", "112317.915000", "112318.375000", "112318.835000", "112319.295000", "112319.755000", "112320.215000", "112320.675000", "112321.135000", "112321.595000", "112322.055000", "112322.515000", "112322.975000", "112323.435000", "112323.895000", "112324.355000", "112324.815000", "112325.275000", "112325.735000", "112326.195000", "112326.655000", "112327.115000", "112327.575000", "112328.035000", "112328.495000", "112328.955000", "112329.415000", "112329.875000", "112330.335000", "112330.795000", "112331.255000", "112331.715000", "112332.175000", "112332.635000", "112333.095000", "112333.555000", "112334.015000", "112334.475000", "112334.935000", "112335.395000", "112335.855000", "112336.315000", "112336.775000", "112337.235000", "112337.695000", "112338.155000", "112338.615000", "112339.075000", "112339.535000", "112339.995000", "112340.455000", "112340.915000", "112341.375000", "112341.835000", "112342.295000", "112342.755000", "112343.215000", "112343.675000", "112344.135000", "112344.595000", "112345.055000", "112345.515000", "112345.975000", "112346.435000", "112346.895000", "112347.355000", "112347.815000", "112348.275000", "112348.735000", "112349.195000", "112349.655000", "112350.115000", "112350.575000", "112351.035000", "112351.495000", "112351.955000", "112352.415000", "112352.875000", "112353.335000", "112353.795000", "112354.255000", "112354.715000", "112355.175000", "112355.635000", "112356.095000", "112356.555000", "112357.015000", "112357.475000", "112357.935000", "112358.395000", "112358.855000", "112359.315000", "112359.775000", "112400.235000", "112400.695000", "112401.155000", "112401.615000", "112402.075000", "112402.535000", "112402.995000", "112403.455000", "112403.915000", "112404.375000", "112404.835000", "112405.295000", "112405.755000", "112406.215000", "112406.675000", "112407.135000", "112407.595000", "112408.055000", "112408.515000", "112408.975000", "112409.435000", "112409.895000", "112410.355000", "112410.815000", "112411.275000", "112411.735000", "112412.195000", "112412.655000", "112413.115000", "112413.575000", "112414.035000", "112414.495000", "112414.955000", "112415.415000", "112415.875000", "112416.335000", "112416.795000", "112417.255000", "112417.715000", "112418.175000", "112418.635000", "112419.095000", "112419.555000", "112420.015000", "112420.475000", "112420.935000", "112421.395000", "112421.855000", "112422.315000", "112422.775000", "112423.235000", "112423.695000", "112424.155000", "112424.615000", "112425.075000", "112425.535000", "112425.995000", "112426.455000", "112426.915000", "112427.375000", "112427.835000", "112428.295000", "112428.755000", "112429.215000", "112429.675000", "112430.135000", "112430.595000", "112431.055000", "112431.515000", "112431.975000", "112432.435000", "112432.895000", "112433.355000", "112433.815000", "112434.275000", "112434.735000", "112435.195000", "112435.655000", "112436.115000", "112436.575000", "112437.035000", "112437.495000", "112437.955000", "112438.415000", "112438.875000", "112439.335000", "112439.795000", "112440.255000", "112440.715000", "112441.175000", "112441.635000", "112442.095000", "112442.555000", "112443.015000", "112443.475000", "112443.935000", "112444.395000", "112444.855000", "112445.315000", "112445.775000", "112446.235000", "112446.695000", "112447.155000", "112447.615000", "112448.075000", "112448.535000", "112448.995000", "112449.455000", "112449.915000", "112450.375000", "112450.835000", "112451.295000", "112451.755000", "112452.215000", "112452.675000", "112453.135000", "112453.595000", "112454.055000", "112454.515000", "112454.975000", "112455.435000", "112455.895000", "112456.355000", "112456.815000", "112457.275000", "112457.735000", "112458.195000", "112458.655000", "112459.115000", "112459.575000", "112500.035000", "112500.495000", "112500.955000", "112501.415000", "112501.875000", "112502.335000", "112502.795000", "112503.255000", "112503.715000", "112504.175000", "112504.635000", "112505.095000", "112505.555000", "112506.015000", "112506.475000", "112506.935000", "112507.395000", "112507.855000", "112508.315000", "112508.775000", "112509.235000", "112509.695000", "112510.155000", "112510.615000", "112511.075000", "112511.535000", "112511.995000", "112512.455000", "112512.915000", "112513.375000", "112513.835000", "112514.295000", "112514.755000", "112515.215000", "112515.675000", "112516.135000", "112516.595000", "112517.055000", "112517.515000", "112517.975000", "112518.435000", "112518.895000", "112519.355000", "112519.815000", "112520.275000", "112520.735000", "112521.195000", "112521.655000", "112522.115000", "112522.575000", "112523.035000", "112523.495000", "112523.955000", "112524.415000", "112524.875000", "112525.335000", "112525.795000", "112526.255000", "112526.715000", "112527.175000", "112527.635000", "112528.095000", "112528.555000", "112529.015000", "112529.475000", "112529.935000", "112530.395000", "112530.855000", "112531.315000", "112531.775000", "112532.235000", "112532.695000", "112533.155000", "112533.615000", "112534.075000", "112534.535000", "112534.995000", "112535.455000", "112535.915000", "112536.375000", "112536.835000", "112537.295000", "112537.755000", "112538.215000", "112538.675000", "112539.135000", "112539.595000", "112540.055000", "112540.515000", "112540.975000", "112541.435000", "112541.895000", "112542.355000", "112542.815000", "112543.275000", "112543.735000", "112544.195000", "112544.655000", "112545.115000", "112545.575000", "112546.035000", "112546.495000", "112546.955000", "112547.415000", "112547.875000", "112548.335000", "112548.795000", "112549.255000", "112549.715000", "112550.175000", "112550.635000", "112551.095000", "112551.555000", "112552.015000", "112552.475000", "112552.935000", "112553.395000", "112553.855000", "112554.315000", "112554.775000", "112555.235000", "112555.695000", "112556.155000", "112556.615000", "112557.075000", "112557.535000", "112557.995000", "112558.455000", "112558.915000", "112559.375000", "112559.835000", "112600.295000", "112600.755000", "112601.215000", "112601.675000", "112602.135000", "112602.595000", "112603.055000", "112603.515000", "112603.975000", "112604.435000", "112604.895000", "112605.355000", "112605.815000", "112606.275000", "112606.735000", "112607.195000", "112607.655000", "112608.115000", "112608.575000", "112609.035000", "112609.495000", "112609.955000", "112610.415000", "112610.875000", "112611.335000", "112611.795000", "112612.255000", "112612.715000", "112613.175000", "112613.635000", "112614.095000", "112614.555000", "112615.015000", "112615.475000", "112615.935000", "112616.395000", "112616.855000", "112617.315000", "112617.775000", "112618.235000", "112618.695000", "112619.155000", "112619.615000", "112620.075000", "112620.535000", "112620.995000", "112621.455000", "112621.915000", "112622.375000", "112622.835000", "112623.295000", "112623.755000", "112624.215000", "112624.675000", "112625.135000", "112625.595000", "112626.055000", "112626.515000", "112626.975000", "112627.435000", "112627.895000", "112628.355000", "112628.815000", "112629.275000", "112629.735000", "112630.195000", "112630.655000", "112631.115000", "112631.575000", "112632.035000", "112632.495000", "112632.955000", "112633.415000", "112633.875000", "112634.335000", "112634.795000", "112635.255000", "112635.715000", "112636.175000", "112636.635000", "112637.095000", "112637.555000", "112638.015000", "112638.475000", "112638.935000", "112639.395000", "112639.855000", "112640.315000", "112640.775000", "112641.235000", "112641.695000", "112642.155000", "112642.615000", "112643.075000", "112643.535000", "112643.995000", "112644.455000", "112644.915000", "112645.375000", "112645.835000", "112646.295000", "112646.755000", "112647.215000", "112647.675000", "112648.135000", "112648.595000", "112649.055000", "112649.515000", "112649.975000", "112650.435000", "112650.895000", "112651.355000", "112651.815000", "112652.275000"],
