{
  "AcquisitionMatrixPE": 82,
  "AcquisitionNumber": 1,
  "AcquisitionTime": "12:21:49.635000",
  "BandwidthPerPixelPhaseEncode": 24.888,
  "BaseResolution": 82,
  "BodyPartExamined": "BRAIN",
  "ConsistencyInfo": "N4_VE11E_LATEST_20181129",
  "ConversionSoftware": "dcm2niix",
  "ConversionSoftwareVersion": "v1.0.20201102",
  "DerivedVendorReportedEchoSpacing": 0.00049,
  "DeviceSerialNumber": "66112",
  "DwellTime": 2e-06,
  "EchoTime": 0.0272,
  "EchoTrainLength": 82,
  "EffectiveEchoSpacing": 0.00049,
  "FlipAngle": 44,
  "ImageComments": "Unaliased MB8/PE3",
  "ImageOrientationPatientDICOM": [0.998281, 0.0585163, -0.00333591, -0.0586095, 0.996174, -0.0648226],
  "ImageType": [
    "ORIGINAL",
    "PRIMARY",
    "M",
    "MB",
    "ND",
    "NORM",
    "MOSAIC"
],
  "ImagingFrequency": 123.252,
  "InPlanePhaseEncodingDirectionDICOM": "COL",
  "InstitutionAddress": "Maynard 3,Hanover,NH,US,03755",
  "InstitutionName": "Dartmouth College - PBS",
  "InstitutionalDepartmentName": "Department",
  "MRAcquisitionType": "2D",
  "MagneticFieldStrength": 3,
  "Manufacturer": "Siemens",
  "ManufacturersModelName": "Prisma",
  "Modality": "MR",
  "MultibandAccelerationFactor": 8,
  "PartialFourier": 1,
  "PatientPosition": "HFS",
  "PercentPhaseFOV": 100,
  "PercentSampling": 100,
  "PhaseEncodingDirection": "j-",
  "PhaseEncodingSteps": 82,
  "PhaseResolution": 1,
  "PixelBandwidth": 3050,
  "ProcedureStepDescription": "Wager_Wager^1076_spacetop",
  "ProtocolName": "func_run-01_task-alignvideo_acq-ap-mb8",
  "PulseSequenceDetails": "%CustomerSeq%\\cmrr_mbep2d_bold",
  "ReceiveCoilActiveElements": "HEA;HEP",
  "ReceiveCoilName": "Head_32",
  "ReconMatrixPE": 82,
  "RepetitionTime": 0.46,
  "SAR": 0.1102,
  "ScanOptions": "FS",
  "ScanningSequence": "EP",
  "SequenceName": "epfid2d1_82",
  "SequenceVariant": "SK\\SS",
  "SeriesDescription": "func_run-01_task-alignvideo_acq-ap-mb8",
  "SeriesNumber": 28,
  "ShimSetting": [4146, -7696, -7286, 528, -30, 62, -5, 66],
  "SliceThickness": 2.7,
  "SliceTiming": [0, 0.2525, 0.0625, 0.315, 0.125, 0.3775, 0.1875, 0, 0.2525, 0.0625, 0.315, 0.125, 0.3775, 0.1875, 0, 0.2525, 0.0625, 0.315, 0.125, 0.3775, 0.1875, 0, 0.2525, 0.0625, 0.315, 0.125, 0.3775, 0.1875, 0, 0.2525, 0.0625, 0.315, 0.125, 0.3775, 0.1875, 0, 0.2525, 0.0625, 0.315, 0.125, 0.3775, 0.1875, 0, 0.2525, 0.0625, 0.315, 0.125, 0.3775, 0.1875, 0, 0.2525, 0.0625, 0.315, 0.125, 0.3775, 0.1875],
  "SoftwareVersions": "syngo MR E11",
  "SpacingBetweenSlices": 2.7,
  "StationName": "AWP66112",
  "TaskName": "alignvideo",
  "TotalReadoutTime": 0.03969,
  "TxRefAmp": 259.044,
  "WipMemBlock": "96408a65-e216-4611-afd0-9812c27fc3ca||Sequence: R016 ve11e/master r/434b28f1; Aug  7 2019 18:53:46 by eja",
  "dcmmeta_affine": [
    [-2.678314685821533, -0.15724492073059082, 0.0012690910371020436, 119.8332748413086],
    [-0.15699507296085358, 2.6726624965667725, -0.1752481460571289, -84.8444595336914],
    [-0.008950010873377323, 0.17391440272331238, 2.6943063735961914, -87.73595428466797],
    [0.0, 0.0, 0.0, 1.0]
],
  "dcmmeta_reorient_transform": [
    [0.0, -1.0, 0.0, 81.0],
    [1.0, 0.0, 0.0, 0.0],
    [0.0, 0.0, 1.0, 0.0],
    [0.0, 0.0, 0.0, 1.0]
],
  "dcmmeta_shape": [82, 82, 56, 839],
  "dcmmeta_slice_dim": 2,
  "dcmmeta_version": 0.6,
  "global": {
    "const": {
      "AccessionNumber": "A003931",
      "AcquisitionMatrix": [82, 0, 0, 82],
      "AngioFlag": "N",
      "BitsAllocated": 16,
      "BitsStored": 16,
      "BodyPartExamined": "BRAIN",
      "Columns": 656,
      "EchoNumbers": 1,
      "EchoTime": 27.2,
      "EchoTrainLength": 82,
      "FlipAngle": 44.0,
      "HighBit": 15,
      "ImageOrientationPatient": [0.9982808768074, 0.0585163454483, -0.0033359130728, -0.0586094708128, 0.99617415897467, -0.0648226420484],
      "ImagePositionPatient": [-830.64343407581, -943.75290539275, -21.166801850411],
      "ImageType": [
        "ORIGINAL",
        "PRIMARY",
        "M",
        "MB",
        "ND",
        "NORM",
        "MOSAIC"
],
      "ImagedNucleus": "1H",
      "ImagingFrequency": 123.25221,
      "InPlanePhaseEncodingDirection": "COL",
      "MRAcquisitionType": "2D",
      "MagneticFieldStrength": 3.0,
      "Manufacturer": "SIEMENS",
      "ManufacturerModelName": "Prisma",
      "Modality": "MR",
      "NumberOfAverages": 1.0,
      "NumberOfPhaseEncodingSteps": 82,
      "PercentPhaseFieldOfView": 100.0,
      "PercentSampling": 100.0,
      "PerformedProcedureStepStartTime": "104941.314000",
      "PhotometricInterpretation": "MONOCHROME2",
      "PixelBandwidth": 3050.0,
      "PixelRepresentation": 0,
      "PixelSpacing": [2.6829268932343, 2.6829268932343],
      "ProtocolName": "func_run-01_task-alignvideo_acq-ap-mb8",
      "RepetitionTime": 460.0,
      "Rows": 656,
      "SAR": 0.11020026913457,
      "SamplesPerPixel": 1,
      "ScanOptions": "FS",
      "ScanningSequence": "EP",
      "SequenceName": "epfid2d1_82",
      "SequenceVariant": [
        "SK",
        "SS"
],
      "SeriesDescription": "func_run-01_task-alignvideo_acq-ap-mb8",
      "SeriesNumber": 28,
      "SeriesTime": "122216.906000",
      "SliceLocation": -81.987641024809,
      "SliceThickness": 2.7000000476837,
      "SmallestImagePixelValue": 0,
      "SoftwareVersions": "syngo MR E11",
      "SpacingBetweenSlices": 2.7000000841777,
      "SpecificCharacterSet": "ISO_IR 100",
      "StudyID": "2",
      "StudyTime": "104941.221000",
      "TransmitCoilName": "Body",
      "VariableFlipAngleFlag": "N",
      "WindowCenterWidthExplanation": "Algo1"
    },
    "slices": {}
  },
  "time": {
    "samples": {
      "AcquisitionNumber": [1, 2, 3, 4, 5, 6, 7, 8, 9, 10, 11, 12, 13, 14, 15, 16, 17, 18, 19, 20, 21, 22, 23, 24, 25, 26, 27, 28, 29, 30, 31, 32, 33, 34, 35, 36, 37, 38, 39, 40, 41, 42, 43, 44, 45, 46, 47, 48, 49, 50, 51, 52, 53, 54, 55, 56, 57, 58, 59, 60, 61, 62, 63, 64, 65, 66, 67, 68, 69, 70, 71, 72, 73, 74, 75, 76, 77, 78, 79, 80, 81, 82, 83, 84, 85, 86, 87, 88, 89, 90, 91, 92, 93, 94, 95, 96, 97, 98, 99, 100, 101, 102, 103, 104, 105, 106, 107, 108, 109, 110, 111, 112, 113, 114, 115, 116, 117, 118, 119, 120, 121, 122, 123, 124, 125, 126, 127, 128, 129, 130, 131, 132, 133, 134, 135, 136, 137, 138, 139, 140, 141, 142, 143, 144, 145, 146, 147, 148, 149, 150, 151, 152, 153, 154, 155, 156, 157, 158, 159, 160, 161, 162, 163, 164, 165, 166, 167, 168, 169, 170, 171, 172, 173, 174, 175, 176, 177, 178, 179, 180, 181, 182, 183, 184, 185, 186, 187, 188, 189, 190, 191, 192, 193, 194, 195, 196, 197, 198, 199, 200, 201, 202, 203, 204, 205, 206, 207, 208, 209, 210, 211, 212, 213, 214, 215, 216, 217, 218, 219, 220, 221, 222, 223, 224, 225, 226, 227, 228, 229, 230, 231, 232, 233, 234, 235, 236, 237, 238, 239, 240, 241, 242, 243, 244, 245, 246, 247, 248, 249, 250, 251, 252, 253, 254, 255, 256, 257, 258, 259, 260, 261, 262, 263, 264, 265, 266, 267, 268, 269, 270, 271, 272, 273, 274, 275, 276, 277, 278, 279, 280, 281, 282, 283, 284, 285, 286, 287, 288, 289, 290, 291, 292, 293, 294, 295, 296, 297, 298, 299, 300, 301, 302, 303, 304, 305, 306, 307, 308, 309, 310, 311, 312, 313, 314, 315, 316, 317, 318, 319, 320, 321, 322, 323, 324, 325, 326, 327, 328, 329, 330, 331, 332, 333, 334, 335, 336, 337, 338, 339, 340, 341, 342, 343, 344, 345, 346, 347, 348, 349, 350, 351, 352, 353, 354, 355, 356, 357, 358, 359, 360, 361, 362, 363, 364, 365, 366, 367, 368, 369, 370, 371, 372, 373, 374, 375, 376, 377, 378, 379, 380, 381, 382, 383, 384, 385, 386, 387, 388, 389, 390, 391, 392, 393, 394, 395, 396, 397, 398, 399, 400, 401, 402, 403, 404, 405, 406, 407, 408, 409, 410, 411, 412, 413, 414, 415, 416, 417, 418, 419, 420, 421, 422, 423, 424, 425, 426, 427, 428, 429, 430, 431, 432, 433, 434, 435, 436, 437, 438, 439, 440, 441, 442, 443, 444, 445, 446, 447, 448, 449, 450, 451, 452, 453, 454, 455, 456, 457, 458, 459, 460, 461, 462, 463, 464, 465, 466, 467, 468, 469, 470, 471, 472, 473, 474, 475, 476, 477, 478, 479, 480, 481, 482, 483, 484, 485, 486, 487, 488, 489, 490, 491, 492, 493, 494, 495, 496, 497, 498, 499, 500, 501, 502, 503, 504, 505, 506, 507, 508, 509, 510, 511, 512, 513, 514, 515, 516, 517, 518, 519, 520, 521, 522, 523, 524, 525, 526, 527, 528, 529, 530, 531, 532, 533, 534, 535, 536, 537, 538, 539, 540, 541, 542, 543, 544, 545, 546, 547, 548, 549, 550, 551, 552, 553, 554, 555, 556, 557, 558, 559, 560, 561, 562, 563, 564, 565, 566, 567, 568, 569, 570, 571, 572, 573, 574, 575, 576, 577, 578, 579, 580, 581, 582, 583, 584, 585, 586, 587, 588, 589, 590, 591, 592, 593, 594, 595, 596, 597, 598, 599, 600, 601, 602, 603, 604, 605, 606, 607, 608, 609, 610, 611, 612, 613, 614, 615, 616, 617, 618, 619, 620, 621, 622, 623, 624, 625, 626, 627, 628, 629, 630, 631, 632, 633, 634, 635, 636, 637, 638, 639, 640, 641, 642, 643, 644, 645, 646, 647, 648, 649, 650, 651, 652, 653, 654, 655, 656, 657, 658, 659, 660, 661, 662, 663, 664, 665, 666, 667, 668, 669, 670, 671, 672, 673, 674, 675, 676, 677, 678, 679, 680, 681, 682, 683, 684, 685, 686, 687, 688, 689, 690, 691, 692, 693, 694, 695, 696, 697, 698, 699, 700, 701, 702, 703, 704, 705, 706, 707, 708, 709, 710, 711, 712, 713, 714, 715, 716, 717, 718, 719, 720, 721, 722, 723, 724, 725, 726, 727, 728, 729, 730, 731, 732, 733, 734, 735, 736, 737, 738, 739, 740, 741, 742, 743, 744, 745, 746, 747, 748, 749, 750, 751, 752, 753, 754, 755, 756, 757, 758, 759, 760, 761, 762, 763, 764, 765, 766, 767, 768, 769, 770, 771, 772, 773, 774, 775, 776, 777, 778, 779, 780, 781, 782, 783, 784, 785, 786, 787, 788, 789, 790, 791, 792, 793, 794, 795, 796, 797, 798, 799, 800, 801, 802, 803, 804, 805, 806, 807, 808, 809, 810, 811, 812, 813, 814, 815, 816, 817, 818, 819, 820, 821, 822, 823, 824, 825, 826, 827, 828, 829, 830, 831, 832, 833, 834, 835, 836, 837, 838, 839],
      "AcquisitionTime": ["122149.635000", "122150.095000", "122150.555000", "122151.015000", "122151.475000", "122151.935000", "122152.395000", "122152.855000", "122153.315000", "122153.775000", "122154.235000", "122154.695000", "122155.155000", "122155.615000", "122156.075000", "122156.535000", "122156.995000", "122157.455000", "122157.915000", "122158.375000", "122158.835000", "122159.295000", "122159.755000", "122200.215000", "122200.675000", "122201.135000", "122201.595000", "122202.055000", "122202.515000", "122202.975000", "122203.435000", "122203.895000", "122204.355000", "122204.815000", "122205.275000", "122205.735000", "122206.195000", "122206.655000", "122207.115000", "122207.575000", "122208.035000", "122208.495000", "122208.955000", "122209.415000", "122209.875000", "122210.335000", "122210.795000", "122211.255000", "122211.715000", "122212.175000", "122212.635000", "122213.095000", "122213.555000", "122214.015000", "122214.475000", "122214.935000", "122215.395000", "122215.855000", "122216.315000", "122216.775000", "122217.235000", "122217.695000", "122218.155000", "122218.615000", "122219.075000", "122219.535000", "122219.995000", "122220.455000", "122220.915000", "122221.375000", "122221.835000", "122222.295000", "122222.755000", "122223.215000", "122223.675000", "122224.135000", "122224.595000", "122225.055000", "122225.515000", "122225.975000", "122226.435000", "122226.895000", "122227.355000", "122227.815000", "122228.275000", "122228.735000", "122229.195000", "122229.655000", "122230.115000", "122230.575000", "122231.035000", "122231.495000", "122231.955000", "122232.415000", "122232.875000", "122233.335000", "122233.795000", "122234.255000", "122234.715000", "122235.175000", "122235.635000", "122236.095000", "122236.555000", "122237.015000", "122237.475000", "122237.935000", "122238.395000", "122238.855000", "122239.315000", "122239.775000", "122240.235000", "122240.695000", "122241.155000", "122241.615000", "122242.075000", "122242.535000", "122242.995000", "122243.455000", "122243.915000", "122244.375000", "122244.835000", "122245.295000", "122245.755000", "122246.215000", "122246.675000", "122247.135000", "122247.595000", "122248.055000", "122248.515000", "122248.975000", "122249.435000", "122249.895000", "122250.355000", "122250.815000", "122251.275000", "122251.735000", "122252.195000", "122252.655000", "122253.115000", "122253.575000", "122254.035000", "122254.495000", "122254.955000", "122255.415000", "122255.875000", "122256.335000", "122256.795000", "122257.255000", "122257.715000", "122258.175000", "122258.635000", "122259.095000", "122259.555000", "122300.015000", "122300.475000", "122300.935000", "122301.395000", "122301.855000", "122302.315000", "122302.775000", "122303.235000", "122303.695000", "122304.155000", "122304.615000", "122305.075000", "122305.535000", "122305.995000", "122306.455000", "122306.915000", "122307.375000", "122307.835000", "122308.295000", "122308.755000", "122309.215000", "122309.675000", "122310.135000", "122310.595000", "122311.055000", "122311.515000", "122311.975000", "122312.435000", "122312.895000", "122313.355000", "122313.815000", "122314.275000", "122314.735000", "122315.195000", "122315.655000", "122316.115000", "122316.575000", "122317.035000", "122317.495000", "122317.955000", "122318.415000", "122318.875000", "122319.335000", "122319.795000", "122320.255000", "122320.715000", "122321.175000", "122321.635000", "122322.095000", "122322.555000", "122323.015000", "122323.475000", "122323.935000", "122324.395000", "122324.855000", "122325.315000", "122325.775000", "122326.235000", "122326.695000", "122327.155000", "122327.615000", "122328.075000", "122328.535000", "122328.995000", "122329.455000", "122329.915000", "122330.375000", "122330.835000", "122331.295000", "122331.755000", "122332.215000", "122332.675000", "122333.135000", "122333.595000", "122334.055000", "122334.515000", "122334.975000", "122335.435000", "122335.895000", "122336.355000", "122336.815000", "122337.275000", "122337.735000", "122338.195000", "122338.655000", "122339.115000", "122339.575000", "122340.035000", "122340.495000", "122340.955000", "122341.415000", "122341.875000", "122342.335000", "122342.795000", "122343.255000", "122343.715000", "122344.175000", "122344.635000", "122345.095000", "122345.555000", "122346.015000", "122346.475000", "122346.935000", "122347.395000", "122347.855000", "122348.315000", "122348.775000", "122349.235000", "122349.695000", "122350.155000", "122350.615000", "122351.075000", "122351.535000", "122351.995000", "122352.455000", "122352.915000", "122353.375000", "122353.835000", "122354.295000", "122354.755000", "122355.215000", "122355.675000", "122356.135000", "122356.595000", "122357.055000", "122357.515000", "122357.975000", "122358.435000", "122358.895000", "122359.355000", "122359.815000", "122400.275000", "122400.735000", "122401.195000", "122401.655000", "122402.115000", "122402.575000", "122403.035000", "122403.495000", "122403.955000", "122404.415000", "122404.875000", "122405.335000", "122405.795000", "122406.255000", "122406.715000", "122407.175000", "122407.635000", "122408.095000", "122408.555000", "122409.015000", "122409.475000", "122409.935000", "122410.395000", "122410.855000", "122411.315000", "122411.775000", "122412.235000", "122412.695000", "122413.155000", "122413.615000", "122414.075000", "122414.535000", "122414.995000", "122415.455000", "122415.915000", "122416.375000", "122416.835000", "122417.295000", "122417.755000", "122418.215000", "122418.675000", "122419.135000", "122419.595000", "122420.055000", "122420.515000", "122420.975000", "122421.435000", "122421.895000", "122422.355000", "122422.815000", "122423.275000", "122423.735000", "122424.195000", "122424.655000", "122425.115000", "122425.575000", "122426.035000", "122426.495000", "122426.955000", "122427.415000", "122427.875000", "122428.335000", "122428.795000", "122429.255000", "122429.715000", "122430.175000", "122430.635000", "122431.095000", "122431.555000", "122432.015000", "122432.475000", "122432.935000", "122433.395000", "122433.855000", "122434.315000", "122434.775000", "122435.235000", "122435.695000", "122436.155000", "122436.615000", "122437.075000", "122437.535000", "122437.995000", "122438.455000", "122438.915000", "122439.375000", "122439.835000", "122440.295000", "122440.755000", "122441.215000", "122441.675000", "122442.135000", "122442.595000", "122443.055000", "122443.515000", "122443.975000", "122444.435000", "122444.895000", "122445.355000", "122445.815000", "122446.275000", "122446.735000", "122447.195000", "122447.655000", "122448.115000", "122448.575000", "122449.035000", "122449.495000", "122449.955000", "122450.415000", "122450.875000", "122451.335000", "122451.795000", "122452.255000", "122452.715000", "122453.175000", "122453.635000", "122454.095000", "122454.555000", "122455.015000", "122455.475000", "122455.935000", "122456.395000", "122456.855000", "122457.315000", "122457.775000", "122458.235000", "122458.695000", "122459.155000", "122459.615000", "122500.075000", "122500.535000", "122500.995000", "122501.455000", "122501.915000", "122502.375000", "122502.835000", "122503.295000", "122503.755000", "122504.215000", "122504.675000", "122505.135000", "122505.595000", "122506.055000", "122506.515000", "122506.975000", "122507.435000", "122507.895000", "122508.355000", "122508.815000", "122509.275000", "122509.735000", "122510.195000", "122510.655000", "122511.115000", "122511.575000", "122512.035000", "122512.495000", "122512.955000", "122513.415000", "122513.875000", "122514.335000", "122514.795000", "122515.255000", "122515.715000", "122516.175000", "122516.635000", "122517.095000", "122517.555000", "122518.015000", "122518.475000", "122518.935000", "122519.395000", "122519.855000", "122520.315000", "122520.775000", "122521.235000", "122521.695000", "122522.155000", "122522.615000", "122523.075000", "122523.535000", "122523.995000", "122524.455000", "122524.915000", "122525.375000", "122525.835000", "122526.295000", "122526.755000", "122527.215000", "122527.675000", "122528.135000", "122528.595000", "122529.055000", "122529.515000", "122529.975000", "122530.435000", "122530.895000", "122531.355000", "122531.815000", "122532.275000", "122532.735000", "122533.195000", "122533.655000", "122534.115000", "122534.575000", "122535.035000", "122535.495000", "122535.955000", "122536.415000", "122536.875000", "122537.335000", "122537.795000", "122538.255000", "122538.715000", "122539.175000", "122539.635000", "122540.095000", "122540.555000", "122541.015000", "122541.475000", "122541.935000", "122542.395000", "122542.855000", "122543.315000", "122543.775000", "122544.235000", "122544.695000", "122545.155000", "122545.615000", "122546.075000", "122546.535000", "122546.995000", "122547.455000", "122547.915000", "122548.375000", "122548.835000", "122549.295000", "122549.755000", "122550.215000", "122550.675000", "122551.135000", "122551.595000", "122552.055000", "122552.515000", "122552.975000", "122553.435000", "122553.895000", "122554.355000", "122554.815000", "122555.275000", "122555.735000", "122556.195000", "122556.655000", "122557.115000", "122557.575000", "122558.035000", "122558.495000", "122558.955000", "122559.415000", "122559.875000", "122600.335000", "122600.795000", "122601.255000", "122601.715000", "122602.175000", "122602.635000", "122603.095000", "122603.555000", "122604.015000", "122604.475000", "122604.935000", "122605.395000", "122605.855000", "122606.315000", "122606.775000", "122607.235000", "122607.695000", "122608.155000", "122608.615000", "122609.075000", "122609.535000", "122609.995000", "122610.455000", "122610.915000", "122611.375000", "122611.835000", "122612.295000", "122612.755000", "122613.215000", "122613.675000", "122614.135000", "122614.595000", "122615.055000", "122615.515000", "122615.975000", "122616.435000", "122616.895000", "122617.355000", "122617.815000", "122618.275000", "122618.735000", "122619.195000", "122619.655000", "122620.115000", "122620.575000", "122621.035000", "122621.495000", "122621.955000", "122622.415000", "122622.875000", "122623.335000", "122623.795000", "122624.255000", "122624.715000", "122625.175000", "122625.635000", "122626.095000", "122626.555000", "122627.015000", "122627.475000", "122627.935000", "122628.395000", "122628.855000", "122629.315000", "122629.775000", "122630.235000", "122630.695000", "122631.155000", "122631.615000", "122632.075000", "122632.535000", "122632.995000", "122633.455000", "122633.915000", "122634.375000", "122634.835000", "122635.295000", "122635.755000", "122636.215000", "122636.675000", "122637.135000", "122637.595000", "122638.055000", "122638.515000", "122638.975000", "122639.435000", "122639.895000", "122640.355000", "122640.815000", "122641.275000", "122641.735000", "122642.195000", "122642.655000", "122643.115000", "122643.575000", "122644.035000", "122644.495000", "122644.955000", "122645.415000", "122645.875000", "122646.335000", "122646.795000", "122647.255000", "122647.715000", "122648.175000", "122648.635000", "122649.095000", "122649.555000", "122650.015000", "122650.475000", "122650.935000", "122651.395000", "122651.855000", "122652.315000", "122652.775000", "122653.235000", "122653.695000", "122654.155000", "122654.615000", "122655.075000", "122655.535000", "122655.995000", "122656.455000", "122656.915000", "122657.375000", "122657.835000", "122658.295000", "122658.755000", "122659.215000", "122659.675000", "122700.135000", "122700.595000", "122701.055000", "122701.515000", "122701.975000", "122702.435000", "122702.895000", "122703.355000", "122703.815000", "122704.275000", "122704.735000", "122705.195000", "122705.655000", "122706.115000", "122706.575000", "122707.035000", "122707.495000", "122707.955000", "122708.415000", "122708.875000", "122709.335000", "122709.795000", "122710.255000", "122710.715000", "122711.175000", "122711.635000", "122712.095000", "122712.555000", "122713.015000", "122713.475000", "122713.935000", "122714.395000", "122714.855000", "122715.315000", "122715.775000", "122716.235000", "122716.695000", "122717.155000", "122717.615000", "122718.075000", "122718.535000", "122718.995000", "122719.455000", "122719.915000", "122720.375000", "122720.835000", "122721.295000", "122721.755000", "122722.215000", "122722.675000", "122723.135000", "122723.595000", "122724.055000", "122724.515000", "122724.975000", "122725.435000", "122725.895000", "122726.355000", "122726.815000", "122727.275000", "122727.735000", "122728.195000", "122728.655000", "122729.115000", "122729.575000", "122730.035000", "122730.495000", "122730.955000", "122731.415000", "122731.875000", "122732.335000", "122732.795000", "122733.255000", "122733.715000", "122734.175000", "122734.635000", "122735.095000", "122735.555000", "122736.015000", "122736.475000", "122736.935000", "122737.395000", "122737.855000", "122738.315000", "122738.775000", "122739.235000", "122739.695000", "122740.155000", "122740.615000", "122741.075000", "122741.535000", "122741.995000", "122742.455000", "122742.915000", "122743.375000", "122743.835000", "122744.295000", "122744.755000", "122745.215000", "122745.675000", "122746.135000", "122746.595000", "122747.055000", "122747.515000", "122747.975000", "122748.435000", "122748.895000", "122749.355000", "122749.815000", "122750.275000", "122750.735000", "122751.195000", "122751.655000", "122752.115000", "122752.575000", "122753.035000", "122753.495000", "122753.955000", "122754.415000", "122754.875000", "122755.335000", "122755.795000", "122756.255000", "122756.715000", "122757.175000", "122757.635000", "122758.095000", "122758.555000", "122759.015000", "122759.475000", "122759.935000", "122800.395000", "122800.855000", "122801.315000", "122801.775000", "122802.235000", "122802.695000", "122803.155000", "122803.615000", "122804.075000", "122804.535000", "122804.995000", "122805.455000", "122805.915000", "122806.375000", "122806.835000", "122807.295000", "122807.755000", "122808.215000", "122808.675000", "122809.135000", "122809.595000", "122810.055000", "122810.515000", "122810.975000", "122811.435000", "122811.895000", "122812.355000", "122812.815000", "122813.275000", "122813.735000", "122814.195000", "122814.655000", "122815.115000"],
