{
  "AcquisitionMatrixPE": 82,
  "AcquisitionNumber": 1,
  "AcquisitionTime": "18:33:48.620000",
  "BandwidthPerPixelPhaseEncode": 24.888,
  "BaseResolution": 82,
  "BodyPartExamined": "BRAIN",
  "ConsistencyInfo": "N4_VE11E_LATEST_20181129",
  "ConversionSoftware": "dcm2niix",
  "ConversionSoftwareVersion": "v1.0.20201102",
  "DerivedVendorReportedEchoSpacing": 0.00049,
  "DeviceSerialNumber": "66112",
  "DwellTime": 2e-06,
  "EchoTime": 0.0272,
  "EchoTrainLength": 82,
  "EffectiveEchoSpacing": 0.00049,
  "FlipAngle": 44,
  "ImageComments": "Unaliased MB8/PE3",
  "ImageOrientationPatientDICOM": [0.99926, 0.0375039, 0.00855082, -0.0378638, 0.998189, 0.0467499],
  "ImageType": [
    "ORIGINAL",
    "PRIMARY",
    "M",
    "MB",
    "ND",
    "NORM",
    "MOSAIC"
],
  "ImagingFrequency": 123.252,
  "InPlanePhaseEncodingDirectionDICOM": "COL",
  "InstitutionAddress": "Maynard 3,Hanover,NH,US,03755",
  "InstitutionName": "Dartmouth College - PBS",
  "InstitutionalDepartmentName": "Department",
  "MRAcquisitionType": "2D",
  "MagneticFieldStrength": 3,
  "Manufacturer": "Siemens",
  "ManufacturersModelName": "Prisma",
  "Modality": "MR",
  "MultibandAccelerationFactor": 8,
  "PartialFourier": 1,
  "PatientPosition": "HFS",
  "PercentPhaseFOV": 100,
  "PercentSampling": 100,
  "PhaseEncodingDirection": "j-",
  "PhaseEncodingSteps": 82,
  "PhaseResolution": 1,
  "PixelBandwidth": 3050,
  "ProcedureStepDescription": "Wager_Wager^1076_spacetop",
  "ProtocolName": "func_run-01_task-social_acq-ap-mb8",
  "PulseSequenceDetails": "%CustomerSeq%\\cmrr_mbep2d_bold",
  "ReceiveCoilActiveElements": "HEA;HEP",
  "ReceiveCoilName": "Head_32",
  "ReconMatrixPE": 82,
  "RepetitionTime": 0.46,
  "SAR": 0.0842085,
  "ScanOptions": "FS",
  "ScanningSequence": "EP",
  "SequenceName": "epfid2d1_82",
  "SequenceVariant": "SK\\SS",
  "SeriesDescription": "func_run-01_task-social_acq-ap-mb8",
  "SeriesNumber": 8,
  "ShimSetting": [4154, -7760, -7298, 819, -9, -353, 67, 57],
  "SliceThickness": 2.7,
  "SliceTiming": [0, 0.25, 0.0625, 0.3125, 0.125, 0.375, 0.1875, 0, 0.25, 0.0625, 0.3125, 0.125, 0.375, 0.1875, 0, 0.25, 0.0625, 0.3125, 0.125, 0.375, 0.1875, 0, 0.25, 0.0625, 0.3125, 0.125, 0.375, 0.1875, 0, 0.25, 0.0625, 0.3125, 0.125, 0.375, 0.1875, 0, 0.25, 0.0625, 0.3125, 0.125, 0.375, 0.1875, 0, 0.25, 0.0625, 0.3125, 0.125, 0.375, 0.1875, 0, 0.25, 0.0625, 0.3125, 0.125, 0.375, 0.1875],
  "SoftwareVersions": "syngo MR E11",
  "SpacingBetweenSlices": 2.7,
  "StationName": "AWP66112",
  "TaskName": "social",
  "TotalReadoutTime": 0.03969,
  "TxRefAmp": 226.726,
  "WipMemBlock": "256c2414-a527-4330-8a57-7ae6734313e5||Sequence: R016 ve11e/master r/434b28f1; Aug  7 2019 18:53:46 by eja",
  "dcmmeta_affine": [
    [-2.680941343307495, -0.10158572345972061, 0.01831146515905857, 115.65644836425781],
    [-0.10062028467655182, 2.678067445755005, 0.1270054429769516, -95.5753173828125],
    [0.022941214963793755, -0.1254265308380127, 2.696949005126953, -76.30717468261719],
    [0.0, 0.0, 0.0, 1.0]
],
  "dcmmeta_reorient_transform": [
    [0.0, -1.0, 0.0, 81.0],
    [1.0, 0.0, 0.0, 0.0],
    [0.0, 0.0, 1.0, 0.0],
    [0.0, 0.0, 0.0, 1.0]
],
  "dcmmeta_shape": [82, 82, 56, 872],
  "dcmmeta_slice_dim": 2,
  "dcmmeta_version": 0.6,
  "global": {
    "const": {
      "AccessionNumber": "A003934",
      "AcquisitionMatrix": [82, 0, 0, 82],
      "AngioFlag": "N",
      "BitsAllocated": 16,
      "BitsStored": 16,
      "BodyPartExamined": "BRAIN",
      "Columns": 656,
      "EchoNumbers": 1,
      "EchoTime": 27.2,
      "EchoTrainLength": 82,
      "FlipAngle": 44.0,
      "HighBit": 15,
      "ImageOrientationPatient": [0.99925989574423, 0.03750392377293, 0.00855081626879, -0.0378637676769, 0.99818875121325, 0.04674988822071],
      "ImagePositionPatient": [-847.70303775688, -918.83152558097, -129.04826521502],
      "ImageType": [
        "ORIGINAL",
        "PRIMARY",
        "M",
        "MB",
        "ND",
        "NORM",
        "MOSAIC"
],
      "ImagedNucleus": "1H",
      "ImagingFrequency": 123.252229,
      "InPlanePhaseEncodingDirection": "COL",
      "MRAcquisitionType": "2D",
      "MagneticFieldStrength": 3.0,
      "Manufacturer": "SIEMENS",
      "ManufacturerModelName": "Prisma",
      "Modality": "MR",
      "NumberOfAverages": 1.0,
      "NumberOfPhaseEncodingSteps": 82,
      "PercentPhaseFieldOfView": 100.0,
      "PercentSampling": 100.0,
      "PerformedProcedureStepStartTime": "181926.038000",
      "PhotometricInterpretation": "MONOCHROME2",
      "PixelBandwidth": 3050.0,
      "PixelRepresentation": 0,
      "PixelSpacing": [2.6829268932343, 2.6829268932343],
      "ProtocolName": "func_run-01_task-social_acq-ap-mb8",
      "RepetitionTime": 460.0,
      "Rows": 656,
      "SAR": 0.0842084677285,
      "SamplesPerPixel": 1,
      "ScanOptions": "FS",
      "ScanningSequence": "EP",
      "SequenceName": "epfid2d1_82",
      "SequenceVariant": [
        "SK",
        "SS"
],
      "SeriesDescription": "func_run-01_task-social_acq-ap-mb8",
      "SeriesNumber": 8,
      "SeriesTime": "183416.976000",
      "SliceLocation": -79.93233528794,
      "SliceThickness": 2.7000000476837,
      "SmallestImagePixelValue": 0,
      "SoftwareVersions": "syngo MR E11",
      "SpacingBetweenSlices": 2.7000000007195,
      "SpecificCharacterSet": "ISO_IR 100",
      "StudyID": "2",
      "StudyTime": "181925.961000",
      "TransmitCoilName": "Body",
      "VariableFlipAngleFlag": "N",
      "WindowCenterWidthExplanation": "Algo1"
    },
    "slices": {}
  },
  "time": {
    "samples": {
      "AcquisitionNumber": [1, 2, 3, 4, 5, 6, 7, 8, 9, 10, 11, 12, 13, 14, 15, 16, 17, 18, 19, 20, 21, 22, 23, 24, 25, 26, 27, 28, 29, 30, 31, 32, 33, 34, 35, 36, 37, 38, 39, 40, 41, 42, 43, 44, 45, 46, 47, 48, 49, 50, 51, 52, 53, 54, 55, 56, 57, 58, 59, 60, 61, 62, 63, 64, 65, 66, 67, 68, 69, 70, 71, 72, 73, 74, 75, 76, 77, 78, 79, 80, 81, 82, 83, 84, 85, 86, 87, 88, 89, 90, 91, 92, 93, 94, 95, 96, 97, 98, 99, 100, 101, 102, 103, 104, 105, 106, 107, 108, 109, 110, 111, 112, 113, 114, 115, 116, 117, 118, 119, 120, 121, 122, 123, 124, 125, 126, 127, 128, 129, 130, 131, 132, 133, 134, 135, 136, 137, 138, 139, 140, 141, 142, 143, 144, 145, 146, 147, 148, 149, 150, 151, 152, 153, 154, 155, 156, 157, 158, 159, 160, 161, 162, 163, 164, 165, 166, 167, 168, 169, 170, 171, 172, 173, 174, 175, 176, 177, 178, 179, 180, 181, 182, 183, 184, 185, 186, 187, 188, 189, 190, 191, 192, 193, 194, 195, 196, 197, 198, 199, 200, 201, 202, 203, 204, 205, 206, 207, 208, 209, 210, 211, 212, 213, 214, 215, 216, 217, 218, 219, 220, 221, 222, 223, 224, 225, 226, 227, 228, 229, 230, 231, 232, 233, 234, 235, 236, 237, 238, 239, 240, 241, 242, 243, 244, 245, 246, 247, 248, 249, 250, 251, 252, 253, 254, 255, 256, 257, 258, 259, 260, 261, 262, 263, 264, 265, 266, 267, 268, 269, 270, 271, 272, 273, 274, 275, 276, 277, 278, 279, 280, 281, 282, 283, 284, 285, 286, 287, 288, 289, 290, 291, 292, 293, 294, 295, 296, 297, 298, 299, 300, 301, 302, 303, 304, 305, 306, 307, 308, 309, 310, 311, 312, 313, 314, 315, 316, 317, 318, 319, 320, 321, 322, 323, 324, 325, 326, 327, 328, 329, 330, 331, 332, 333, 334, 335, 336, 337, 338, 339, 340, 341, 342, 343, 344, 345, 346, 347, 348, 349, 350, 351, 352, 353, 354, 355, 356, 357, 358, 359, 360, 361, 362, 363, 364, 365, 366, 367, 368, 369, 370, 371, 372, 373, 374, 375, 376, 377, 378, 379, 380, 381, 382, 383, 384, 385, 386, 387, 388, 389, 390, 391, 392, 393, 394, 395, 396, 397, 398, 399, 400, 401, 402, 403, 404, 405, 406, 407, 408, 409, 410, 411, 412, 413, 414, 415, 416, 417, 418, 419, 420, 421, 422, 423, 424, 425, 426, 427, 428, 429, 430, 431, 432, 433, 434, 435, 436, 437, 438, 439, 440, 441, 442, 443, 444, 445, 446, 447, 448, 449, 450, 451, 452, 453, 454, 455, 456, 457, 458, 459, 460, 461, 462, 463, 464, 465, 466, 467, 468, 469, 470, 471, 472, 473, 474, 475, 476, 477, 478, 479, 480, 481, 482, 483, 484, 485, 486, 487, 488, 489, 490, 491, 492, 493, 494, 495, 496, 497, 498, 499, 500, 501, 502, 503, 504, 505, 506, 507, 508, 509, 510, 511, 512, 513, 514, 515, 516, 517, 518, 519, 520, 521, 522, 523, 524, 525, 526, 527, 528, 529, 530, 531, 532, 533, 534, 535, 536, 537, 538, 539, 540, 541, 542, 543, 544, 545, 546, 547, 548, 549, 550, 551, 552, 553, 554, 555, 556, 557, 558, 559, 560, 561, 562, 563, 564, 565, 566, 567, 568, 569, 570, 571, 572, 573, 574, 575, 576, 577, 578, 579, 580, 581, 582, 583, 584, 585, 586, 587, 588, 589, 590, 591, 592, 593, 594, 595, 596, 597, 598, 599, 600, 601, 602, 603, 604, 605, 606, 607, 608, 609, 610, 611, 612, 613, 614, 615, 616, 617, 618, 619, 620, 621, 622, 623, 624, 625, 626, 627, 628, 629, 630, 631, 632, 633, 634, 635, 636, 637, 638, 639, 640, 641, 642, 643, 644, 645, 646, 647, 648, 649, 650, 651, 652, 653, 654, 655, 656, 657, 658, 659, 660, 661, 662, 663, 664, 665, 666, 667, 668, 669, 670, 671, 672, 673, 674, 675, 676, 677, 678, 679, 680, 681, 682, 683, 684, 685, 686, 687, 688, 689, 690, 691, 692, 693, 694, 695, 696, 697, 698, 699, 700, 701, 702, 703, 704, 705, 706, 707, 708, 709, 710, 711, 712, 713, 714, 715, 716, 717, 718, 719, 720, 721, 722, 723, 724, 725, 726, 727, 728, 729, 730, 731, 732, 733, 734, 735, 736, 737, 738, 739, 740, 741, 742, 743, 744, 745, 746, 747, 748, 749, 750, 751, 752, 753, 754, 755, 756, 757, 758, 759, 760, 761, 762, 763, 764, 765, 766, 767, 768, 769, 770, 771, 772, 773, 774, 775, 776, 777, 778, 779, 780, 781, 782, 783, 784, 785, 786, 787, 788, 789, 790, 791, 792, 793, 794, 795, 796, 797, 798, 799, 800, 801, 802, 803, 804, 805, 806, 807, 808, 809, 810, 811, 812, 813, 814, 815, 816, 817, 818, 819, 820, 821, 822, 823, 824, 825, 826, 827, 828, 829, 830, 831, 832, 833, 834, 835, 836, 837, 838, 839, 840, 841, 842, 843, 844, 845, 846, 847, 848, 849, 850, 851, 852, 853, 854, 855, 856, 857, 858, 859, 860, 861, 862, 863, 864, 865, 866, 867, 868, 869, 870, 871, 872],
      "AcquisitionTime": ["183348.620000", "183349.080000", "183349.540000", "183350.000000", "183350.460000", "183350.920000", "183351.380000", "183351.840000", "183352.300000", "183352.760000", "183353.220000", "183353.680000", "183354.140000", "183354.600000", "183355.060000", "183355.520000", "183355.980000", "183356.440000", "183356.900000", "183357.360000", "183357.820000", "183358.280000", "183358.740000", "183359.200000", "183359.660000", "183400.120000", "183400.580000", "183401.040000", "183401.500000", "183401.960000", "183402.420000", "183402.880000", "183403.340000", "183403.800000", "183404.260000", "183404.720000", "183405.180000", "183405.640000", "183406.100000", "183406.560000", "183407.020000", "183407.480000", "183407.940000", "183408.400000", "183408.860000", "183409.320000", "183409.780000", "183410.240000", "183410.700000", "183411.160000", "183411.620000", "183412.080000", "183412.540000", "183413.000000", "183413.460000", "183413.920000", "183414.380000", "183414.840000", "183415.300000", "183415.760000", "183416.220000", "183416.680000", "183417.140000", "183417.600000", "183418.060000", "183418.520000", "183418.980000", "183419.440000", "183419.900000", "183420.360000", "183420.820000", "183421.280000", "183421.740000", "183422.200000", "183422.660000", "183423.120000", "183423.580000", "183424.040000", "183424.500000", "183424.960000", "183425.420000", "183425.880000", "183426.340000", "183426.800000", "183427.260000", "183427.720000", "183428.180000", "183428.640000", "183429.100000", "183429.560000", "183430.020000", "183430.480000", "183430.940000", "183431.400000", "183431.860000", "183432.320000", "183432.780000", "183433.240000", "183433.700000", "183434.160000", "183434.620000", "183435.080000", "183435.540000", "183436.000000", "183436.460000", "183436.920000", "183437.380000", "183437.840000", "183438.300000", "183438.760000", "183439.220000", "183439.680000", "183440.140000", "183440.600000", "183441.060000", "183441.520000", "183441.980000", "183442.440000", "183442.900000", "183443.360000", "183443.820000", "183444.280000", "183444.740000", "183445.200000", "183445.660000", "183446.120000", "183446.580000", "183447.040000", "183447.500000", "183447.960000", "183448.420000", "183448.880000", "183449.340000", "183449.800000", "183450.260000", "183450.720000", "183451.180000", "183451.640000", "183452.100000", "183452.560000", "183453.020000", "183453.480000", "183453.940000", "183454.400000", "183454.860000", "183455.320000", "183455.780000", "183456.240000", "183456.700000", "183457.160000", "183457.620000", "183458.080000", "183458.540000", "183459.000000", "183459.460000", "183459.920000", "183500.380000", "183500.840000", "183501.300000", "183501.760000", "183502.220000", "183502.680000", "183503.140000", "183503.600000", "183504.060000", "183504.520000", "183504.980000", "183505.440000", "183505.900000", "183506.360000", "183506.820000", "183507.280000", "183507.740000", "183508.200000", "183508.660000", "183509.120000", "183509.580000", "183510.040000", "183510.500000", "183510.960000", "183511.420000", "183511.880000", "183512.340000", "183512.800000", "183513.260000", "183513.720000", "183514.180000", "183514.640000", "183515.100000", "183515.560000", "183516.020000", "183516.480000", "183516.940000", "183517.400000", "183517.860000", "183518.320000", "183518.780000", "183519.240000", "183519.700000", "183520.160000", "183520.620000", "183521.080000", "183521.540000", "183522.000000", "183522.460000", "183522.920000", "183523.380000", "183523.840000", "183524.300000", "183524.760000", "183525.220000", "183525.680000", "183526.140000", "183526.600000", "183527.060000", "183527.520000", "183527.980000", "183528.440000", "183528.900000", "183529.360000", "183529.820000", "183530.280000", "183530.740000", "183531.200000", "183531.660000", "183532.120000", "183532.580000", "183533.040000", "183533.500000", "183533.960000", "183534.420000", "183534.880000", "183535.340000", "183535.800000", "183536.260000", "183536.720000", "183537.180000", "183537.640000", "183538.100000", "183538.560000", "183539.020000", "183539.480000", "183539.940000", "183540.400000", "183540.860000", "183541.320000", "183541.780000", "183542.240000", "183542.700000", "183543.160000", "183543.620000", "183544.080000", "183544.540000", "183545.000000", "183545.460000", "183545.920000", "183546.380000", "183546.840000", "183547.300000", "183547.760000", "183548.220000", "183548.680000", "183549.140000", "183549.600000", "183550.060000", "183550.520000", "183550.980000", "183551.440000", "183551.900000", "183552.360000", "183552.820000", "183553.280000", "183553.740000", "183554.200000", "183554.660000", "183555.120000", "183555.580000", "183556.040000", "183556.500000", "183556.960000", "183557.420000", "183557.880000", "183558.340000", "183558.800000", "183559.260000", "183559.720000", "183600.180000", "183600.640000", "183601.100000", "183601.560000", "183602.020000", "183602.480000", "183602.940000", "183603.400000", "183603.860000", "183604.320000", "183604.780000", "183605.240000", "183605.700000", "183606.160000", "183606.620000", "183607.080000", "183607.540000", "183608.000000", "183608.460000", "183608.920000", "183609.380000", "183609.840000", "183610.300000", "183610.760000", "183611.220000", "183611.680000", "183612.140000", "183612.600000", "183613.060000", "183613.520000", "183613.980000", "183614.440000", "183614.900000", "183615.360000", "183615.820000", "183616.280000", "183616.740000", "183617.200000", "183617.660000", "183618.120000", "183618.580000", "183619.040000", "183619.500000", "183619.960000", "183620.420000", "183620.880000", "183621.340000", "183621.800000", "183622.260000", "183622.720000", "183623.180000", "183623.640000", "183624.100000", "183624.560000", "183625.020000", "183625.480000", "183625.940000", "183626.400000", "183626.860000", "183627.320000", "183627.780000", "183628.240000", "183628.700000", "183629.160000", "183629.620000", "183630.080000", "183630.540000", "183631.000000", "183631.460000", "183631.920000", "183632.380000", "183632.840000", "183633.300000", "183633.760000", "183634.220000", "183634.680000", "183635.140000", "183635.600000", "183636.060000", "183636.520000", "183636.980000", "183637.440000", "183637.900000", "183638.360000", "183638.820000", "183639.280000", "183639.740000", "183640.200000", "183640.660000", "183641.120000", "183641.580000", "183642.040000", "183642.500000", "183642.960000", "183643.420000", "183643.880000", "183644.340000", "183644.800000", "183645.260000", "183645.720000", "183646.180000", "183646.640000", "183647.100000", "183647.560000", "183648.020000", "183648.480000", "183648.940000", "183649.400000", "183649.860000", "183650.320000", "183650.780000", "183651.240000", "183651.700000", "183652.160000", "183652.620000", "183653.080000", "183653.540000", "183654.000000", "183654.460000", "183654.920000", "183655.380000", "183655.840000", "183656.300000", "183656.760000", "183657.220000", "183657.680000", "183658.140000", "183658.600000", "183659.060000", "183659.520000", "183659.980000", "183700.440000", "183700.900000", "183701.360000", "183701.820000", "183702.280000", "183702.740000", "183703.200000", "183703.660000", "183704.120000", "183704.580000", "183705.040000", "183705.500000", "183705.960000", "183706.420000", "183706.880000", "183707.340000", "183707.800000", "183708.260000", "183708.720000", "183709.180000", "183709.640000", "183710.100000", "183710.560000", "183711.020000", "183711.480000", "183711.940000", "183712.400000", "183712.860000", "183713.320000", "183713.780000", "183714.240000", "183714.700000", "183715.160000", "183715.620000", "183716.080000", "183716.540000", "183717.000000", "183717.460000", "183717.920000", "183718.380000", "183718.840000", "183719.300000", "183719.760000", "183720.220000", "183720.680000", "183721.140000", "183721.600000", "183722.060000", "183722.520000", "183722.980000", "183723.440000", "183723.900000", "183724.360000", "183724.820000", "183725.280000", "183725.740000", "183726.200000", "183726.660000", "183727.120000", "183727.580000", "183728.040000", "183728.500000", "183728.960000", "183729.420000", "183729.880000", "183730.340000", "183730.800000", "183731.260000", "183731.720000", "183732.180000", "183732.640000", "183733.100000", "183733.560000", "183734.020000", "183734.480000", "183734.940000", "183735.400000", "183735.860000", "183736.320000", "183736.780000", "183737.240000", "183737.700000", "183738.160000", "183738.620000", "183739.080000", "183739.540000", "183740.000000", "183740.460000", "183740.920000", "183741.380000", "183741.840000", "183742.300000", "183742.760000", "183743.220000", "183743.680000", "183744.140000", "183744.600000", "183745.060000", "183745.520000", "183745.980000", "183746.440000", "183746.900000", "183747.360000", "183747.820000", "183748.280000", "183748.740000", "183749.200000", "183749.660000", "183750.120000", "183750.580000", "183751.040000", "183751.500000", "183751.960000", "183752.420000", "183752.880000", "183753.340000", "183753.800000", "183754.260000", "183754.720000", "183755.180000", "183755.640000", "183756.100000", "183756.560000", "183757.020000", "183757.480000", "183757.940000", "183758.400000", "183758.860000", "183759.320000", "183759.780000", "183800.240000", "183800.700000", "183801.160000", "183801.620000", "183802.080000", "183802.540000", "183803.000000", "183803.460000", "183803.920000", "183804.380000", "183804.840000", "183805.300000", "183805.760000", "183806.220000", "183806.680000", "183807.140000", "183807.600000", "183808.060000", "183808.520000", "183808.980000", "183809.440000", "183809.900000", "183810.360000", "183810.820000", "183811.280000", "183811.740000", "183812.200000", "183812.660000", "183813.120000", "183813.580000", "183814.040000", "183814.500000", "183814.960000", "183815.420000", "183815.880000", "183816.340000", "183816.800000", "183817.260000", "183817.720000", "183818.180000", "183818.640000", "183819.100000", "183819.560000", "183820.020000", "183820.480000", "183820.940000", "183821.400000", "183821.860000", "183822.320000", "183822.780000", "183823.240000", "183823.700000", "183824.160000", "183824.620000", "183825.080000", "183825.540000", "183826.000000", "183826.460000", "183826.920000", "183827.380000", "183827.840000", "183828.300000", "183828.760000", "183829.220000", "183829.680000", "183830.140000", "183830.600000", "183831.060000", "183831.520000", "183831.980000", "183832.440000", "183832.900000", "183833.360000", "183833.820000", "183834.280000", "183834.740000", "183835.200000", "183835.660000", "183836.120000", "183836.580000", "183837.040000", "183837.500000", "183837.960000", "183838.420000", "183838.880000", "183839.340000", "183839.800000", "183840.260000", "183840.720000", "183841.180000", "183841.640000", "183842.100000", "183842.560000", "183843.020000", "183843.480000", "183843.940000", "183844.400000", "183844.860000", "183845.320000", "183845.780000", "183846.240000", "183846.700000", "183847.160000", "183847.620000", "183848.080000", "183848.540000", "183849.000000", "183849.460000", "183849.920000", "183850.380000", "183850.840000", "183851.300000", "183851.760000", "183852.220000", "183852.680000", "183853.140000", "183853.600000", "183854.060000", "183854.520000", "183854.980000", "183855.440000", "183855.900000", "183856.360000", "183856.820000", "183857.280000", "183857.740000", "183858.200000", "183858.660000", "183859.120000", "183859.580000", "183900.040000", "183900.500000", "183900.960000", "183901.420000", "183901.880000", "183902.340000", "183902.800000", "183903.260000", "183903.720000", "183904.180000", "183904.640000", "183905.100000", "183905.560000", "183906.020000", "183906.480000", "183906.940000", "183907.400000", "183907.860000", "183908.320000", "183908.780000", "183909.240000", "183909.700000", "183910.160000", "183910.620000", "183911.080000", "183911.540000", "183912.000000", "183912.460000", "183912.920000", "183913.380000", "183913.840000", "183914.300000", "183914.760000", "183915.220000", "183915.680000", "183916.140000", "183916.600000", "183917.060000", "183917.520000", "183917.980000", "183918.440000", "183918.900000", "183919.360000", "183919.820000", "183920.280000", "183920.740000", "183921.200000", "183921.660000", "183922.120000", "183922.580000", "183923.040000", "183923.500000", "183923.960000", "183924.420000", "183924.880000", "183925.340000", "183925.800000", "183926.260000", "183926.720000", "183927.180000", "183927.640000", "183928.100000", "183928.560000", "183929.020000", "183929.480000", "183929.940000", "183930.400000", "183930.860000", "183931.320000", "183931.780000", "183932.240000", "183932.700000", "183933.160000", "183933.620000", "183934.080000", "183934.540000", "183935.000000", "183935.460000", "183935.920000", "183936.380000", "183936.840000", "183937.300000", "183937.760000", "183938.220000", "183938.680000", "183939.140000", "183939.600000", "183940.060000", "183940.520000", "183940.980000", "183941.440000", "183941.900000", "183942.360000", "183942.820000", "183943.280000", "183943.740000", "183944.200000", "183944.660000", "183945.120000", "183945.580000", "183946.040000", "183946.500000", "183946.960000", "183947.420000", "183947.880000", "183948.340000", "183948.800000", "183949.260000", "183949.720000", "183950.180000", "183950.640000", "183951.100000", "183951.560000", "183952.020000", "183952.480000", "183952.940000", "183953.400000", "183953.860000", "183954.320000", "183954.780000", "183955.240000", "183955.700000", "183956.160000", "183956.620000", "183957.080000", "183957.540000", "183958.000000", "183958.460000", "183958.920000", "183959.380000", "183959.840000", "184000.300000", "184000.760000", "184001.220000", "184001.680000", "184002.140000", "184002.600000", "184003.060000", "184003.520000", "184003.980000", "184004.440000", "184004.900000", "184005.360000", "184005.820000", "184006.280000", "184006.740000", "184007.200000", "184007.660000", "184008.120000", "184008.580000", "184009.040000", "184009.500000", "184009.960000", "184010.420000", "184010.880000", "184011.340000", "184011.800000", "184012.260000", "184012.720000", "184013.180000", "184013.640000", "184014.100000", "184014.560000", "184015.020000", "184015.480000", "184015.940000", "184016.400000", "184016.860000", "184017.320000", "184017.780000", "184018.240000", "184018.700000", "184019.160000", "184019.620000", "184020.080000", "184020.540000", "184021.000000", "184021.460000", "184021.920000", "184022.380000", "184022.840000", "184023.300000", "184023.760000", "184024.220000", "184024.680000", "184025.140000", "184025.600000", "184026.060000", "184026.520000", "184026.980000", "184027.440000", "184027.900000", "184028.360000", "184028.820000", "184029.280000"],
