{
  "AcquisitionMatrixPE": 82,
  "AcquisitionNumber": 1,
  "AcquisitionTime": "18:40:50.700000",
  "BandwidthPerPixelPhaseEncode": 24.888,
  "BaseResolution": 82,
  "BodyPartExamined": "BRAIN",
  "ConsistencyInfo": "N4_VE11E_LATEST_20181129",
  "ConversionSoftware": "dcm2niix",
  "ConversionSoftwareVersion": "v1.0.20201102",
  "DerivedVendorReportedEchoSpacing": 0.00049,
  "DeviceSerialNumber": "66112",
  "DwellTime": 2e-06,
  "EchoTime": 0.0272,
  "EchoTrainLength": 82,
  "EffectiveEchoSpacing": 0.00049,
  "FlipAngle": 44,
  "ImageComments": "Unaliased MB8/PE3",
  "ImageOrientationPatientDICOM": [0.99926, 0.0375039, 0.00855082, -0.0378638, 0.998189, 0.0467499],
  "ImageType": [
    "ORIGINAL",
    "PRIMARY",
    "M",
    "MB",
    "ND",
    "NORM",
    "MOSAIC"
],
  "ImagingFrequency": 123.252,
  "InPlanePhaseEncodingDirectionDICOM": "COL",
  "InstitutionAddress": "Maynard 3,Hanover,NH,US,03755",
  "InstitutionName": "Dartmouth College - PBS",
  "InstitutionalDepartmentName": "Department",
  "MRAcquisitionType": "2D",
  "MagneticFieldStrength": 3,
  "Manufacturer": "Siemens",
  "ManufacturersModelName": "Prisma",
  "Modality": "MR",
  "MultibandAccelerationFactor": 8,
  "PartialFourier": 1,
  "PatientPosition": "HFS",
  "PercentPhaseFOV": 100,
  "PercentSampling": 100,
  "PhaseEncodingDirection": "j-",
  "PhaseEncodingSteps": 82,
  "PhaseResolution": 1,
  "PixelBandwidth": 3050,
  "ProcedureStepDescription": "Wager_Wager^1076_spacetop",
  "ProtocolName": "func_run-02_task-social_acq-ap-mb8",
  "PulseSequenceDetails": "%CustomerSeq%\\cmrr_mbep2d_bold",
  "ReceiveCoilActiveElements": "HEA;HEP",
  "ReceiveCoilName": "Head_32",
  "ReconMatrixPE": 82,
  "RepetitionTime": 0.46,
  "SAR": 0.0842085,
  "ScanOptions": "FS",
  "ScanningSequence": "EP",
  "SequenceName": "epfid2d1_82",
  "SequenceVariant": "SK\\SS",
  "SeriesDescription": "func_run-02_task-social_acq-ap-mb8",
  "SeriesNumber": 10,
  "ShimSetting": [4154, -7760, -7298, 819, -9, -353, 67, 57],
  "SliceThickness": 2.7,
  "SliceTiming": [0, 0.2525, 0.0625, 0.315, 0.125, 0.3775, 0.1875, 0, 0.2525, 0.0625, 0.315, 0.125, 0.3775, 0.1875, 0, 0.2525, 0.0625, 0.315, 0.125, 0.3775, 0.1875, 0, 0.2525, 0.0625, 0.315, 0.125, 0.3775, 0.1875, 0, 0.2525, 0.0625, 0.315, 0.125, 0.3775, 0.1875, 0, 0.2525, 0.0625, 0.315, 0.125, 0.3775, 0.1875, 0, 0.2525, 0.0625, 0.315, 0.125, 0.3775, 0.1875, 0, 0.2525, 0.0625, 0.315, 0.125, 0.3775, 0.1875],
  "SoftwareVersions": "syngo MR E11",
  "SpacingBetweenSlices": 2.7,
  "StationName": "AWP66112",
  "TaskName": "social",
  "TotalReadoutTime": 0.03969,
  "TxRefAmp": 226.726,
  "WipMemBlock": "4b164d06-4d5a-4082-a92e-b1732643f9e3||Sequence: R016 ve11e/master r/434b28f1; Aug  7 2019 18:53:46 by eja",
  "dcmmeta_affine": [
    [-2.680941343307495, -0.10158572345972061, 0.01831146515905857, 115.65644836425781],
    [-0.10062028467655182, 2.678067445755005, 0.1270054429769516, -95.5753173828125],
    [0.022941214963793755, -0.1254265308380127, 2.696949005126953, -76.30717468261719],
    [0.0, 0.0, 0.0, 1.0]
],
  "dcmmeta_reorient_transform": [
    [0.0, -1.0, 0.0, 81.0],
    [1.0, 0.0, 0.0, 0.0],
    [0.0, 0.0, 1.0, 0.0],
    [0.0, 0.0, 0.0, 1.0]
],
  "dcmmeta_shape": [82, 82, 56, 872],
  "dcmmeta_slice_dim": 2,
  "dcmmeta_version": 0.6,
  "global": {
    "const": {
      "AccessionNumber": "A003934",
      "AcquisitionMatrix": [82, 0, 0, 82],
      "AngioFlag": "N",
      "BitsAllocated": 16,
      "BitsStored": 16,
      "BodyPartExamined": "BRAIN",
      "Columns": 656,
      "EchoNumbers": 1,
      "EchoTime": 27.2,
      "EchoTrainLength": 82,
      "FlipAngle": 44.0,
      "HighBit": 15,
      "ImageOrientationPatient": [0.99925989574423, 0.03750392377293, 0.00855081626879, -0.0378637676769, 0.99818875121325, 0.04674988822071],
      "ImagePositionPatient": [-847.70303775688, -918.83152558097, -129.04826521502],
      "ImageType": [
        "ORIGINAL",
        "PRIMARY",
        "M",
        "MB",
        "ND",
        "NORM",
        "MOSAIC"
],
      "ImagedNucleus": "1H",
      "ImagingFrequency": 123.252235,
      "InPlanePhaseEncodingDirection": "COL",
      "MRAcquisitionType": "2D",
      "MagneticFieldStrength": 3.0,
      "Manufacturer": "SIEMENS",
      "ManufacturerModelName": "Prisma",
      "Modality": "MR",
      "NumberOfAverages": 1.0,
      "NumberOfPhaseEncodingSteps": 82,
      "PercentPhaseFieldOfView": 100.0,
      "PercentSampling": 100.0,
      "PerformedProcedureStepStartTime": "181926.038000",
      "PhotometricInterpretation": "MONOCHROME2",
      "PixelBandwidth": 3050.0,
      "PixelRepresentation": 0,
      "PixelSpacing": [2.6829268932343, 2.6829268932343],
      "ProtocolName": "func_run-02_task-social_acq-ap-mb8",
      "RepetitionTime": 460.0,
      "Rows": 656,
      "SAR": 0.0842084677285,
      "SamplesPerPixel": 1,
      "ScanOptions": "FS",
      "ScanningSequence": "EP",
      "SequenceName": "epfid2d1_82",
      "SequenceVariant": [
        "SK",
        "SS"
],
      "SeriesDescription": "func_run-02_task-social_acq-ap-mb8",
      "SeriesNumber": 10,
      "SeriesTime": "184116.800000",
      "SliceLocation": -79.93233528794,
      "SliceThickness": 2.7000000476837,
      "SmallestImagePixelValue": 0,
      "SoftwareVersions": "syngo MR E11",
      "SpacingBetweenSlices": 2.7000000007195,
      "SpecificCharacterSet": "ISO_IR 100",
      "StudyID": "2",
      "StudyTime": "181925.961000",
      "TransmitCoilName": "Body",
      "VariableFlipAngleFlag": "N",
      "WindowCenterWidthExplanation": "Algo1"
    },
    "slices": {}
  },
  "time": {
    "samples": {
      "AcquisitionNumber": [1, 2, 3, 4, 5, 6, 7, 8, 9, 10, 11, 12, 13, 14, 15, 16, 17, 18, 19, 20, 21, 22, 23, 24, 25, 26, 27, 28, 29, 30, 31, 32, 33, 34, 35, 36, 37, 38, 39, 40, 41, 42, 43, 44, 45, 46, 47, 48, 49, 50, 51, 52, 53, 54, 55, 56, 57, 58, 59, 60, 61, 62, 63, 64, 65, 66, 67, 68, 69, 70, 71, 72, 73, 74, 75, 76, 77, 78, 79, 80, 81, 82, 83, 84, 85, 86, 87, 88, 89, 90, 91, 92, 93, 94, 95, 96, 97, 98, 99, 100, 101, 102, 103, 104, 105, 106, 107, 108, 109, 110, 111, 112, 113, 114, 115, 116, 117, 118, 119, 120, 121, 122, 123, 124, 125, 126, 127, 128, 129, 130, 131, 132, 133, 134, 135, 136, 137, 138, 139, 140, 141, 142, 143, 144, 145, 146, 147, 148, 149, 150, 151, 152, 153, 154, 155, 156, 157, 158, 159, 160, 161, 162, 163, 164, 165, 166, 167, 168, 169, 170, 171, 172, 173, 174, 175, 176, 177, 178, 179, 180, 181, 182, 183, 184, 185, 186, 187, 188, 189, 190, 191, 192, 193, 194, 195, 196, 197, 198, 199, 200, 201, 202, 203, 204, 205, 206, 207, 208, 209, 210, 211, 212, 213, 214, 215, 216, 217, 218, 219, 220, 221, 222, 223, 224, 225, 226, 227, 228, 229, 230, 231, 232, 233, 234, 235, 236, 237, 238, 239, 240, 241, 242, 243, 244, 245, 246, 247, 248, 249, 250, 251, 252, 253, 254, 255, 256, 257, 258, 259, 260, 261, 262, 263, 264, 265, 266, 267, 268, 269, 270, 271, 272, 273, 274, 275, 276, 277, 278, 279, 280, 281, 282, 283, 284, 285, 286, 287, 288, 289, 290, 291, 292, 293, 294, 295, 296, 297, 298, 299, 300, 301, 302, 303, 304, 305, 306, 307, 308, 309, 310, 311, 312, 313, 314, 315, 316, 317, 318, 319, 320, 321, 322, 323, 324, 325, 326, 327, 328, 329, 330, 331, 332, 333, 334, 335, 336, 337, 338, 339, 340, 341, 342, 343, 344, 345, 346, 347, 348, 349, 350, 351, 352, 353, 354, 355, 356, 357, 358, 359, 360, 361, 362, 363, 364, 365, 366, 367, 368, 369, 370, 371, 372, 373, 374, 375, 376, 377, 378, 379, 380, 381, 382, 383, 384, 385, 386, 387, 388, 389, 390, 391, 392, 393, 394, 395, 396, 397, 398, 399, 400, 401, 402, 403, 404, 405, 406, 407, 408, 409, 410, 411, 412, 413, 414, 415, 416, 417, 418, 419, 420, 421, 422, 423, 424, 425, 426, 427, 428, 429, 430, 431, 432, 433, 434, 435, 436, 437, 438, 439, 440, 441, 442, 443, 444, 445, 446, 447, 448, 449, 450, 451, 452, 453, 454, 455, 456, 457, 458, 459, 460, 461, 462, 463, 464, 465, 466, 467, 468, 469, 470, 471, 472, 473, 474, 475, 476, 477, 478, 479, 480, 481, 482, 483, 484, 485, 486, 487, 488, 489, 490, 491, 492, 493, 494, 495, 496, 497, 498, 499, 500, 501, 502, 503, 504, 505, 506, 507, 508, 509, 510, 511, 512, 513, 514, 515, 516, 517, 518, 519, 520, 521, 522, 523, 524, 525, 526, 527, 528, 529, 530, 531, 532, 533, 534, 535, 536, 537, 538, 539, 540, 541, 542, 543, 544, 545, 546, 547, 548, 549, 550, 551, 552, 553, 554, 555, 556, 557, 558, 559, 560, 561, 562, 563, 564, 565, 566, 567, 568, 569, 570, 571, 572, 573, 574, 575, 576, 577, 578, 579, 580, 581, 582, 583, 584, 585, 586, 587, 588, 589, 590, 591, 592, 593, 594, 595, 596, 597, 598, 599, 600, 601, 602, 603, 604, 605, 606, 607, 608, 609, 610, 611, 612, 613, 614, 615, 616, 617, 618, 619, 620, 621, 622, 623, 624, 625, 626, 627, 628, 629, 630, 631, 632, 633, 634, 635, 636, 637, 638, 639, 640, 641, 642, 643, 644, 645, 646, 647, 648, 649, 650, 651, 652, 653, 654, 655, 656, 657, 658, 659, 660, 661, 662, 663, 664, 665, 666, 667, 668, 669, 670, 671, 672, 673, 674, 675, 676, 677, 678, 679, 680, 681, 682, 683, 684, 685, 686, 687, 688, 689, 690, 691, 692, 693, 694, 695, 696, 697, 698, 699, 700, 701, 702, 703, 704, 705, 706, 707, 708, 709, 710, 711, 712, 713, 714, 715, 716, 717, 718, 719, 720, 721, 722, 723, 724, 725, 726, 727, 728, 729, 730, 731, 732, 733, 734, 735, 736, 737, 738, 739, 740, 741, 742, 743, 744, 745, 746, 747, 748, 749, 750, 751, 752, 753, 754, 755, 756, 757, 758, 759, 760, 761, 762, 763, 764, 765, 766, 767, 768, 769, 770, 771, 772, 773, 774, 775, 776, 777, 778, 779, 780, 781, 782, 783, 784, 785, 786, 787, 788, 789, 790, 791, 792, 793, 794, 795, 796, 797, 798, 799, 800, 801, 802, 803, 804, 805, 806, 807, 808, 809, 810, 811, 812, 813, 814, 815, 816, 817, 818, 819, 820, 821, 822, 823, 824, 825, 826, 827, 828, 829, 830, 831, 832, 833, 834, 835, 836, 837, 838, 839, 840, 841, 842, 843, 844, 845, 846, 847, 848, 849, 850, 851, 852, 853, 854, 855, 856, 857, 858, 859, 860, 861, 862, 863, 864, 865, 866, 867, 868, 869, 870, 871, 872],
      "AcquisitionTime": ["184050.700000", "184051.160000", "184051.620000", "184052.080000", "184052.540000", "184053.000000", "184053.460000", "184053.920000", "184054.380000", "184054.840000", "184055.300000", "184055.760000", "184056.220000", "184056.680000", "184057.140000", "184057.600000", "184058.060000", "184058.520000", "184058.980000", "184059.440000", "184059.900000", "184100.360000", "184100.820000", "184101.280000", "184101.740000", "184102.200000", "184102.660000", "184103.120000", "184103.580000", "184104.040000", "184104.500000", "184104.960000", "184105.420000", "184105.880000", "184106.340000", "184106.800000", "184107.260000", "184107.720000", "184108.180000", "184108.640000", "184109.100000", "184109.560000", "184110.020000", "184110.480000", "184110.940000", "184111.400000", "184111.860000", "184112.320000", "184112.780000", "184113.240000", "184113.700000", "184114.160000", "184114.620000", "184115.080000", "184115.540000", "184116.000000", "184116.460000", "184116.920000", "184117.380000", "184117.840000", "184118.300000", "184118.760000", "184119.220000", "184119.680000", "184120.140000", "184120.600000", "184121.060000", "184121.520000", "184121.980000", "184122.440000", "184122.900000", "184123.360000", "184123.820000", "184124.280000", "184124.740000", "184125.200000", "184125.660000", "184126.120000", "184126.580000", "184127.040000", "184127.500000", "184127.960000", "184128.420000", "184128.880000", "184129.340000", "184129.800000", "184130.260000", "184130.720000", "184131.180000", "184131.640000", "184132.100000", "184132.560000", "184133.020000", "184133.480000", "184133.940000", "184134.400000", "184134.860000", "184135.320000", "184135.780000", "184136.240000", "184136.700000", "184137.160000", "184137.620000", "184138.080000", "184138.540000", "184139.000000", "184139.460000", "184139.920000", "184140.380000", "184140.840000", "184141.300000", "184141.760000", "184142.220000", "184142.680000", "184143.140000", "184143.600000", "184144.060000", "184144.520000", "184144.980000", "184145.440000", "184145.900000", "184146.360000", "184146.820000", "184147.280000", "184147.740000", "184148.200000", "184148.660000", "184149.120000", "184149.580000", "184150.040000", "184150.500000", "184150.960000", "184151.420000", "184151.880000", "184152.340000", "184152.800000", "184153.260000", "184153.720000", "184154.180000", "184154.640000", "184155.100000", "184155.560000", "184156.020000", "184156.480000", "184156.940000", "184157.400000", "184157.860000", "184158.320000", "184158.780000", "184159.240000", "184159.700000", "184200.160000", "184200.620000", "184201.080000", "184201.540000", "184202.000000", "184202.460000", "184202.920000", "184203.380000", "184203.840000", "184204.300000", "184204.760000", "184205.220000", "184205.680000", "184206.140000", "184206.600000", "184207.060000", "184207.520000", "184207.980000", "184208.440000", "184208.900000", "184209.360000", "184209.820000", "184210.280000", "184210.740000", "184211.200000", "184211.660000", "184212.120000", "184212.580000", "184213.040000", "184213.500000", "184213.960000", "184214.420000", "184214.880000", "184215.340000", "184215.800000", "184216.260000", "184216.720000", "184217.180000", "184217.640000", "184218.100000", "184218.560000", "184219.020000", "184219.480000", "184219.940000", "184220.400000", "184220.860000", "184221.320000", "184221.780000", "184222.240000", "184222.700000", "184223.160000", "184223.620000", "184224.080000", "184224.540000", "184225.000000", "184225.460000", "184225.920000", "184226.380000", "184226.840000", "184227.300000", "184227.760000", "184228.220000", "184228.680000", "184229.140000", "184229.600000", "184230.060000", "184230.520000", "184230.980000", "184231.440000", "184231.900000", "184232.360000", "184232.820000", "184233.280000", "184233.740000", "184234.200000", "184234.660000", "184235.120000", "184235.580000", "184236.040000", "184236.500000", "184236.960000", "184237.420000", "184237.880000", "184238.340000", "184238.800000", "184239.260000", "184239.720000", "184240.180000", "184240.640000", "184241.100000", "184241.560000", "184242.020000", "184242.480000", "184242.940000", "184243.400000", "184243.860000", "184244.320000", "184244.780000", "184245.240000", "184245.700000", "184246.160000", "184246.620000", "184247.080000", "184247.540000", "184248.000000", "184248.460000", "184248.920000", "184249.380000", "184249.840000", "184250.300000", "184250.760000", "184251.220000", "184251.680000", "184252.140000", "184252.600000", "184253.060000", "184253.520000", "184253.980000", "184254.440000", "184254.900000", "184255.360000", "184255.820000", "184256.280000", "184256.740000", "184257.200000", "184257.660000", "184258.120000", "184258.580000", "184259.040000", "184259.500000", "184259.960000", "184300.420000", "184300.880000", "184301.340000", "184301.800000", "184302.260000", "184302.720000", "184303.180000", "184303.640000", "184304.100000", "184304.560000", "184305.020000", "184305.480000", "184305.940000", "184306.400000", "184306.860000", "184307.320000", "184307.780000", "184308.240000", "184308.700000", "184309.160000", "184309.620000", "184310.080000", "184310.540000", "184311.000000", "184311.460000", "184311.920000", "184312.380000", "184312.840000", "184313.300000", "184313.760000", "184314.220000", "184314.680000", "184315.140000", "184315.600000", "184316.060000", "184316.520000", "184316.980000", "184317.440000", "184317.900000", "184318.360000", "184318.820000", "184319.280000", "184319.740000", "184320.200000", "184320.660000", "184321.120000", "184321.580000", "184322.040000", "184322.500000", "184322.960000", "184323.420000", "184323.880000", "184324.340000", "184324.800000", "184325.260000", "184325.720000", "184326.180000", "184326.640000", "184327.100000", "184327.560000", "184328.020000", "184328.480000", "184328.940000", "184329.400000", "184329.860000", "184330.320000", "184330.780000", "184331.240000", "184331.700000", "184332.160000", "184332.620000", "184333.080000", "184333.540000", "184334.000000", "184334.460000", "184334.920000", "184335.380000", "184335.840000", "184336.300000", "184336.760000", "184337.220000", "184337.680000", "184338.140000", "184338.600000", "184339.060000", "184339.520000", "184339.980000", "184340.440000", "184340.900000", "184341.360000", "184341.820000", "184342.280000", "184342.740000", "184343.200000", "184343.660000", "184344.120000", "184344.580000", "184345.040000", "184345.500000", "184345.960000", "184346.420000", "184346.880000", "184347.340000", "184347.800000", "184348.260000", "184348.720000", "184349.180000", "184349.640000", "184350.100000", "184350.560000", "184351.020000", "184351.480000", "184351.940000", "184352.400000", "184352.860000", "184353.320000", "184353.780000", "184354.240000", "184354.700000", "184355.160000", "184355.620000", "184356.080000", "184356.540000", "184357.000000", "184357.460000", "184357.920000", "184358.380000", "184358.840000", "184359.300000", "184359.760000", "184400.220000", "184400.680000", "184401.140000", "184401.600000", "184402.060000", "184402.520000", "184402.980000", "184403.440000", "184403.900000", "184404.360000", "184404.820000", "184405.280000", "184405.740000", "184406.200000", "184406.660000", "184407.120000", "184407.580000", "184408.040000", "184408.500000", "184408.960000", "184409.420000", "184409.880000", "184410.340000", "184410.800000", "184411.260000", "184411.720000", "184412.180000", "184412.640000", "184413.100000", "184413.560000", "184414.020000", "184414.480000", "184414.940000", "184415.400000", "184415.860000", "184416.320000", "184416.780000", "184417.240000", "184417.700000", "184418.160000", "184418.620000", "184419.080000", "184419.540000", "184420.000000", "184420.460000", "184420.920000", "184421.380000", "184421.840000", "184422.300000", "184422.760000", "184423.220000", "184423.680000", "184424.140000", "184424.600000", "184425.060000", "184425.520000", "184425.980000", "184426.440000", "184426.900000", "184427.360000", "184427.820000", "184428.280000", "184428.740000", "184429.200000", "184429.660000", "184430.120000", "184430.580000", "184431.040000", "184431.500000", "184431.960000", "184432.420000", "184432.880000", "184433.340000", "184433.800000", "184434.260000", "184434.720000", "184435.180000", "184435.640000", "184436.100000", "184436.560000", "184437.020000", "184437.480000", "184437.940000", "184438.400000", "184438.860000", "184439.320000", "184439.780000", "184440.240000", "184440.700000", "184441.160000", "184441.620000", "184442.080000", "184442.540000", "184443.000000", "184443.460000", "184443.920000", "184444.380000", "184444.840000", "184445.300000", "184445.760000", "184446.220000", "184446.680000", "184447.140000", "184447.600000", "184448.060000", "184448.520000", "184448.980000", "184449.440000", "184449.900000", "184450.360000", "184450.820000", "184451.280000", "184451.740000", "184452.200000", "184452.660000", "184453.120000", "184453.580000", "184454.040000", "184454.500000", "184454.960000", "184455.420000", "184455.880000", "184456.340000", "184456.800000", "184457.260000", "184457.720000", "184458.180000", "184458.640000", "184459.100000", "184459.560000", "184500.020000", "184500.480000", "184500.940000", "184501.400000", "184501.860000", "184502.320000", "184502.780000", "184503.240000", "184503.700000", "184504.160000", "184504.620000", "184505.080000", "184505.540000", "184506.000000", "184506.460000", "184506.920000", "184507.380000", "184507.840000", "184508.300000", "184508.760000", "184509.220000", "184509.680000", "184510.140000", "184510.600000", "184511.060000", "184511.520000", "184511.980000", "184512.440000", "184512.900000", "184513.360000", "184513.820000", "184514.280000", "184514.740000", "184515.200000", "184515.660000", "184516.120000", "184516.580000", "184517.040000", "184517.500000", "184517.960000", "184518.420000", "184518.880000", "184519.340000", "184519.800000", "184520.260000", "184520.720000", "184521.180000", "184521.640000", "184522.100000", "184522.560000", "184523.020000", "184523.480000", "184523.940000", "184524.400000", "184524.860000", "184525.320000", "184525.780000", "184526.240000", "184526.700000", "184527.160000", "184527.620000", "184528.080000", "184528.540000", "184529.000000", "184529.460000", "184529.920000", "184530.380000", "184530.840000", "184531.300000", "184531.760000", "184532.220000", "184532.680000", "184533.140000", "184533.600000", "184534.060000", "184534.520000", "184534.980000", "184535.440000", "184535.900000", "184536.360000", "184536.820000", "184537.280000", "184537.740000", "184538.200000", "184538.660000", "184539.120000", "184539.580000", "184540.040000", "184540.500000", "184540.960000", "184541.420000", "184541.880000", "184542.340000", "184542.800000", "184543.260000", "184543.720000", "184544.180000", "184544.640000", "184545.100000", "184545.560000", "184546.020000", "184546.480000", "184546.940000", "184547.400000", "184547.860000", "184548.320000", "184548.780000", "184549.240000", "184549.700000", "184550.160000", "184550.620000", "184551.080000", "184551.540000", "184552.000000", "184552.460000", "184552.920000", "184553.380000", "184553.840000", "184554.300000", "184554.760000", "184555.220000", "184555.680000", "184556.140000", "184556.600000", "184557.060000", "184557.520000", "184557.980000", "184558.440000", "184558.900000", "184559.360000", "184559.820000", "184600.280000", "184600.740000", "184601.200000", "184601.660000", "184602.120000", "184602.580000", "184603.040000", "184603.500000", "184603.960000", "184604.420000", "184604.880000", "184605.340000", "184605.800000", "184606.260000", "184606.720000", "184607.180000", "184607.640000", "184608.100000", "184608.560000", "184609.020000", "184609.480000", "184609.940000", "184610.400000", "184610.860000", "184611.320000", "184611.780000", "184612.240000", "184612.700000", "184613.160000", "184613.620000", "184614.080000", "184614.540000", "184615.000000", "184615.460000", "184615.920000", "184616.380000", "184616.840000", "184617.300000", "184617.760000", "184618.220000", "184618.680000", "184619.140000", "184619.600000", "184620.060000", "184620.520000", "184620.980000", "184621.440000", "184621.900000", "184622.360000", "184622.820000", "184623.280000", "184623.740000", "184624.200000", "184624.660000", "184625.120000", "184625.580000", "184626.040000", "184626.500000", "184626.960000", "184627.420000", "184627.880000", "184628.340000", "184628.800000", "184629.260000", "184629.720000", "184630.180000", "184630.640000", "184631.100000", "184631.560000", "184632.020000", "184632.480000", "184632.940000", "184633.400000", "184633.860000", "184634.320000", "184634.780000", "184635.240000", "184635.700000", "184636.160000", "184636.620000", "184637.080000", "184637.540000", "184638.000000", "184638.460000", "184638.920000", "184639.380000", "184639.840000", "184640.300000", "184640.760000", "184641.220000", "184641.680000", "184642.140000", "184642.600000", "184643.060000", "184643.520000", "184643.980000", "184644.440000", "184644.900000", "184645.360000", "184645.820000", "184646.280000", "184646.740000", "184647.200000", "184647.660000", "184648.120000", "184648.580000", "184649.040000", "184649.500000", "184649.960000", "184650.420000", "184650.880000", "184651.340000", "184651.800000", "184652.260000", "184652.720000", "184653.180000", "184653.640000", "184654.100000", "184654.560000", "184655.020000", "184655.480000", "184655.940000", "184656.400000", "184656.860000", "184657.320000", "184657.780000", "184658.240000", "184658.700000", "184659.160000", "184659.620000", "184700.080000", "184700.540000", "184701.000000", "184701.460000", "184701.920000", "184702.380000", "184702.840000", "184703.300000", "184703.760000", "184704.220000", "184704.680000", "184705.140000", "184705.600000", "184706.060000", "184706.520000", "184706.980000", "184707.440000", "184707.900000", "184708.360000", "184708.820000", "184709.280000", "184709.740000", "184710.200000", "184710.660000", "184711.120000", "184711.580000", "184712.040000", "184712.500000", "184712.960000", "184713.420000", "184713.880000", "184714.340000", "184714.800000", "184715.260000", "184715.720000", "184716.180000", "184716.640000", "184717.100000", "184717.560000", "184718.020000", "184718.480000", "184718.940000", "184719.400000", "184719.860000", "184720.320000", "184720.780000", "184721.240000", "184721.700000", "184722.160000", "184722.620000", "184723.080000", "184723.540000", "184724.000000", "184724.460000", "184724.920000", "184725.380000", "184725.840000", "184726.300000", "184726.760000", "184727.220000", "184727.680000", "184728.140000", "184728.600000", "184729.060000", "184729.520000", "184729.980000", "184730.440000", "184730.900000", "184731.360000"],
