{
  "AcquisitionMatrixPE": 82,
  "AcquisitionNumber": 1,
  "AcquisitionTime": "19:03:56.582500",
  "BandwidthPerPixelPhaseEncode": 24.888,
  "BaseResolution": 82,
  "BodyPartExamined": "BRAIN",
  "ConsistencyInfo": "N4_VE11E_LATEST_20181129",
  "ConversionSoftware": "dcm2niix",
  "ConversionSoftwareVersion": "v1.0.20201102",
  "DerivedVendorReportedEchoSpacing": 0.00049,
  "DeviceSerialNumber": "66112",
  "DwellTime": 2e-06,
  "EchoTime": 0.0272,
  "EchoTrainLength": 82,
  "EffectiveEchoSpacing": 0.00049,
  "FlipAngle": 44,
  "ImageComments": "Unaliased MB8/PE3",
  "ImageOrientationPatientDICOM": [0.99926, 0.0375039, 0.00855082, -0.0378638, 0.998189, 0.0467499],
  "ImageType": [
    "ORIGINAL",
    "PRIMARY",
    "M",
    "MB",
    "ND",
    "NORM",
    "MOSAIC"
],
  "ImagingFrequency": 123.252,
  "InPlanePhaseEncodingDirectionDICOM": "COL",
  "InstitutionAddress": "Maynard 3,Hanover,NH,US,03755",
  "InstitutionName": "Dartmouth College - PBS",
  "InstitutionalDepartmentName": "Department",
  "MRAcquisitionType": "2D",
  "MagneticFieldStrength": 3,
  "Manufacturer": "Siemens",
  "ManufacturersModelName": "Prisma",
  "Modality": "MR",
  "MultibandAccelerationFactor": 8,
  "PartialFourier": 1,
  "PatientPosition": "HFS",
  "PercentPhaseFOV": 100,
  "PercentSampling": 100,
  "PhaseEncodingDirection": "j-",
  "PhaseEncodingSteps": 82,
  "PhaseResolution": 1,
  "PixelBandwidth": 3050,
  "ProcedureStepDescription": "Wager_Wager^1076_spacetop",
  "ProtocolName": "func_run-05_task-social_acq-ap-mb8",
  "PulseSequenceDetails": "%CustomerSeq%\\cmrr_mbep2d_bold",
  "ReceiveCoilActiveElements": "HEA;HEP",
  "ReceiveCoilName": "Head_32",
  "ReconMatrixPE": 82,
  "RepetitionTime": 0.46,
  "SAR": 0.0842085,
  "ScanOptions": "FS",
  "ScanningSequence": "EP",
  "SequenceName": "epfid2d1_82",
  "SequenceVariant": "SK\\SS",
  "SeriesDescription": "func_run-05_task-social_acq-ap-mb8",
  "SeriesNumber": 16,
  "ShimSetting": [4154, -7760, -7298, 819, -9, -353, 67, 57],
  "SliceThickness": 2.7,
  "SliceTiming": [0, 0.2525, 0.0625, 0.315, 0.125, 0.3775, 0.1875, 0, 0.2525, 0.0625, 0.315, 0.125, 0.3775, 0.1875, 0, 0.2525, 0.0625, 0.315, 0.125, 0.3775, 0.1875, 0, 0.2525, 0.0625, 0.315, 0.125, 0.3775, 0.1875, 0, 0.2525, 0.0625, 0.315, 0.125, 0.3775, 0.1875, 0, 0.2525, 0.0625, 0.315, 0.125, 0.3775, 0.1875, 0, 0.2525, 0.0625, 0.315, 0.125, 0.3775, 0.1875, 0, 0.2525, 0.0625, 0.315, 0.125, 0.3775, 0.1875],
  "SoftwareVersions": "syngo MR E11",
  "SpacingBetweenSlices": 2.7,
  "StationName": "AWP66112",
  "TaskName": "social",
  "TotalReadoutTime": 0.03969,
  "TxRefAmp": 226.726,
  "WipMemBlock": "a839b627-b664-4194-9f5a-cd67d76a3abc||Sequence: R016 ve11e/master r/434b28f1; Aug  7 2019 18:53:46 by eja",
  "dcmmeta_affine": [
    [-2.680941343307495, -0.10158572345972061, 0.01831146515905857, 115.65644836425781],
    [-0.10062028467655182, 2.678067445755005, 0.1270054429769516, -95.5753173828125],
    [0.022941214963793755, -0.1254265308380127, 2.696949005126953, -76.30717468261719],
    [0.0, 0.0, 0.0, 1.0]
],
  "dcmmeta_reorient_transform": [
    [0.0, -1.0, 0.0, 81.0],
    [1.0, 0.0, 0.0, 0.0],
    [0.0, 0.0, 1.0, 0.0],
    [0.0, 0.0, 0.0, 1.0]
],
  "dcmmeta_shape": [82, 82, 56, 872],
  "dcmmeta_slice_dim": 2,
  "dcmmeta_version": 0.6,
  "global": {
    "const": {
      "AccessionNumber": "A003934",
      "AcquisitionMatrix": [82, 0, 0, 82],
      "AngioFlag": "N",
      "BitsAllocated": 16,
      "BitsStored": 16,
      "BodyPartExamined": "BRAIN",
      "Columns": 656,
      "EchoNumbers": 1,
      "EchoTime": 27.2,
      "EchoTrainLength": 82,
      "FlipAngle": 44.0,
      "HighBit": 15,
      "ImageOrientationPatient": [0.99925989574423, 0.03750392377293, 0.00855081626879, -0.0378637676769, 0.99818875121325, 0.04674988822071],
      "ImagePositionPatient": [-847.70303775688, -918.83152558097, -129.04826521502],
      "ImageType": [
        "ORIGINAL",
        "PRIMARY",
        "M",
        "MB",
        "ND",
        "NORM",
        "MOSAIC"
],
      "ImagedNucleus": "1H",
      "ImagingFrequency": 123.25224,
      "InPlanePhaseEncodingDirection": "COL",
      "MRAcquisitionType": "2D",
      "MagneticFieldStrength": 3.0,
      "Manufacturer": "SIEMENS",
      "ManufacturerModelName": "Prisma",
      "Modality": "MR",
      "NumberOfAverages": 1.0,
      "NumberOfPhaseEncodingSteps": 82,
      "PercentPhaseFieldOfView": 100.0,
      "PercentSampling": 100.0,
      "PerformedProcedureStepStartTime": "181926.038000",
      "PhotometricInterpretation": "MONOCHROME2",
      "PixelBandwidth": 3050.0,
      "PixelRepresentation": 0,
      "PixelSpacing": [2.6829268932343, 2.6829268932343],
      "ProtocolName": "func_run-05_task-social_acq-ap-mb8",
      "RepetitionTime": 460.0,
      "Rows": 656,
      "SAR": 0.0842084677285,
      "SamplesPerPixel": 1,
      "ScanOptions": "FS",
      "ScanningSequence": "EP",
      "SequenceName": "epfid2d1_82",
      "SequenceVariant": [
        "SK",
        "SS"
],
      "SeriesDescription": "func_run-05_task-social_acq-ap-mb8",
      "SeriesNumber": 16,
      "SeriesTime": "190416.800000",
      "SliceLocation": -79.93233528794,
      "SliceThickness": 2.7000000476837,
      "SmallestImagePixelValue": 0,
      "SoftwareVersions": "syngo MR E11",
      "SpacingBetweenSlices": 2.7000000007195,
      "SpecificCharacterSet": "ISO_IR 100",
      "StudyID": "2",
      "StudyTime": "181925.961000",
      "TransmitCoilName": "Body",
      "VariableFlipAngleFlag": "N",
      "WindowCenterWidthExplanation": "Algo1"
    },
    "slices": {}
  },
  "time": {
    "samples": {
      "AcquisitionNumber": [1, 2, 3, 4, 5, 6, 7, 8, 9, 10, 11, 12, 13, 14, 15, 16, 17, 18, 19, 20, 21, 22, 23, 24, 25, 26, 27, 28, 29, 30, 31, 32, 33, 34, 35, 36, 37, 38, 39, 40, 41, 42, 43, 44, 45, 46, 47, 48, 49, 50, 51, 52, 53, 54, 55, 56, 57, 58, 59, 60, 61, 62, 63, 64, 65, 66, 67, 68, 69, 70, 71, 72, 73, 74, 75, 76, 77, 78, 79, 80, 81, 82, 83, 84, 85, 86, 87, 88, 89, 90, 91, 92, 93, 94, 95, 96, 97, 98, 99, 100, 101, 102, 103, 104, 105, 106, 107, 108, 109, 110, 111, 112, 113, 114, 115, 116, 117, 118, 119, 120, 121, 122, 123, 124, 125, 126, 127, 128, 129, 130, 131, 132, 133, 134, 135, 136, 137, 138, 139, 140, 141, 142, 143, 144, 145, 146, 147, 148, 149, 150, 151, 152, 153, 154, 155, 156, 157, 158, 159, 160, 161, 162, 163, 164, 165, 166, 167, 168, 169, 170, 171, 172, 173, 174, 175, 176, 177, 178, 179, 180, 181, 182, 183, 184, 185, 186, 187, 188, 189, 190, 191, 192, 193, 194, 195, 196, 197, 198, 199, 200, 201, 202, 203, 204, 205, 206, 207, 208, 209, 210, 211, 212, 213, 214, 215, 216, 217, 218, 219, 220, 221, 222, 223, 224, 225, 226, 227, 228, 229, 230, 231, 232, 233, 234, 235, 236, 237, 238, 239, 240, 241, 242, 243, 244, 245, 246, 247, 248, 249, 250, 251, 252, 253, 254, 255, 256, 257, 258, 259, 260, 261, 262, 263, 264, 265, 266, 267, 268, 269, 270, 271, 272, 273, 274, 275, 276, 277, 278, 279, 280, 281, 282, 283, 284, 285, 286, 287, 288, 289, 290, 291, 292, 293, 294, 295, 296, 297, 298, 299, 300, 301, 302, 303, 304, 305, 306, 307, 308, 309, 310, 311, 312, 313, 314, 315, 316, 317, 318, 319, 320, 321, 322, 323, 324, 325, 326, 327, 328, 329, 330, 331, 332, 333, 334, 335, 336, 337, 338, 339, 340, 341, 342, 343, 344, 345, 346, 347, 348, 349, 350, 351, 352, 353, 354, 355, 356, 357, 358, 359, 360, 361, 362, 363, 364, 365, 366, 367, 368, 369, 370, 371, 372, 373, 374, 375, 376, 377, 378, 379, 380, 381, 382, 383, 384, 385, 386, 387, 388, 389, 390, 391, 392, 393, 394, 395, 396, 397, 398, 399, 400, 401, 402, 403, 404, 405, 406, 407, 408, 409, 410, 411, 412, 413, 414, 415, 416, 417, 418, 419, 420, 421, 422, 423, 424, 425, 426, 427, 428, 429, 430, 431, 432, 433, 434, 435, 436, 437, 438, 439, 440, 441, 442, 443, 444, 445, 446, 447, 448, 449, 450, 451, 452, 453, 454, 455, 456, 457, 458, 459, 460, 461, 462, 463, 464, 465, 466, 467, 468, 469, 470, 471, 472, 473, 474, 475, 476, 477, 478, 479, 480, 481, 482, 483, 484, 485, 486, 487, 488, 489, 490, 491, 492, 493, 494, 495, 496, 497, 498, 499, 500, 501, 502, 503, 504, 505, 506, 507, 508, 509, 510, 511, 512, 513, 514, 515, 516, 517, 518, 519, 520, 521, 522, 523, 524, 525, 526, 527, 528, 529, 530, 531, 532, 533, 534, 535, 536, 537, 538, 539, 540, 541, 542, 543, 544, 545, 546, 547, 548, 549, 550, 551, 552, 553, 554, 555, 556, 557, 558, 559, 560, 561, 562, 563, 564, 565, 566, 567, 568, 569, 570, 571, 572, 573, 574, 575, 576, 577, 578, 579, 580, 581, 582, 583, 584, 585, 586, 587, 588, 589, 590, 591, 592, 593, 594, 595, 596, 597, 598, 599, 600, 601, 602, 603, 604, 605, 606, 607, 608, 609, 610, 611, 612, 613, 614, 615, 616, 617, 618, 619, 620, 621, 622, 623, 624, 625, 626, 627, 628, 629, 630, 631, 632, 633, 634, 635, 636, 637, 638, 639, 640, 641, 642, 643, 644, 645, 646, 647, 648, 649, 650, 651, 652, 653, 654, 655, 656, 657, 658, 659, 660, 661, 662, 663, 664, 665, 666, 667, 668, 669, 670, 671, 672, 673, 674, 675, 676, 677, 678, 679, 680, 681, 682, 683, 684, 685, 686, 687, 688, 689, 690, 691, 692, 693, 694, 695, 696, 697, 698, 699, 700, 701, 702, 703, 704, 705, 706, 707, 708, 709, 710, 711, 712, 713, 714, 715, 716, 717, 718, 719, 720, 721, 722, 723, 724, 725, 726, 727, 728, 729, 730, 731, 732, 733, 734, 735, 736, 737, 738, 739, 740, 741, 742, 743, 744, 745, 746, 747, 748, 749, 750, 751, 752, 753, 754, 755, 756, 757, 758, 759, 760, 761, 762, 763, 764, 765, 766, 767, 768, 769, 770, 771, 772, 773, 774, 775, 776, 777, 778, 779, 780, 781, 782, 783, 784, 785, 786, 787, 788, 789, 790, 791, 792, 793, 794, 795, 796, 797, 798, 799, 800, 801, 802, 803, 804, 805, 806, 807, 808, 809, 810, 811, 812, 813, 814, 815, 816, 817, 818, 819, 820, 821, 822, 823, 824, 825, 826, 827, 828, 829, 830, 831, 832, 833, 834, 835, 836, 837, 838, 839, 840, 841, 842, 843, 844, 845, 846, 847, 848, 849, 850, 851, 852, 853, 854, 855, 856, 857, 858, 859, 860, 861, 862, 863, 864, 865, 866, 867, 868, 869, 870, 871, 872],
      "AcquisitionTime": ["190356.582500", "190357.042500", "190357.502500", "190357.962500", "190358.422500", "190358.882500", "190359.342500", "190359.802500", "190400.262500", "190400.722500", "190401.182500", "190401.642500", "190402.102500", "190402.562500", "190403.022500", "190403.482500", "190403.942500", "190404.402500", "190404.862500", "190405.322500", "190405.782500", "190406.242500", "190406.702500", "190407.162500", "190407.622500", "190408.082500", "190408.542500", "190409.002500", "190409.462500", "190409.922500", "190410.382500", "190410.842500", "190411.302500", "190411.762500", "190412.222500", "190412.682500", "190413.142500", "190413.602500", "190414.062500", "190414.522500", "190414.982500", "190415.442500", "190415.902500", "190416.362500", "190416.822500", "190417.282500", "190417.742500", "190418.202500", "190418.662500", "190419.122500", "190419.582500", "190420.042500", "190420.502500", "190420.962500", "190421.422500", "190421.882500", "190422.342500", "190422.802500", "190423.262500", "190423.722500", "190424.182500", "190424.642500", "190425.102500", "190425.562500", "190426.022500", "190426.482500", "190426.942500", "190427.402500", "190427.862500", "190428.322500", "190428.782500", "190429.242500", "190429.702500", "190430.162500", "190430.622500", "190431.082500", "190431.542500", "190432.002500", "190432.462500", "190432.922500", "190433.382500", "190433.842500", "190434.302500", "190434.762500", "190435.222500", "190435.682500", "190436.142500", "190436.602500", "190437.062500", "190437.522500", "190437.982500", "190438.442500", "190438.902500", "190439.362500", "190439.822500", "190440.282500", "190440.742500", "190441.202500", "190441.662500", "190442.122500", "190442.582500", "190443.042500", "190443.502500", "190443.962500", "190444.422500", "190444.882500", "190445.342500", "190445.802500", "190446.262500", "190446.722500", "190447.182500", "190447.642500", "190448.102500", "190448.562500", "190449.022500", "190449.482500", "190449.942500", "190450.402500", "190450.862500", "190451.322500", "190451.782500", "190452.242500", "190452.702500", "190453.162500", "190453.622500", "190454.082500", "190454.542500", "190455.002500", "190455.462500", "190455.922500", "190456.382500", "190456.842500", "190457.302500", "190457.762500", "190458.222500", "190458.682500", "190459.142500", "190459.602500", "190500.062500", "190500.522500", "190500.982500", "190501.442500", "190501.902500", "190502.362500", "190502.822500", "190503.282500", "190503.742500", "190504.202500", "190504.662500", "190505.122500", "190505.582500", "190506.042500", "190506.502500", "190506.962500", "190507.422500", "190507.882500", "190508.342500", "190508.802500", "190509.262500", "190509.722500", "190510.182500", "190510.642500", "190511.102500", "190511.562500", "190512.022500", "190512.482500", "190512.942500", "190513.402500", "190513.862500", "190514.322500", "190514.782500", "190515.242500", "190515.702500", "190516.162500", "190516.622500", "190517.082500", "190517.542500", "190518.002500", "190518.462500", "190518.922500", "190519.382500", "190519.842500", "190520.302500", "190520.762500", "190521.222500", "190521.682500", "190522.142500", "190522.602500", "190523.062500", "190523.522500", "190523.982500", "190524.442500", "190524.902500", "190525.362500", "190525.822500", "190526.282500", "190526.742500", "190527.202500", "190527.662500", "190528.122500", "190528.582500", "190529.042500", "190529.502500", "190529.962500", "190530.422500", "190530.882500", "190531.342500", "190531.802500", "190532.262500", "190532.722500", "190533.182500", "190533.642500", "190534.102500", "190534.562500", "190535.022500", "190535.482500", "190535.942500", "190536.402500", "190536.862500", "190537.322500", "190537.782500", "190538.242500", "190538.702500", "190539.162500", "190539.622500", "190540.082500", "190540.542500", "190541.002500", "190541.462500", "190541.922500", "190542.382500", "190542.842500", "190543.302500", "190543.762500", "190544.222500", "190544.682500", "190545.142500", "190545.602500", "190546.062500", "190546.522500", "190546.982500", "190547.442500", "190547.902500", "190548.362500", "190548.822500", "190549.282500", "190549.742500", "190550.202500", "190550.662500", "190551.122500", "190551.582500", "190552.042500", "190552.502500", "190552.962500", "190553.422500", "190553.882500", "190554.342500", "190554.802500", "190555.262500", "190555.722500", "190556.182500", "190556.642500", "190557.102500", "190557.562500", "190558.022500", "190558.482500", "190558.942500", "190559.402500", "190559.862500", "190600.322500", "190600.782500", "190601.242500", "190601.702500", "190602.162500", "190602.622500", "190603.082500", "190603.542500", "190604.002500", "190604.462500", "190604.922500", "190605.382500", "190605.842500", "190606.302500", "190606.762500", "190607.222500", "190607.682500", "190608.142500", "190608.602500", "190609.062500", "190609.522500", "190609.982500", "190610.442500", "190610.902500", "190611.362500", "190611.822500", "190612.282500", "190612.742500", "190613.202500", "190613.662500", "190614.122500", "190614.582500", "190615.042500", "190615.502500", "190615.962500", "190616.422500", "190616.882500", "190617.342500", "190617.802500", "190618.262500", "190618.722500", "190619.182500", "190619.642500", "190620.102500", "190620.562500", "190621.022500", "190621.482500", "190621.942500", "190622.402500", "190622.862500", "190623.322500", "190623.782500", "190624.242500", "190624.702500", "190625.162500", "190625.622500", "190626.082500", "190626.542500", "190627.002500", "190627.462500", "190627.922500", "190628.382500", "190628.842500", "190629.302500", "190629.762500", "190630.222500", "190630.682500", "190631.142500", "190631.602500", "190632.062500", "190632.522500", "190632.982500", "190633.442500", "190633.902500", "190634.362500", "190634.822500", "190635.282500", "190635.742500", "190636.202500", "190636.662500", "190637.122500", "190637.582500", "190638.042500", "190638.502500", "190638.962500", "190639.422500", "190639.882500", "190640.342500", "190640.802500", "190641.262500", "190641.722500", "190642.182500", "190642.642500", "190643.102500", "190643.562500", "190644.022500", "190644.482500", "190644.942500", "190645.402500", "190645.862500", "190646.322500", "190646.782500", "190647.242500", "190647.702500", "190648.162500", "190648.622500", "190649.082500", "190649.542500", "190650.002500", "190650.462500", "190650.922500", "190651.382500", "190651.842500", "190652.302500", "190652.762500", "190653.222500", "190653.682500", "190654.142500", "190654.602500", "190655.062500", "190655.522500", "190655.982500", "190656.442500", "190656.902500", "190657.362500", "190657.822500", "190658.282500", "190658.742500", "190659.202500", "190659.662500", "190700.122500", "190700.582500", "190701.042500", "190701.502500", "190701.962500", "190702.422500", "190702.882500", "190703.342500", "190703.802500", "190704.262500", "190704.722500", "190705.182500", "190705.642500", "190706.102500", "190706.562500", "190707.022500", "190707.482500", "190707.942500", "190708.402500", "190708.862500", "190709.322500", "190709.782500", "190710.242500", "190710.702500", "190711.162500", "190711.622500", "190712.082500", "190712.542500", "190713.002500", "190713.462500", "190713.922500", "190714.382500", "190714.842500", "190715.302500", "190715.762500", "190716.222500", "190716.682500", "190717.142500", "190717.602500", "190718.062500", "190718.522500", "190718.982500", "190719.442500", "190719.902500", "190720.362500", "190720.822500", "190721.282500", "190721.742500", "190722.202500", "190722.662500", "190723.122500", "190723.582500", "190724.042500", "190724.502500", "190724.962500", "190725.422500", "190725.882500", "190726.342500", "190726.802500", "190727.262500", "190727.722500", "190728.182500", "190728.642500", "190729.102500", "190729.562500", "190730.022500", "190730.482500", "190730.942500", "190731.402500", "190731.862500", "190732.322500", "190732.782500", "190733.242500", "190733.702500", "190734.162500", "190734.622500", "190735.082500", "190735.542500", "190736.002500", "190736.462500", "190736.922500", "190737.382500", "190737.842500", "190738.302500", "190738.762500", "190739.222500", "190739.682500", "190740.142500", "190740.602500", "190741.062500", "190741.522500", "190741.982500", "190742.442500", "190742.902500", "190743.362500", "190743.822500", "190744.282500", "190744.742500", "190745.202500", "190745.662500", "190746.122500", "190746.582500", "190747.042500", "190747.502500", "190747.962500", "190748.422500", "190748.882500", "190749.342500", "190749.802500", "190750.262500", "190750.722500", "190751.182500", "190751.642500", "190752.102500", "190752.562500", "190753.022500", "190753.482500", "190753.942500", "190754.402500", "190754.862500", "190755.322500", "190755.782500", "190756.242500", "190756.702500", "190757.162500", "190757.622500", "190758.082500", "190758.542500", "190759.002500", "190759.462500", "190759.922500", "190800.382500", "190800.842500", "190801.302500", "190801.762500", "190802.222500", "190802.682500", "190803.142500", "190803.602500", "190804.062500", "190804.522500", "190804.982500", "190805.442500", "190805.902500", "190806.362500", "190806.822500", "190807.282500", "190807.742500", "190808.202500", "190808.662500", "190809.122500", "190809.582500", "190810.042500", "190810.502500", "190810.962500", "190811.422500", "190811.882500", "190812.342500", "190812.802500", "190813.262500", "190813.722500", "190814.182500", "190814.642500", "190815.102500", "190815.562500", "190816.022500", "190816.482500", "190816.942500", "190817.402500", "190817.862500", "190818.322500", "190818.782500", "190819.242500", "190819.702500", "190820.162500", "190820.622500", "190821.082500", "190821.542500", "190822.002500", "190822.462500", "190822.922500", "190823.382500", "190823.842500", "190824.302500", "190824.762500", "190825.222500", "190825.682500", "190826.142500", "190826.602500", "190827.062500", "190827.522500", "190827.982500", "190828.442500", "190828.902500", "190829.362500", "190829.822500", "190830.282500", "190830.742500", "190831.202500", "190831.662500", "190832.122500", "190832.582500", "190833.042500", "190833.502500", "190833.962500", "190834.422500", "190834.882500", "190835.342500", "190835.802500", "190836.262500", "190836.722500", "190837.182500", "190837.642500", "190838.102500", "190838.562500", "190839.022500", "190839.482500", "190839.942500", "190840.402500", "190840.862500", "190841.322500", "190841.782500", "190842.242500", "190842.702500", "190843.162500", "190843.622500", "190844.082500", "190844.542500", "190845.002500", "190845.462500", "190845.922500", "190846.382500", "190846.842500", "190847.302500", "190847.762500", "190848.222500", "190848.682500", "190849.142500", "190849.602500", "190850.062500", "190850.522500", "190850.982500", "190851.442500", "190851.902500", "190852.362500", "190852.822500", "190853.282500", "190853.742500", "190854.202500", "190854.662500", "190855.122500", "190855.582500", "190856.042500", "190856.502500", "190856.962500", "190857.422500", "190857.882500", "190858.342500", "190858.802500", "190859.262500", "190859.722500", "190900.182500", "190900.642500", "190901.102500", "190901.562500", "190902.022500", "190902.482500", "190902.942500", "190903.402500", "190903.862500", "190904.322500", "190904.782500", "190905.242500", "190905.702500", "190906.162500", "190906.622500", "190907.082500", "190907.542500", "190908.002500", "190908.462500", "190908.922500", "190909.382500", "190909.842500", "190910.302500", "190910.762500", "190911.222500", "190911.682500", "190912.142500", "190912.602500", "190913.062500", "190913.522500", "190913.982500", "190914.442500", "190914.902500", "190915.362500", "190915.822500", "190916.282500", "190916.742500", "190917.202500", "190917.662500", "190918.122500", "190918.582500", "190919.042500", "190919.502500", "190919.962500", "190920.422500", "190920.882500", "190921.342500", "190921.802500", "190922.262500", "190922.722500", "190923.182500", "190923.642500", "190924.102500", "190924.562500", "190925.022500", "190925.482500", "190925.942500", "190926.402500", "190926.862500", "190927.322500", "190927.782500", "190928.242500", "190928.702500", "190929.162500", "190929.622500", "190930.082500", "190930.542500", "190931.002500", "190931.462500", "190931.922500", "190932.382500", "190932.842500", "190933.302500", "190933.762500", "190934.222500", "190934.682500", "190935.142500", "190935.602500", "190936.062500", "190936.522500", "190936.982500", "190937.442500", "190937.902500", "190938.362500", "190938.822500", "190939.282500", "190939.742500", "190940.202500", "190940.662500", "190941.122500", "190941.582500", "190942.042500", "190942.502500", "190942.962500", "190943.422500", "190943.882500", "190944.342500", "190944.802500", "190945.262500", "190945.722500", "190946.182500", "190946.642500", "190947.102500", "190947.562500", "190948.022500", "190948.482500", "190948.942500", "190949.402500", "190949.862500", "190950.322500", "190950.782500", "190951.242500", "190951.702500", "190952.162500", "190952.622500", "190953.082500", "190953.542500", "190954.002500", "190954.462500", "190954.922500", "190955.382500", "190955.842500", "190956.302500", "190956.762500", "190957.222500", "190957.682500", "190958.142500", "190958.602500", "190959.062500", "190959.522500", "190959.982500", "191000.442500", "191000.902500", "191001.362500", "191001.822500", "191002.282500", "191002.742500", "191003.202500", "191003.662500", "191004.122500", "191004.582500", "191005.042500", "191005.502500", "191005.962500", "191006.422500", "191006.882500", "191007.342500", "191007.802500", "191008.262500", "191008.722500", "191009.182500", "191009.642500", "191010.102500", "191010.562500", "191011.022500", "191011.482500", "191011.942500", "191012.402500", "191012.862500", "191013.322500", "191013.782500", "191014.242500", "191014.702500", "191015.162500", "191015.622500", "191016.082500", "191016.542500", "191017.002500", "191017.462500", "191017.922500", "191018.382500", "191018.842500", "191019.302500", "191019.762500", "191020.222500", "191020.682500", "191021.142500", "191021.602500", "191022.062500", "191022.522500", "191022.982500", "191023.442500", "191023.902500", "191024.362500", "191024.822500", "191025.282500", "191025.742500", "191026.202500", "191026.662500", "191027.122500", "191027.582500", "191028.042500", "191028.502500", "191028.962500", "191029.422500", "191029.882500", "191030.342500", "191030.802500", "191031.262500", "191031.722500", "191032.182500", "191032.642500", "191033.102500", "191033.562500", "191034.022500", "191034.482500", "191034.942500", "191035.402500", "191035.862500", "191036.322500", "191036.782500", "191037.242500"],
