{
  "AcquisitionMatrixPE": 140,
  "AcquisitionNumber": 1,
  "AcquisitionTime": "15:17:1.135000",
  "BandwidthPerPixelPhaseEncode": 10.352,
  "BaseResolution": 140,
  "BodyPartExamined": "BRAIN",
  "ConsistencyInfo": "N4_VE11C_LATEST_20160120",
  "ConversionSoftware": "dcm2niix",
  "ConversionSoftwareVersion": "v1.0.20201102",
  "DerivedVendorReportedEchoSpacing": 0.000689998,
  "DeviceSerialNumber": "66112",
  "DiffusionScheme": "Monopolar",
  "DwellTime": 2.1e-06,
  "EchoTime": 0.0884,
  "EchoTrainLength": 105,
  "EffectiveEchoSpacing": 0.000689998,
  "FlipAngle": 90,
  "ImageComments": "Unaliased MB3/PE3 SENSE1",
  "ImageOrientationPatientDICOM": [0.997797, 0.0662978, 0.00231983, -0.0643498, 0.975792, -0.209018],
  "ImageType": [
    "ORIGINAL",
    "PRIMARY",
    "DIFFUSION",
    "NONE",
    "MB",
    "ND",
    "MOSAIC"
],
  "ImagingFrequency": 123.253,
  "InPlanePhaseEncodingDirectionDICOM": "COL",
  "InstitutionAddress": "Maynard 3,Hanover,NH,US,03755",
  "InstitutionName": "Dartmouth College - PBS",
  "InstitutionalDepartmentName": "Department",
  "MRAcquisitionType": "2D",
  "MagneticFieldStrength": 3,
  "Manufacturer": "Siemens",
  "ManufacturersModelName": "Prisma",
  "Modality": "MR",
  "MultibandAccelerationFactor": 3,
  "PartialFourier": 0.75,
  "PatientPosition": "HFS",
  "PercentPhaseFOV": 100,
  "PercentSampling": 100,
  "PhaseEncodingDirection": "j-",
  "PhaseEncodingSteps": 105,
  "PhaseResolution": 1,
  "PixelBandwidth": 1700,
  "ProcedureStepDescription": "Wager_Wager^1076_spacetop",
  "ProtocolName": "dwi_acq-96dir-6b0-mb",
  "PulseSequenceDetails": "%CustomerSeq%\\cmrr_mbep2d_diff",
  "ReceiveCoilActiveElements": "HEA;HEP",
  "ReceiveCoilName": "Head_32",
  "ReconMatrixPE": 140,
  "RepetitionTime": 4.11,
  "SAR": 0.219573,
  "ScanOptions": "PFP\\FS",
  "ScanningSequence": "EP",
  "SequenceName": "ep_b5#1",
  "SequenceVariant": "SK\\SS",
  "SeriesDescription": "dwi_acq-96dir-6b0-mb",
  "SeriesNumber": 8,
  "ShimSetting": [4166, -7778, -7234, 616, 42, -306, 50, 43],
  "SliceThickness": 1.7,
  "SliceTiming": [0, 2.12, 0.15, 2.2725, 0.3025, 2.4225, 0.4525, 2.575, 0.605, 2.725, 0.7575, 2.8775, 0.9075, 3.0275, 1.06, 3.18, 1.21, 3.3325, 1.3625, 3.4825, 1.515, 3.635, 1.665, 3.785, 1.8175, 3.9375, 1.9675, 0, 2.12, 0.15, 2.2725, 0.3025, 2.4225, 0.4525, 2.575, 0.605, 2.725, 0.7575, 2.8775, 0.9075, 3.0275, 1.06, 3.18, 1.21, 3.3325, 1.3625, 3.4825, 1.515, 3.635, 1.665, 3.785, 1.8175, 3.9375, 1.9675, 0, 2.12, 0.15, 2.2725, 0.3025, 2.4225, 0.4525, 2.575, 0.605, 2.725, 0.7575, 2.8775, 0.9075, 3.0275, 1.06, 3.18, 1.21, 3.3325, 1.3625, 3.4825, 1.515, 3.635, 1.665, 3.785, 1.8175, 3.9375, 1.9675],
  "SoftwareVersions": "syngo MR E11",
  "SpacingBetweenSlices": 1.7,
  "StationName": "AWP66112",
  "TotalReadoutTime": 0.0959097,
  "TxRefAmp": 235.085,
  "WipMemBlock": "60a495f5-0641-4121-949a-44539613fa31||Sequence: R016 ve11c/master r/e634e98; Dec 19 2017 11:11:25 by eja",
  "dcmmeta_affine": [
    [-1.7105094194412231, -0.11031387746334076, 0.02740583010017872, 127.84408569335938],
    [-0.11365338414907455, 1.6727869510650635, -0.35429322719573975, -78.5106430053711],
    [0.003976856358349323, 0.35831570625305176, 1.6624455451965332, -78.23992156982422],
    [0.0, 0.0, 0.0, 1.0]
],
  "dcmmeta_reorient_transform": [
    [0.0, -1.0, 0.0, 139.0],
    [1.0, 0.0, 0.0, 0.0],
    [0.0, 0.0, 1.0, 0.0],
    [0.0, 0.0, 0.0, 1.0]
],
  "dcmmeta_shape": [140, 140, 81, 103],
  "dcmmeta_slice_dim": 2,
  "dcmmeta_version": 0.6,
  "global": {
    "const": {
      "AccessionNumber": "A003583",
      "AcquisitionMatrix": [140, 0, 0, 140],
      "AngioFlag": "N",
      "BitsAllocated": 16,
      "BitsStored": 16,
      "BodyPartExamined": "BRAIN",
      "Columns": 1260,
      "EchoNumbers": 1,
      "EchoTime": 88.4,
      "EchoTrainLength": 105,
      "FlipAngle": 90.0,
      "HighBit": 15,
      "ImageOrientationPatient": [0.99779718343126, 0.06629780623547, 0.00231983297121, -0.0643497600554, 0.97579239328795, -0.2090174958758],
      "ImagePositionPatient": [-1008.6199930531, -1154.4133497461, 169.99572333279],
      "ImageType": [
        "ORIGINAL",
        "PRIMARY",
        "DIFFUSION",
        "NONE",
        "MB",
        "ND",
        "MOSAIC"
],
      "ImagedNucleus": "1H",
      "ImagingFrequency": 123.252539,
      "InPlanePhaseEncodingDirection": "COL",
      "MRAcquisitionType": "2D",
      "MagneticFieldStrength": 3.0,
      "Manufacturer": "SIEMENS",
      "ManufacturerModelName": "Prisma",
      "Modality": "MR",
      "NumberOfAverages": 1.0,
      "NumberOfPhaseEncodingSteps": 105,
      "PercentPhaseFieldOfView": 100.0,
      "PercentSampling": 100.0,
      "PerformedProcedureStepStartTime": "144530.354000",
      "PhotometricInterpretation": "MONOCHROME2",
      "PixelBandwidth": 1700.0,
      "PixelRepresentation": 0,
      "PixelSpacing": [1.7142857313156, 1.7142857313156],
      "ProtocolName": "dwi_acq-96dir-6b0-mb",
      "RepetitionTime": 4110.0,
      "Rows": 1260,
      "SAR": 0.2195729625632,
      "SamplesPerPixel": 1,
      "ScanOptions": [
        "PFP",
        "FS"
],
      "ScanningSequence": "EP",
      "SequenceVariant": [
        "SK",
        "SS"
],
      "SeriesDescription": "dwi_acq-96dir-6b0-mb",
      "SeriesNumber": 8,
      "SeriesTime": "151802.717000",
      "SliceLocation": -58.08831902079,
      "SliceThickness": 1.7000000476837,
      "SmallestImagePixelValue": 0,
      "SoftwareVersions": "syngo MR E11",
      "SpacingBetweenSlices": 1.6999999910153,
      "SpecificCharacterSet": "ISO_IR 100",
      "StudyID": "1",
      "StudyTime": "144530.223000",
      "TransmitCoilName": "Body",
      "VariableFlipAngleFlag": "N",
      "WindowCenterWidthExplanation": "Algo1",
      "dBdt": 0.0},
    "slices": {}
  },
  "time": {
    "samples": {
      "AcquisitionNumber": [1, 2, 3, 4, 5, 6, 7, 8, 9, 10, 11, 12, 13, 14, 15, 16, 17, 18, 19, 20, 21, 22, 23, 24, 25, 26, 27, 28, 29, 30, 31, 32, 33, 34, 35, 36, 37, 38, 39, 40, 41, 42, 43, 44, 45, 46, 47, 48, 49, 50, 51, 52, 53, 54, 55, 56, 57, 58, 59, 60, 61, 62, 63, 64, 65, 66, 67, 68, 69, 70, 71, 72, 73, 74, 75, 76, 77, 78, 79, 80, 81, 82, 83, 84, 85, 86, 87, 88, 89, 90, 91, 92, 93, 94, 95, 96, 97, 98, 99, 100, 101, 102, 103],
      "AcquisitionTime": ["151701.135000", "151705.245000", "151709.355000", "151713.465000", "151717.575000", "151721.685000", "151725.795000", "151729.905000", "151734.015000", "151738.125000", "151742.235000", "151746.345000", "151750.455000", "151754.565000", "151758.675000", "151802.785000", "151806.895000", "151811.005000", "151815.115000", "151819.225000", "151823.335000", "151827.445000", "151831.555000", "151835.665000", "151839.775000", "151843.885000", "151847.995000", "151852.105000", "151856.215000", "151900.325000", "151904.435000", "151908.545000", "151912.655000", "151916.765000", "151920.875000", "151924.985000", "151929.095000", "151933.205000", "151937.315000", "151941.425000", "151945.535000", "151949.645000", "151953.755000", "151957.865000", "152001.975000", "152006.085000", "152010.195000", "152014.305000", "152018.415000", "152022.525000", "152026.635000", "152030.745000", "152034.855000", "152038.965000", "152043.075000", "152047.185000", "152051.295000", "152055.405000", "152059.515000", "152103.625000", "152107.735000", "152111.845000", "152115.955000", "152120.065000", "152124.175000", "152128.285000", "152132.395000", "152136.505000", "152140.615000", "152144.725000", "152148.835000", "152152.945000", "152157.055000", "152201.165000", "152205.275000", "152209.385000", "152213.495000", "152217.605000", "152221.715000", "152225.825000", "152229.935000", "152234.045000", "152238.155000", "152242.265000", "152246.375000", "152250.485000", "152254.595000", "152258.705000", "152302.815000", "152306.925000", "152311.035000", "152315.145000", "152319.255000", "152323.365000", "152327.475000", "152331.585000", "152335.695000", "152339.805000", "152343.915000", "152348.025000", "152352.135000", "152356.245000", "152400.355000"],
      "ContentTime": ["151802.721000", "151802.725000", "151802.739000", "151802.742000", "151802.745000", "151802.748000", "151802.752000", "151802.755000", "151802.758000", "151802.762000", "151802.765000", "151802.768000", "151802.772000", "151802.775000", "151922.716000", "151922.720000", "151922.723000", "151922.726000", "151922.730000", "151922.733000", "151922.736000", "151922.740000", "151922.743000", "151922.746000", "151922.759000", "151922.762000", "151922.765000", "151922.769000", "151922.776000", "151922.780000", "151922.783000", "151922.786000", "151922.790000", "151922.793000", "152102.716000", "152102.728000", "152102.731000", "152102.734000", "152102.738000", "152102.741000", "152102.744000", "152102.747000", "152102.751000", "152102.754000", "152102.757000", "152102.761000", "152102.764000", "152102.767000", "152102.774000", "152102.777000", "152102.781000", "152102.784000", "152102.787000", "152102.791000", "152102.794000", "152102.797000", "152102.801000", "152102.804000", "152222.716000", "152222.720000", "152222.723000", "152222.726000", "152222.730000", "152222.733000", "152222.736000", "152222.740000", "152222.743000", "152222.746000", "152222.750000", "152222.753000", "152222.756000", "152222.759000", "152222.763000", "152222.766000", "152222.770000", "152222.773000", "152222.776000", "152222.779000", "152402.716000", "152402.720000", "152402.723000", "152402.727000", "152402.730000", "152402.733000", "152402.737000", "152402.740000", "152402.743000", "152402.747000", "152402.750000", "152402.753000", "152402.756000", "152402.760000", "152402.763000", "152402.766000", "152402.770000", "152402.773000", "152402.776000", "152402.779000", "152402.783000", "152402.786000", "152402.789000", "152402.793000", "152405.426000"],
      "InstanceCreationTime": ["151802.721000", "151802.725000", "151802.739000", "151802.742000", "151802.745000", "151802.748000", "151802.752000", "151802.755000", "151802.758000", "151802.762000", "151802.765000", "151802.768000", "151802.772000", "151802.775000", "151922.716000", "151922.720000", "151922.723000", "151922.726000", "151922.730000", "151922.733000", "151922.736000", "151922.740000", "151922.743000", "151922.746000", "151922.759000", "151922.762000", "151922.765000", "151922.769000", "151922.776000", "151922.780000", "151922.783000", "151922.786000", "151922.790000", "151922.793000", "152102.716000", "152102.728000", "152102.731000", "152102.734000", "152102.738000", "152102.741000", "152102.744000", "152102.747000", "152102.751000", "152102.754000", "152102.757000", "152102.761000", "152102.764000", "152102.767000", "152102.774000", "152102.777000", "152102.781000", "152102.784000", "152102.787000", "152102.791000", "152102.794000", "152102.797000", "152102.801000", "152102.804000", "152222.716000", "152222.720000", "152222.723000", "152222.726000", "152222.730000", "152222.733000", "152222.736000", "152222.740000", "152222.743000", "152222.746000", "152222.750000", "152222.753000", "152222.756000", "152222.759000", "152222.763000", "152222.766000", "152222.770000", "152222.773000", "152222.776000", "152222.779000", "152402.716000", "152402.720000", "152402.723000", "152402.727000", "152402.730000", "152402.733000", "152402.737000", "152402.740000", "152402.743000", "152402.747000", "152402.750000", "152402.753000", "152402.756000", "152402.760000", "152402.763000", "152402.766000", "152402.770000", "152402.773000", "152402.776000", "152402.779000", "152402.783000", "152402.786000", "152402.789000", "152402.793000", "152405.426000"],
      "InstanceNumber": [1, 2, 3, 4, 5, 6, 7, 8, 9, 10, 11, 12, 13, 14, 15, 16, 17, 18, 19, 20, 21, 22, 23, 24, 25, 26, 27, 28, 29, 30, 31, 32, 33, 34, 35, 36, 37, 38, 39, 40, 41, 42, 43, 44, 45, 46, 47, 48, 49, 50, 51, 52, 53, 54, 55, 56, 57, 58, 59, 60, 61, 62, 63, 64, 65, 66, 67, 68, 69, 70, 71, 72, 73, 74, 75, 76, 77, 78, 79, 80, 81, 82, 83, 84, 85, 86, 87, 88, 89, 90, 91, 92, 93, 94, 95, 96, 97, 98, 99, 100, 101, 102, 103],
      "LargestImagePixelValue": [65535, 65535, 38430, 37278, 37327, 37577, 39024, 39071, 65535, 25592, 26378, 26910, 26542, 27502, 26994, 26401, 25719, 25724, 27101, 25559, 25763, 26180, 28573, 25505, 65535, 14774, 16311, 14887, 13624, 15263, 15591, 13811, 15970, 13070, 14068, 15847, 14592, 14068, 14075, 14221, 65535, 9703, 8305, 10700, 9067, 7613, 7902, 8847, 7694, 9301, 8668, 8804, 9130, 9416, 9590, 8926, 12885, 7788, 11172, 10784, 8232, 11469, 8616, 8437, 8423, 9196, 8722, 7909, 8735, 9624, 10655, 8447, 8873, 65535, 8432, 7800, 7964, 7988, 9202, 8352, 9137, 9472, 8650, 8791, 10119, 8863, 8631, 7944, 8153, 8496, 9117, 8413, 9792, 8281, 11796, 13111, 8276, 7740, 8698, 7613, 11980, 8965, 65535],
      "SequenceName": [
 "ep_b5#1",
 "ep_b5#1",
 "ep_b500#2",
 "ep_b495#3",
 "ep_b500#4",
 "ep_b505#5",
 "ep_b495#6",
 "ep_b500#7",
 "ep_b5#8",
 "ep_b1000#9",
 "ep_b1005#10",
 "ep_b995#11",
 "ep_b1005#12",
 "ep_b995#13",
 "ep_b995#14",
 "ep_b1005#15",
 "ep_b1000#16",
 "ep_b1005#17",
 "ep_b1000#18",
 "ep_b1000#19",
 "ep_b995#20",
 "ep_b995#21",
 "ep_b1005#22",
 "ep_b1000#23",
 "ep_b5#24",
 "ep_b2000#25",
 "ep_b1995#26",
 "ep_b1990#27",
 "ep_b2000#28",
 "ep_b2005#29",
 "ep_b2010#30",
 "ep_b2000#31",
 "ep_b2010#32",
 "ep_b2000#33",
 "ep_b1995#34",
 "ep_b1995#35",
 "ep_b2005#36",
 "ep_b1995#37",
 "ep_b2005#38",
 "ep_b1995#39",
 "ep_b5#40",
 "ep_b3000#41",
 "ep_b3010#42",
 "ep_b3010#43",
 "ep_b3010#44",
 "ep_b3000#45",
 "ep_b3000#46",
 "ep_b2990#47",
 "ep_b3005#48",
 "ep_b3005#49",
 "ep_b2990#50",
 "ep_b2990#51",
 "ep_b3000#52",
 "ep_b2995#53",
 "ep_b3005#54",
 "ep_b3000#55",
 "ep_b2995#56",
 "ep_b2995#57",
 "ep_b2990#58",
 "ep_b2990#59",
 "ep_b2995#60",
 "ep_b2990#61",
 "ep_b2995#62",
 "ep_b3000#63",
 "ep_b3000#64",
 "ep_b3005#65",
 "ep_b2995#66",
 "ep_b3000#67",
 "ep_b3005#68",
 "ep_b3005#69",
 "ep_b3005#70",
 "ep_b3005#71",
 "ep_b2990#72",
 "ep_b5#73",
 "ep_b3010#74",
 "ep_b3005#75",
 "ep_b3010#76",
 "ep_b3000#77",
 "ep_b2990#78",
 "ep_b3005#79",
 "ep_b2995#80",
 "ep_b3010#81",
 "ep_b3005#82",
 "ep_b3005#83",
 "ep_b3000#84",
 "ep_b3000#85",
 "ep_b3010#86",
 "ep_b3010#87",
 "ep_b2990#88",
 "ep_b3010#89",
 "ep_b2995#90",
 "ep_b2990#91",
 "ep_b2990#92",
 "ep_b2995#93",
 "ep_b3005#94",
 "ep_b3005#95",
 "ep_b3000#96",
 "ep_b2995#97",
 "ep_b2990#98",
 "ep_b2995#99",
 "ep_b2995#100",
 "ep_b2995#101",
 "ep_b5#102"
],
      "WindowCenter": [11112.0, 11122.0, 7582.0, 7637.0, 7597.0, 7522.0, 7662.0, 7617.0, 11137.0, 5647.0, 5619.0, 5667.0, 5591.0, 5671.0, 5660.0, 5628.0, 5644.0, 5611.0, 5677.0, 5626.0, 5699.0, 5645.0, 5655.0, 5664.0, 11122.0, 3619.0, 3641.0, 3619.0, 3666.0, 3616.0, 3615.0, 3609.0, 3590.0, 3599.0, 3670.0, 3678.0, 3564.0, 3603.0, 3630.0, 3619.0, 11139.0, 2540.0, 2436.0, 2573.0, 2521.0, 2447.0, 2471.0, 2554.0, 2415.0, 2486.0, 2483.0, 2522.0, 2541.0, 2546.0, 2553.0, 2485.0, 2633.0, 2430.0, 2619.0, 2592.0, 2495.0, 2593.0, 2568.0, 2521.0, 2512.0, 2563.0, 2478.0, 2470.0, 2505.0, 2541.0, 2548.0, 2533.0, 2564.0, 11134.0, 2486.0, 2446.0, 2409.0, 2469.0, 2496.0, 2448.0, 2483.0, 2503.0, 2517.0, 2447.0, 2561.0, 2504.0, 2455.0, 2406.0, 2463.0, 2468.0, 2529.0, 2467.0, 2532.0, 2509.0, 2577.0, 2631.0, 2521.0, 2431.0, 2527.0, 2430.0, 2608.0, 2556.0, 11136.0],
      "WindowWidth": [26095.0, 26132.0, 15942.0, 16053.0, 15969.0, 15825.0, 16100.0, 16007.0, 26171.0, 12040.0, 11998.0, 12080.0, 11946.0, 12092.0, 12072.0, 12003.0, 12043.0, 11987.0, 12095.0, 12003.0, 12138.0, 12042.0, 12050.0, 12063.0, 26120.0, 8153.0, 8186.0, 8146.0, 8242.0, 8134.0, 8123.0, 8141.0, 8090.0, 8134.0, 8243.0, 8252.0, 8045.0, 8125.0, 8163.0, 8157.0, 26186.0, 6095.0, 5903.0, 6133.0, 6026.0, 5953.0, 5995.0, 6106.0, 5877.0, 5987.0, 5959.0, 6026.0, 6103.0, 6123.0, 6113.0, 5989.0, 6242.0, 5913.0, 6197.0, 6142.0, 6030.0, 6154.0, 6139.0, 6077.0, 6073.0, 6119.0, 5989.0, 5988.0, 6035.0, 6101.0, 6096.0, 6091.0, 6113.0, 26180.0, 5972.0, 5951.0, 5848.0, 5980.0, 5992.0, 5926.0, 5975.0, 5987.0, 6054.0, 5916.0, 6121.0, 6037.0, 5918.0, 5832.0, 5947.0, 5929.0, 6072.0, 5968.0, 6053.0, 6056.0, 6128.0, 6231.0, 6079.0, 5914.0, 6055.0, 5908.0, 6195.0, 6128.0, 26150.0]
    },
    "slices": {}
  }
}