{
  "AcquisitionMatrixPE": 82,
  "AcquisitionNumber": 1,
  "AcquisitionTime": "09:28:32.675000",
  "BandwidthPerPixelPhaseEncode": 24.888,
  "BaseResolution": 82,
  "BodyPartExamined": "BRAIN",
  "ConsistencyInfo": "N4_VE11E_LATEST_20181129",
  "ConversionSoftware": "dcm2niix",
  "ConversionSoftwareVersion": "v1.0.20201102",
  "DerivedVendorReportedEchoSpacing": 0.00049,
  "DeviceSerialNumber": "66112",
  "DwellTime": 2e-06,
  "EchoTime": 0.0272,
  "EchoTrainLength": 82,
  "EffectiveEchoSpacing": 0.00049,
  "FlipAngle": 44,
  "ImageComments": "Unaliased MB8/PE3",
  "ImageOrientationPatientDICOM": [0.9996, 0.0277407, -0.00547512, -0.0270484, 0.994542, 0.100765],
  "ImageType": [
    "ORIGINAL",
    "PRIMARY",
    "M",
    "MB",
    "ND",
    "NORM",
    "MOSAIC"
],
  "ImagingFrequency": 123.252,
  "InPlanePhaseEncodingDirectionDICOM": "COL",
  "InstitutionAddress": "Maynard 3,Hanover,NH,US,03755",
  "InstitutionName": "Dartmouth College - PBS",
  "InstitutionalDepartmentName": "Department",
  "MRAcquisitionType": "2D",
  "MagneticFieldStrength": 3,
  "Manufacturer": "Siemens",
  "ManufacturersModelName": "Prisma",
  "Modality": "MR",
  "MultibandAccelerationFactor": 8,
  "PartialFourier": 1,
  "PatientPosition": "HFS",
  "PercentPhaseFOV": 100,
  "PercentSampling": 100,
  "PhaseEncodingDirection": "j-",
  "PhaseEncodingSteps": 82,
  "PhaseResolution": 1,
  "PixelBandwidth": 3050,
  "ProcedureStepDescription": "Wager_Wager^1076_spacetop",
  "ProtocolName": "func_run-03_task-faces_acq-ap-mb8",
  "PulseSequenceDetails": "%CustomerSeq%\\cmrr_mbep2d_bold",
  "ReceiveCoilActiveElements": "HEA;HEP",
  "ReceiveCoilName": "Head_32",
  "ReconMatrixPE": 82,
  "RepetitionTime": 0.46,
  "SAR": 0.0755341,
  "ScanOptions": "FS",
  "ScanningSequence": "EP",
  "SequenceName": "epfid2d1_82",
  "SequenceVariant": "SK\\SS",
  "SeriesDescription": "func_run-03_task-faces_acq-ap-mb8",
  "SeriesNumber": 20,
  "ShimSetting": [4138, -7763, -7227, 803, -82, -182, -73, 91],
  "SliceThickness": 2.7,
  "SliceTiming": [0, 0.2525, 0.0625, 0.315, 0.1275, 0.3775, 0.19, 0, 0.2525, 0.0625, 0.315, 0.1275, 0.3775, 0.19, 0, 0.2525, 0.0625, 0.315, 0.1275, 0.3775, 0.19, 0, 0.2525, 0.0625, 0.315, 0.1275, 0.3775, 0.19, 0, 0.2525, 0.0625, 0.315, 0.1275, 0.3775, 0.19, 0, 0.2525, 0.0625, 0.315, 0.1275, 0.3775, 0.19, 0, 0.2525, 0.0625, 0.315, 0.1275, 0.3775, 0.19, 0, 0.2525, 0.0625, 0.315, 0.1275, 0.3775, 0.19],
  "SoftwareVersions": "syngo MR E11",
  "SpacingBetweenSlices": 2.7,
  "StationName": "AWP66112",
  "TaskName": "faces",
  "TotalReadoutTime": 0.03969,
  "TxRefAmp": 230.667,
  "WipMemBlock": "aa228795-3e62-4b93-ab54-6ef652e38824||Sequence: R016 ve11e/master r/434b28f1; Aug  7 2019 18:53:46 by eja",
  "dcmmeta_affine": [
    [-2.681854248046875, -0.07256900519132614, -0.022249452769756317, 114.79528045654297],
    [-0.07442634552717209, 2.6682848930358887, 0.27155742049217224, -102.05162048339844],
    [-0.014689341187477112, -0.27034565806388855, 2.6862170696258545, -53.598201751708984],
    [0.0, 0.0, 0.0, 1.0]
],
  "dcmmeta_reorient_transform": [
    [0.0, -1.0, 0.0, 81.0],
    [1.0, 0.0, 0.0, 0.0],
    [0.0, 0.0, 1.0, 0.0],
    [0.0, 0.0, 0.0, 1.0]
],
  "dcmmeta_shape": [82, 82, 56, 914],
  "dcmmeta_slice_dim": 2,
  "dcmmeta_version": 0.6,
  "global": {
    "const": {
      "AccessionNumber": "A004051",
      "AcquisitionMatrix": [82, 0, 0, 82],
      "AngioFlag": "N",
      "BitsAllocated": 16,
      "BitsStored": 16,
      "BodyPartExamined": "BRAIN",
      "Columns": 656,
      "EchoNumbers": 1,
      "EchoTime": 27.2,
      "EchoTrainLength": 82,
      "FlipAngle": 44.0,
      "HighBit": 15,
      "ImageOrientationPatient": [0.99960015757469, 0.02774072926177, -0.0054751179598, -0.0270484475834, 0.99454248557865, 0.10076520164409],
      "ImagePositionPatient": [-857.78202634265, -901.23753746566, -148.86956549739],
      "ImageType": [
        "ORIGINAL",
        "PRIMARY",
        "M",
        "MB",
        "ND",
        "NORM",
        "MOSAIC"
],
      "ImagedNucleus": "1H",
      "ImagingFrequency": 123.252203,
      "InPlanePhaseEncodingDirection": "COL",
      "MRAcquisitionType": "2D",
      "MagneticFieldStrength": 3.0,
      "Manufacturer": "SIEMENS",
      "ManufacturerModelName": "Prisma",
      "Modality": "MR",
      "NumberOfAverages": 1.0,
      "NumberOfPhaseEncodingSteps": 82,
      "PercentPhaseFieldOfView": 100.0,
      "PercentSampling": 100.0,
      "PerformedProcedureStepStartTime": "082217.410000",
      "PhotometricInterpretation": "MONOCHROME2",
      "PixelBandwidth": 3050.0,
      "PixelRepresentation": 0,
      "PixelSpacing": [2.6829268932343, 2.6829268932343],
      "ProtocolName": "func_run-03_task-faces_acq-ap-mb8",
      "RepetitionTime": 460.0,
      "Rows": 656,
      "SAR": 0.07553407477888,
      "SamplesPerPixel": 1,
      "ScanOptions": "FS",
      "ScanningSequence": "EP",
      "SequenceName": "epfid2d1_82",
      "SequenceVariant": [
        "SK",
        "SS"
],
      "SeriesDescription": "func_run-03_task-faces_acq-ap-mb8",
      "SeriesNumber": 20,
      "SeriesTime": "092857.684000",
      "SliceLocation": -64.534592780594,
      "SliceThickness": 2.7000000476837,
      "SmallestImagePixelValue": 0,
      "SoftwareVersions": "syngo MR E11",
      "SpacingBetweenSlices": 2.7000000557494,
      "SpecificCharacterSet": "ISO_IR 100",
      "StudyID": "2",
      "StudyTime": "082217.297000",
      "TransmitCoilName": "Body",
      "VariableFlipAngleFlag": "N",
      "WindowCenterWidthExplanation": "Algo1"
    },
    "slices": {}
  },
  "time": {
    "samples": {
      "AcquisitionNumber": [1, 2, 3, 4, 5, 6, 7, 8, 9, 10, 11, 12, 13, 14, 15, 16, 17, 18, 19, 20, 21, 22, 23, 24, 25, 26, 27, 28, 29, 30, 31, 32, 33, 34, 35, 36, 37, 38, 39, 40, 41, 42, 43, 44, 45, 46, 47, 48, 49, 50, 51, 52, 53, 54, 55, 56, 57, 58, 59, 60, 61, 62, 63, 64, 65, 66, 67, 68, 69, 70, 71, 72, 73, 74, 75, 76, 77, 78, 79, 80, 81, 82, 83, 84, 85, 86, 87, 88, 89, 90, 91, 92, 93, 94, 95, 96, 97, 98, 99, 100, 101, 102, 103, 104, 105, 106, 107, 108, 109, 110, 111, 112, 113, 114, 115, 116, 117, 118, 119, 120, 121, 122, 123, 124, 125, 126, 127, 128, 129, 130, 131, 132, 133, 134, 135, 136, 137, 138, 139, 140, 141, 142, 143, 144, 145, 146, 147, 148, 149, 150, 151, 152, 153, 154, 155, 156, 157, 158, 159, 160, 161, 162, 163, 164, 165, 166, 167, 168, 169, 170, 171, 172, 173, 174, 175, 176, 177, 178, 179, 180, 181, 182, 183, 184, 185, 186, 187, 188, 189, 190, 191, 192, 193, 194, 195, 196, 197, 198, 199, 200, 201, 202, 203, 204, 205, 206, 207, 208, 209, 210, 211, 212, 213, 214, 215, 216, 217, 218, 219, 220, 221, 222, 223, 224, 225, 226, 227, 228, 229, 230, 231, 232, 233, 234, 235, 236, 237, 238, 239, 240, 241, 242, 243, 244, 245, 246, 247, 248, 249, 250, 251, 252, 253, 254, 255, 256, 257, 258, 259, 260, 261, 262, 263, 264, 265, 266, 267, 268, 269, 270, 271, 272, 273, 274, 275, 276, 277, 278, 279, 280, 281, 282, 283, 284, 285, 286, 287, 288, 289, 290, 291, 292, 293, 294, 295, 296, 297, 298, 299, 300, 301, 302, 303, 304, 305, 306, 307, 308, 309, 310, 311, 312, 313, 314, 315, 316, 317, 318, 319, 320, 321, 322, 323, 324, 325, 326, 327, 328, 329, 330, 331, 332, 333, 334, 335, 336, 337, 338, 339, 340, 341, 342, 343, 344, 345, 346, 347, 348, 349, 350, 351, 352, 353, 354, 355, 356, 357, 358, 359, 360, 361, 362, 363, 364, 365, 366, 367, 368, 369, 370, 371, 372, 373, 374, 375, 376, 377, 378, 379, 380, 381, 382, 383, 384, 385, 386, 387, 388, 389, 390, 391, 392, 393, 394, 395, 396, 397, 398, 399, 400, 401, 402, 403, 404, 405, 406, 407, 408, 409, 410, 411, 412, 413, 414, 415, 416, 417, 418, 419, 420, 421, 422, 423, 424, 425, 426, 427, 428, 429, 430, 431, 432, 433, 434, 435, 436, 437, 438, 439, 440, 441, 442, 443, 444, 445, 446, 447, 448, 449, 450, 451, 452, 453, 454, 455, 456, 457, 458, 459, 460, 461, 462, 463, 464, 465, 466, 467, 468, 469, 470, 471, 472, 473, 474, 475, 476, 477, 478, 479, 480, 481, 482, 483, 484, 485, 486, 487, 488, 489, 490, 491, 492, 493, 494, 495, 496, 497, 498, 499, 500, 501, 502, 503, 504, 505, 506, 507, 508, 509, 510, 511, 512, 513, 514, 515, 516, 517, 518, 519, 520, 521, 522, 523, 524, 525, 526, 527, 528, 529, 530, 531, 532, 533, 534, 535, 536, 537, 538, 539, 540, 541, 542, 543, 544, 545, 546, 547, 548, 549, 550, 551, 552, 553, 554, 555, 556, 557, 558, 559, 560, 561, 562, 563, 564, 565, 566, 567, 568, 569, 570, 571, 572, 573, 574, 575, 576, 577, 578, 579, 580, 581, 582, 583, 584, 585, 586, 587, 588, 589, 590, 591, 592, 593, 594, 595, 596, 597, 598, 599, 600, 601, 602, 603, 604, 605, 606, 607, 608, 609, 610, 611, 612, 613, 614, 615, 616, 617, 618, 619, 620, 621, 622, 623, 624, 625, 626, 627, 628, 629, 630, 631, 632, 633, 634, 635, 636, 637, 638, 639, 640, 641, 642, 643, 644, 645, 646, 647, 648, 649, 650, 651, 652, 653, 654, 655, 656, 657, 658, 659, 660, 661, 662, 663, 664, 665, 666, 667, 668, 669, 670, 671, 672, 673, 674, 675, 676, 677, 678, 679, 680, 681, 682, 683, 684, 685, 686, 687, 688, 689, 690, 691, 692, 693, 694, 695, 696, 697, 698, 699, 700, 701, 702, 703, 704, 705, 706, 707, 708, 709, 710, 711, 712, 713, 714, 715, 716, 717, 718, 719, 720, 721, 722, 723, 724, 725, 726, 727, 728, 729, 730, 731, 732, 733, 734, 735, 736, 737, 738, 739, 740, 741, 742, 743, 744, 745, 746, 747, 748, 749, 750, 751, 752, 753, 754, 755, 756, 757, 758, 759, 760, 761, 762, 763, 764, 765, 766, 767, 768, 769, 770, 771, 772, 773, 774, 775, 776, 777, 778, 779, 780, 781, 782, 783, 784, 785, 786, 787, 788, 789, 790, 791, 792, 793, 794, 795, 796, 797, 798, 799, 800, 801, 802, 803, 804, 805, 806, 807, 808, 809, 810, 811, 812, 813, 814, 815, 816, 817, 818, 819, 820, 821, 822, 823, 824, 825, 826, 827, 828, 829, 830, 831, 832, 833, 834, 835, 836, 837, 838, 839, 840, 841, 842, 843, 844, 845, 846, 847, 848, 849, 850, 851, 852, 853, 854, 855, 856, 857, 858, 859, 860, 861, 862, 863, 864, 865, 866, 867, 868, 869, 870, 871, 872, 873, 874, 875, 876, 877, 878, 879, 880, 881, 882, 883, 884, 885, 886, 887, 888, 889, 890, 891, 892, 893, 894, 895, 896, 897, 898, 899, 900, 901, 902, 903, 904, 905, 906, 907, 908, 909, 910, 911, 912, 913, 914],
      "AcquisitionTime": ["092832.675000", "092833.135000", "092833.595000", "092834.055000", "092834.515000", "092834.975000", "092835.435000", "092835.895000", "092836.355000", "092836.815000", "092837.275000", "092837.735000", "092838.195000", "092838.655000", "092839.115000", "092839.575000", "092840.035000", "092840.495000", "092840.955000", "092841.415000", "092841.875000", "092842.335000", "092842.795000", "092843.255000", "092843.715000", "092844.175000", "092844.635000", "092845.095000", "092845.555000", "092846.015000", "092846.475000", "092846.935000", "092847.395000", "092847.855000", "092848.315000", "092848.775000", "092849.235000", "092849.695000", "092850.155000", "092850.615000", "092851.075000", "092851.535000", "092851.995000", "092852.455000", "092852.915000", "092853.375000", "092853.835000", "092854.295000", "092854.755000", "092855.215000", "092855.675000", "092856.135000", "092856.595000", "092857.055000", "092857.515000", "092857.975000", "092858.435000", "092858.895000", "092859.355000", "092859.815000", "092900.275000", "092900.735000", "092901.195000", "092901.655000", "092902.115000", "092902.575000", "092903.035000", "092903.495000", "092903.955000", "092904.415000", "092904.875000", "092905.335000", "092905.795000", "092906.255000", "092906.715000", "092907.175000", "092907.635000", "092908.095000", "092908.555000", "092909.015000", "092909.475000", "092909.935000", "092910.395000", "092910.855000", "092911.315000", "092911.775000", "092912.235000", "092912.695000", "092913.155000", "092913.615000", "092914.075000", "092914.535000", "092914.995000", "092915.455000", "092915.915000", "092916.375000", "092916.835000", "092917.295000", "092917.755000", "092918.215000", "092918.675000", "092919.135000", "092919.595000", "092920.055000", "092920.515000", "092920.975000", "092921.435000", "092921.895000", "092922.355000", "092922.815000", "092923.275000", "092923.735000", "092924.195000", "092924.655000", "092925.115000", "092925.575000", "092926.035000", "092926.495000", "092926.955000", "092927.415000", "092927.875000", "092928.335000", "092928.795000", "092929.255000", "092929.715000", "092930.175000", "092930.635000", "092931.095000", "092931.555000", "092932.015000", "092932.475000", "092932.935000", "092933.395000", "092933.855000", "092934.315000", "092934.775000", "092935.235000", "092935.695000", "092936.155000", "092936.615000", "092937.075000", "092937.535000", "092937.995000", "092938.455000", "092938.915000", "092939.375000", "092939.835000", "092940.295000", "092940.755000", "092941.215000", "092941.675000", "092942.135000", "092942.595000", "092943.055000", "092943.515000", "092943.975000", "092944.435000", "092944.895000", "092945.355000", "092945.815000", "092946.275000", "092946.735000", "092947.195000", "092947.655000", "092948.115000", "092948.575000", "092949.035000", "092949.495000", "092949.955000", "092950.415000", "092950.875000", "092951.335000", "092951.795000", "092952.255000", "092952.715000", "092953.175000", "092953.635000", "092954.095000", "092954.555000", "092955.015000", "092955.475000", "092955.935000", "092956.395000", "092956.855000", "092957.315000", "092957.775000", "092958.235000", "092958.695000", "092959.155000", "092959.615000", "093000.075000", "093000.535000", "093000.995000", "093001.455000", "093001.915000", "093002.375000", "093002.835000", "093003.295000", "093003.755000", "093004.215000", "093004.675000", "093005.135000", "093005.595000", "093006.055000", "093006.515000", "093006.975000", "093007.435000", "093007.895000", "093008.355000", "093008.815000", "093009.275000", "093009.735000", "093010.195000", "093010.655000", "093011.115000", "093011.575000", "093012.035000", "093012.495000", "093012.955000", "093013.415000", "093013.875000", "093014.335000", "093014.795000", "093015.255000", "093015.715000", "093016.175000", "093016.635000", "093017.095000", "093017.555000", "093018.015000", "093018.475000", "093018.935000", "093019.395000", "093019.855000", "093020.315000", "093020.775000", "093021.235000", "093021.695000", "093022.155000", "093022.615000", "093023.075000", "093023.535000", "093023.995000", "093024.455000", "093024.915000", "093025.375000", "093025.835000", "093026.295000", "093026.755000", "093027.215000", "093027.675000", "093028.135000", "093028.595000", "093029.055000", "093029.515000", "093029.975000", "093030.435000", "093030.895000", "093031.355000", "093031.815000", "093032.275000", "093032.735000", "093033.195000", "093033.655000", "093034.115000", "093034.575000", "093035.035000", "093035.495000", "093035.955000", "093036.415000", "093036.875000", "093037.335000", "093037.795000", "093038.255000", "093038.715000", "093039.175000", "093039.635000", "093040.095000", "093040.555000", "093041.015000", "093041.475000", "093041.935000", "093042.395000", "093042.855000", "093043.315000", "093043.775000", "093044.235000", "093044.695000", "093045.155000", "093045.615000", "093046.075000", "093046.535000", "093046.995000", "093047.455000", "093047.915000", "093048.375000", "093048.835000", "093049.295000", "093049.755000", "093050.215000", "093050.675000", "093051.135000", "093051.595000", "093052.055000", "093052.515000", "093052.975000", "093053.435000", "093053.895000", "093054.355000", "093054.815000", "093055.275000", "093055.735000", "093056.195000", "093056.655000", "093057.115000", "093057.575000", "093058.035000", "093058.495000", "093058.955000", "093059.415000", "093059.875000", "093100.335000", "093100.795000", "093101.255000", "093101.715000", "093102.175000", "093102.635000", "093103.095000", "093103.555000", "093104.015000", "093104.475000", "093104.935000", "093105.395000", "093105.855000", "093106.315000", "093106.775000", "093107.235000", "093107.695000", "093108.155000", "093108.615000", "093109.075000", "093109.535000", "093109.995000", "093110.455000", "093110.915000", "093111.375000", "093111.835000", "093112.295000", "093112.755000", "093113.215000", "093113.675000", "093114.135000", "093114.595000", "093115.055000", "093115.515000", "093115.975000", "093116.435000", "093116.895000", "093117.355000", "093117.815000", "093118.275000", "093118.735000", "093119.195000", "093119.655000", "093120.115000", "093120.575000", "093121.035000", "093121.495000", "093121.955000", "093122.415000", "093122.875000", "093123.335000", "093123.795000", "093124.255000", "093124.715000", "093125.175000", "093125.635000", "093126.095000", "093126.555000", "093127.015000", "093127.475000", "093127.935000", "093128.395000", "093128.855000", "093129.315000", "093129.775000", "093130.235000", "093130.695000", "093131.155000", "093131.615000", "093132.075000", "093132.535000", "093132.995000", "093133.455000", "093133.915000", "093134.375000", "093134.835000", "093135.295000", "093135.755000", "093136.215000", "093136.675000", "093137.135000", "093137.595000", "093138.055000", "093138.515000", "093138.975000", "093139.435000", "093139.895000", "093140.355000", "093140.815000", "093141.275000", "093141.735000", "093142.195000", "093142.655000", "093143.115000", "093143.575000", "093144.035000", "093144.495000", "093144.955000", "093145.415000", "093145.875000", "093146.335000", "093146.795000", "093147.255000", "093147.715000", "093148.175000", "093148.635000", "093149.095000", "093149.555000", "093150.015000", "093150.475000", "093150.935000", "093151.395000", "093151.855000", "093152.315000", "093152.775000", "093153.235000", "093153.695000", "093154.155000", "093154.615000", "093155.075000", "093155.535000", "093155.995000", "093156.455000", "093156.915000", "093157.375000", "093157.835000", "093158.295000", "093158.755000", "093159.215000", "093159.675000", "093200.135000", "093200.595000", "093201.055000", "093201.515000", "093201.975000", "093202.435000", "093202.895000", "093203.355000", "093203.815000", "093204.275000", "093204.735000", "093205.195000", "093205.655000", "093206.115000", "093206.575000", "093207.035000", "093207.495000", "093207.955000", "093208.415000", "093208.875000", "093209.335000", "093209.795000", "093210.255000", "093210.715000", "093211.175000", "093211.635000", "093212.095000", "093212.555000", "093213.015000", "093213.475000", "093213.935000", "093214.395000", "093214.855000", "093215.315000", "093215.775000", "093216.235000", "093216.695000", "093217.155000", "093217.615000", "093218.075000", "093218.535000", "093218.995000", "093219.455000", "093219.915000", "093220.375000", "093220.835000", "093221.295000", "093221.755000", "093222.215000", "093222.675000", "093223.135000", "093223.595000", "093224.055000", "093224.515000", "093224.975000", "093225.435000", "093225.895000", "093226.355000", "093226.815000", "093227.275000", "093227.735000", "093228.195000", "093228.655000", "093229.115000", "093229.575000", "093230.035000", "093230.495000", "093230.955000", "093231.415000", "093231.875000", "093232.335000", "093232.795000", "093233.255000", "093233.715000", "093234.175000", "093234.635000", "093235.095000", "093235.555000", "093236.015000", "093236.475000", "093236.935000", "093237.395000", "093237.855000", "093238.315000", "093238.775000", "093239.235000", "093239.695000", "093240.155000", "093240.615000", "093241.075000", "093241.535000", "093241.995000", "093242.455000", "093242.915000", "093243.375000", "093243.835000", "093244.295000", "093244.755000", "093245.215000", "093245.675000", "093246.135000", "093246.595000", "093247.055000", "093247.515000", "093247.975000", "093248.435000", "093248.895000", "093249.355000", "093249.815000", "093250.275000", "093250.735000", "093251.195000", "093251.655000", "093252.115000", "093252.575000", "093253.035000", "093253.495000", "093253.955000", "093254.415000", "093254.875000", "093255.335000", "093255.795000", "093256.255000", "093256.715000", "093257.175000", "093257.635000", "093258.095000", "093258.555000", "093259.015000", "093259.475000", "093259.935000", "093300.395000", "093300.855000", "093301.315000", "093301.775000", "093302.235000", "093302.695000", "093303.155000", "093303.615000", "093304.075000", "093304.535000", "093304.995000", "093305.455000", "093305.915000", "093306.375000", "093306.835000", "093307.295000", "093307.755000", "093308.215000", "093308.675000", "093309.135000", "093309.595000", "093310.055000", "093310.515000", "093310.975000", "093311.435000", "093311.895000", "093312.355000", "093312.815000", "093313.275000", "093313.735000", "093314.195000", "093314.655000", "093315.115000", "093315.575000", "093316.035000", "093316.495000", "093316.955000", "093317.415000", "093317.875000", "093318.335000", "093318.795000", "093319.255000", "093319.715000", "093320.175000", "093320.635000", "093321.095000", "093321.555000", "093322.015000", "093322.475000", "093322.935000", "093323.395000", "093323.855000", "093324.315000", "093324.775000", "093325.235000", "093325.695000", "093326.155000", "093326.615000", "093327.075000", "093327.535000", "093327.995000", "093328.455000", "093328.915000", "093329.375000", "093329.835000", "093330.295000", "093330.755000", "093331.215000", "093331.675000", "093332.135000", "093332.595000", "093333.055000", "093333.515000", "093333.975000", "093334.435000", "093334.895000", "093335.355000", "093335.815000", "093336.275000", "093336.735000", "093337.195000", "093337.655000", "093338.115000", "093338.575000", "093339.035000", "093339.495000", "093339.955000", "093340.415000", "093340.875000", "093341.335000", "093341.795000", "093342.255000", "093342.715000", "093343.175000", "093343.635000", "093344.095000", "093344.555000", "093345.015000", "093345.475000", "093345.935000", "093346.395000", "093346.855000", "093347.315000", "093347.775000", "093348.235000", "093348.695000", "093349.155000", "093349.615000", "093350.075000", "093350.535000", "093350.995000", "093351.455000", "093351.915000", "093352.375000", "093352.835000", "093353.295000", "093353.755000", "093354.215000", "093354.675000", "093355.135000", "093355.595000", "093356.055000", "093356.515000", "093356.975000", "093357.435000", "093357.895000", "093358.355000", "093358.815000", "093359.275000", "093359.735000", "093400.195000", "093400.655000", "093401.115000", "093401.575000", "093402.035000", "093402.495000", "093402.955000", "093403.415000", "093403.875000", "093404.335000", "093404.795000", "093405.255000", "093405.715000", "093406.175000", "093406.635000", "093407.095000", "093407.555000", "093408.015000", "093408.475000", "093408.935000", "093409.395000", "093409.855000", "093410.315000", "093410.775000", "093411.235000", "093411.695000", "093412.155000", "093412.615000", "093413.075000", "093413.535000", "093413.995000", "093414.455000", "093414.915000", "093415.375000", "093415.835000", "093416.295000", "093416.755000", "093417.215000", "093417.675000", "093418.135000", "093418.595000", "093419.055000", "093419.515000", "093419.975000", "093420.435000", "093420.895000", "093421.355000", "093421.815000", "093422.275000", "093422.735000", "093423.195000", "093423.655000", "093424.115000", "093424.575000", "093425.035000", "093425.495000", "093425.955000", "093426.415000", "093426.875000", "093427.335000", "093427.795000", "093428.255000", "093428.715000", "093429.175000", "093429.635000", "093430.095000", "093430.555000", "093431.015000", "093431.475000", "093431.935000", "093432.395000", "093432.855000", "093433.315000", "093433.775000", "093434.235000", "093434.695000", "093435.155000", "093435.615000", "093436.075000", "093436.535000", "093436.995000", "093437.455000", "093437.915000", "093438.375000", "093438.835000", "093439.295000", "093439.755000", "093440.215000", "093440.675000", "093441.135000", "093441.595000", "093442.055000", "093442.515000", "093442.975000", "093443.435000", "093443.895000", "093444.355000", "093444.815000", "093445.275000", "093445.735000", "093446.195000", "093446.655000", "093447.115000", "093447.575000", "093448.035000", "093448.495000", "093448.955000", "093449.415000", "093449.875000", "093450.335000", "093450.795000", "093451.255000", "093451.715000", "093452.175000", "093452.635000", "093453.095000", "093453.555000", "093454.015000", "093454.475000", "093454.935000", "093455.395000", "093455.855000", "093456.315000", "093456.775000", "093457.235000", "093457.695000", "093458.155000", "093458.615000", "093459.075000", "093459.535000", "093459.995000", "093500.455000", "093500.915000", "093501.375000", "093501.835000", "093502.295000", "093502.755000", "093503.215000", "093503.675000", "093504.135000", "093504.595000", "093505.055000", "093505.515000", "093505.975000", "093506.435000", "093506.895000", "093507.355000", "093507.815000", "093508.275000", "093508.735000", "093509.195000", "093509.655000", "093510.115000", "093510.575000", "093511.035000", "093511.495000", "093511.955000", "093512.415000", "093512.875000", "093513.335000", "093513.795000", "093514.255000", "093514.715000", "093515.175000", "093515.635000", "093516.095000", "093516.555000", "093517.015000", "093517.475000", "093517.935000", "093518.395000", "093518.855000", "093519.315000", "093519.775000", "093520.235000", "093520.695000", "093521.155000", "093521.615000", "093522.075000", "093522.535000", "093522.995000", "093523.455000", "093523.915000", "093524.375000", "093524.835000", "093525.295000", "093525.755000", "093526.215000", "093526.675000", "093527.135000", "093527.595000", "093528.055000", "093528.515000", "093528.975000", "093529.435000", "093529.895000", "093530.355000", "093530.815000", "093531.275000", "093531.735000", "093532.195000", "093532.655000"],
