{
  "AcquisitionMatrixPE": 82,
  "AcquisitionNumber": 1,
  "AcquisitionTime": "09:13:34.052500",
  "BandwidthPerPixelPhaseEncode": 24.888,
  "BaseResolution": 82,
  "BodyPartExamined": "BRAIN",
  "ConsistencyInfo": "N4_VE11E_LATEST_20181129",
  "ConversionSoftware": "dcm2niix",
  "ConversionSoftwareVersion": "v1.0.20201102",
  "DerivedVendorReportedEchoSpacing": 0.00049,
  "DeviceSerialNumber": "66112",
  "DwellTime": 2e-06,
  "EchoTime": 0.0272,
  "EchoTrainLength": 82,
  "EffectiveEchoSpacing": 0.00049,
  "FlipAngle": 44,
  "ImageComments": "Unaliased MB8/PE3",
  "ImageOrientationPatientDICOM": [0.9996, 0.0277407, -0.00547512, -0.0270484, 0.994542, 0.100765],
  "ImageType": [
    "ORIGINAL",
    "PRIMARY",
    "M",
    "MB",
    "ND",
    "NORM",
    "MOSAIC"
],
  "ImagingFrequency": 123.252,
  "InPlanePhaseEncodingDirectionDICOM": "COL",
  "InstitutionAddress": "Maynard 3,Hanover,NH,US,03755",
  "InstitutionName": "Dartmouth College - PBS",
  "InstitutionalDepartmentName": "Department",
  "MRAcquisitionType": "2D",
  "MagneticFieldStrength": 3,
  "Manufacturer": "Siemens",
  "ManufacturersModelName": "Prisma",
  "Modality": "MR",
  "MultibandAccelerationFactor": 8,
  "PartialFourier": 1,
  "PatientPosition": "HFS",
  "PercentPhaseFOV": 100,
  "PercentSampling": 100,
  "PhaseEncodingDirection": "j-",
  "PhaseEncodingSteps": 82,
  "PhaseResolution": 1,
  "PixelBandwidth": 3050,
  "ProcedureStepDescription": "Wager_Wager^1076_spacetop",
  "ProtocolName": "func_run-01_task-faces_acq-ap-mb8",
  "PulseSequenceDetails": "%CustomerSeq%\\cmrr_mbep2d_bold",
  "ReceiveCoilActiveElements": "HEA;HEP",
  "ReceiveCoilName": "Head_32",
  "ReconMatrixPE": 82,
  "RepetitionTime": 0.46,
  "SAR": 0.0755341,
  "ScanOptions": "FS",
  "ScanningSequence": "EP",
  "SequenceName": "epfid2d1_82",
  "SequenceVariant": "SK\\SS",
  "SeriesDescription": "func_run-01_task-faces_acq-ap-mb8",
  "SeriesNumber": 16,
  "ShimSetting": [4138, -7763, -7227, 803, -82, -182, -73, 91],
  "SliceThickness": 2.7,
  "SliceTiming": [0, 0.2525, 0.0625, 0.315, 0.125, 0.3775, 0.19, 0, 0.2525, 0.0625, 0.315, 0.125, 0.3775, 0.19, 0, 0.2525, 0.0625, 0.315, 0.125, 0.3775, 0.19, 0, 0.2525, 0.0625, 0.315, 0.125, 0.3775, 0.19, 0, 0.2525, 0.0625, 0.315, 0.125, 0.3775, 0.19, 0, 0.2525, 0.0625, 0.315, 0.125, 0.3775, 0.19, 0, 0.2525, 0.0625, 0.315, 0.125, 0.3775, 0.19, 0, 0.2525, 0.0625, 0.315, 0.125, 0.3775, 0.19],
  "SoftwareVersions": "syngo MR E11",
  "SpacingBetweenSlices": 2.7,
  "StationName": "AWP66112",
  "TaskName": "faces",
  "TotalReadoutTime": 0.03969,
  "TxRefAmp": 230.667,
  "WipMemBlock": "348242ea-3c4e-4cfc-a5f2-84c1ea07dfcf||Sequence: R016 ve11e/master r/434b28f1; Aug  7 2019 18:53:46 by eja",
  "dcmmeta_affine": [
    [-2.681854248046875, -0.07256900519132614, -0.022249452769756317, 114.79528045654297],
    [-0.07442634552717209, 2.6682848930358887, 0.27155742049217224, -102.05162048339844],
    [-0.014689341187477112, -0.27034565806388855, 2.6862170696258545, -53.598201751708984],
    [0.0, 0.0, 0.0, 1.0]
],
  "dcmmeta_reorient_transform": [
    [0.0, -1.0, 0.0, 81.0],
    [1.0, 0.0, 0.0, 0.0],
    [0.0, 0.0, 1.0, 0.0],
    [0.0, 0.0, 0.0, 1.0]
],
  "dcmmeta_shape": [82, 82, 56, 914],
  "dcmmeta_slice_dim": 2,
  "dcmmeta_version": 0.6,
  "global": {
    "const": {
      "AccessionNumber": "A004051",
      "AcquisitionMatrix": [82, 0, 0, 82],
      "AngioFlag": "N",
      "BitsAllocated": 16,
      "BitsStored": 16,
      "BodyPartExamined": "BRAIN",
      "Columns": 656,
      "EchoNumbers": 1,
      "EchoTime": 27.2,
      "EchoTrainLength": 82,
      "FlipAngle": 44.0,
      "HighBit": 15,
      "ImageOrientationPatient": [0.99960015757469, 0.02774072926177, -0.0054751179598, -0.0270484475834, 0.99454248557865, 0.10076520164409],
      "ImagePositionPatient": [-857.78202634265, -901.23753746566, -148.86956549739],
      "ImageType": [
        "ORIGINAL",
        "PRIMARY",
        "M",
        "MB",
        "ND",
        "NORM",
        "MOSAIC"
],
      "ImagedNucleus": "1H",
      "ImagingFrequency": 123.252198,
      "InPlanePhaseEncodingDirection": "COL",
      "MRAcquisitionType": "2D",
      "MagneticFieldStrength": 3.0,
      "Manufacturer": "SIEMENS",
      "ManufacturerModelName": "Prisma",
      "Modality": "MR",
      "NumberOfAverages": 1.0,
      "NumberOfPhaseEncodingSteps": 82,
      "PercentPhaseFieldOfView": 100.0,
      "PercentSampling": 100.0,
      "PerformedProcedureStepStartTime": "082217.410000",
      "PhotometricInterpretation": "MONOCHROME2",
      "PixelBandwidth": 3050.0,
      "PixelRepresentation": 0,
      "PixelSpacing": [2.6829268932343, 2.6829268932343],
      "ProtocolName": "func_run-01_task-faces_acq-ap-mb8",
      "RepetitionTime": 460.0,
      "Rows": 656,
      "SAR": 0.07553407477888,
      "SamplesPerPixel": 1,
      "ScanOptions": "FS",
      "ScanningSequence": "EP",
      "SequenceName": "epfid2d1_82",
      "SequenceVariant": [
        "SK",
        "SS"
],
      "SeriesDescription": "func_run-01_task-faces_acq-ap-mb8",
      "SeriesNumber": 16,
      "SeriesTime": "091357.787000",
      "SliceLocation": -64.534592780594,
      "SliceThickness": 2.7000000476837,
      "SmallestImagePixelValue": 0,
      "SoftwareVersions": "syngo MR E11",
      "SpacingBetweenSlices": 2.7000000557494,
      "SpecificCharacterSet": "ISO_IR 100",
      "StudyID": "2",
      "StudyTime": "082217.297000",
      "TransmitCoilName": "Body",
      "VariableFlipAngleFlag": "N",
      "WindowCenterWidthExplanation": "Algo1"
    },
    "slices": {}
  },
  "time": {
    "samples": {
      "AcquisitionNumber": [1, 2, 3, 4, 5, 6, 7, 8, 9, 10, 11, 12, 13, 14, 15, 16, 17, 18, 19, 20, 21, 22, 23, 24, 25, 26, 27, 28, 29, 30, 31, 32, 33, 34, 35, 36, 37, 38, 39, 40, 41, 42, 43, 44, 45, 46, 47, 48, 49, 50, 51, 52, 53, 54, 55, 56, 57, 58, 59, 60, 61, 62, 63, 64, 65, 66, 67, 68, 69, 70, 71, 72, 73, 74, 75, 76, 77, 78, 79, 80, 81, 82, 83, 84, 85, 86, 87, 88, 89, 90, 91, 92, 93, 94, 95, 96, 97, 98, 99, 100, 101, 102, 103, 104, 105, 106, 107, 108, 109, 110, 111, 112, 113, 114, 115, 116, 117, 118, 119, 120, 121, 122, 123, 124, 125, 126, 127, 128, 129, 130, 131, 132, 133, 134, 135, 136, 137, 138, 139, 140, 141, 142, 143, 144, 145, 146, 147, 148, 149, 150, 151, 152, 153, 154, 155, 156, 157, 158, 159, 160, 161, 162, 163, 164, 165, 166, 167, 168, 169, 170, 171, 172, 173, 174, 175, 176, 177, 178, 179, 180, 181, 182, 183, 184, 185, 186, 187, 188, 189, 190, 191, 192, 193, 194, 195, 196, 197, 198, 199, 200, 201, 202, 203, 204, 205, 206, 207, 208, 209, 210, 211, 212, 213, 214, 215, 216, 217, 218, 219, 220, 221, 222, 223, 224, 225, 226, 227, 228, 229, 230, 231, 232, 233, 234, 235, 236, 237, 238, 239, 240, 241, 242, 243, 244, 245, 246, 247, 248, 249, 250, 251, 252, 253, 254, 255, 256, 257, 258, 259, 260, 261, 262, 263, 264, 265, 266, 267, 268, 269, 270, 271, 272, 273, 274, 275, 276, 277, 278, 279, 280, 281, 282, 283, 284, 285, 286, 287, 288, 289, 290, 291, 292, 293, 294, 295, 296, 297, 298, 299, 300, 301, 302, 303, 304, 305, 306, 307, 308, 309, 310, 311, 312, 313, 314, 315, 316, 317, 318, 319, 320, 321, 322, 323, 324, 325, 326, 327, 328, 329, 330, 331, 332, 333, 334, 335, 336, 337, 338, 339, 340, 341, 342, 343, 344, 345, 346, 347, 348, 349, 350, 351, 352, 353, 354, 355, 356, 357, 358, 359, 360, 361, 362, 363, 364, 365, 366, 367, 368, 369, 370, 371, 372, 373, 374, 375, 376, 377, 378, 379, 380, 381, 382, 383, 384, 385, 386, 387, 388, 389, 390, 391, 392, 393, 394, 395, 396, 397, 398, 399, 400, 401, 402, 403, 404, 405, 406, 407, 408, 409, 410, 411, 412, 413, 414, 415, 416, 417, 418, 419, 420, 421, 422, 423, 424, 425, 426, 427, 428, 429, 430, 431, 432, 433, 434, 435, 436, 437, 438, 439, 440, 441, 442, 443, 444, 445, 446, 447, 448, 449, 450, 451, 452, 453, 454, 455, 456, 457, 458, 459, 460, 461, 462, 463, 464, 465, 466, 467, 468, 469, 470, 471, 472, 473, 474, 475, 476, 477, 478, 479, 480, 481, 482, 483, 484, 485, 486, 487, 488, 489, 490, 491, 492, 493, 494, 495, 496, 497, 498, 499, 500, 501, 502, 503, 504, 505, 506, 507, 508, 509, 510, 511, 512, 513, 514, 515, 516, 517, 518, 519, 520, 521, 522, 523, 524, 525, 526, 527, 528, 529, 530, 531, 532, 533, 534, 535, 536, 537, 538, 539, 540, 541, 542, 543, 544, 545, 546, 547, 548, 549, 550, 551, 552, 553, 554, 555, 556, 557, 558, 559, 560, 561, 562, 563, 564, 565, 566, 567, 568, 569, 570, 571, 572, 573, 574, 575, 576, 577, 578, 579, 580, 581, 582, 583, 584, 585, 586, 587, 588, 589, 590, 591, 592, 593, 594, 595, 596, 597, 598, 599, 600, 601, 602, 603, 604, 605, 606, 607, 608, 609, 610, 611, 612, 613, 614, 615, 616, 617, 618, 619, 620, 621, 622, 623, 624, 625, 626, 627, 628, 629, 630, 631, 632, 633, 634, 635, 636, 637, 638, 639, 640, 641, 642, 643, 644, 645, 646, 647, 648, 649, 650, 651, 652, 653, 654, 655, 656, 657, 658, 659, 660, 661, 662, 663, 664, 665, 666, 667, 668, 669, 670, 671, 672, 673, 674, 675, 676, 677, 678, 679, 680, 681, 682, 683, 684, 685, 686, 687, 688, 689, 690, 691, 692, 693, 694, 695, 696, 697, 698, 699, 700, 701, 702, 703, 704, 705, 706, 707, 708, 709, 710, 711, 712, 713, 714, 715, 716, 717, 718, 719, 720, 721, 722, 723, 724, 725, 726, 727, 728, 729, 730, 731, 732, 733, 734, 735, 736, 737, 738, 739, 740, 741, 742, 743, 744, 745, 746, 747, 748, 749, 750, 751, 752, 753, 754, 755, 756, 757, 758, 759, 760, 761, 762, 763, 764, 765, 766, 767, 768, 769, 770, 771, 772, 773, 774, 775, 776, 777, 778, 779, 780, 781, 782, 783, 784, 785, 786, 787, 788, 789, 790, 791, 792, 793, 794, 795, 796, 797, 798, 799, 800, 801, 802, 803, 804, 805, 806, 807, 808, 809, 810, 811, 812, 813, 814, 815, 816, 817, 818, 819, 820, 821, 822, 823, 824, 825, 826, 827, 828, 829, 830, 831, 832, 833, 834, 835, 836, 837, 838, 839, 840, 841, 842, 843, 844, 845, 846, 847, 848, 849, 850, 851, 852, 853, 854, 855, 856, 857, 858, 859, 860, 861, 862, 863, 864, 865, 866, 867, 868, 869, 870, 871, 872, 873, 874, 875, 876, 877, 878, 879, 880, 881, 882, 883, 884, 885, 886, 887, 888, 889, 890, 891, 892, 893, 894, 895, 896, 897, 898, 899, 900, 901, 902, 903, 904, 905, 906, 907, 908, 909, 910, 911, 912, 913, 914],
      "AcquisitionTime": ["091334.052500", "091334.512500", "091334.972500", "091335.432500", "091335.892500", "091336.352500", "091336.812500", "091337.272500", "091337.732500", "091338.192500", "091338.652500", "091339.112500", "091339.572500", "091340.032500", "091340.492500", "091340.952500", "091341.412500", "091341.872500", "091342.332500", "091342.792500", "091343.252500", "091343.712500", "091344.172500", "091344.632500", "091345.092500", "091345.552500", "091346.012500", "091346.472500", "091346.932500", "091347.392500", "091347.852500", "091348.312500", "091348.772500", "091349.232500", "091349.692500", "091350.152500", "091350.612500", "091351.072500", "091351.532500", "091351.992500", "091352.452500", "091352.912500", "091353.372500", "091353.832500", "091354.292500", "091354.752500", "091355.212500", "091355.672500", "091356.132500", "091356.592500", "091357.052500", "091357.512500", "091357.972500", "091358.432500", "091358.892500", "091359.352500", "091359.812500", "091400.272500", "091400.732500", "091401.192500", "091401.652500", "091402.112500", "091402.572500", "091403.032500", "091403.492500", "091403.952500", "091404.412500", "091404.872500", "091405.332500", "091405.792500", "091406.252500", "091406.712500", "091407.172500", "091407.632500", "091408.092500", "091408.552500", "091409.012500", "091409.472500", "091409.932500", "091410.392500", "091410.852500", "091411.312500", "091411.772500", "091412.232500", "091412.692500", "091413.152500", "091413.612500", "091414.072500", "091414.532500", "091414.992500", "091415.452500", "091415.912500", "091416.372500", "091416.832500", "091417.292500", "091417.752500", "091418.212500", "091418.672500", "091419.132500", "091419.592500", "091420.052500", "091420.512500", "091420.972500", "091421.432500", "091421.892500", "091422.352500", "091422.812500", "091423.272500", "091423.732500", "091424.192500", "091424.652500", "091425.112500", "091425.572500", "091426.032500", "091426.492500", "091426.952500", "091427.412500", "091427.872500", "091428.332500", "091428.792500", "091429.252500", "091429.712500", "091430.172500", "091430.632500", "091431.092500", "091431.552500", "091432.012500", "091432.472500", "091432.932500", "091433.392500", "091433.852500", "091434.312500", "091434.772500", "091435.232500", "091435.692500", "091436.152500", "091436.612500", "091437.072500", "091437.532500", "091437.992500", "091438.452500", "091438.912500", "091439.372500", "091439.832500", "091440.292500", "091440.752500", "091441.212500", "091441.672500", "091442.132500", "091442.592500", "091443.052500", "091443.512500", "091443.972500", "091444.432500", "091444.892500", "091445.352500", "091445.812500", "091446.272500", "091446.732500", "091447.192500", "091447.652500", "091448.112500", "091448.572500", "091449.032500", "091449.492500", "091449.952500", "091450.412500", "091450.872500", "091451.332500", "091451.792500", "091452.252500", "091452.712500", "091453.172500", "091453.632500", "091454.092500", "091454.552500", "091455.012500", "091455.472500", "091455.932500", "091456.392500", "091456.852500", "091457.312500", "091457.772500", "091458.232500", "091458.692500", "091459.152500", "091459.612500", "091500.072500", "091500.532500", "091500.992500", "091501.452500", "091501.912500", "091502.372500", "091502.832500", "091503.292500", "091503.752500", "091504.212500", "091504.672500", "091505.132500", "091505.592500", "091506.052500", "091506.512500", "091506.972500", "091507.432500", "091507.892500", "091508.352500", "091508.812500", "091509.272500", "091509.732500", "091510.192500", "091510.652500", "091511.112500", "091511.572500", "091512.032500", "091512.492500", "091512.952500", "091513.412500", "091513.872500", "091514.332500", "091514.792500", "091515.252500", "091515.712500", "091516.172500", "091516.632500", "091517.092500", "091517.552500", "091518.012500", "091518.472500", "091518.932500", "091519.392500", "091519.852500", "091520.312500", "091520.772500", "091521.232500", "091521.692500", "091522.152500", "091522.612500", "091523.072500", "091523.532500", "091523.992500", "091524.452500", "091524.912500", "091525.372500", "091525.832500", "091526.292500", "091526.752500", "091527.212500", "091527.672500", "091528.132500", "091528.592500", "091529.052500", "091529.512500", "091529.972500", "091530.432500", "091530.892500", "091531.352500", "091531.812500", "091532.272500", "091532.732500", "091533.192500", "091533.652500", "091534.112500", "091534.572500", "091535.032500", "091535.492500", "091535.952500", "091536.412500", "091536.872500", "091537.332500", "091537.792500", "091538.252500", "091538.712500", "091539.172500", "091539.632500", "091540.092500", "091540.552500", "091541.012500", "091541.472500", "091541.932500", "091542.392500", "091542.852500", "091543.312500", "091543.772500", "091544.232500", "091544.692500", "091545.152500", "091545.612500", "091546.072500", "091546.532500", "091546.992500", "091547.452500", "091547.912500", "091548.372500", "091548.832500", "091549.292500", "091549.752500", "091550.212500", "091550.672500", "091551.132500", "091551.592500", "091552.052500", "091552.512500", "091552.972500", "091553.432500", "091553.892500", "091554.352500", "091554.812500", "091555.272500", "091555.732500", "091556.192500", "091556.652500", "091557.112500", "091557.572500", "091558.032500", "091558.492500", "091558.952500", "091559.412500", "091559.872500", "091600.332500", "091600.792500", "091601.252500", "091601.712500", "091602.172500", "091602.632500", "091603.092500", "091603.552500", "091604.012500", "091604.472500", "091604.932500", "091605.392500", "091605.852500", "091606.312500", "091606.772500", "091607.232500", "091607.692500", "091608.152500", "091608.612500", "091609.072500", "091609.532500", "091609.992500", "091610.452500", "091610.912500", "091611.372500", "091611.832500", "091612.292500", "091612.752500", "091613.212500", "091613.672500", "091614.132500", "091614.592500", "091615.052500", "091615.512500", "091615.972500", "091616.432500", "091616.892500", "091617.352500", "091617.812500", "091618.272500", "091618.732500", "091619.192500", "091619.652500", "091620.112500", "091620.572500", "091621.032500", "091621.492500", "091621.952500", "091622.412500", "091622.872500", "091623.332500", "091623.792500", "091624.252500", "091624.712500", "091625.172500", "091625.632500", "091626.092500", "091626.552500", "091627.012500", "091627.472500", "091627.932500", "091628.392500", "091628.852500", "091629.312500", "091629.772500", "091630.232500", "091630.692500", "091631.152500", "091631.612500", "091632.072500", "091632.532500", "091632.992500", "091633.452500", "091633.912500", "091634.372500", "091634.832500", "091635.292500", "091635.752500", "091636.212500", "091636.672500", "091637.132500", "091637.592500", "091638.052500", "091638.512500", "091638.972500", "091639.432500", "091639.892500", "091640.352500", "091640.812500", "091641.272500", "091641.732500", "091642.192500", "091642.652500", "091643.112500", "091643.572500", "091644.032500", "091644.492500", "091644.952500", "091645.412500", "091645.872500", "091646.332500", "091646.792500", "091647.252500", "091647.712500", "091648.172500", "091648.632500", "091649.092500", "091649.552500", "091650.012500", "091650.472500", "091650.932500", "091651.392500", "091651.852500", "091652.312500", "091652.772500", "091653.232500", "091653.692500", "091654.152500", "091654.612500", "091655.072500", "091655.532500", "091655.992500", "091656.452500", "091656.912500", "091657.372500", "091657.832500", "091658.292500", "091658.752500", "091659.212500", "091659.672500", "091700.132500", "091700.592500", "091701.052500", "091701.512500", "091701.972500", "091702.432500", "091702.892500", "091703.352500", "091703.812500", "091704.272500", "091704.732500", "091705.192500", "091705.652500", "091706.112500", "091706.572500", "091707.032500", "091707.492500", "091707.952500", "091708.412500", "091708.872500", "091709.332500", "091709.792500", "091710.252500", "091710.712500", "091711.172500", "091711.632500", "091712.092500", "091712.552500", "091713.012500", "091713.472500", "091713.932500", "091714.392500", "091714.852500", "091715.312500", "091715.772500", "091716.232500", "091716.692500", "091717.152500", "091717.612500", "091718.072500", "091718.532500", "091718.992500", "091719.452500", "091719.912500", "091720.372500", "091720.832500", "091721.292500", "091721.752500", "091722.212500", "091722.672500", "091723.132500", "091723.592500", "091724.052500", "091724.512500", "091724.972500", "091725.432500", "091725.892500", "091726.352500", "091726.812500", "091727.272500", "091727.732500", "091728.192500", "091728.652500", "091729.112500", "091729.572500", "091730.032500", "091730.492500", "091730.952500", "091731.412500", "091731.872500", "091732.332500", "091732.792500", "091733.252500", "091733.712500", "091734.172500", "091734.632500", "091735.092500", "091735.552500", "091736.012500", "091736.472500", "091736.932500", "091737.392500", "091737.852500", "091738.312500", "091738.772500", "091739.232500", "091739.692500", "091740.152500", "091740.612500", "091741.072500", "091741.532500", "091741.992500", "091742.452500", "091742.912500", "091743.372500", "091743.832500", "091744.292500", "091744.752500", "091745.212500", "091745.672500", "091746.132500", "091746.592500", "091747.052500", "091747.512500", "091747.972500", "091748.432500", "091748.892500", "091749.352500", "091749.812500", "091750.272500", "091750.732500", "091751.192500", "091751.652500", "091752.112500", "091752.572500", "091753.032500", "091753.492500", "091753.952500", "091754.412500", "091754.872500", "091755.332500", "091755.792500", "091756.252500", "091756.712500", "091757.172500", "091757.632500", "091758.092500", "091758.552500", "091759.012500", "091759.472500", "091759.932500", "091800.392500", "091800.852500", "091801.312500", "091801.772500", "091802.232500", "091802.692500", "091803.152500", "091803.612500", "091804.072500", "091804.532500", "091804.992500", "091805.452500", "091805.912500", "091806.372500", "091806.832500", "091807.292500", "091807.752500", "091808.212500", "091808.672500", "091809.132500", "091809.592500", "091810.052500", "091810.512500", "091810.972500", "091811.432500", "091811.892500", "091812.352500", "091812.812500", "091813.272500", "091813.732500", "091814.192500", "091814.652500", "091815.112500", "091815.572500", "091816.032500", "091816.492500", "091816.952500", "091817.412500", "091817.872500", "091818.332500", "091818.792500", "091819.252500", "091819.712500", "091820.172500", "091820.632500", "091821.092500", "091821.552500", "091822.012500", "091822.472500", "091822.932500", "091823.392500", "091823.852500", "091824.312500", "091824.772500", "091825.232500", "091825.692500", "091826.152500", "091826.612500", "091827.072500", "091827.532500", "091827.992500", "091828.452500", "091828.912500", "091829.372500", "091829.832500", "091830.292500", "091830.752500", "091831.212500", "091831.672500", "091832.132500", "091832.592500", "091833.052500", "091833.512500", "091833.972500", "091834.432500", "091834.892500", "091835.352500", "091835.812500", "091836.272500", "091836.732500", "091837.192500", "091837.652500", "091838.112500", "091838.572500", "091839.032500", "091839.492500", "091839.952500", "091840.412500", "091840.872500", "091841.332500", "091841.792500", "091842.252500", "091842.712500", "091843.172500", "091843.632500", "091844.092500", "091844.552500", "091845.012500", "091845.472500", "091845.932500", "091846.392500", "091846.852500", "091847.312500", "091847.772500", "091848.232500", "091848.692500", "091849.152500", "091849.612500", "091850.072500", "091850.532500", "091850.992500", "091851.452500", "091851.912500", "091852.372500", "091852.832500", "091853.292500", "091853.752500", "091854.212500", "091854.672500", "091855.132500", "091855.592500", "091856.052500", "091856.512500", "091856.972500", "091857.432500", "091857.892500", "091858.352500", "091858.812500", "091859.272500", "091859.732500", "091900.192500", "091900.652500", "091901.112500", "091901.572500", "091902.032500", "091902.492500", "091902.952500", "091903.412500", "091903.872500", "091904.332500", "091904.792500", "091905.252500", "091905.712500", "091906.172500", "091906.632500", "091907.092500", "091907.552500", "091908.012500", "091908.472500", "091908.932500", "091909.392500", "091909.852500", "091910.312500", "091910.772500", "091911.232500", "091911.692500", "091912.152500", "091912.612500", "091913.072500", "091913.532500", "091913.992500", "091914.452500", "091914.912500", "091915.372500", "091915.832500", "091916.292500", "091916.752500", "091917.212500", "091917.672500", "091918.132500", "091918.592500", "091919.052500", "091919.512500", "091919.972500", "091920.432500", "091920.892500", "091921.352500", "091921.812500", "091922.272500", "091922.732500", "091923.192500", "091923.652500", "091924.112500", "091924.572500", "091925.032500", "091925.492500", "091925.952500", "091926.412500", "091926.872500", "091927.332500", "091927.792500", "091928.252500", "091928.712500", "091929.172500", "091929.632500", "091930.092500", "091930.552500", "091931.012500", "091931.472500", "091931.932500", "091932.392500", "091932.852500", "091933.312500", "091933.772500", "091934.232500", "091934.692500", "091935.152500", "091935.612500", "091936.072500", "091936.532500", "091936.992500", "091937.452500", "091937.912500", "091938.372500", "091938.832500", "091939.292500", "091939.752500", "091940.212500", "091940.672500", "091941.132500", "091941.592500", "091942.052500", "091942.512500", "091942.972500", "091943.432500", "091943.892500", "091944.352500", "091944.812500", "091945.272500", "091945.732500", "091946.192500", "091946.652500", "091947.112500", "091947.572500", "091948.032500", "091948.492500", "091948.952500", "091949.412500", "091949.872500", "091950.332500", "091950.792500", "091951.252500", "091951.712500", "091952.172500", "091952.632500", "091953.092500", "091953.552500", "091954.012500", "091954.472500", "091954.932500", "091955.392500", "091955.852500", "091956.312500", "091956.772500", "091957.232500", "091957.692500", "091958.152500", "091958.612500", "091959.072500", "091959.532500", "091959.992500", "092000.452500", "092000.912500", "092001.372500", "092001.832500", "092002.292500", "092002.752500", "092003.212500", "092003.672500", "092004.132500", "092004.592500", "092005.052500", "092005.512500", "092005.972500", "092006.432500", "092006.892500", "092007.352500", "092007.812500", "092008.272500", "092008.732500", "092009.192500", "092009.652500", "092010.112500", "092010.572500", "092011.032500", "092011.492500", "092011.952500", "092012.412500", "092012.872500", "092013.332500", "092013.792500", "092014.252500", "092014.712500", "092015.172500", "092015.632500", "092016.092500", "092016.552500", "092017.012500", "092017.472500", "092017.932500", "092018.392500", "092018.852500", "092019.312500", "092019.772500", "092020.232500", "092020.692500", "092021.152500", "092021.612500", "092022.072500", "092022.532500", "092022.992500", "092023.452500", "092023.912500", "092024.372500", "092024.832500", "092025.292500", "092025.752500", "092026.212500", "092026.672500", "092027.132500", "092027.592500", "092028.052500", "092028.512500", "092028.972500", "092029.432500", "092029.892500", "092030.352500", "092030.812500", "092031.272500", "092031.732500", "092032.192500", "092032.652500", "092033.112500", "092033.572500", "092034.032500"],
