{
  "AcquisitionMatrixPE": 82,
  "AcquisitionNumber": 1,
  "AcquisitionTime": "09:21:9.412500",
  "BandwidthPerPixelPhaseEncode": 24.888,
  "BaseResolution": 82,
  "BodyPartExamined": "BRAIN",
  "ConsistencyInfo": "N4_VE11E_LATEST_20181129",
  "ConversionSoftware": "dcm2niix",
  "ConversionSoftwareVersion": "v1.0.20201102",
  "DerivedVendorReportedEchoSpacing": 0.00049,
  "DeviceSerialNumber": "66112",
  "DwellTime": 2e-06,
  "EchoTime": 0.0272,
  "EchoTrainLength": 82,
  "EffectiveEchoSpacing": 0.00049,
  "FlipAngle": 44,
  "ImageComments": "Unaliased MB8/PE3",
  "ImageOrientationPatientDICOM": [0.9996, 0.0277407, -0.00547512, -0.0270484, 0.994542, 0.100765],
  "ImageType": [
    "ORIGINAL",
    "PRIMARY",
    "M",
    "MB",
    "ND",
    "NORM",
    "MOSAIC"
],
  "ImagingFrequency": 123.252,
  "InPlanePhaseEncodingDirectionDICOM": "COL",
  "InstitutionAddress": "Maynard 3,Hanover,NH,US,03755",
  "InstitutionName": "Dartmouth College - PBS",
  "InstitutionalDepartmentName": "Department",
  "MRAcquisitionType": "2D",
  "MagneticFieldStrength": 3,
  "Manufacturer": "Siemens",
  "ManufacturersModelName": "Prisma",
  "Modality": "MR",
  "MultibandAccelerationFactor": 8,
  "PartialFourier": 1,
  "PatientPosition": "HFS",
  "PercentPhaseFOV": 100,
  "PercentSampling": 100,
  "PhaseEncodingDirection": "j-",
  "PhaseEncodingSteps": 82,
  "PhaseResolution": 1,
  "PixelBandwidth": 3050,
  "ProcedureStepDescription": "Wager_Wager^1076_spacetop",
  "ProtocolName": "func_run-02_task-faces_acq-ap-mb8",
  "PulseSequenceDetails": "%CustomerSeq%\\cmrr_mbep2d_bold",
  "ReceiveCoilActiveElements": "HEA;HEP",
  "ReceiveCoilName": "Head_32",
  "ReconMatrixPE": 82,
  "RepetitionTime": 0.46,
  "SAR": 0.0755341,
  "ScanOptions": "FS",
  "ScanningSequence": "EP",
  "SequenceName": "epfid2d1_82",
  "SequenceVariant": "SK\\SS",
  "SeriesDescription": "func_run-02_task-faces_acq-ap-mb8",
  "SeriesNumber": 18,
  "ShimSetting": [4138, -7763, -7227, 803, -82, -182, -73, 91],
  "SliceThickness": 2.7,
  "SliceTiming": [0, 0.2525, 0.065, 0.315, 0.1275, 0.3775, 0.19, 0, 0.2525, 0.065, 0.315, 0.1275, 0.3775, 0.19, 0, 0.2525, 0.065, 0.315, 0.1275, 0.3775, 0.19, 0, 0.2525, 0.065, 0.315, 0.1275, 0.3775, 0.19, 0, 0.2525, 0.065, 0.315, 0.1275, 0.3775, 0.19, 0, 0.2525, 0.065, 0.315, 0.1275, 0.3775, 0.19, 0, 0.2525, 0.065, 0.315, 0.1275, 0.3775, 0.19, 0, 0.2525, 0.065, 0.315, 0.1275, 0.3775, 0.19],
  "SoftwareVersions": "syngo MR E11",
  "SpacingBetweenSlices": 2.7,
  "StationName": "AWP66112",
  "TaskName": "faces",
  "TotalReadoutTime": 0.03969,
  "TxRefAmp": 230.667,
  "WipMemBlock": "9e0f9438-0fd2-400c-83fd-21cc07241f30||Sequence: R016 ve11e/master r/434b28f1; Aug  7 2019 18:53:46 by eja",
  "dcmmeta_affine": [
    [-2.681854248046875, -0.07256900519132614, -0.022249452769756317, 114.79528045654297],
    [-0.07442634552717209, 2.6682848930358887, 0.27155742049217224, -102.05162048339844],
    [-0.014689341187477112, -0.27034565806388855, 2.6862170696258545, -53.598201751708984],
    [0.0, 0.0, 0.0, 1.0]
],
  "dcmmeta_reorient_transform": [
    [0.0, -1.0, 0.0, 81.0],
    [1.0, 0.0, 0.0, 0.0],
    [0.0, 0.0, 1.0, 0.0],
    [0.0, 0.0, 0.0, 1.0]
],
  "dcmmeta_shape": [82, 82, 56, 914],
  "dcmmeta_slice_dim": 2,
  "dcmmeta_version": 0.6,
  "global": {
    "const": {
      "AccessionNumber": "A004051",
      "AcquisitionMatrix": [82, 0, 0, 82],
      "AngioFlag": "N",
      "BitsAllocated": 16,
      "BitsStored": 16,
      "BodyPartExamined": "BRAIN",
      "Columns": 656,
      "EchoNumbers": 1,
      "EchoTime": 27.2,
      "EchoTrainLength": 82,
      "FlipAngle": 44.0,
      "HighBit": 15,
      "ImageOrientationPatient": [0.99960015757469, 0.02774072926177, -0.0054751179598, -0.0270484475834, 0.99454248557865, 0.10076520164409],
      "ImagePositionPatient": [-857.78202634265, -901.23753746566, -148.86956549739],
      "ImageType": [
        "ORIGINAL",
        "PRIMARY",
        "M",
        "MB",
        "ND",
        "NORM",
        "MOSAIC"
],
      "ImagedNucleus": "1H",
      "ImagingFrequency": 123.252202,
      "InPlanePhaseEncodingDirection": "COL",
      "MRAcquisitionType": "2D",
      "MagneticFieldStrength": 3.0,
      "Manufacturer": "SIEMENS",
      "ManufacturerModelName": "Prisma",
      "Modality": "MR",
      "NumberOfAverages": 1.0,
      "NumberOfPhaseEncodingSteps": 82,
      "PercentPhaseFieldOfView": 100.0,
      "PercentSampling": 100.0,
      "PerformedProcedureStepStartTime": "082217.410000",
      "PhotometricInterpretation": "MONOCHROME2",
      "PixelBandwidth": 3050.0,
      "PixelRepresentation": 0,
      "PixelSpacing": [2.6829268932343, 2.6829268932343],
      "ProtocolName": "func_run-02_task-faces_acq-ap-mb8",
      "RepetitionTime": 460.0,
      "Rows": 656,
      "SAR": 0.07553407477888,
      "SamplesPerPixel": 1,
      "ScanOptions": "FS",
      "ScanningSequence": "EP",
      "SequenceName": "epfid2d1_82",
      "SequenceVariant": [
        "SK",
        "SS"
],
      "SeriesDescription": "func_run-02_task-faces_acq-ap-mb8",
      "SeriesNumber": 18,
      "SeriesTime": "092137.593000",
      "SliceLocation": -64.534592780594,
      "SliceThickness": 2.7000000476837,
      "SmallestImagePixelValue": 0,
      "SoftwareVersions": "syngo MR E11",
      "SpacingBetweenSlices": 2.7000000557494,
      "SpecificCharacterSet": "ISO_IR 100",
      "StudyID": "2",
      "StudyTime": "082217.297000",
      "TransmitCoilName": "Body",
      "VariableFlipAngleFlag": "N",
      "WindowCenterWidthExplanation": "Algo1"
    },
    "slices": {}
  },
  "time": {
    "samples": {
      "AcquisitionNumber": [1, 2, 3, 4, 5, 6, 7, 8, 9, 10, 11, 12, 13, 14, 15, 16, 17, 18, 19, 20, 21, 22, 23, 24, 25, 26, 27, 28, 29, 30, 31, 32, 33, 34, 35, 36, 37, 38, 39, 40, 41, 42, 43, 44, 45, 46, 47, 48, 49, 50, 51, 52, 53, 54, 55, 56, 57, 58, 59, 60, 61, 62, 63, 64, 65, 66, 67, 68, 69, 70, 71, 72, 73, 74, 75, 76, 77, 78, 79, 80, 81, 82, 83, 84, 85, 86, 87, 88, 89, 90, 91, 92, 93, 94, 95, 96, 97, 98, 99, 100, 101, 102, 103, 104, 105, 106, 107, 108, 109, 110, 111, 112, 113, 114, 115, 116, 117, 118, 119, 120, 121, 122, 123, 124, 125, 126, 127, 128, 129, 130, 131, 132, 133, 134, 135, 136, 137, 138, 139, 140, 141, 142, 143, 144, 145, 146, 147, 148, 149, 150, 151, 152, 153, 154, 155, 156, 157, 158, 159, 160, 161, 162, 163, 164, 165, 166, 167, 168, 169, 170, 171, 172, 173, 174, 175, 176, 177, 178, 179, 180, 181, 182, 183, 184, 185, 186, 187, 188, 189, 190, 191, 192, 193, 194, 195, 196, 197, 198, 199, 200, 201, 202, 203, 204, 205, 206, 207, 208, 209, 210, 211, 212, 213, 214, 215, 216, 217, 218, 219, 220, 221, 222, 223, 224, 225, 226, 227, 228, 229, 230, 231, 232, 233, 234, 235, 236, 237, 238, 239, 240, 241, 242, 243, 244, 245, 246, 247, 248, 249, 250, 251, 252, 253, 254, 255, 256, 257, 258, 259, 260, 261, 262, 263, 264, 265, 266, 267, 268, 269, 270, 271, 272, 273, 274, 275, 276, 277, 278, 279, 280, 281, 282, 283, 284, 285, 286, 287, 288, 289, 290, 291, 292, 293, 294, 295, 296, 297, 298, 299, 300, 301, 302, 303, 304, 305, 306, 307, 308, 309, 310, 311, 312, 313, 314, 315, 316, 317, 318, 319, 320, 321, 322, 323, 324, 325, 326, 327, 328, 329, 330, 331, 332, 333, 334, 335, 336, 337, 338, 339, 340, 341, 342, 343, 344, 345, 346, 347, 348, 349, 350, 351, 352, 353, 354, 355, 356, 357, 358, 359, 360, 361, 362, 363, 364, 365, 366, 367, 368, 369, 370, 371, 372, 373, 374, 375, 376, 377, 378, 379, 380, 381, 382, 383, 384, 385, 386, 387, 388, 389, 390, 391, 392, 393, 394, 395, 396, 397, 398, 399, 400, 401, 402, 403, 404, 405, 406, 407, 408, 409, 410, 411, 412, 413, 414, 415, 416, 417, 418, 419, 420, 421, 422, 423, 424, 425, 426, 427, 428, 429, 430, 431, 432, 433, 434, 435, 436, 437, 438, 439, 440, 441, 442, 443, 444, 445, 446, 447, 448, 449, 450, 451, 452, 453, 454, 455, 456, 457, 458, 459, 460, 461, 462, 463, 464, 465, 466, 467, 468, 469, 470, 471, 472, 473, 474, 475, 476, 477, 478, 479, 480, 481, 482, 483, 484, 485, 486, 487, 488, 489, 490, 491, 492, 493, 494, 495, 496, 497, 498, 499, 500, 501, 502, 503, 504, 505, 506, 507, 508, 509, 510, 511, 512, 513, 514, 515, 516, 517, 518, 519, 520, 521, 522, 523, 524, 525, 526, 527, 528, 529, 530, 531, 532, 533, 534, 535, 536, 537, 538, 539, 540, 541, 542, 543, 544, 545, 546, 547, 548, 549, 550, 551, 552, 553, 554, 555, 556, 557, 558, 559, 560, 561, 562, 563, 564, 565, 566, 567, 568, 569, 570, 571, 572, 573, 574, 575, 576, 577, 578, 579, 580, 581, 582, 583, 584, 585, 586, 587, 588, 589, 590, 591, 592, 593, 594, 595, 596, 597, 598, 599, 600, 601, 602, 603, 604, 605, 606, 607, 608, 609, 610, 611, 612, 613, 614, 615, 616, 617, 618, 619, 620, 621, 622, 623, 624, 625, 626, 627, 628, 629, 630, 631, 632, 633, 634, 635, 636, 637, 638, 639, 640, 641, 642, 643, 644, 645, 646, 647, 648, 649, 650, 651, 652, 653, 654, 655, 656, 657, 658, 659, 660, 661, 662, 663, 664, 665, 666, 667, 668, 669, 670, 671, 672, 673, 674, 675, 676, 677, 678, 679, 680, 681, 682, 683, 684, 685, 686, 687, 688, 689, 690, 691, 692, 693, 694, 695, 696, 697, 698, 699, 700, 701, 702, 703, 704, 705, 706, 707, 708, 709, 710, 711, 712, 713, 714, 715, 716, 717, 718, 719, 720, 721, 722, 723, 724, 725, 726, 727, 728, 729, 730, 731, 732, 733, 734, 735, 736, 737, 738, 739, 740, 741, 742, 743, 744, 745, 746, 747, 748, 749, 750, 751, 752, 753, 754, 755, 756, 757, 758, 759, 760, 761, 762, 763, 764, 765, 766, 767, 768, 769, 770, 771, 772, 773, 774, 775, 776, 777, 778, 779, 780, 781, 782, 783, 784, 785, 786, 787, 788, 789, 790, 791, 792, 793, 794, 795, 796, 797, 798, 799, 800, 801, 802, 803, 804, 805, 806, 807, 808, 809, 810, 811, 812, 813, 814, 815, 816, 817, 818, 819, 820, 821, 822, 823, 824, 825, 826, 827, 828, 829, 830, 831, 832, 833, 834, 835, 836, 837, 838, 839, 840, 841, 842, 843, 844, 845, 846, 847, 848, 849, 850, 851, 852, 853, 854, 855, 856, 857, 858, 859, 860, 861, 862, 863, 864, 865, 866, 867, 868, 869, 870, 871, 872, 873, 874, 875, 876, 877, 878, 879, 880, 881, 882, 883, 884, 885, 886, 887, 888, 889, 890, 891, 892, 893, 894, 895, 896, 897, 898, 899, 900, 901, 902, 903, 904, 905, 906, 907, 908, 909, 910, 911, 912, 913, 914],
      "AcquisitionTime": ["092109.412500", "092109.872500", "092110.332500", "092110.792500", "092111.252500", "092111.712500", "092112.172500", "092112.632500", "092113.092500", "092113.552500", "092114.012500", "092114.472500", "092114.932500", "092115.392500", "092115.852500", "092116.312500", "092116.772500", "092117.232500", "092117.692500", "092118.152500", "092118.612500", "092119.072500", "092119.532500", "092119.992500", "092120.452500", "092120.912500", "092121.372500", "092121.832500", "092122.292500", "092122.752500", "092123.212500", "092123.672500", "092124.132500", "092124.592500", "092125.052500", "092125.512500", "092125.972500", "092126.432500", "092126.892500", "092127.352500", "092127.812500", "092128.272500", "092128.732500", "092129.192500", "092129.652500", "092130.112500", "092130.572500", "092131.032500", "092131.492500", "092131.952500", "092132.412500", "092132.872500", "092133.332500", "092133.792500", "092134.252500", "092134.712500", "092135.172500", "092135.632500", "092136.092500", "092136.552500", "092137.012500", "092137.472500", "092137.932500", "092138.392500", "092138.852500", "092139.312500", "092139.772500", "092140.232500", "092140.692500", "092141.152500", "092141.612500", "092142.072500", "092142.532500", "092142.992500", "092143.452500", "092143.912500", "092144.372500", "092144.832500", "092145.292500", "092145.752500", "092146.212500", "092146.672500", "092147.132500", "092147.592500", "092148.052500", "092148.512500", "092148.972500", "092149.432500", "092149.892500", "092150.352500", "092150.812500", "092151.272500", "092151.732500", "092152.192500", "092152.652500", "092153.112500", "092153.572500", "092154.032500", "092154.492500", "092154.952500", "092155.412500", "092155.872500", "092156.332500", "092156.792500", "092157.252500", "092157.712500", "092158.172500", "092158.632500", "092159.092500", "092159.552500", "092200.012500", "092200.472500", "092200.932500", "092201.392500", "092201.852500", "092202.312500", "092202.772500", "092203.232500", "092203.692500", "092204.152500", "092204.612500", "092205.072500", "092205.532500", "092205.992500", "092206.452500", "092206.912500", "092207.372500", "092207.832500", "092208.292500", "092208.752500", "092209.212500", "092209.672500", "092210.132500", "092210.592500", "092211.052500", "092211.512500", "092211.972500", "092212.432500", "092212.892500", "092213.352500", "092213.812500", "092214.272500", "092214.732500", "092215.192500", "092215.652500", "092216.112500", "092216.572500", "092217.032500", "092217.492500", "092217.952500", "092218.412500", "092218.872500", "092219.332500", "092219.792500", "092220.252500", "092220.712500", "092221.172500", "092221.632500", "092222.092500", "092222.552500", "092223.012500", "092223.472500", "092223.932500", "092224.392500", "092224.852500", "092225.312500", "092225.772500", "092226.232500", "092226.692500", "092227.152500", "092227.612500", "092228.072500", "092228.532500", "092228.992500", "092229.452500", "092229.912500", "092230.372500", "092230.832500", "092231.292500", "092231.752500", "092232.212500", "092232.672500", "092233.132500", "092233.592500", "092234.052500", "092234.512500", "092234.972500", "092235.432500", "092235.892500", "092236.352500", "092236.812500", "092237.272500", "092237.732500", "092238.192500", "092238.652500", "092239.112500", "092239.572500", "092240.032500", "092240.492500", "092240.952500", "092241.412500", "092241.872500", "092242.332500", "092242.792500", "092243.252500", "092243.712500", "092244.172500", "092244.632500", "092245.092500", "092245.552500", "092246.012500", "092246.472500", "092246.932500", "092247.392500", "092247.852500", "092248.312500", "092248.772500", "092249.232500", "092249.692500", "092250.152500", "092250.612500", "092251.072500", "092251.532500", "092251.992500", "092252.452500", "092252.912500", "092253.372500", "092253.832500", "092254.292500", "092254.752500", "092255.212500", "092255.672500", "092256.132500", "092256.592500", "092257.052500", "092257.512500", "092257.972500", "092258.432500", "092258.892500", "092259.352500", "092259.812500", "092300.272500", "092300.732500", "092301.192500", "092301.652500", "092302.112500", "092302.572500", "092303.032500", "092303.492500", "092303.952500", "092304.412500", "092304.872500", "092305.332500", "092305.792500", "092306.252500", "092306.712500", "092307.172500", "092307.632500", "092308.092500", "092308.552500", "092309.012500", "092309.472500", "092309.932500", "092310.392500", "092310.852500", "092311.312500", "092311.772500", "092312.232500", "092312.692500", "092313.152500", "092313.612500", "092314.072500", "092314.532500", "092314.992500", "092315.452500", "092315.912500", "092316.372500", "092316.832500", "092317.292500", "092317.752500", "092318.212500", "092318.672500", "092319.132500", "092319.592500", "092320.052500", "092320.512500", "092320.972500", "092321.432500", "092321.892500", "092322.352500", "092322.812500", "092323.272500", "092323.732500", "092324.192500", "092324.652500", "092325.112500", "092325.572500", "092326.032500", "092326.492500", "092326.952500", "092327.412500", "092327.872500", "092328.332500", "092328.792500", "092329.252500", "092329.712500", "092330.172500", "092330.632500", "092331.092500", "092331.552500", "092332.012500", "092332.472500", "092332.932500", "092333.392500", "092333.852500", "092334.312500", "092334.772500", "092335.232500", "092335.692500", "092336.152500", "092336.612500", "092337.072500", "092337.532500", "092337.992500", "092338.452500", "092338.912500", "092339.372500", "092339.832500", "092340.292500", "092340.752500", "092341.212500", "092341.672500", "092342.132500", "092342.592500", "092343.052500", "092343.512500", "092343.972500", "092344.432500", "092344.892500", "092345.352500", "092345.812500", "092346.272500", "092346.732500", "092347.192500", "092347.652500", "092348.112500", "092348.572500", "092349.032500", "092349.492500", "092349.952500", "092350.412500", "092350.872500", "092351.332500", "092351.792500", "092352.252500", "092352.712500", "092353.172500", "092353.632500", "092354.092500", "092354.552500", "092355.012500", "092355.472500", "092355.932500", "092356.392500", "092356.852500", "092357.312500", "092357.772500", "092358.232500", "092358.692500", "092359.152500", "092359.612500", "092400.072500", "092400.532500", "092400.992500", "092401.452500", "092401.912500", "092402.372500", "092402.832500", "092403.292500", "092403.752500", "092404.212500", "092404.672500", "092405.132500", "092405.592500", "092406.052500", "092406.512500", "092406.972500", "092407.432500", "092407.892500", "092408.352500", "092408.812500", "092409.272500", "092409.732500", "092410.192500", "092410.652500", "092411.112500", "092411.572500", "092412.032500", "092412.492500", "092412.952500", "092413.412500", "092413.872500", "092414.332500", "092414.792500", "092415.252500", "092415.712500", "092416.172500", "092416.632500", "092417.092500", "092417.552500", "092418.012500", "092418.472500", "092418.932500", "092419.392500", "092419.852500", "092420.312500", "092420.772500", "092421.232500", "092421.692500", "092422.152500", "092422.612500", "092423.072500", "092423.532500", "092423.992500", "092424.452500", "092424.912500", "092425.372500", "092425.832500", "092426.292500", "092426.752500", "092427.212500", "092427.672500", "092428.132500", "092428.592500", "092429.052500", "092429.512500", "092429.972500", "092430.432500", "092430.892500", "092431.352500", "092431.812500", "092432.272500", "092432.732500", "092433.192500", "092433.652500", "092434.112500", "092434.572500", "092435.032500", "092435.492500", "092435.952500", "092436.412500", "092436.872500", "092437.332500", "092437.792500", "092438.252500", "092438.712500", "092439.172500", "092439.632500", "092440.092500", "092440.552500", "092441.012500", "092441.472500", "092441.932500", "092442.392500", "092442.852500", "092443.312500", "092443.772500", "092444.232500", "092444.692500", "092445.152500", "092445.612500", "092446.072500", "092446.532500", "092446.992500", "092447.452500", "092447.912500", "092448.372500", "092448.832500", "092449.292500", "092449.752500", "092450.212500", "092450.672500", "092451.132500", "092451.592500", "092452.052500", "092452.512500", "092452.972500", "092453.432500", "092453.892500", "092454.352500", "092454.812500", "092455.272500", "092455.732500", "092456.192500", "092456.652500", "092457.112500", "092457.572500", "092458.032500", "092458.492500", "092458.952500", "092459.412500", "092459.872500", "092500.332500", "092500.792500", "092501.252500", "092501.712500", "092502.172500", "092502.632500", "092503.092500", "092503.552500", "092504.012500", "092504.472500", "092504.932500", "092505.392500", "092505.852500", "092506.312500", "092506.772500", "092507.232500", "092507.692500", "092508.152500", "092508.612500", "092509.072500", "092509.532500", "092509.992500", "092510.452500", "092510.912500", "092511.372500", "092511.832500", "092512.292500", "092512.752500", "092513.212500", "092513.672500", "092514.132500", "092514.592500", "092515.052500", "092515.512500", "092515.972500", "092516.432500", "092516.892500", "092517.352500", "092517.812500", "092518.272500", "092518.732500", "092519.192500", "092519.652500", "092520.112500", "092520.572500", "092521.032500", "092521.492500", "092521.952500", "092522.412500", "092522.872500", "092523.332500", "092523.792500", "092524.252500", "092524.712500", "092525.172500", "092525.632500", "092526.092500", "092526.552500", "092527.012500", "092527.472500", "092527.932500", "092528.392500", "092528.852500", "092529.312500", "092529.772500", "092530.232500", "092530.692500", "092531.152500", "092531.612500", "092532.072500", "092532.532500", "092532.992500", "092533.452500", "092533.912500", "092534.372500", "092534.832500", "092535.292500", "092535.752500", "092536.212500", "092536.672500", "092537.132500", "092537.592500", "092538.052500", "092538.512500", "092538.972500", "092539.432500", "092539.892500", "092540.352500", "092540.812500", "092541.272500", "092541.732500", "092542.192500", "092542.652500", "092543.112500", "092543.572500", "092544.032500", "092544.492500", "092544.952500", "092545.412500", "092545.872500", "092546.332500", "092546.792500", "092547.252500", "092547.712500", "092548.172500", "092548.632500", "092549.092500", "092549.552500", "092550.012500", "092550.472500", "092550.932500", "092551.392500", "092551.852500", "092552.312500", "092552.772500", "092553.232500", "092553.692500", "092554.152500", "092554.612500", "092555.072500", "092555.532500", "092555.992500", "092556.452500", "092556.912500", "092557.372500", "092557.832500", "092558.292500", "092558.752500", "092559.212500", "092559.672500", "092600.132500", "092600.592500", "092601.052500", "092601.512500", "092601.972500", "092602.432500", "092602.892500", "092603.352500", "092603.812500", "092604.272500", "092604.732500", "092605.192500", "092605.652500", "092606.112500", "092606.572500", "092607.032500", "092607.492500", "092607.952500", "092608.412500", "092608.872500", "092609.332500", "092609.792500", "092610.252500", "092610.712500", "092611.172500", "092611.632500", "092612.092500", "092612.552500", "092613.012500", "092613.472500", "092613.932500", "092614.392500", "092614.852500", "092615.312500", "092615.772500", "092616.232500", "092616.692500", "092617.152500", "092617.612500", "092618.072500", "092618.532500", "092618.992500", "092619.452500", "092619.912500", "092620.372500", "092620.832500", "092621.292500", "092621.752500", "092622.212500", "092622.672500", "092623.132500", "092623.592500", "092624.052500", "092624.512500", "092624.972500", "092625.432500", "092625.892500", "092626.352500", "092626.812500", "092627.272500", "092627.732500", "092628.192500", "092628.652500", "092629.112500", "092629.572500", "092630.032500", "092630.492500", "092630.952500", "092631.412500", "092631.872500", "092632.332500", "092632.792500", "092633.252500", "092633.712500", "092634.172500", "092634.632500", "092635.092500", "092635.552500", "092636.012500", "092636.472500", "092636.932500", "092637.392500", "092637.852500", "092638.312500", "092638.772500", "092639.232500", "092639.692500", "092640.152500", "092640.612500", "092641.072500", "092641.532500", "092641.992500", "092642.452500", "092642.912500", "092643.372500", "092643.832500", "092644.292500", "092644.752500", "092645.212500", "092645.672500", "092646.132500", "092646.592500", "092647.052500", "092647.512500", "092647.972500", "092648.432500", "092648.892500", "092649.352500", "092649.812500", "092650.272500", "092650.732500", "092651.192500", "092651.652500", "092652.112500", "092652.572500", "092653.032500", "092653.492500", "092653.952500", "092654.412500", "092654.872500", "092655.332500", "092655.792500", "092656.252500", "092656.712500", "092657.172500", "092657.632500", "092658.092500", "092658.552500", "092659.012500", "092659.472500", "092659.932500", "092700.392500", "092700.852500", "092701.312500", "092701.772500", "092702.232500", "092702.692500", "092703.152500", "092703.612500", "092704.072500", "092704.532500", "092704.992500", "092705.452500", "092705.912500", "092706.372500", "092706.832500", "092707.292500", "092707.752500", "092708.212500", "092708.672500", "092709.132500", "092709.592500", "092710.052500", "092710.512500", "092710.972500", "092711.432500", "092711.892500", "092712.352500", "092712.812500", "092713.272500", "092713.732500", "092714.192500", "092714.652500", "092715.112500", "092715.572500", "092716.032500", "092716.492500", "092716.952500", "092717.412500", "092717.872500", "092718.332500", "092718.792500", "092719.252500", "092719.712500", "092720.172500", "092720.632500", "092721.092500", "092721.552500", "092722.012500", "092722.472500", "092722.932500", "092723.392500", "092723.852500", "092724.312500", "092724.772500", "092725.232500", "092725.692500", "092726.152500", "092726.612500", "092727.072500", "092727.532500", "092727.992500", "092728.452500", "092728.912500", "092729.372500", "092729.832500", "092730.292500", "092730.752500", "092731.212500", "092731.672500", "092732.132500", "092732.592500", "092733.052500", "092733.512500", "092733.972500", "092734.432500", "092734.892500", "092735.352500", "092735.812500", "092736.272500", "092736.732500", "092737.192500", "092737.652500", "092738.112500", "092738.572500", "092739.032500", "092739.492500", "092739.952500", "092740.412500", "092740.872500", "092741.332500", "092741.792500", "092742.252500", "092742.712500", "092743.172500", "092743.632500", "092744.092500", "092744.552500", "092745.012500", "092745.472500", "092745.932500", "092746.392500", "092746.852500", "092747.312500", "092747.772500", "092748.232500", "092748.692500", "092749.152500", "092749.612500", "092750.072500", "092750.532500", "092750.992500", "092751.452500", "092751.912500", "092752.372500", "092752.832500", "092753.292500", "092753.752500", "092754.212500", "092754.672500", "092755.132500", "092755.592500", "092756.052500", "092756.512500", "092756.972500", "092757.432500", "092757.892500", "092758.352500", "092758.812500", "092759.272500", "092759.732500", "092800.192500", "092800.652500", "092801.112500", "092801.572500", "092802.032500", "092802.492500", "092802.952500", "092803.412500", "092803.872500", "092804.332500", "092804.792500", "092805.252500", "092805.712500", "092806.172500", "092806.632500", "092807.092500", "092807.552500", "092808.012500", "092808.472500", "092808.932500", "092809.392500"],
