{
  "AcquisitionMatrixPE": 82,
  "AcquisitionNumber": 1,
  "AcquisitionTime": "18:46:31.382500",
  "BandwidthPerPixelPhaseEncode": 24.888,
  "BaseResolution": 82,
  "BodyPartExamined": "BRAIN",
  "ConsistencyInfo": "N4_VE11E_LATEST_20181129",
  "ConversionSoftware": "dcm2niix",
  "ConversionSoftwareVersion": "v1.0.20201102",
  "DerivedVendorReportedEchoSpacing": 0.00049,
  "DeviceSerialNumber": "66112",
  "DwellTime": 2e-06,
  "EchoTime": 0.0272,
  "EchoTrainLength": 82,
  "EffectiveEchoSpacing": 0.00049,
  "FlipAngle": 44,
  "ImageComments": "Unaliased MB8/PE3",
  "ImageOrientationPatientDICOM": [0.999764, 0.0138395, 0.016766, -0.00959738, 0.972948, -0.230825],
  "ImageType": [
    "ORIGINAL",
    "PRIMARY",
    "M",
    "MB",
    "ND",
    "NORM",
    "MOSAIC"
],
  "ImagingFrequency": 123.252,
  "InPlanePhaseEncodingDirectionDICOM": "COL",
  "InstitutionAddress": "Maynard 3,Hanover,NH,US,03755",
  "InstitutionName": "Dartmouth College - PBS",
  "InstitutionalDepartmentName": "Department",
  "MRAcquisitionType": "2D",
  "MagneticFieldStrength": 3,
  "Manufacturer": "Siemens",
  "ManufacturersModelName": "Prisma",
  "Modality": "MR",
  "MultibandAccelerationFactor": 8,
  "PartialFourier": 1,
  "PatientPosition": "HFS",
  "PercentPhaseFOV": 100,
  "PercentSampling": 100,
  "PhaseEncodingDirection": "j-",
  "PhaseEncodingSteps": 82,
  "PhaseResolution": 1,
  "PixelBandwidth": 3050,
  "ProcedureStepDescription": "Wager_Wager^1076_spacetop",
  "ProtocolName": "func_run-01_task-faces_acq-ap-mb8",
  "PulseSequenceDetails": "%CustomerSeq%\\cmrr_mbep2d_bold",
  "ReceiveCoilActiveElements": "HEA;HEP",
  "ReceiveCoilName": "Head_32",
  "ReconMatrixPE": 82,
  "RepetitionTime": 0.46,
  "SAR": 0.120521,
  "ScanOptions": "FS",
  "ScanningSequence": "EP",
  "SequenceName": "epfid2d1_82",
  "SequenceVariant": "SK\\SS",
  "SeriesDescription": "func_run-01_task-faces_acq-ap-mb8",
  "SeriesNumber": 16,
  "ShimSetting": [4141, -7701, -7225, 557, -62, -156, -101, 83],
  "SliceThickness": 2.7,
  "SliceTiming": [0, 0.25, 0.0625, 0.315, 0.125, 0.3775, 0.1875, 0, 0.25, 0.0625, 0.315, 0.125, 0.3775, 0.1875, 0, 0.25, 0.0625, 0.315, 0.125, 0.3775, 0.1875, 0, 0.25, 0.0625, 0.315, 0.125, 0.3775, 0.1875, 0, 0.25, 0.0625, 0.315, 0.125, 0.3775, 0.1875, 0, 0.25, 0.0625, 0.315, 0.125, 0.3775, 0.1875, 0, 0.25, 0.0625, 0.315, 0.125, 0.3775, 0.1875, 0, 0.25, 0.0625, 0.315, 0.125, 0.3775, 0.1875],
  "SoftwareVersions": "syngo MR E11",
  "SpacingBetweenSlices": 2.7,
  "StationName": "AWP66112",
  "TaskName": "faces",
  "TotalReadoutTime": 0.03969,
  "TxRefAmp": 271.759,
  "WipMemBlock": "9f59b998-7ca2-4ecb-b637-20fba0d09f20||Sequence: R016 ve11e/master r/434b28f1; Aug  7 2019 18:53:46 by eja",
  "dcmmeta_affine": [
    [-2.6822926998138428, -0.02574906498193741, 0.05266882851719856, 112.7123031616211],
    [-0.03713040426373482, 2.6103482246398926, -0.6226456761360168, -74.4144515991211],
    [0.04498201608657837, 0.6192865371704102, 2.626697301864624, -87.26700592041016],
    [0.0, 0.0, 0.0, 1.0]
],
  "dcmmeta_reorient_transform": [
    [0.0, -1.0, 0.0, 81.0],
    [1.0, 0.0, 0.0, 0.0],
    [0.0, 0.0, 1.0, 0.0],
    [0.0, 0.0, 0.0, 1.0]
],
  "dcmmeta_shape": [82, 82, 56, 914],
  "dcmmeta_slice_dim": 2,
  "dcmmeta_version": 0.6,
  "global": {
    "const": {
      "AccessionNumber": "A004228",
      "AcquisitionMatrix": [82, 0, 0, 82],
      "AngioFlag": "N",
      "BitsAllocated": 16,
      "BitsStored": 16,
      "BodyPartExamined": "BRAIN",
      "Columns": 656,
      "EchoNumbers": 1,
      "EchoTime": 27.2,
      "EchoTrainLength": 82,
      "FlipAngle": 44.0,
      "HighBit": 15,
      "ImageOrientationPatient": [0.99976365621035, 0.01383951461981, 0.01676602385773, -0.0095973786963, 0.97294795425153, -0.2308249740386],
      "ImagePositionPatient": [-873.05468134015, -896.85012801499, 127.72059738615],
      "ImageType": [
        "ORIGINAL",
        "PRIMARY",
        "M",
        "MB",
        "ND",
        "NORM",
        "MOSAIC"
],
      "ImagedNucleus": "1H",
      "ImagingFrequency": 123.25218,
      "InPlanePhaseEncodingDirection": "COL",
      "MRAcquisitionType": "2D",
      "MagneticFieldStrength": 3.0,
      "Manufacturer": "SIEMENS",
      "ManufacturerModelName": "Prisma",
      "Modality": "MR",
      "NumberOfAverages": 1.0,
      "NumberOfPhaseEncodingSteps": 82,
      "PercentPhaseFieldOfView": 100.0,
      "PercentSampling": 100.0,
      "PerformedProcedureStepStartTime": "172953.254000",
      "PhotometricInterpretation": "MONOCHROME2",
      "PixelBandwidth": 3050.0,
      "PixelRepresentation": 0,
      "PixelSpacing": [2.6829268932343, 2.6829268932343],
      "ProtocolName": "func_run-01_task-faces_acq-ap-mb8",
      "RepetitionTime": 460.0,
      "Rows": 656,
      "SAR": 0.12052086989561,
      "SamplesPerPixel": 1,
      "ScanOptions": "FS",
      "ScanningSequence": "EP",
      "SequenceName": "epfid2d1_82",
      "SequenceVariant": [
        "SK",
        "SS"
],
      "SeriesDescription": "func_run-01_task-faces_acq-ap-mb8",
      "SeriesNumber": 16,
      "SeriesTime": "184650.600000",
      "SliceLocation": -65.538424699026,
      "SliceThickness": 2.7000000476837,
      "SmallestImagePixelValue": 0,
      "SoftwareVersions": "syngo MR E11",
      "SpacingBetweenSlices": 2.6999999642151,
      "SpecificCharacterSet": "ISO_IR 100",
      "StudyID": "3",
      "StudyTime": "172953.171000",
      "TransmitCoilName": "Body",
      "VariableFlipAngleFlag": "N",
      "WindowCenterWidthExplanation": "Algo1"
    },
    "slices": {}
  },
  "time": {
    "samples": {
      "AcquisitionNumber": [1, 2, 3, 4, 5, 6, 7, 8, 9, 10, 11, 12, 13, 14, 15, 16, 17, 18, 19, 20, 21, 22, 23, 24, 25, 26, 27, 28, 29, 30, 31, 32, 33, 34, 35, 36, 37, 38, 39, 40, 41, 42, 43, 44, 45, 46, 47, 48, 49, 50, 51, 52, 53, 54, 55, 56, 57, 58, 59, 60, 61, 62, 63, 64, 65, 66, 67, 68, 69, 70, 71, 72, 73, 74, 75, 76, 77, 78, 79, 80, 81, 82, 83, 84, 85, 86, 87, 88, 89, 90, 91, 92, 93, 94, 95, 96, 97, 98, 99, 100, 101, 102, 103, 104, 105, 106, 107, 108, 109, 110, 111, 112, 113, 114, 115, 116, 117, 118, 119, 120, 121, 122, 123, 124, 125, 126, 127, 128, 129, 130, 131, 132, 133, 134, 135, 136, 137, 138, 139, 140, 141, 142, 143, 144, 145, 146, 147, 148, 149, 150, 151, 152, 153, 154, 155, 156, 157, 158, 159, 160, 161, 162, 163, 164, 165, 166, 167, 168, 169, 170, 171, 172, 173, 174, 175, 176, 177, 178, 179, 180, 181, 182, 183, 184, 185, 186, 187, 188, 189, 190, 191, 192, 193, 194, 195, 196, 197, 198, 199, 200, 201, 202, 203, 204, 205, 206, 207, 208, 209, 210, 211, 212, 213, 214, 215, 216, 217, 218, 219, 220, 221, 222, 223, 224, 225, 226, 227, 228, 229, 230, 231, 232, 233, 234, 235, 236, 237, 238, 239, 240, 241, 242, 243, 244, 245, 246, 247, 248, 249, 250, 251, 252, 253, 254, 255, 256, 257, 258, 259, 260, 261, 262, 263, 264, 265, 266, 267, 268, 269, 270, 271, 272, 273, 274, 275, 276, 277, 278, 279, 280, 281, 282, 283, 284, 285, 286, 287, 288, 289, 290, 291, 292, 293, 294, 295, 296, 297, 298, 299, 300, 301, 302, 303, 304, 305, 306, 307, 308, 309, 310, 311, 312, 313, 314, 315, 316, 317, 318, 319, 320, 321, 322, 323, 324, 325, 326, 327, 328, 329, 330, 331, 332, 333, 334, 335, 336, 337, 338, 339, 340, 341, 342, 343, 344, 345, 346, 347, 348, 349, 350, 351, 352, 353, 354, 355, 356, 357, 358, 359, 360, 361, 362, 363, 364, 365, 366, 367, 368, 369, 370, 371, 372, 373, 374, 375, 376, 377, 378, 379, 380, 381, 382, 383, 384, 385, 386, 387, 388, 389, 390, 391, 392, 393, 394, 395, 396, 397, 398, 399, 400, 401, 402, 403, 404, 405, 406, 407, 408, 409, 410, 411, 412, 413, 414, 415, 416, 417, 418, 419, 420, 421, 422, 423, 424, 425, 426, 427, 428, 429, 430, 431, 432, 433, 434, 435, 436, 437, 438, 439, 440, 441, 442, 443, 444, 445, 446, 447, 448, 449, 450, 451, 452, 453, 454, 455, 456, 457, 458, 459, 460, 461, 462, 463, 464, 465, 466, 467, 468, 469, 470, 471, 472, 473, 474, 475, 476, 477, 478, 479, 480, 481, 482, 483, 484, 485, 486, 487, 488, 489, 490, 491, 492, 493, 494, 495, 496, 497, 498, 499, 500, 501, 502, 503, 504, 505, 506, 507, 508, 509, 510, 511, 512, 513, 514, 515, 516, 517, 518, 519, 520, 521, 522, 523, 524, 525, 526, 527, 528, 529, 530, 531, 532, 533, 534, 535, 536, 537, 538, 539, 540, 541, 542, 543, 544, 545, 546, 547, 548, 549, 550, 551, 552, 553, 554, 555, 556, 557, 558, 559, 560, 561, 562, 563, 564, 565, 566, 567, 568, 569, 570, 571, 572, 573, 574, 575, 576, 577, 578, 579, 580, 581, 582, 583, 584, 585, 586, 587, 588, 589, 590, 591, 592, 593, 594, 595, 596, 597, 598, 599, 600, 601, 602, 603, 604, 605, 606, 607, 608, 609, 610, 611, 612, 613, 614, 615, 616, 617, 618, 619, 620, 621, 622, 623, 624, 625, 626, 627, 628, 629, 630, 631, 632, 633, 634, 635, 636, 637, 638, 639, 640, 641, 642, 643, 644, 645, 646, 647, 648, 649, 650, 651, 652, 653, 654, 655, 656, 657, 658, 659, 660, 661, 662, 663, 664, 665, 666, 667, 668, 669, 670, 671, 672, 673, 674, 675, 676, 677, 678, 679, 680, 681, 682, 683, 684, 685, 686, 687, 688, 689, 690, 691, 692, 693, 694, 695, 696, 697, 698, 699, 700, 701, 702, 703, 704, 705, 706, 707, 708, 709, 710, 711, 712, 713, 714, 715, 716, 717, 718, 719, 720, 721, 722, 723, 724, 725, 726, 727, 728, 729, 730, 731, 732, 733, 734, 735, 736, 737, 738, 739, 740, 741, 742, 743, 744, 745, 746, 747, 748, 749, 750, 751, 752, 753, 754, 755, 756, 757, 758, 759, 760, 761, 762, 763, 764, 765, 766, 767, 768, 769, 770, 771, 772, 773, 774, 775, 776, 777, 778, 779, 780, 781, 782, 783, 784, 785, 786, 787, 788, 789, 790, 791, 792, 793, 794, 795, 796, 797, 798, 799, 800, 801, 802, 803, 804, 805, 806, 807, 808, 809, 810, 811, 812, 813, 814, 815, 816, 817, 818, 819, 820, 821, 822, 823, 824, 825, 826, 827, 828, 829, 830, 831, 832, 833, 834, 835, 836, 837, 838, 839, 840, 841, 842, 843, 844, 845, 846, 847, 848, 849, 850, 851, 852, 853, 854, 855, 856, 857, 858, 859, 860, 861, 862, 863, 864, 865, 866, 867, 868, 869, 870, 871, 872, 873, 874, 875, 876, 877, 878, 879, 880, 881, 882, 883, 884, 885, 886, 887, 888, 889, 890, 891, 892, 893, 894, 895, 896, 897, 898, 899, 900, 901, 902, 903, 904, 905, 906, 907, 908, 909, 910, 911, 912, 913, 914],
      "AcquisitionTime": ["184631.382500", "184631.842500", "184632.302500", "184632.762500", "184633.222500", "184633.682500", "184634.142500", "184634.602500", "184635.062500", "184635.522500", "184635.982500", "184636.442500", "184636.902500", "184637.362500", "184637.822500", "184638.282500", "184638.742500", "184639.202500", "184639.662500", "184640.122500", "184640.582500", "184641.042500", "184641.502500", "184641.962500", "184642.422500", "184642.882500", "184643.342500", "184643.802500", "184644.262500", "184644.722500", "184645.182500", "184645.642500", "184646.102500", "184646.562500", "184647.022500", "184647.482500", "184647.942500", "184648.402500", "184648.862500", "184649.322500", "184649.782500", "184650.242500", "184650.702500", "184651.162500", "184651.622500", "184652.082500", "184652.542500", "184653.002500", "184653.462500", "184653.922500", "184654.382500", "184654.842500", "184655.302500", "184655.762500", "184656.222500", "184656.682500", "184657.142500", "184657.602500", "184658.062500", "184658.522500", "184658.982500", "184659.442500", "184659.902500", "184700.362500", "184700.822500", "184701.282500", "184701.742500", "184702.202500", "184702.662500", "184703.122500", "184703.582500", "184704.042500", "184704.502500", "184704.962500", "184705.422500", "184705.882500", "184706.342500", "184706.802500", "184707.262500", "184707.722500", "184708.182500", "184708.642500", "184709.102500", "184709.562500", "184710.022500", "184710.482500", "184710.942500", "184711.402500", "184711.862500", "184712.322500", "184712.782500", "184713.242500", "184713.702500", "184714.162500", "184714.622500", "184715.082500", "184715.542500", "184716.002500", "184716.462500", "184716.922500", "184717.382500", "184717.842500", "184718.302500", "184718.762500", "184719.222500", "184719.682500", "184720.142500", "184720.602500", "184721.062500", "184721.522500", "184721.982500", "184722.442500", "184722.902500", "184723.362500", "184723.822500", "184724.282500", "184724.742500", "184725.202500", "184725.662500", "184726.122500", "184726.582500", "184727.042500", "184727.502500", "184727.962500", "184728.422500", "184728.882500", "184729.342500", "184729.802500", "184730.262500", "184730.722500", "184731.182500", "184731.642500", "184732.102500", "184732.562500", "184733.022500", "184733.482500", "184733.942500", "184734.402500", "184734.862500", "184735.322500", "184735.782500", "184736.242500", "184736.702500", "184737.162500", "184737.622500", "184738.082500", "184738.542500", "184739.002500", "184739.462500", "184739.922500", "184740.382500", "184740.842500", "184741.302500", "184741.762500", "184742.222500", "184742.682500", "184743.142500", "184743.602500", "184744.062500", "184744.522500", "184744.982500", "184745.442500", "184745.902500", "184746.362500", "184746.822500", "184747.282500", "184747.742500", "184748.202500", "184748.662500", "184749.122500", "184749.582500", "184750.042500", "184750.502500", "184750.962500", "184751.422500", "184751.882500", "184752.342500", "184752.802500", "184753.262500", "184753.722500", "184754.182500", "184754.642500", "184755.102500", "184755.562500", "184756.022500", "184756.482500", "184756.942500", "184757.402500", "184757.862500", "184758.322500", "184758.782500", "184759.242500", "184759.702500", "184800.162500", "184800.622500", "184801.082500", "184801.542500", "184802.002500", "184802.462500", "184802.922500", "184803.382500", "184803.842500", "184804.302500", "184804.762500", "184805.222500", "184805.682500", "184806.142500", "184806.602500", "184807.062500", "184807.522500", "184807.982500", "184808.442500", "184808.902500", "184809.362500", "184809.822500", "184810.282500", "184810.742500", "184811.202500", "184811.662500", "184812.122500", "184812.582500", "184813.042500", "184813.502500", "184813.962500", "184814.422500", "184814.882500", "184815.342500", "184815.802500", "184816.262500", "184816.722500", "184817.182500", "184817.642500", "184818.102500", "184818.562500", "184819.022500", "184819.482500", "184819.942500", "184820.402500", "184820.862500", "184821.322500", "184821.782500", "184822.242500", "184822.702500", "184823.162500", "184823.622500", "184824.082500", "184824.542500", "184825.002500", "184825.462500", "184825.922500", "184826.382500", "184826.842500", "184827.302500", "184827.762500", "184828.222500", "184828.682500", "184829.142500", "184829.602500", "184830.062500", "184830.522500", "184830.982500", "184831.442500", "184831.902500", "184832.362500", "184832.822500", "184833.282500", "184833.742500", "184834.202500", "184834.662500", "184835.122500", "184835.582500", "184836.042500", "184836.502500", "184836.962500", "184837.422500", "184837.882500", "184838.342500", "184838.802500", "184839.262500", "184839.722500", "184840.182500", "184840.642500", "184841.102500", "184841.562500", "184842.022500", "184842.482500", "184842.942500", "184843.402500", "184843.862500", "184844.322500", "184844.782500", "184845.242500", "184845.702500", "184846.162500", "184846.622500", "184847.082500", "184847.542500", "184848.002500", "184848.462500", "184848.922500", "184849.382500", "184849.842500", "184850.302500", "184850.762500", "184851.222500", "184851.682500", "184852.142500", "184852.602500", "184853.062500", "184853.522500", "184853.982500", "184854.442500", "184854.902500", "184855.362500", "184855.822500", "184856.282500", "184856.742500", "184857.202500", "184857.662500", "184858.122500", "184858.582500", "184859.042500", "184859.502500", "184859.962500", "184900.422500", "184900.882500", "184901.342500", "184901.802500", "184902.262500", "184902.722500", "184903.182500", "184903.642500", "184904.102500", "184904.562500", "184905.022500", "184905.482500", "184905.942500", "184906.402500", "184906.862500", "184907.322500", "184907.782500", "184908.242500", "184908.702500", "184909.162500", "184909.622500", "184910.082500", "184910.542500", "184911.002500", "184911.462500", "184911.922500", "184912.382500", "184912.842500", "184913.302500", "184913.762500", "184914.222500", "184914.682500", "184915.142500", "184915.602500", "184916.062500", "184916.522500", "184916.982500", "184917.442500", "184917.902500", "184918.362500", "184918.822500", "184919.282500", "184919.742500", "184920.202500", "184920.662500", "184921.122500", "184921.582500", "184922.042500", "184922.502500", "184922.962500", "184923.422500", "184923.882500", "184924.342500", "184924.802500", "184925.262500", "184925.722500", "184926.182500", "184926.642500", "184927.102500", "184927.562500", "184928.022500", "184928.482500", "184928.942500", "184929.402500", "184929.862500", "184930.322500", "184930.782500", "184931.242500", "184931.702500", "184932.162500", "184932.622500", "184933.082500", "184933.542500", "184934.002500", "184934.462500", "184934.922500", "184935.382500", "184935.842500", "184936.302500", "184936.762500", "184937.222500", "184937.682500", "184938.142500", "184938.602500", "184939.062500", "184939.522500", "184939.982500", "184940.442500", "184940.902500", "184941.362500", "184941.822500", "184942.282500", "184942.742500", "184943.202500", "184943.662500", "184944.122500", "184944.582500", "184945.042500", "184945.502500", "184945.962500", "184946.422500", "184946.882500", "184947.342500", "184947.802500", "184948.262500", "184948.722500", "184949.182500", "184949.642500", "184950.102500", "184950.562500", "184951.022500", "184951.482500", "184951.942500", "184952.402500", "184952.862500", "184953.322500", "184953.782500", "184954.242500", "184954.702500", "184955.162500", "184955.622500", "184956.082500", "184956.542500", "184957.002500", "184957.462500", "184957.922500", "184958.382500", "184958.842500", "184959.302500", "184959.762500", "185000.222500", "185000.682500", "185001.142500", "185001.602500", "185002.062500", "185002.522500", "185002.982500", "185003.442500", "185003.902500", "185004.362500", "185004.822500", "185005.282500", "185005.742500", "185006.202500", "185006.662500", "185007.122500", "185007.582500", "185008.042500", "185008.502500", "185008.962500", "185009.422500", "185009.882500", "185010.342500", "185010.802500", "185011.262500", "185011.722500", "185012.182500", "185012.642500", "185013.102500", "185013.562500", "185014.022500", "185014.482500", "185014.942500", "185015.402500", "185015.862500", "185016.322500", "185016.782500", "185017.242500", "185017.702500", "185018.162500", "185018.622500", "185019.082500", "185019.542500", "185020.002500", "185020.462500", "185020.922500", "185021.382500", "185021.842500", "185022.302500", "185022.762500", "185023.222500", "185023.682500", "185024.142500", "185024.602500", "185025.062500", "185025.522500", "185025.982500", "185026.442500", "185026.902500", "185027.362500", "185027.822500", "185028.282500", "185028.742500", "185029.202500", "185029.662500", "185030.122500", "185030.582500", "185031.042500", "185031.502500", "185031.962500", "185032.422500", "185032.882500", "185033.342500", "185033.802500", "185034.262500", "185034.722500", "185035.182500", "185035.642500", "185036.102500", "185036.562500", "185037.022500", "185037.482500", "185037.942500", "185038.402500", "185038.862500", "185039.322500", "185039.782500", "185040.242500", "185040.702500", "185041.162500", "185041.622500", "185042.082500", "185042.542500", "185043.002500", "185043.462500", "185043.922500", "185044.382500", "185044.842500", "185045.302500", "185045.762500", "185046.222500", "185046.682500", "185047.142500", "185047.602500", "185048.062500", "185048.522500", "185048.982500", "185049.442500", "185049.902500", "185050.362500", "185050.822500", "185051.282500", "185051.742500", "185052.202500", "185052.662500", "185053.122500", "185053.582500", "185054.042500", "185054.502500", "185054.962500", "185055.422500", "185055.882500", "185056.342500", "185056.802500", "185057.262500", "185057.722500", "185058.182500", "185058.642500", "185059.102500", "185059.562500", "185100.022500", "185100.482500", "185100.942500", "185101.402500", "185101.862500", "185102.322500", "185102.782500", "185103.242500", "185103.702500", "185104.162500", "185104.622500", "185105.082500", "185105.542500", "185106.002500", "185106.462500", "185106.922500", "185107.382500", "185107.842500", "185108.302500", "185108.762500", "185109.222500", "185109.682500", "185110.142500", "185110.602500", "185111.062500", "185111.522500", "185111.982500", "185112.442500", "185112.902500", "185113.362500", "185113.822500", "185114.282500", "185114.742500", "185115.202500", "185115.662500", "185116.122500", "185116.582500", "185117.042500", "185117.502500", "185117.962500", "185118.422500", "185118.882500", "185119.342500", "185119.802500", "185120.262500", "185120.722500", "185121.182500", "185121.642500", "185122.102500", "185122.562500", "185123.022500", "185123.482500", "185123.942500", "185124.402500", "185124.862500", "185125.322500", "185125.782500", "185126.242500", "185126.702500", "185127.162500", "185127.622500", "185128.082500", "185128.542500", "185129.002500", "185129.462500", "185129.922500", "185130.382500", "185130.842500", "185131.302500", "185131.762500", "185132.222500", "185132.682500", "185133.142500", "185133.602500", "185134.062500", "185134.522500", "185134.982500", "185135.442500", "185135.902500", "185136.362500", "185136.822500", "185137.282500", "185137.742500", "185138.202500", "185138.662500", "185139.122500", "185139.582500", "185140.042500", "185140.502500", "185140.962500", "185141.422500", "185141.882500", "185142.342500", "185142.802500", "185143.262500", "185143.722500", "185144.182500", "185144.642500", "185145.102500", "185145.562500", "185146.022500", "185146.482500", "185146.942500", "185147.402500", "185147.862500", "185148.322500", "185148.782500", "185149.242500", "185149.702500", "185150.162500", "185150.622500", "185151.082500", "185151.542500", "185152.002500", "185152.462500", "185152.922500", "185153.382500", "185153.842500", "185154.302500", "185154.762500", "185155.222500", "185155.682500", "185156.142500", "185156.602500", "185157.062500", "185157.522500", "185157.982500", "185158.442500", "185158.902500", "185159.362500", "185159.822500", "185200.282500", "185200.742500", "185201.202500", "185201.662500", "185202.122500", "185202.582500", "185203.042500", "185203.502500", "185203.962500", "185204.422500", "185204.882500", "185205.342500", "185205.802500", "185206.262500", "185206.722500", "185207.182500", "185207.642500", "185208.102500", "185208.562500", "185209.022500", "185209.482500", "185209.942500", "185210.402500", "185210.862500", "185211.322500", "185211.782500", "185212.242500", "185212.702500", "185213.162500", "185213.622500", "185214.082500", "185214.542500", "185215.002500", "185215.462500", "185215.922500", "185216.382500", "185216.842500", "185217.302500", "185217.762500", "185218.222500", "185218.682500", "185219.142500", "185219.602500", "185220.062500", "185220.522500", "185220.982500", "185221.442500", "185221.902500", "185222.362500", "185222.822500", "185223.282500", "185223.742500", "185224.202500", "185224.662500", "185225.122500", "185225.582500", "185226.042500", "185226.502500", "185226.962500", "185227.422500", "185227.882500", "185228.342500", "185228.802500", "185229.262500", "185229.722500", "185230.182500", "185230.642500", "185231.102500", "185231.562500", "185232.022500", "185232.482500", "185232.942500", "185233.402500", "185233.862500", "185234.322500", "185234.782500", "185235.242500", "185235.702500", "185236.162500", "185236.622500", "185237.082500", "185237.542500", "185238.002500", "185238.462500", "185238.922500", "185239.382500", "185239.842500", "185240.302500", "185240.762500", "185241.222500", "185241.682500", "185242.142500", "185242.602500", "185243.062500", "185243.522500", "185243.982500", "185244.442500", "185244.902500", "185245.362500", "185245.822500", "185246.282500", "185246.742500", "185247.202500", "185247.662500", "185248.122500", "185248.582500", "185249.042500", "185249.502500", "185249.962500", "185250.422500", "185250.882500", "185251.342500", "185251.802500", "185252.262500", "185252.722500", "185253.182500", "185253.642500", "185254.102500", "185254.562500", "185255.022500", "185255.482500", "185255.942500", "185256.402500", "185256.862500", "185257.322500", "185257.782500", "185258.242500", "185258.702500", "185259.162500", "185259.622500", "185300.082500", "185300.542500", "185301.002500", "185301.462500", "185301.922500", "185302.382500", "185302.842500", "185303.302500", "185303.762500", "185304.222500", "185304.682500", "185305.142500", "185305.602500", "185306.062500", "185306.522500", "185306.982500", "185307.442500", "185307.902500", "185308.362500", "185308.822500", "185309.282500", "185309.742500", "185310.202500", "185310.662500", "185311.122500", "185311.582500", "185312.042500", "185312.502500", "185312.962500", "185313.422500", "185313.882500", "185314.342500", "185314.802500", "185315.262500", "185315.722500", "185316.182500", "185316.642500", "185317.102500", "185317.562500", "185318.022500", "185318.482500", "185318.942500", "185319.402500", "185319.862500", "185320.322500", "185320.782500", "185321.242500", "185321.702500", "185322.162500", "185322.622500", "185323.082500", "185323.542500", "185324.002500", "185324.462500", "185324.922500", "185325.382500", "185325.842500", "185326.302500", "185326.762500", "185327.222500", "185327.682500", "185328.142500", "185328.602500", "185329.062500", "185329.522500", "185329.982500", "185330.442500", "185330.902500", "185331.362500"],
