{
  "AcquisitionMatrixPE": 140,
  "AcquisitionNumber": 1,
  "AcquisitionTime": "20:49:19.002500",
  "BandwidthPerPixelPhaseEncode": 10.352,
  "BaseResolution": 140,
  "BodyPartExamined": "BRAIN",
  "ConsistencyInfo": "N4_VE11E_LATEST_20181129",
  "ConversionSoftware": "dcm2niix",
  "ConversionSoftwareVersion": "v1.0.20201102",
  "DerivedVendorReportedEchoSpacing": 0.000689998,
  "DeviceSerialNumber": "66112",
  "DiffusionScheme": "Monopolar",
  "DwellTime": 2.1e-06,
  "EchoTime": 0.088,
  "EchoTrainLength": 105,
  "EffectiveEchoSpacing": 0.000689998,
  "FlipAngle": 90,
  "ImageComments": "Unaliased MB3/PE3",
  "ImageOrientationPatientDICOM": [0.998138, -0.0541804, -0.0280313, 0.0580767, 0.984598, 0.164908],
  "ImageType": [
    "ORIGINAL",
    "PRIMARY",
    "DIFFUSION",
    "NONE",
    "MB",
    "ND"
],
  "ImagingFrequency": 123.259,
  "InPlanePhaseEncodingDirectionDICOM": "COL",
  "InstitutionAddress": "Maynard 3,Hanover,NH,US,03755",
  "InstitutionName": "Dartmouth College - PBS",
  "InstitutionalDepartmentName": "Department",
  "IntendedFor": [
    "ses-01/dwi/sub-0109_ses-01_acq-96dirX6b0Xmb_dwi.nii.gz"
],
  "MRAcquisitionType": "2D",
  "MagneticFieldStrength": 3,
  "Manufacturer": "Siemens",
  "ManufacturersModelName": "Prisma",
  "Modality": "MR",
  "MultibandAccelerationFactor": 3,
  "PartialFourier": 0.75,
  "PatientPosition": "HFS",
  "PercentPhaseFOV": 100,
  "PercentSampling": 100,
  "PhaseEncodingDirection": "j-",
  "PhaseEncodingSteps": 105,
  "PhaseResolution": 1,
  "PixelBandwidth": 1700,
  "ProcedureStepDescription": "Wager_Wager^1076_spacetop",
  "ProtocolName": "dwi_acq-discorr-AP",
  "PulseSequenceDetails": "%CustomerSeq%\\cmrr_mbep2d_diff",
  "ReceiveCoilActiveElements": "HEA;HEP",
  "ReceiveCoilName": "Head_32",
  "ReconMatrixPE": 140,
  "RepetitionTime": 4.1,
  "SAR": 0.153731,
  "ScanOptions": "PFP\\FS",
  "ScanningSequence": "EP",
  "SequenceName": "ep_b0",
  "SequenceVariant": "SK\\SS",
  "SeriesDescription": "dwi_acq-discorr-AP",
  "SeriesNumber": 7,
  "ShimSetting": [4222, -7781, -7258, 318, -91, 33, -17, 88],
  "SliceThickness": 1.7,
  "SliceTiming": [0, 2.125, 0.15625, 2.26562, 0.3125, 2.42188, 0.45312, 2.57812, 0.60938, 2.71875, 0.75, 2.875, 0.90625, 3.03125, 1.0625, 3.17188, 1.21875, 3.32812, 1.35938, 3.48438, 1.51562, 3.625, 1.67188, 3.78125, 1.8125, 3.9375, 1.96875, 0, 2.125, 0.15625, 2.26562, 0.3125, 2.42188, 0.45312, 2.57812, 0.60938, 2.71875, 0.75, 2.875, 0.90625, 3.03125, 1.0625, 3.17188, 1.21875, 3.32812, 1.35938, 3.48438, 1.51562, 3.625, 1.67188, 3.78125, 1.8125, 3.9375, 1.96875, 0, 2.125, 0.15625, 2.26562, 0.3125, 2.42188, 0.45312, 2.57812, 0.60938, 2.71875, 0.75, 2.875, 0.90625, 3.03125, 1.0625, 3.17188, 1.21875, 3.32812, 1.35938, 3.48438, 1.51562, 3.625, 1.67188, 3.78125, 1.8125, 3.9375, 1.96875],
  "SoftwareVersions": "syngo MR E11",
  "SpacingBetweenSlices": 1.7,
  "StationName": "AWP66112",
  "TotalReadoutTime": 0.0959097,
  "TxRefAmp": 241.594,
  "WipMemBlock": "70379510-443a-42a9-a210-7ec09a463c7b||Sequence: R016 ve11e/master r/434b28f1; Aug  7 2019 19:06:17 by eja",
  "dcmmeta_affine": [
    [-1.7110930681228638, 0.09955999255180359, -0.031729698181152344, 119.58521270751953],
    [0.0928807333111763, 1.687881588935852, 0.2825889587402344, -123.47235870361328],
    [-0.048053592443466187, -0.2826997637748718, 1.6760482788085938, -56.4251594543457],
    [0.0, 0.0, 0.0, 1.0]
],
  "dcmmeta_reorient_transform": [
    [0.0, -1.0, 0.0, 139.0],
    [1.0, 0.0, 0.0, 0.0],
    [0.0, 0.0, -1.0, 80.0],
    [0.0, 0.0, 0.0, 1.0]
],
  "dcmmeta_shape": [140, 140, 81],
  "dcmmeta_slice_dim": 2,
  "dcmmeta_version": 0.6,
  "global": {
    "const": {
      "AccessionNumber": "A004464",
      "AcquisitionMatrix": [140, 0, 0, 140],
      "AcquisitionNumber": 1,
      "AngioFlag": "N",
      "BitsAllocated": 16,
      "BitsStored": 16,
      "BodyPartExamined": "BRAIN",
      "Columns": 140,
      "EchoNumbers": 1,
      "EchoTime": 88.0,
      "EchoTrainLength": 105,
      "FlipAngle": 90.0,
      "HighBit": 15,
      "ImageOrientationPatient": [0.99813763054973, -0.0541804280968, -0.0280312627581, 0.05807666346541, 0.98459757600102, 0.16490820020135],
      "ImageType": [
        "ORIGINAL",
        "PRIMARY",
        "DIFFUSION",
        "NONE",
        "MB",
        "ND"
],
      "ImagedNucleus": "1H",
      "ImagingFrequency": 123.259106,
      "InPlanePhaseEncodingDirection": "COL",
      "MRAcquisitionType": "2D",
      "MagneticFieldStrength": 3.0,
      "Manufacturer": "SIEMENS",
      "ManufacturerModelName": "Prisma",
      "Modality": "MR",
      "NumberOfAverages": 1.0,
      "NumberOfPhaseEncodingSteps": 105,
      "PercentPhaseFieldOfView": 100.0,
      "PercentSampling": 100.0,
      "PerformedProcedureStepStartTime": "202635.875000",
      "PhotometricInterpretation": "MONOCHROME2",
      "PixelBandwidth": 1700.0,
      "PixelRepresentation": 0,
      "PixelSpacing": [1.7142857313156, 1.7142857313156],
      "ProtocolName": "dwi_acq-discorr-AP",
      "RepetitionTime": 4100.0,
      "Rows": 140,
      "SAR": 0.15373088538506,
      "SamplesPerPixel": 1,
      "ScanOptions": [
        "PFP",
        "FS"
],
      "ScanningSequence": "EP",
      "SequenceName": "ep_b0",
      "SequenceVariant": [
        "SK",
        "SS"
],
      "SeriesDescription": "dwi_acq-discorr-AP",
      "SeriesNumber": 7,
      "SeriesTime": "204923.728000",
      "SliceThickness": 1.7000000476837,
      "SmallestImagePixelValue": 0,
      "SoftwareVersions": "syngo MR E11",
      "SpacingBetweenSlices": 1.7,
      "SpecificCharacterSet": "ISO_IR 100",
      "StudyID": "1",
      "StudyTime": "202635.813000",
      "TransmitCoilName": "Body",
      "VariableFlipAngleFlag": "N",
      "WindowCenterWidthExplanation": "Algo1"
    },
    "slices": {
      "AcquisitionTime": ["204919.002500", "204921.117500", "204919.155000", "204921.270000", "204919.305000", "204921.420000", "204919.457500", "204921.572500", "204919.607500", "204921.722500", "204919.757500", "204921.875000", "204919.910000", "204922.025000", "204920.060000", "204922.177500", "204920.212500", "204922.327500", "204920.362500", "204922.477500", "204920.515000", "204922.630000", "204920.665000", "204922.780000", "204920.817500", "204922.932500", "204920.967500", "204919.002500", "204921.117500", "204919.155000", "204921.270000", "204919.305000", "204921.420000", "204919.457500", "204921.572500", "204919.607500", "204921.722500", "204919.757500", "204921.875000", "204919.910000", "204922.025000", "204920.060000", "204922.177500", "204920.212500", "204922.327500", "204920.362500", "204922.477500", "204920.515000", "204922.630000", "204920.665000", "204922.780000", "204920.817500", "204922.932500", "204920.967500", "204919.002500", "204921.117500", "204919.155000", "204921.270000", "204919.305000", "204921.420000", "204919.457500", "204921.572500", "204919.607500", "204921.722500", "204919.757500", "204921.875000", "204919.910000", "204922.025000", "204920.060000", "204922.177500", "204920.212500", "204922.327500", "204920.362500", "204922.477500", "204920.515000", "204922.630000", "204920.665000", "204922.780000", "204920.817500", "204922.932500", "204920.967500"],
      "ContentTime": ["204923.731000", "204923.818000", "204923.738000", "204923.824000", "204923.744000", "204923.837000", "204923.750000", "204923.843000", "204923.756000", "204923.849000", "204923.762000", "204923.855000", "204923.768000", "204923.861000", "204923.776000", "204923.868000", "204923.782000", "204923.874000", "204923.788000", "204923.880000", "204923.794000", "204923.886000", "204923.800000", "204923.892000", "204923.806000", "204923.898000", "204923.812000", "204923.734000", "204923.820000", "204923.740000", "204923.833000", "204923.746000", "204923.839000", "204923.752000", "204923.845000", "204923.758000", "204923.851000", "204923.764000", "204923.857000", "204923.770000", "204923.864000", "204923.778000", "204923.870000", "204923.784000", "204923.876000", "204923.790000", "204923.882000", "204923.796000", "204923.888000", "204923.802000", "204923.894000", "204923.808000", "204923.900000", "204923.814000", "204923.736000", "204923.822000", "204923.742000", "204923.835000", "204923.748000", "204923.841000", "204923.754000", "204923.847000", "204923.760000", "204923.853000", "204923.766000", "204923.859000", "204923.774000", "204923.866000", "204923.780000", "204923.872000", "204923.786000", "204923.878000", "204923.792000", "204923.884000", "204923.798000", "204923.890000", "204923.804000", "204923.896000", "204923.810000", "204923.902000", "204923.816000"],
      "CsaImage.GSWDDataType": [
        "predicted",
        "predicted",
        "predicted",
        "predicted",
        "predicted",
        "predicted",
        "predicted",
        "predicted",
        "predicted",
        "predicted",
        "predicted",
        "predicted",
        "predicted",
        "predicted",
        "predicted",
        "predicted",
        "predicted",
        "predicted",
        "predicted",
        "predicted",
        "predicted",
        "predicted",
        "predicted",
        "measured",
        "predicted",
        "measured",
        "predicted",
        "predicted",
        "predicted",
        "predicted",
        "predicted",
        "predicted",
        "predicted",
        "predicted",
        "predicted",
        "predicted",
        "predicted",
        "predicted",
        "predicted",
        "predicted",
        "predicted",
        "predicted",
        "predicted",
        "predicted",
        "predicted",
        "predicted",
        "predicted",
        "predicted",
        "predicted",
        "predicted",
        "measured",
        "predicted",
        "measured",
        "predicted",
        "predicted",
        "predicted",
        "predicted",
        "predicted",
        "predicted",
        "predicted",
        "predicted",
        "predicted",
        "predicted",
        "predicted",
        "predicted",
        "predicted",
        "predicted",
        "predicted",
        "predicted",
        "predicted",
        "predicted",
        "predicted",
        "predicted",
        "predicted",
        "predicted",
        "predicted",
        "predicted",
        "measured",
        "predicted",
        "measured",
        "predicted"
],
      "CsaImage.ICE_Dims": [
        "X_1_1_1_1_1_1_1_1_1_1_1_222",
        "X_1_1_1_1_1_1_42_1_1_2_1_222",
        "X_1_1_1_1_1_1_2_1_1_3_1_222",
        "X_1_1_1_1_1_1_43_1_1_4_1_222",
        "X_1_1_1_1_1_1_3_1_1_5_1_222",
        "X_1_1_1_1_1_1_44_1_1_6_1_222",
        "X_1_1_1_1_1_1_4_1_1_7_1_222",
        "X_1_1_1_1_1_1_45_1_1_8_1_222",
        "X_1_1_1_1_1_1_5_1_1_9_1_222",
        "X_1_1_1_1_1_1_46_1_1_10_1_222",
        "X_1_1_1_1_1_1_6_1_1_11_1_222",
        "X_1_1_1_1_1_1_47_1_1_12_1_222",
        "X_1_1_1_1_1_1_7_1_1_13_1_222",
        "X_1_1_1_1_1_1_48_1_1_14_1_222",
        "X_1_1_1_1_1_1_8_1_1_15_1_222",
        "X_1_1_1_1_1_1_49_1_1_16_1_222",
        "X_1_1_1_1_1_1_9_1_1_17_1_222",
        "X_1_1_1_1_1_1_50_1_1_18_1_222",
        "X_1_1_1_1_1_1_10_1_1_19_1_222",
        "X_1_1_1_1_1_1_51_1_1_20_1_222",
        "X_1_1_1_1_1_1_11_1_1_21_1_222",
        "X_1_1_1_1_1_1_52_1_1_22_1_222",
        "X_1_1_1_1_1_1_12_1_1_23_1_222",
        "X_1_1_1_1_1_1_53_1_1_24_1_222",
        "X_1_1_1_1_1_1_13_1_1_25_1_222",
        "X_1_1_1_1_1_1_54_1_1_26_1_222",
        "X_1_1_1_1_1_1_14_1_1_27_1_222",
        "X_1_1_1_1_1_1_55_1_1_28_1_222",
        "X_1_1_1_1_1_1_15_1_1_29_1_222",
        "X_1_1_1_1_1_1_56_1_1_30_1_222",
        "X_1_1_1_1_1_1_16_1_1_31_1_222",
        "X_1_1_1_1_1_1_57_1_1_32_1_222",
        "X_1_1_1_1_1_1_17_1_1_33_1_222",
        "X_1_1_1_1_1_1_58_1_1_34_1_222",
        "X_1_1_1_1_1_1_18_1_1_35_1_222",
        "X_1_1_1_1_1_1_59_1_1_36_1_222",
        "X_1_1_1_1_1_1_19_1_1_37_1_222",
        "X_1_1_1_1_1_1_60_1_1_38_1_222",
        "X_1_1_1_1_1_1_20_1_1_39_1_222",
        "X_1_1_1_1_1_1_61_1_1_40_1_222",
        "X_1_1_1_1_1_1_21_1_1_41_1_222",
        "X_1_1_1_1_1_1_62_1_1_42_1_222",
        "X_1_1_1_1_1_1_22_1_1_43_1_222",
        "X_1_1_1_1_1_1_63_1_1_44_1_222",
        "X_1_1_1_1_1_1_23_1_1_45_1_222",
        "X_1_1_1_1_1_1_64_1_1_46_1_222",
        "X_1_1_1_1_1_1_24_1_1_47_1_222",
        "X_1_1_1_1_1_1_65_1_1_48_1_222",
        "X_1_1_1_1_1_1_25_1_1_49_1_222",
        "X_1_1_1_1_1_1_66_1_1_50_1_222",
        "X_1_1_1_1_1_1_26_1_1_51_1_222",
        "X_1_1_1_1_1_1_67_1_1_52_1_222",
        "X_1_1_1_1_1_1_27_1_1_53_1_222",
        "X_1_1_1_1_1_1_68_1_1_54_1_222",
        "X_1_1_1_1_1_1_28_1_1_55_1_222",
        "X_1_1_1_1_1_1_69_1_1_56_1_222",
        "X_1_1_1_1_1_1_29_1_1_57_1_222",
        "X_1_1_1_1_1_1_70_1_1_58_1_222",
        "X_1_1_1_1_1_1_30_1_1_59_1_222",
        "X_1_1_1_1_1_1_71_1_1_60_1_222",
        "X_1_1_1_1_1_1_31_1_1_61_1_222",
        "X_1_1_1_1_1_1_72_1_1_62_1_222",
        "X_1_1_1_1_1_1_32_1_1_63_1_222",
        "X_1_1_1_1_1_1_73_1_1_64_1_222",
        "X_1_1_1_1_1_1_33_1_1_65_1_222",
        "X_1_1_1_1_1_1_74_1_1_66_1_222",
        "X_1_1_1_1_1_1_34_1_1_67_1_222",
        "X_1_1_1_1_1_1_75_1_1_68_1_222",
        "X_1_1_1_1_1_1_35_1_1_69_1_222",
        "X_1_1_1_1_1_1_76_1_1_70_1_222",
        "X_1_1_1_1_1_1_36_1_1_71_1_222",
        "X_1_1_1_1_1_1_77_1_1_72_1_222",
        "X_1_1_1_1_1_1_37_1_1_73_1_222",
        "X_1_1_1_1_1_1_78_1_1_74_1_222",
        "X_1_1_1_1_1_1_38_1_1_75_1_222",
        "X_1_1_1_1_1_1_79_1_1_76_1_222",
        "X_1_1_1_1_1_1_39_1_1_77_1_222",
        "X_1_1_1_1_1_1_80_1_1_78_1_222",
        "X_1_1_1_1_1_1_40_1_1_79_1_222",
        "X_1_1_1_1_1_1_81_1_1_80_1_222",
        "X_1_1_1_1_1_1_41_1_1_81_1_222"
],
      "CsaImage.ProtocolSliceNumber": [0, 1, 2, 3, 4, 5, 6, 7, 8, 9, 10, 11, 12, 13, 14, 15, 16, 17, 18, 19, 20, 21, 22, 23, 24, 25, 26, 27, 28, 29, 30, 31, 32, 33, 34, 35, 36, 37, 38, 39, 40, 41, 42, 43, 44, 45, 46, 47, 48, 49, 50, 51, 52, 53, 54, 55, 56, 57, 58, 59, 60, 61, 62, 63, 64, 65, 66, 67, 68, 69, 70, 71, 72, 73, 74, 75, 76, 77, 78, 79, 80],
      "CsaImage.RFSWDDataType": [
        "predicted",
        "predicted",
        "predicted",
        "predicted",
        "predicted",
        "predicted",
        "predicted",
        "predicted",
        "predicted",
        "predicted",
        "predicted",
        "predicted",
        "predicted",
        "predicted",
        "predicted",
        "predicted",
        "predicted",
        "predicted",
        "predicted",
        "predicted",
        "predicted",
        "predicted",
        "predicted",
        "measured",
        "predicted",
        "measured",
        "predicted",
        "predicted",
        "predicted",
        "predicted",
        "predicted",
        "predicted",
        "predicted",
        "predicted",
        "predicted",
        "predicted",
        "predicted",
        "predicted",
        "predicted",
        "predicted",
        "predicted",
        "predicted",
        "predicted",
        "predicted",
        "predicted",
        "predicted",
        "predicted",
        "predicted",
        "predicted",
        "predicted",
        "measured",
        "predicted",
        "measured",
        "predicted",
        "predicted",
        "predicted",
        "predicted",
        "predicted",
        "predicted",
        "predicted",
        "predicted",
        "predicted",
        "predicted",
        "predicted",
        "predicted",
        "predicted",
        "predicted",
        "predicted",
        "predicted",
        "predicted",
        "predicted",
        "predicted",
        "predicted",
        "predicted",
        "predicted",
        "predicted",
        "predicted",
        "measured",
        "predicted",
        "measured",
        "predicted"
],
      "CsaImage.SlicePosition_PCS": [
        [-133.42407605, -111.14315056, -95.72039867],
        [-133.39234587, -111.42573994, -94.04435039],
        [-133.36061618, -111.7083293, -92.36830211],
        [-133.328886, -111.99091869, -90.69225384],
        [-133.29715583, -112.27350806, -89.01620556],
        [-133.26542613, -112.55609744, -87.34015728],
        [-133.23369595, -112.83868682, -85.664109],
        [-133.20196578, -113.12127613, -83.98806072],
        [-133.17023608, -113.40386557, -82.31201244],
        [-133.1385059, -113.68645488, -80.63596416],
        [-133.10677573, -113.96904432, -78.95991588],
        [-133.07504603, -114.25163376, -77.28386761],
        [-133.04331586, -114.53422295, -75.60782314],
        [-133.01158568, -114.81681239, -73.93177486],
        [-132.97985598, -115.09940182, -72.25572658],
        [-132.94812581, -115.38199102, -70.5796783],
        [-132.91639563, -115.66458046, -68.90363003],
        [-132.88466594, -115.94716989, -67.22758175],
        [-132.85293576, -116.22975933, -65.55153347],
        [-132.82120559, -116.51234876, -63.87548519],
        [-132.78947589, -116.7949382, -62.19943691],
        [-132.75774571, -117.07752716, -60.52339245],
        [-132.72601554, -117.36011659, -58.84734417],
        [-132.69428536, -117.64270603, -57.17129589],
        [-132.66255566, -117.92529546, -55.49524761],
        [-132.63082549, -118.2078849, -53.81919933],
        [-132.59909531, -118.49047434, -52.14315105],
        [-132.56736562, -118.77306377, -50.46710277],
        [-132.53563544, -119.05565273, -48.79105449],
        [-132.50390527, -119.33824217, -47.11500812],
        [-132.47217557, -119.6208316, -45.43895984],
        [-132.44044539, -119.90342151, -43.76291157],
        [-132.40871522, -120.18601047, -42.08686329],
        [-132.37698552, -120.46859943, -40.41081692],
        [-132.34525534, -120.75118934, -38.73476864],
        [-132.31352517, -121.0337783, -37.05872036],
        [-132.28179547, -121.31636821, -35.38267208],
        [-132.2500653, -121.59895717, -33.7066238],
        [-132.21833512, -121.88154709, -32.03057648],
        [-132.18660542, -122.16413604, -30.35452915],
        [-132.15487525, -122.446725, -28.67848087],
        [-132.12314507, -122.72931492, -27.00243355],
        [-132.09141537, -123.01190387, -25.32638527],
        [-132.0596852, -123.29449379, -23.65033747],
        [-132.02795502, -123.57708275, -21.97428966],
        [-131.99622533, -123.85967266, -20.29824186],
        [-131.96449515, -124.14226162, -18.62219382],
        [-131.93276498, -124.42485058, -16.94614602],
        [-131.9010348, -124.70744049, -15.27009822],
        [-131.8693051, -124.99002945, -13.59405041],
        [-131.83757493, -125.27261936, -11.91800237],
        [-131.80584475, -125.55520832, -10.24195457],
        [-131.77411505, -125.83779823, -8.56590677],
        [-131.74238488, -126.12038719, -6.88985897],
        [-131.7106547, -126.40297615, -5.21381069],
        [-131.67892501, -126.68556606, -3.53776336],
        [-131.64719483, -126.96815502, -1.86171509],
        [-131.61546466, -127.25074493, -0.18566776],
        [-131.58373496, -127.53333389, 1.49038052],
        [-131.55200478, -127.8159238, 3.1664288],
        [-131.52027461, -128.09851276, 4.84247708],
        [-131.48854491, -128.38110172, 6.51852345],
        [-131.45681474, -128.66369068, 8.19457173],
        [-131.42508456, -128.94628154, 9.87062],
        [-131.39335486, -129.2288705, 11.54666828],
        [-131.36162469, -129.51145946, 13.22271466],
        [-131.32989451, -129.79404842, 14.89876293],
        [-131.29816481, -130.07663929, 16.57481312],
        [-131.26643464, -130.35922825, 18.25085758],
        [-131.23470446, -130.6418172, 19.92690586],
        [-131.20297477, -130.92440616, 21.60295414],
        [-131.17124459, -131.20699512, 23.27900242],
        [-131.13951442, -131.48958599, 24.9550507],
        [-131.10778472, -131.77217495, 26.63109898],
        [-131.07605454, -132.05476391, 28.30714726],
        [-131.04432437, -132.33735286, 29.98319554],
        [-131.01259419, -132.61994182, 31.65924381],
        [-130.98086449, -132.90253269, 33.33528828],
        [-130.94913432, -133.18512165, 35.01133656],
        [-130.91740414, -133.46771061, 36.68738484],
        [-130.88567445, -133.75029957, 38.36343312]
],
      "CsaImage.TimeAfterStart": [16.4, 18.515, 16.55, 18.6675, 16.7025, 18.8175, 16.8525, 18.97, 17.005, 19.12, 17.155, 19.27, 17.3075, 19.4225, 17.4575, 19.5725, 17.61, 19.725, 17.76, 19.875, 17.91, 20.0275, 18.0625, 20.1775, 18.2125, 20.33, 18.365, 16.4, 18.515, 16.55, 18.6675, 16.7025, 18.8175, 16.8525, 18.97, 17.005, 19.12, 17.155, 19.27, 17.3075, 19.4225, 17.4575, 19.5725, 17.61, 19.725, 17.76, 19.875, 17.91, 20.0275, 18.0625, 20.1775, 18.2125, 20.33, 18.365, 16.4, 18.515, 16.55, 18.6675, 16.7025, 18.8175, 16.8525, 18.97, 17.005, 19.12, 17.155, 19.27, 17.3075, 19.4225, 17.4575, 19.5725, 17.61, 19.725, 17.76, 19.875, 17.91, 20.0275, 18.0625, 20.1775, 18.2125, 20.33, 18.365],
      "ImagePositionPatient": [
        [-133.42407604944, -111.14315056011, -95.72039867198],
        [-133.39234587442, -111.42573993609, -94.044350393172],
        [-133.36061617624, -111.70832930461, -92.368302114363],
        [-133.32888600122, -111.99091868803, -90.692253835555],
        [-133.2971558262, -112.27350806401, -89.016205556746],
        [-133.26542612802, -112.55609743998, -87.340157277937],
        [-133.233695953, -112.83868681595, -85.664108999129],
        [-133.20196577798, -113.12127613232, -83.98806072032],
        [-133.1702360798, -113.4038655679, -82.312012441512],
        [-133.13850590478, -113.68645488426, -80.635964162703],
        [-133.10677572977, -113.96904431984, -78.959915883895],
        [-133.07504603158, -114.25163375542, -77.283867605086],
        [-133.04331585657, -114.53422295258, -75.607823140975],
        [-133.01158568155, -114.81681238816, -73.931774862166],
        [-132.97985598337, -115.09940182373, -72.255726583357],
        [-132.94812580835, -115.38199102089, -70.579678304549],
        [-132.91639563333, -115.66458045647, -68.90363002574],
        [-132.88466593515, -115.94716989205, -67.227581746932],
        [-132.85293576013, -116.22975932762, -65.551533468123],
        [-132.82120558511, -116.5123487632, -63.875485189314],
        [-132.78947588693, -116.79493819878, -62.199436910506],
        [-132.75774571191, -117.07752715752, -60.523392446395],
        [-132.72601553689, -117.3601165931, -58.847344167586],
        [-132.69428536188, -117.64270602867, -57.171295888777],
        [-132.66255566369, -117.92529546425, -55.495247609969],
        [-132.63082548868, -118.20788489983, -53.81919933116],
        [-132.59909531366, -118.49047433541, -52.143151052352],
        [-132.56736561548, -118.77306377098, -50.467102773543],
        [-132.53563544046, -119.05565272972, -48.791054494734],
        [-132.50390526544, -119.3382421653, -47.115008123274],
        [-132.47217556726, -119.62083160088, -45.438959844466],
        [-132.44044539224, -119.90342151329, -43.762911565657],
        [-132.40871521722, -120.18601047203, -42.086863286849],
        [-132.37698551904, -120.46859943077, -40.410816915389],
        [-132.34525534402, -120.75118934319, -38.73476863658],
        [-132.313525169, -121.03377830193, -37.058720357771],
        [-132.28179547082, -121.31636821434, -35.382672078963],
        [-132.25006529581, -121.59895717308, -33.706623800154],
        [-132.21833512079, -121.8815470855, -32.03057647502],
        [-132.18660542261, -122.16413604424, -30.354529149886],
        [-132.15487524759, -122.44672500298, -28.678480871077],
        [-132.12314507257, -122.72931491539, -27.002433545943],
        [-132.09141537439, -123.01190387413, -25.326385267134],
        [-132.05968519937, -123.29449378655, -23.650337465163],
        [-132.02795502435, -123.57708274529, -21.974289663191],
        [-131.99622532617, -123.8596726577, -20.29824186122],
        [-131.96449515115, -124.14226161644, -18.62219382083],
        [-131.93276497613, -124.42485057518, -16.946146018859],
        [-131.90103480112, -124.7074404876, -15.270098216887],
        [-131.86930510293, -124.99002944634, -13.594050414916],
        [-131.83757492792, -125.27261935875, -11.918002374526],
        [-131.8058447529, -125.55520831749, -10.241954572554],
        [-131.77411505472, -125.83779822991, -8.5659067705828],
        [-131.7423848797, -126.12038718865, -6.8898589686113],
        [-131.71065470468, -126.40297614739, -5.2138106898027],
        [-131.6789250065, -126.6855660598, -3.5377633646685],
        [-131.64719483148, -126.96815501854, -1.8617150858599],
        [-131.61546465646, -127.25074493096, -0.1856677607256],
        [-131.58373495828, -127.5333338897, 1.490380518083],
        [-131.55200478326, -127.81592380211, 3.1664287968916],
        [-131.52027460824, -128.09851276085, 4.8424770757002],
        [-131.48854491006, -128.38110171959, 6.5185234471602],
        [-131.45681473504, -128.66369067833, 8.1945717259688],
        [-131.42508456003, -128.94628154442, 9.8706200047774],
        [-131.39335486185, -129.22887050316, 11.546668283586],
        [-131.36162468683, -129.5114594619, 13.222714655046],
        [-131.32989451181, -129.79404842064, 14.898762933854],
        [-131.29816481363, -130.07663928673, 16.574813120012],
        [-131.26643463861, -130.35922824547, 18.250857584123],
        [-131.23470446359, -130.64181720421, 19.926905862932],
        [-131.20297476541, -130.92440616295, 21.60295414174],
        [-131.17124459039, -131.20699512169, 23.279002420549],
        [-131.13951441537, -131.48958598778, 24.955050699357],
        [-131.10778471719, -131.77217494652, 26.631098978166],
        [-131.07605454217, -132.05476390526, 28.307147256975],
        [-131.04432436716, -132.337352864, 29.983195535783],
        [-131.01259419214, -132.61994182274, 31.659243814592],
        [-130.98086449396, -132.90253268883, 33.335288278703],
        [-130.94913431894, -133.18512164757, 35.011336557512],
        [-130.91740414392, -133.46771060631, 36.68738483632],
        [-130.88567444574, -133.75029956505, 38.363433115129]
],
      "InstanceCreationTime": ["204923.731000", "204923.818000", "204923.738000", "204923.824000", "204923.744000", "204923.837000", "204923.750000", "204923.843000", "204923.756000", "204923.849000", "204923.762000", "204923.855000", "204923.768000", "204923.861000", "204923.776000", "204923.868000", "204923.782000", "204923.874000", "204923.788000", "204923.880000", "204923.794000", "204923.886000", "204923.800000", "204923.892000", "204923.806000", "204923.898000", "204923.812000", "204923.734000", "204923.820000", "204923.740000", "204923.833000", "204923.746000", "204923.839000", "204923.752000", "204923.845000", "204923.758000", "204923.851000", "204923.764000", "204923.857000", "204923.770000", "204923.864000", "204923.778000", "204923.870000", "204923.784000", "204923.876000", "204923.790000", "204923.882000", "204923.796000", "204923.888000", "204923.802000", "204923.894000", "204923.808000", "204923.900000", "204923.814000", "204923.736000", "204923.822000", "204923.742000", "204923.835000", "204923.748000", "204923.841000", "204923.754000", "204923.847000", "204923.760000", "204923.853000", "204923.766000", "204923.859000", "204923.774000", "204923.866000", "204923.780000", "204923.872000", "204923.786000", "204923.878000", "204923.792000", "204923.884000", "204923.798000", "204923.890000", "204923.804000", "204923.896000", "204923.810000", "204923.902000", "204923.816000"],
      "InstanceNumber": [1, 2, 3, 4, 5, 6, 7, 8, 9, 10, 11, 12, 13, 14, 15, 16, 17, 18, 19, 20, 21, 22, 23, 24, 25, 26, 27, 28, 29, 30, 31, 32, 33, 34, 35, 36, 37, 38, 39, 40, 41, 42, 43, 44, 45, 46, 47, 48, 49, 50, 51, 52, 53, 54, 55, 56, 57, 58, 59, 60, 61, 62, 63, 64, 65, 66, 67, 68, 69, 70, 71, 72, 73, 74, 75, 76, 77, 78, 79, 80, 81],
      "LargestImagePixelValue": [35888, 51310, 44987, 24506, 16788, 14180, 24170, 18637, 26217, 32447, 30600, 23413, 24947, 30635, 27215, 23243, 30236, 39254, 33017, 36063, 37388, 64196, 57925, 65535, 65535, 63319, 58380, 59836, 65535, 57589, 41947, 44583, 53494, 43074, 43790, 46367, 43613, 47468, 45478, 48496, 39430, 40280, 40801, 39657, 40549, 35084, 38845, 43503, 49176, 43430, 40928, 39412, 43768, 39872, 40274, 38746, 39536, 40165, 38375, 42600, 46158, 43516, 37635, 36600, 43592, 44341, 39734, 47306, 32556, 33918, 37919, 33941, 41034, 44993, 65535, 54592, 34872, 41280, 39928, 14231, 5759],
      "SliceLocation": [-78.386850138136, -76.686849728631, -74.986849329265, -73.286848918522, -71.586848509017, -69.886848108412, -68.186847698907, -66.486847299311, -64.786846888798, -63.086846489201, -61.386846069788, -59.686845659275, -57.986849040445, -56.286848621032, -54.586848210519, -52.886847830738, -51.186847411325, -49.486847000813, -47.7868465814, -46.086846161987, -44.386845751474, -42.686849172275, -40.986848752863, -39.28684833345, -37.586847922937, -35.886847503524, -34.186847084111, -32.486846673598, -30.78684633345, -29.086847794512, -27.386847383999, -25.686846885322, -23.986846545173, -22.2868480944, -20.586847595723, -18.886847255574, -17.186846765797, -15.486846425648, -13.786846867209, -12.086847476198, -10.386847136049, -8.6868475776097, -6.9868472463611, -5.2868472178028, -3.5868473477729, -1.8868473281147, -0.1868472230254, 1.5131526470045, 3.2131526755628, 4.9131525366927, 6.6131528003103, 8.3131526703402, 10.013152689998, 11.713152560028, 13.413152900177, 15.113152449716, 16.813152789865, 18.513152348305, 20.213152679553, 21.91315317823, 23.613153518379, 25.313151969153, 27.013152309301, 28.713152966507, 30.413153297755, 32.113151757429, 33.813152097578, 35.513154626358, 37.213151205557, 38.913151545705, 40.613151876954, 42.313152217102, 44.013152874308, 45.713153205557, 47.413153545705, 49.113153885854, 50.813154226003, 52.513151113358, 54.213151453506, 55.913151793655, 57.613152124904],
