{
  "AcquisitionMatrixPE": 82,
  "AcquisitionNumber": 1,
  "AcquisitionTime": "12:43:44.115000",
  "BandwidthPerPixelPhaseEncode": 24.888,
  "BaseResolution": 82,
  "BodyPartExamined": "BRAIN",
  "ConsistencyInfo": "N4_VE11C_LATEST_20160120",
  "ConversionSoftware": "dcm2niix",
  "ConversionSoftwareVersion": "v1.0.20201102",
  "DerivedVendorReportedEchoSpacing": 0.00049,
  "DeviceSerialNumber": "66112",
  "DwellTime": 2e-06,
  "EchoTime": 0.0272,
  "EchoTrainLength": 82,
  "EffectiveEchoSpacing": 0.00049,
  "FlipAngle": 44,
  "ImageComments": "Unaliased MB8/PE3",
  "ImageOrientationPatientDICOM": [0.999975, 0.00641651, 0.00289499, -0.005934, 0.989606, -0.143681],
  "ImageType": [
    "ORIGINAL",
    "PRIMARY",
    "M",
    "MB",
    "ND",
    "NORM",
    "MOSAIC"
],
  "ImagingFrequency": 123.252,
  "InPlanePhaseEncodingDirectionDICOM": "COL",
  "InstitutionAddress": "Maynard 3,Hanover,NH,US,03755",
  "InstitutionName": "Dartmouth College - PBS",
  "InstitutionalDepartmentName": "Department",
  "MRAcquisitionType": "2D",
  "MagneticFieldStrength": 3,
  "Manufacturer": "Siemens",
  "ManufacturersModelName": "Prisma",
  "Modality": "MR",
  "MultibandAccelerationFactor": 8,
  "PartialFourier": 1,
  "PatientPosition": "HFS",
  "PercentPhaseFOV": 100,
  "PercentSampling": 100,
  "PhaseEncodingDirection": "j-",
  "PhaseEncodingSteps": 82,
  "PhaseResolution": 1,
  "PixelBandwidth": 3050,
  "ProcedureStepDescription": "Wager_Wager^1076_spacetop",
  "ProtocolName": "func_run-01_task-social_acq-ap-mb8",
  "PulseSequenceDetails": "%CustomerSeq%\\cmrr_mbep2d_bold",
  "ReceiveCoilActiveElements": "HEA;HEP",
  "ReceiveCoilName": "Head_32",
  "ReconMatrixPE": 82,
  "RepetitionTime": 0.46,
  "SAR": 0.086623,
  "ScanOptions": "FS",
  "ScanningSequence": "EP",
  "SequenceName": "epfid2d1_82",
  "SequenceVariant": "SK\\SS",
  "SeriesDescription": "func_run-01_task-social_acq-ap-mb8",
  "SeriesNumber": 12,
  "ShimSetting": [4160, -7726, -7303, 652, -44, -159, 61, 73],
  "SliceThickness": 2.7,
  "SliceTiming": [0, 0.25, 0.0625, 0.3125, 0.125, 0.375, 0.1875, 0, 0.25, 0.0625, 0.3125, 0.125, 0.375, 0.1875, 0, 0.25, 0.0625, 0.3125, 0.125, 0.375, 0.1875, 0, 0.25, 0.0625, 0.3125, 0.125, 0.375, 0.1875, 0, 0.25, 0.0625, 0.3125, 0.125, 0.375, 0.1875, 0, 0.25, 0.0625, 0.3125, 0.125, 0.375, 0.1875, 0, 0.25, 0.0625, 0.3125, 0.125, 0.375, 0.1875, 0, 0.25, 0.0625, 0.3125, 0.125, 0.375, 0.1875],
  "SoftwareVersions": "syngo MR E11",
  "SpacingBetweenSlices": 2.7,
  "StationName": "AWP66112",
  "TaskName": "social",
  "TotalReadoutTime": 0.03969,
  "TxRefAmp": 237.673,
  "WipMemBlock": "2d5e9cbe-69f6-407b-ae53-e733591d95ef||Sequence: R016 ve11c/master r/e634e98; Dec 19 2017 11:00:25 by eja",
  "dcmmeta_affine": [
    [-2.6828603744506836, -0.015920499339699745, 0.010224448516964912, 115.39981079101562],
    [-0.01721501350402832, 2.655040979385376, -0.3878839612007141, -75.88947296142578],
    [0.007767046336084604, 0.3854868710041046, 2.67197322845459, -74.99668884277344],
    [0.0, 0.0, 0.0, 1.0]
],
  "dcmmeta_reorient_transform": [
    [0.0, -1.0, 0.0, 81.0],
    [1.0, 0.0, 0.0, 0.0],
    [0.0, 0.0, 1.0, 0.0],
    [0.0, 0.0, 0.0, 1.0]
],
  "dcmmeta_shape": [82, 82, 56, 872],
  "dcmmeta_slice_dim": 2,
  "dcmmeta_version": 0.6,
  "global": {
    "const": {
      "AccessionNumber": "A003465",
      "AcquisitionMatrix": [82, 0, 0, 82],
      "AngioFlag": "N",
      "BitsAllocated": 16,
      "BitsStored": 16,
      "BodyPartExamined": "BRAIN",
      "Columns": 656,
      "EchoNumbers": 1,
      "EchoTime": 27.2,
      "EchoTrainLength": 82,
      "FlipAngle": 44.0,
      "HighBit": 15,
      "ImageOrientationPatient": [0.99997522344023, 0.00641650516151, 0.00289499001201, -0.0059340038667, 0.98960619579994, -0.1436814700387],
      "ImagePositionPatient": [-879.52200586485, -906.10634959588, 64.633343017691],
      "ImageType": [
        "ORIGINAL",
        "PRIMARY",
        "M",
        "MB",
        "ND",
        "NORM",
        "MOSAIC"
],
      "ImagedNucleus": "1H",
      "ImagingFrequency": 123.252143,
      "InPlanePhaseEncodingDirection": "COL",
      "MRAcquisitionType": "2D",
      "MagneticFieldStrength": 3.0,
      "Manufacturer": "SIEMENS",
      "ManufacturerModelName": "Prisma",
      "Modality": "MR",
      "NumberOfAverages": 1.0,
      "NumberOfPhaseEncodingSteps": 82,
      "PercentPhaseFieldOfView": 100.0,
      "PercentSampling": 100.0,
      "PerformedProcedureStepStartTime": "115019.985000",
      "PhotometricInterpretation": "MONOCHROME2",
      "PixelBandwidth": 3050.0,
      "PixelRepresentation": 0,
      "PixelSpacing": [2.6829268932343, 2.6829268932343],
      "ProtocolName": "func_run-01_task-social_acq-ap-mb8",
      "RepetitionTime": 460.0,
      "Rows": 656,
      "SAR": 0.08662297285109,
      "SamplesPerPixel": 1,
      "ScanOptions": "FS",
      "ScanningSequence": "EP",
      "SequenceName": "epfid2d1_82",
      "SequenceVariant": [
        "SK",
        "SS"
],
      "SeriesDescription": "func_run-01_task-social_acq-ap-mb8",
      "SeriesNumber": 12,
      "SeriesTime": "124412.102000",
      "SliceLocation": -62.878864931269,
      "SliceThickness": 2.7000000476837,
      "SmallestImagePixelValue": 0,
      "SoftwareVersions": "syngo MR E11",
      "SpacingBetweenSlices": 2.6999999461722,
      "SpecificCharacterSet": "ISO_IR 100",
      "StudyID": "1",
      "StudyTime": "115019.849000",
      "TransmitCoilName": "Body",
      "VariableFlipAngleFlag": "N",
      "WindowCenterWidthExplanation": "Algo1",
      "dBdt": 0.0},
    "slices": {}
  },
  "time": {
    "samples": {
      "AcquisitionNumber": [1, 2, 3, 4, 5, 6, 7, 8, 9, 10, 11, 12, 13, 14, 15, 16, 17, 18, 19, 20, 21, 22, 23, 24, 25, 26, 27, 28, 29, 30, 31, 32, 33, 34, 35, 36, 37, 38, 39, 40, 41, 42, 43, 44, 45, 46, 47, 48, 49, 50, 51, 52, 53, 54, 55, 56, 57, 58, 59, 60, 61, 62, 63, 64, 65, 66, 67, 68, 69, 70, 71, 72, 73, 74, 75, 76, 77, 78, 79, 80, 81, 82, 83, 84, 85, 86, 87, 88, 89, 90, 91, 92, 93, 94, 95, 96, 97, 98, 99, 100, 101, 102, 103, 104, 105, 106, 107, 108, 109, 110, 111, 112, 113, 114, 115, 116, 117, 118, 119, 120, 121, 122, 123, 124, 125, 126, 127, 128, 129, 130, 131, 132, 133, 134, 135, 136, 137, 138, 139, 140, 141, 142, 143, 144, 145, 146, 147, 148, 149, 150, 151, 152, 153, 154, 155, 156, 157, 158, 159, 160, 161, 162, 163, 164, 165, 166, 167, 168, 169, 170, 171, 172, 173, 174, 175, 176, 177, 178, 179, 180, 181, 182, 183, 184, 185, 186, 187, 188, 189, 190, 191, 192, 193, 194, 195, 196, 197, 198, 199, 200, 201, 202, 203, 204, 205, 206, 207, 208, 209, 210, 211, 212, 213, 214, 215, 216, 217, 218, 219, 220, 221, 222, 223, 224, 225, 226, 227, 228, 229, 230, 231, 232, 233, 234, 235, 236, 237, 238, 239, 240, 241, 242, 243, 244, 245, 246, 247, 248, 249, 250, 251, 252, 253, 254, 255, 256, 257, 258, 259, 260, 261, 262, 263, 264, 265, 266, 267, 268, 269, 270, 271, 272, 273, 274, 275, 276, 277, 278, 279, 280, 281, 282, 283, 284, 285, 286, 287, 288, 289, 290, 291, 292, 293, 294, 295, 296, 297, 298, 299, 300, 301, 302, 303, 304, 305, 306, 307, 308, 309, 310, 311, 312, 313, 314, 315, 316, 317, 318, 319, 320, 321, 322, 323, 324, 325, 326, 327, 328, 329, 330, 331, 332, 333, 334, 335, 336, 337, 338, 339, 340, 341, 342, 343, 344, 345, 346, 347, 348, 349, 350, 351, 352, 353, 354, 355, 356, 357, 358, 359, 360, 361, 362, 363, 364, 365, 366, 367, 368, 369, 370, 371, 372, 373, 374, 375, 376, 377, 378, 379, 380, 381, 382, 383, 384, 385, 386, 387, 388, 389, 390, 391, 392, 393, 394, 395, 396, 397, 398, 399, 400, 401, 402, 403, 404, 405, 406, 407, 408, 409, 410, 411, 412, 413, 414, 415, 416, 417, 418, 419, 420, 421, 422, 423, 424, 425, 426, 427, 428, 429, 430, 431, 432, 433, 434, 435, 436, 437, 438, 439, 440, 441, 442, 443, 444, 445, 446, 447, 448, 449, 450, 451, 452, 453, 454, 455, 456, 457, 458, 459, 460, 461, 462, 463, 464, 465, 466, 467, 468, 469, 470, 471, 472, 473, 474, 475, 476, 477, 478, 479, 480, 481, 482, 483, 484, 485, 486, 487, 488, 489, 490, 491, 492, 493, 494, 495, 496, 497, 498, 499, 500, 501, 502, 503, 504, 505, 506, 507, 508, 509, 510, 511, 512, 513, 514, 515, 516, 517, 518, 519, 520, 521, 522, 523, 524, 525, 526, 527, 528, 529, 530, 531, 532, 533, 534, 535, 536, 537, 538, 539, 540, 541, 542, 543, 544, 545, 546, 547, 548, 549, 550, 551, 552, 553, 554, 555, 556, 557, 558, 559, 560, 561, 562, 563, 564, 565, 566, 567, 568, 569, 570, 571, 572, 573, 574, 575, 576, 577, 578, 579, 580, 581, 582, 583, 584, 585, 586, 587, 588, 589, 590, 591, 592, 593, 594, 595, 596, 597, 598, 599, 600, 601, 602, 603, 604, 605, 606, 607, 608, 609, 610, 611, 612, 613, 614, 615, 616, 617, 618, 619, 620, 621, 622, 623, 624, 625, 626, 627, 628, 629, 630, 631, 632, 633, 634, 635, 636, 637, 638, 639, 640, 641, 642, 643, 644, 645, 646, 647, 648, 649, 650, 651, 652, 653, 654, 655, 656, 657, 658, 659, 660, 661, 662, 663, 664, 665, 666, 667, 668, 669, 670, 671, 672, 673, 674, 675, 676, 677, 678, 679, 680, 681, 682, 683, 684, 685, 686, 687, 688, 689, 690, 691, 692, 693, 694, 695, 696, 697, 698, 699, 700, 701, 702, 703, 704, 705, 706, 707, 708, 709, 710, 711, 712, 713, 714, 715, 716, 717, 718, 719, 720, 721, 722, 723, 724, 725, 726, 727, 728, 729, 730, 731, 732, 733, 734, 735, 736, 737, 738, 739, 740, 741, 742, 743, 744, 745, 746, 747, 748, 749, 750, 751, 752, 753, 754, 755, 756, 757, 758, 759, 760, 761, 762, 763, 764, 765, 766, 767, 768, 769, 770, 771, 772, 773, 774, 775, 776, 777, 778, 779, 780, 781, 782, 783, 784, 785, 786, 787, 788, 789, 790, 791, 792, 793, 794, 795, 796, 797, 798, 799, 800, 801, 802, 803, 804, 805, 806, 807, 808, 809, 810, 811, 812, 813, 814, 815, 816, 817, 818, 819, 820, 821, 822, 823, 824, 825, 826, 827, 828, 829, 830, 831, 832, 833, 834, 835, 836, 837, 838, 839, 840, 841, 842, 843, 844, 845, 846, 847, 848, 849, 850, 851, 852, 853, 854, 855, 856, 857, 858, 859, 860, 861, 862, 863, 864, 865, 866, 867, 868, 869, 870, 871, 872],
      "AcquisitionTime": ["124344.115000", "124344.575000", "124345.035000", "124345.495000", "124345.955000", "124346.415000", "124346.875000", "124347.335000", "124347.795000", "124348.255000", "124348.715000", "124349.175000", "124349.635000", "124350.095000", "124350.555000", "124351.015000", "124351.475000", "124351.935000", "124352.395000", "124352.855000", "124353.315000", "124353.775000", "124354.235000", "124354.695000", "124355.155000", "124355.615000", "124356.075000", "124356.535000", "124356.995000", "124357.455000", "124357.915000", "124358.375000", "124358.835000", "124359.295000", "124359.755000", "124400.215000", "124400.675000", "124401.135000", "124401.595000", "124402.055000", "124402.515000", "124402.975000", "124403.435000", "124403.895000", "124404.355000", "124404.815000", "124405.275000", "124405.735000", "124406.195000", "124406.655000", "124407.115000", "124407.575000", "124408.035000", "124408.495000", "124408.955000", "124409.415000", "124409.875000", "124410.335000", "124410.795000", "124411.255000", "124411.715000", "124412.175000", "124412.635000", "124413.095000", "124413.555000", "124414.015000", "124414.475000", "124414.935000", "124415.395000", "124415.855000", "124416.315000", "124416.775000", "124417.235000", "124417.695000", "124418.155000", "124418.615000", "124419.075000", "124419.535000", "124419.995000", "124420.455000", "124420.915000", "124421.375000", "124421.835000", "124422.295000", "124422.755000", "124423.215000", "124423.675000", "124424.135000", "124424.595000", "124425.055000", "124425.515000", "124425.975000", "124426.435000", "124426.895000", "124427.355000", "124427.815000", "124428.275000", "124428.735000", "124429.195000", "124429.655000", "124430.115000", "124430.575000", "124431.035000", "124431.495000", "124431.955000", "124432.415000", "124432.875000", "124433.335000", "124433.795000", "124434.255000", "124434.715000", "124435.175000", "124435.635000", "124436.095000", "124436.555000", "124437.015000", "124437.475000", "124437.935000", "124438.395000", "124438.855000", "124439.315000", "124439.775000", "124440.235000", "124440.695000", "124441.155000", "124441.615000", "124442.075000", "124442.535000", "124442.995000", "124443.455000", "124443.915000", "124444.375000", "124444.835000", "124445.295000", "124445.755000", "124446.215000", "124446.675000", "124447.135000", "124447.595000", "124448.055000", "124448.515000", "124448.975000", "124449.435000", "124449.895000", "124450.355000", "124450.815000", "124451.275000", "124451.735000", "124452.195000", "124452.655000", "124453.115000", "124453.575000", "124454.035000", "124454.495000", "124454.955000", "124455.415000", "124455.875000", "124456.335000", "124456.795000", "124457.255000", "124457.715000", "124458.175000", "124458.635000", "124459.095000", "124459.555000", "124500.015000", "124500.475000", "124500.935000", "124501.395000", "124501.855000", "124502.315000", "124502.775000", "124503.235000", "124503.695000", "124504.155000", "124504.615000", "124505.075000", "124505.535000", "124505.995000", "124506.455000", "124506.915000", "124507.375000", "124507.835000", "124508.295000", "124508.755000", "124509.215000", "124509.675000", "124510.135000", "124510.595000", "124511.055000", "124511.515000", "124511.975000", "124512.435000", "124512.895000", "124513.355000", "124513.815000", "124514.275000", "124514.735000", "124515.195000", "124515.655000", "124516.115000", "124516.575000", "124517.035000", "124517.495000", "124517.955000", "124518.415000", "124518.875000", "124519.335000", "124519.795000", "124520.255000", "124520.715000", "124521.175000", "124521.635000", "124522.095000", "124522.555000", "124523.015000", "124523.475000", "124523.935000", "124524.395000", "124524.855000", "124525.315000", "124525.775000", "124526.235000", "124526.695000", "124527.155000", "124527.615000", "124528.075000", "124528.535000", "124528.995000", "124529.455000", "124529.915000", "124530.375000", "124530.835000", "124531.295000", "124531.755000", "124532.215000", "124532.675000", "124533.135000", "124533.595000", "124534.055000", "124534.515000", "124534.975000", "124535.435000", "124535.895000", "124536.355000", "124536.815000", "124537.275000", "124537.735000", "124538.195000", "124538.655000", "124539.115000", "124539.575000", "124540.035000", "124540.495000", "124540.955000", "124541.415000", "124541.875000", "124542.335000", "124542.795000", "124543.255000", "124543.715000", "124544.175000", "124544.635000", "124545.095000", "124545.555000", "124546.015000", "124546.475000", "124546.935000", "124547.395000", "124547.855000", "124548.315000", "124548.775000", "124549.235000", "124549.695000", "124550.155000", "124550.615000", "124551.075000", "124551.535000", "124551.995000", "124552.455000", "124552.915000", "124553.375000", "124553.835000", "124554.295000", "124554.755000", "124555.215000", "124555.675000", "124556.135000", "124556.595000", "124557.055000", "124557.515000", "124557.975000", "124558.435000", "124558.895000", "124559.355000", "124559.815000", "124600.275000", "124600.735000", "124601.195000", "124601.655000", "124602.115000", "124602.575000", "124603.035000", "124603.495000", "124603.955000", "124604.415000", "124604.875000", "124605.335000", "124605.795000", "124606.255000", "124606.715000", "124607.175000", "124607.635000", "124608.095000", "124608.555000", "124609.015000", "124609.475000", "124609.935000", "124610.395000", "124610.855000", "124611.315000", "124611.775000", "124612.235000", "124612.695000", "124613.155000", "124613.615000", "124614.075000", "124614.535000", "124614.995000", "124615.455000", "124615.915000", "124616.375000", "124616.835000", "124617.295000", "124617.755000", "124618.215000", "124618.675000", "124619.135000", "124619.595000", "124620.055000", "124620.515000", "124620.975000", "124621.435000", "124621.895000", "124622.355000", "124622.815000", "124623.275000", "124623.735000", "124624.195000", "124624.655000", "124625.115000", "124625.575000", "124626.035000", "124626.495000", "124626.955000", "124627.415000", "124627.875000", "124628.335000", "124628.795000", "124629.255000", "124629.715000", "124630.175000", "124630.635000", "124631.095000", "124631.555000", "124632.015000", "124632.475000", "124632.935000", "124633.395000", "124633.855000", "124634.315000", "124634.775000", "124635.235000", "124635.695000", "124636.155000", "124636.615000", "124637.075000", "124637.535000", "124637.995000", "124638.455000", "124638.915000", "124639.375000", "124639.835000", "124640.295000", "124640.755000", "124641.215000", "124641.675000", "124642.135000", "124642.595000", "124643.055000", "124643.515000", "124643.975000", "124644.435000", "124644.895000", "124645.355000", "124645.815000", "124646.275000", "124646.735000", "124647.195000", "124647.655000", "124648.115000", "124648.575000", "124649.035000", "124649.495000", "124649.955000", "124650.415000", "124650.875000", "124651.335000", "124651.795000", "124652.255000", "124652.715000", "124653.175000", "124653.635000", "124654.095000", "124654.555000", "124655.015000", "124655.475000", "124655.935000", "124656.395000", "124656.855000", "124657.315000", "124657.775000", "124658.235000", "124658.695000", "124659.155000", "124659.615000", "124700.075000", "124700.535000", "124700.995000", "124701.455000", "124701.915000", "124702.375000", "124702.835000", "124703.295000", "124703.755000", "124704.215000", "124704.675000", "124705.135000", "124705.595000", "124706.055000", "124706.515000", "124706.975000", "124707.435000", "124707.895000", "124708.355000", "124708.815000", "124709.275000", "124709.735000", "124710.195000", "124710.655000", "124711.115000", "124711.575000", "124712.035000", "124712.495000", "124712.955000", "124713.415000", "124713.875000", "124714.335000", "124714.795000", "124715.255000", "124715.715000", "124716.175000", "124716.635000", "124717.095000", "124717.555000", "124718.015000", "124718.475000", "124718.935000", "124719.395000", "124719.855000", "124720.315000", "124720.775000", "124721.235000", "124721.695000", "124722.155000", "124722.615000", "124723.075000", "124723.535000", "124723.995000", "124724.455000", "124724.915000", "124725.375000", "124725.835000", "124726.295000", "124726.755000", "124727.215000", "124727.675000", "124728.135000", "124728.595000", "124729.055000", "124729.515000", "124729.975000", "124730.435000", "124730.895000", "124731.355000", "124731.815000", "124732.275000", "124732.735000", "124733.195000", "124733.655000", "124734.115000", "124734.575000", "124735.035000", "124735.495000", "124735.955000", "124736.415000", "124736.875000", "124737.335000", "124737.795000", "124738.255000", "124738.715000", "124739.175000", "124739.635000", "124740.095000", "124740.555000", "124741.015000", "124741.475000", "124741.935000", "124742.395000", "124742.855000", "124743.315000", "124743.775000", "124744.235000", "124744.695000", "124745.155000", "124745.615000", "124746.075000", "124746.535000", "124746.995000", "124747.455000", "124747.915000", "124748.375000", "124748.835000", "124749.295000", "124749.755000", "124750.215000", "124750.675000", "124751.135000", "124751.595000", "124752.055000", "124752.515000", "124752.975000", "124753.435000", "124753.895000", "124754.355000", "124754.815000", "124755.275000", "124755.735000", "124756.195000", "124756.655000", "124757.115000", "124757.575000", "124758.035000", "124758.495000", "124758.955000", "124759.415000", "124759.875000", "124800.335000", "124800.795000", "124801.255000", "124801.715000", "124802.175000", "124802.635000", "124803.095000", "124803.555000", "124804.015000", "124804.475000", "124804.935000", "124805.395000", "124805.855000", "124806.315000", "124806.775000", "124807.235000", "124807.695000", "124808.155000", "124808.615000", "124809.075000", "124809.535000", "124809.995000", "124810.455000", "124810.915000", "124811.375000", "124811.835000", "124812.295000", "124812.755000", "124813.215000", "124813.675000", "124814.135000", "124814.595000", "124815.055000", "124815.515000", "124815.975000", "124816.435000", "124816.895000", "124817.355000", "124817.815000", "124818.275000", "124818.735000", "124819.195000", "124819.655000", "124820.115000", "124820.575000", "124821.035000", "124821.495000", "124821.955000", "124822.415000", "124822.875000", "124823.335000", "124823.795000", "124824.255000", "124824.715000", "124825.175000", "124825.635000", "124826.095000", "124826.555000", "124827.015000", "124827.475000", "124827.935000", "124828.395000", "124828.855000", "124829.315000", "124829.775000", "124830.235000", "124830.695000", "124831.155000", "124831.615000", "124832.075000", "124832.535000", "124832.995000", "124833.455000", "124833.915000", "124834.375000", "124834.835000", "124835.295000", "124835.755000", "124836.215000", "124836.675000", "124837.135000", "124837.595000", "124838.055000", "124838.515000", "124838.975000", "124839.435000", "124839.895000", "124840.355000", "124840.815000", "124841.275000", "124841.735000", "124842.195000", "124842.655000", "124843.115000", "124843.575000", "124844.035000", "124844.495000", "124844.955000", "124845.415000", "124845.875000", "124846.335000", "124846.795000", "124847.255000", "124847.715000", "124848.175000", "124848.635000", "124849.095000", "124849.555000", "124850.015000", "124850.475000", "124850.935000", "124851.395000", "124851.855000", "124852.315000", "124852.775000", "124853.235000", "124853.695000", "124854.155000", "124854.615000", "124855.075000", "124855.535000", "124855.995000", "124856.455000", "124856.915000", "124857.375000", "124857.835000", "124858.295000", "124858.755000", "124859.215000", "124859.675000", "124900.135000", "124900.595000", "124901.055000", "124901.515000", "124901.975000", "124902.435000", "124902.895000", "124903.355000", "124903.815000", "124904.275000", "124904.735000", "124905.195000", "124905.655000", "124906.115000", "124906.575000", "124907.035000", "124907.495000", "124907.955000", "124908.415000", "124908.875000", "124909.335000", "124909.795000", "124910.255000", "124910.715000", "124911.175000", "124911.635000", "124912.095000", "124912.555000", "124913.015000", "124913.475000", "124913.935000", "124914.395000", "124914.855000", "124915.315000", "124915.775000", "124916.235000", "124916.695000", "124917.155000", "124917.615000", "124918.075000", "124918.535000", "124918.995000", "124919.455000", "124919.915000", "124920.375000", "124920.835000", "124921.295000", "124921.755000", "124922.215000", "124922.675000", "124923.135000", "124923.595000", "124924.055000", "124924.515000", "124924.975000", "124925.435000", "124925.895000", "124926.355000", "124926.815000", "124927.275000", "124927.735000", "124928.195000", "124928.655000", "124929.115000", "124929.575000", "124930.035000", "124930.495000", "124930.955000", "124931.415000", "124931.875000", "124932.335000", "124932.795000", "124933.255000", "124933.715000", "124934.175000", "124934.635000", "124935.095000", "124935.555000", "124936.015000", "124936.475000", "124936.935000", "124937.395000", "124937.855000", "124938.315000", "124938.775000", "124939.235000", "124939.695000", "124940.155000", "124940.615000", "124941.075000", "124941.535000", "124941.995000", "124942.455000", "124942.915000", "124943.375000", "124943.835000", "124944.295000", "124944.755000", "124945.215000", "124945.675000", "124946.135000", "124946.595000", "124947.055000", "124947.515000", "124947.975000", "124948.435000", "124948.895000", "124949.355000", "124949.815000", "124950.275000", "124950.735000", "124951.195000", "124951.655000", "124952.115000", "124952.575000", "124953.035000", "124953.495000", "124953.955000", "124954.415000", "124954.875000", "124955.335000", "124955.795000", "124956.255000", "124956.715000", "124957.175000", "124957.635000", "124958.095000", "124958.555000", "124959.015000", "124959.475000", "124959.935000", "125000.395000", "125000.855000", "125001.315000", "125001.775000", "125002.235000", "125002.695000", "125003.155000", "125003.615000", "125004.075000", "125004.535000", "125004.995000", "125005.455000", "125005.915000", "125006.375000", "125006.835000", "125007.295000", "125007.755000", "125008.215000", "125008.675000", "125009.135000", "125009.595000", "125010.055000", "125010.515000", "125010.975000", "125011.435000", "125011.895000", "125012.355000", "125012.815000", "125013.275000", "125013.735000", "125014.195000", "125014.655000", "125015.115000", "125015.575000", "125016.035000", "125016.495000", "125016.955000", "125017.415000", "125017.875000", "125018.335000", "125018.795000", "125019.255000", "125019.715000", "125020.175000", "125020.635000", "125021.095000", "125021.555000", "125022.015000", "125022.475000", "125022.935000", "125023.395000", "125023.855000", "125024.315000", "125024.775000"],
