{
  "AcquisitionMatrixPE": 82,
  "AcquisitionNumber": 1,
  "AcquisitionTime": "13:29:54.152500",
  "BandwidthPerPixelPhaseEncode": 24.888,
  "BaseResolution": 82,
  "BodyPartExamined": "BRAIN",
  "ConsistencyInfo": "N4_VE11C_LATEST_20160120",
  "ConversionSoftware": "dcm2niix",
  "ConversionSoftwareVersion": "v1.0.20201102",
  "DerivedVendorReportedEchoSpacing": 0.00049,
  "DeviceSerialNumber": "66112",
  "DwellTime": 2e-06,
  "EchoTime": 0.0272,
  "EchoTrainLength": 82,
  "EffectiveEchoSpacing": 0.00049,
  "FlipAngle": 44,
  "ImageComments": "Unaliased MB8/PE3",
  "ImageOrientationPatientDICOM": [0.999716, 0.00639481, 0.0229735, -0.00645602, 0.999976, 0.00259088],
  "ImageType": [
    "ORIGINAL",
    "PRIMARY",
    "M",
    "MB",
    "ND",
    "NORM",
    "MOSAIC"
],
  "ImagingFrequency": 123.252,
  "InPlanePhaseEncodingDirectionDICOM": "COL",
  "InstitutionAddress": "Maynard 3,Hanover,NH,US,03755",
  "InstitutionName": "Dartmouth College - PBS",
  "InstitutionalDepartmentName": "Department",
  "MRAcquisitionType": "2D",
  "MagneticFieldStrength": 3,
  "Manufacturer": "Siemens",
  "ManufacturersModelName": "Prisma",
  "Modality": "MR",
  "MultibandAccelerationFactor": 8,
  "PartialFourier": 1,
  "PatientPosition": "HFS",
  "PercentPhaseFOV": 100,
  "PercentSampling": 100,
  "PhaseEncodingDirection": "j-",
  "PhaseEncodingSteps": 82,
  "PhaseResolution": 1,
  "PixelBandwidth": 3050,
  "ProcedureStepDescription": "Wager_Wager^1076_spacetop",
  "ProtocolName": "func_run-01_task-alignvideo_acq-ap-mb8",
  "PulseSequenceDetails": "%CustomerSeq%\\cmrr_mbep2d_bold",
  "ReceiveCoilActiveElements": "HEA;HEP",
  "ReceiveCoilName": "Head_32",
  "ReconMatrixPE": 82,
  "RepetitionTime": 0.46,
  "SAR": 0.086724,
  "ScanOptions": "FS",
  "ScanningSequence": "EP",
  "SequenceName": "epfid2d1_82",
  "SequenceVariant": "SK\\SS",
  "SeriesDescription": "func_run-01_task-alignvideo_acq-ap-mb8",
  "SeriesNumber": 30,
  "ShimSetting": [4159, -7725, -7309, 633, -44, -154, 63, 73],
  "SliceThickness": 2.7,
  "SliceTiming": [0, 0.25, 0.0625, 0.3125, 0.125, 0.375, 0.1875, 0, 0.25, 0.0625, 0.3125, 0.125, 0.375, 0.1875, 0, 0.25, 0.0625, 0.3125, 0.125, 0.375, 0.1875, 0, 0.25, 0.0625, 0.3125, 0.125, 0.375, 0.1875, 0, 0.25, 0.0625, 0.3125, 0.125, 0.375, 0.1875, 0, 0.25, 0.0625, 0.3125, 0.125, 0.375, 0.1875, 0, 0.25, 0.0625, 0.3125, 0.125, 0.375, 0.1875, 0, 0.25, 0.0625, 0.3125, 0.125, 0.375, 0.1875],
  "SoftwareVersions": "syngo MR E11",
  "SpacingBetweenSlices": 2.7,
  "StationName": "AWP66112",
  "TaskName": "alignvideo",
  "TotalReadoutTime": 0.03969,
  "TxRefAmp": 237.673,
  "WipMemBlock": "fc348a86-883b-451c-a235-a3ab8fc7d402||Sequence: R016 ve11c/master r/e634e98; Dec 19 2017 11:00:25 by eja",
  "dcmmeta_affine": [
    [-2.682163953781128, -0.017321018502116203, 0.06198213994503021, 112.64977264404297],
    [-0.01715681701898575, 2.6828620433807373, 0.007393849082291126, -92.41680145263672],
    [0.061636146157979965, -0.006951147690415382, 2.6992783546447754, -65.0199966430664],
    [0.0, 0.0, 0.0, 1.0]
],
  "dcmmeta_reorient_transform": [
    [0.0, -1.0, 0.0, 81.0],
    [1.0, 0.0, 0.0, 0.0],
    [0.0, 0.0, 1.0, 0.0],
    [0.0, 0.0, 0.0, 1.0]
],
  "dcmmeta_shape": [82, 82, 56, 1073],
  "dcmmeta_slice_dim": 2,
  "dcmmeta_version": 0.6,
  "global": {
    "const": {
      "AccessionNumber": "A003465",
      "AcquisitionMatrix": [82, 0, 0, 82],
      "AngioFlag": "N",
      "BitsAllocated": 16,
      "BitsStored": 16,
      "BodyPartExamined": "BRAIN",
      "Columns": 656,
      "EchoNumbers": 1,
      "EchoTime": 27.2,
      "EchoTrainLength": 82,
      "FlipAngle": 44.0,
      "HighBit": 15,
      "ImageOrientationPatient": [0.99971562254262, 0.00639481328412, 0.02297347181597, -0.0064560160576, 0.99997580330006, 0.00259088229526],
      "ImagePositionPatient": [-876.05668605883, -899.80041476906, -85.267590101023],
      "ImageType": [
        "ORIGINAL",
        "PRIMARY",
        "M",
        "MB",
        "ND",
        "NORM",
        "MOSAIC"
],
      "ImagedNucleus": "1H",
      "ImagingFrequency": 123.252158,
      "InPlanePhaseEncodingDirection": "COL",
      "MRAcquisitionType": "2D",
      "MagneticFieldStrength": 3.0,
      "Manufacturer": "SIEMENS",
      "ManufacturerModelName": "Prisma",
      "Modality": "MR",
      "NumberOfAverages": 1.0,
      "NumberOfPhaseEncodingSteps": 82,
      "PercentPhaseFieldOfView": 100.0,
      "PercentSampling": 100.0,
      "PerformedProcedureStepStartTime": "115019.985000",
      "PhotometricInterpretation": "MONOCHROME2",
      "PixelBandwidth": 3050.0,
      "PixelRepresentation": 0,
      "PixelSpacing": [2.6829268932343, 2.6829268932343],
      "ProtocolName": "func_run-01_task-alignvideo_acq-ap-mb8",
      "RepetitionTime": 460.0,
      "Rows": 656,
      "SAR": 0.08672399589493,
      "SamplesPerPixel": 1,
      "ScanOptions": "FS",
      "ScanningSequence": "EP",
      "SequenceName": "epfid2d1_82",
      "SequenceVariant": [
        "SK",
        "SS"
],
      "SeriesDescription": "func_run-01_task-alignvideo_acq-ap-mb8",
      "SeriesNumber": 30,
      "SeriesTime": "133012.106000",
      "SliceLocation": -62.669667882698,
      "SliceThickness": 2.7000000476837,
      "SmallestImagePixelValue": 0,
      "SoftwareVersions": "syngo MR E11",
      "SpacingBetweenSlices": 2.7000000600627,
      "SpecificCharacterSet": "ISO_IR 100",
      "StudyID": "1",
      "StudyTime": "115019.849000",
      "TransmitCoilName": "Body",
      "VariableFlipAngleFlag": "N",
      "WindowCenterWidthExplanation": "Algo1",
      "dBdt": 0.0},
    "slices": {}
  },
  "time": {
    "samples": {
      "AcquisitionNumber": [1, 2, 3, 4, 5, 6, 7, 8, 9, 10, 11, 12, 13, 14, 15, 16, 17, 18, 19, 20, 21, 22, 23, 24, 25, 26, 27, 28, 29, 30, 31, 32, 33, 34, 35, 36, 37, 38, 39, 40, 41, 42, 43, 44, 45, 46, 47, 48, 49, 50, 51, 52, 53, 54, 55, 56, 57, 58, 59, 60, 61, 62, 63, 64, 65, 66, 67, 68, 69, 70, 71, 72, 73, 74, 75, 76, 77, 78, 79, 80, 81, 82, 83, 84, 85, 86, 87, 88, 89, 90, 91, 92, 93, 94, 95, 96, 97, 98, 99, 100, 101, 102, 103, 104, 105, 106, 107, 108, 109, 110, 111, 112, 113, 114, 115, 116, 117, 118, 119, 120, 121, 122, 123, 124, 125, 126, 127, 128, 129, 130, 131, 132, 133, 134, 135, 136, 137, 138, 139, 140, 141, 142, 143, 144, 145, 146, 147, 148, 149, 150, 151, 152, 153, 154, 155, 156, 157, 158, 159, 160, 161, 162, 163, 164, 165, 166, 167, 168, 169, 170, 171, 172, 173, 174, 175, 176, 177, 178, 179, 180, 181, 182, 183, 184, 185, 186, 187, 188, 189, 190, 191, 192, 193, 194, 195, 196, 197, 198, 199, 200, 201, 202, 203, 204, 205, 206, 207, 208, 209, 210, 211, 212, 213, 214, 215, 216, 217, 218, 219, 220, 221, 222, 223, 224, 225, 226, 227, 228, 229, 230, 231, 232, 233, 234, 235, 236, 237, 238, 239, 240, 241, 242, 243, 244, 245, 246, 247, 248, 249, 250, 251, 252, 253, 254, 255, 256, 257, 258, 259, 260, 261, 262, 263, 264, 265, 266, 267, 268, 269, 270, 271, 272, 273, 274, 275, 276, 277, 278, 279, 280, 281, 282, 283, 284, 285, 286, 287, 288, 289, 290, 291, 292, 293, 294, 295, 296, 297, 298, 299, 300, 301, 302, 303, 304, 305, 306, 307, 308, 309, 310, 311, 312, 313, 314, 315, 316, 317, 318, 319, 320, 321, 322, 323, 324, 325, 326, 327, 328, 329, 330, 331, 332, 333, 334, 335, 336, 337, 338, 339, 340, 341, 342, 343, 344, 345, 346, 347, 348, 349, 350, 351, 352, 353, 354, 355, 356, 357, 358, 359, 360, 361, 362, 363, 364, 365, 366, 367, 368, 369, 370, 371, 372, 373, 374, 375, 376, 377, 378, 379, 380, 381, 382, 383, 384, 385, 386, 387, 388, 389, 390, 391, 392, 393, 394, 395, 396, 397, 398, 399, 400, 401, 402, 403, 404, 405, 406, 407, 408, 409, 410, 411, 412, 413, 414, 415, 416, 417, 418, 419, 420, 421, 422, 423, 424, 425, 426, 427, 428, 429, 430, 431, 432, 433, 434, 435, 436, 437, 438, 439, 440, 441, 442, 443, 444, 445, 446, 447, 448, 449, 450, 451, 452, 453, 454, 455, 456, 457, 458, 459, 460, 461, 462, 463, 464, 465, 466, 467, 468, 469, 470, 471, 472, 473, 474, 475, 476, 477, 478, 479, 480, 481, 482, 483, 484, 485, 486, 487, 488, 489, 490, 491, 492, 493, 494, 495, 496, 497, 498, 499, 500, 501, 502, 503, 504, 505, 506, 507, 508, 509, 510, 511, 512, 513, 514, 515, 516, 517, 518, 519, 520, 521, 522, 523, 524, 525, 526, 527, 528, 529, 530, 531, 532, 533, 534, 535, 536, 537, 538, 539, 540, 541, 542, 543, 544, 545, 546, 547, 548, 549, 550, 551, 552, 553, 554, 555, 556, 557, 558, 559, 560, 561, 562, 563, 564, 565, 566, 567, 568, 569, 570, 571, 572, 573, 574, 575, 576, 577, 578, 579, 580, 581, 582, 583, 584, 585, 586, 587, 588, 589, 590, 591, 592, 593, 594, 595, 596, 597, 598, 599, 600, 601, 602, 603, 604, 605, 606, 607, 608, 609, 610, 611, 612, 613, 614, 615, 616, 617, 618, 619, 620, 621, 622, 623, 624, 625, 626, 627, 628, 629, 630, 631, 632, 633, 634, 635, 636, 637, 638, 639, 640, 641, 642, 643, 644, 645, 646, 647, 648, 649, 650, 651, 652, 653, 654, 655, 656, 657, 658, 659, 660, 661, 662, 663, 664, 665, 666, 667, 668, 669, 670, 671, 672, 673, 674, 675, 676, 677, 678, 679, 680, 681, 682, 683, 684, 685, 686, 687, 688, 689, 690, 691, 692, 693, 694, 695, 696, 697, 698, 699, 700, 701, 702, 703, 704, 705, 706, 707, 708, 709, 710, 711, 712, 713, 714, 715, 716, 717, 718, 719, 720, 721, 722, 723, 724, 725, 726, 727, 728, 729, 730, 731, 732, 733, 734, 735, 736, 737, 738, 739, 740, 741, 742, 743, 744, 745, 746, 747, 748, 749, 750, 751, 752, 753, 754, 755, 756, 757, 758, 759, 760, 761, 762, 763, 764, 765, 766, 767, 768, 769, 770, 771, 772, 773, 774, 775, 776, 777, 778, 779, 780, 781, 782, 783, 784, 785, 786, 787, 788, 789, 790, 791, 792, 793, 794, 795, 796, 797, 798, 799, 800, 801, 802, 803, 804, 805, 806, 807, 808, 809, 810, 811, 812, 813, 814, 815, 816, 817, 818, 819, 820, 821, 822, 823, 824, 825, 826, 827, 828, 829, 830, 831, 832, 833, 834, 835, 836, 837, 838, 839, 840, 841, 842, 843, 844, 845, 846, 847, 848, 849, 850, 851, 852, 853, 854, 855, 856, 857, 858, 859, 860, 861, 862, 863, 864, 865, 866, 867, 868, 869, 870, 871, 872, 873, 874, 875, 876, 877, 878, 879, 880, 881, 882, 883, 884, 885, 886, 887, 888, 889, 890, 891, 892, 893, 894, 895, 896, 897, 898, 899, 900, 901, 902, 903, 904, 905, 906, 907, 908, 909, 910, 911, 912, 913, 914, 915, 916, 917, 918, 919, 920, 921, 922, 923, 924, 925, 926, 927, 928, 929, 930, 931, 932, 933, 934, 935, 936, 937, 938, 939, 940, 941, 942, 943, 944, 945, 946, 947, 948, 949, 950, 951, 952, 953, 954, 955, 956, 957, 958, 959, 960, 961, 962, 963, 964, 965, 966, 967, 968, 969, 970, 971, 972, 973, 974, 975, 976, 977, 978, 979, 980, 981, 982, 983, 984, 985, 986, 987, 988, 989, 990, 991, 992, 993, 994, 995, 996, 997, 998, 999, 1000, 1001, 1002, 1003, 1004, 1005, 1006, 1007, 1008, 1009, 1010, 1011, 1012, 1013, 1014, 1015, 1016, 1017, 1018, 1019, 1020, 1021, 1022, 1023, 1024, 1025, 1026, 1027, 1028, 1029, 1030, 1031, 1032, 1033, 1034, 1035, 1036, 1037, 1038, 1039, 1040, 1041, 1042, 1043, 1044, 1045, 1046, 1047, 1048, 1049, 1050, 1051, 1052, 1053, 1054, 1055, 1056, 1057, 1058, 1059, 1060, 1061, 1062, 1063, 1064, 1065, 1066, 1067, 1068, 1069, 1070, 1071, 1072, 1073],
      "AcquisitionTime": ["132954.152500", "132954.612500", "132955.072500", "132955.532500", "132955.992500", "132956.452500", "132956.912500", "132957.372500", "132957.832500", "132958.292500", "132958.752500", "132959.212500", "132959.672500", "133000.132500", "133000.592500", "133001.052500", "133001.512500", "133001.972500", "133002.432500", "133002.892500", "133003.352500", "133003.812500", "133004.272500", "133004.732500", "133005.192500", "133005.652500", "133006.112500", "133006.572500", "133007.032500", "133007.492500", "133007.952500", "133008.412500", "133008.872500", "133009.332500", "133009.792500", "133010.252500", "133010.712500", "133011.172500", "133011.632500", "133012.092500", "133012.552500", "133013.012500", "133013.472500", "133013.932500", "133014.392500", "133014.852500", "133015.312500", "133015.772500", "133016.232500", "133016.692500", "133017.152500", "133017.612500", "133018.072500", "133018.532500", "133018.992500", "133019.452500", "133019.912500", "133020.372500", "133020.832500", "133021.292500", "133021.752500", "133022.212500", "133022.672500", "133023.132500", "133023.592500", "133024.052500", "133024.512500", "133024.972500", "133025.432500", "133025.892500", "133026.352500", "133026.812500", "133027.272500", "133027.732500", "133028.192500", "133028.652500", "133029.112500", "133029.572500", "133030.032500", "133030.492500", "133030.952500", "133031.412500", "133031.872500", "133032.332500", "133032.792500", "133033.252500", "133033.712500", "133034.172500", "133034.632500", "133035.092500", "133035.552500", "133036.012500", "133036.472500", "133036.932500", "133037.392500", "133037.852500", "133038.312500", "133038.772500", "133039.232500", "133039.692500", "133040.152500", "133040.612500", "133041.072500", "133041.532500", "133041.992500", "133042.452500", "133042.912500", "133043.372500", "133043.832500", "133044.292500", "133044.752500", "133045.212500", "133045.672500", "133046.132500", "133046.592500", "133047.052500", "133047.512500", "133047.972500", "133048.432500", "133048.892500", "133049.352500", "133049.812500", "133050.272500", "133050.732500", "133051.192500", "133051.652500", "133052.112500", "133052.572500", "133053.032500", "133053.492500", "133053.952500", "133054.412500", "133054.872500", "133055.332500", "133055.792500", "133056.252500", "133056.712500", "133057.172500", "133057.632500", "133058.092500", "133058.552500", "133059.012500", "133059.472500", "133059.932500", "133100.392500", "133100.852500", "133101.312500", "133101.772500", "133102.232500", "133102.692500", "133103.152500", "133103.612500", "133104.072500", "133104.532500", "133104.992500", "133105.452500", "133105.912500", "133106.372500", "133106.832500", "133107.292500", "133107.752500", "133108.212500", "133108.672500", "133109.132500", "133109.592500", "133110.052500", "133110.512500", "133110.972500", "133111.432500", "133111.892500", "133112.352500", "133112.812500", "133113.272500", "133113.732500", "133114.192500", "133114.652500", "133115.112500", "133115.572500", "133116.032500", "133116.492500", "133116.952500", "133117.412500", "133117.872500", "133118.332500", "133118.792500", "133119.252500", "133119.712500", "133120.172500", "133120.632500", "133121.092500", "133121.552500", "133122.012500", "133122.472500", "133122.932500", "133123.392500", "133123.852500", "133124.312500", "133124.772500", "133125.232500", "133125.692500", "133126.152500", "133126.612500", "133127.072500", "133127.532500", "133127.992500", "133128.452500", "133128.912500", "133129.372500", "133129.832500", "133130.292500", "133130.752500", "133131.212500", "133131.672500", "133132.132500", "133132.592500", "133133.052500", "133133.512500", "133133.972500", "133134.432500", "133134.892500", "133135.352500", "133135.812500", "133136.272500", "133136.732500", "133137.192500", "133137.652500", "133138.112500", "133138.572500", "133139.032500", "133139.492500", "133139.952500", "133140.412500", "133140.872500", "133141.332500", "133141.792500", "133142.252500", "133142.712500", "133143.172500", "133143.632500", "133144.092500", "133144.552500", "133145.012500", "133145.472500", "133145.932500", "133146.392500", "133146.852500", "133147.312500", "133147.772500", "133148.232500", "133148.692500", "133149.152500", "133149.612500", "133150.072500", "133150.532500", "133150.992500", "133151.452500", "133151.912500", "133152.372500", "133152.832500", "133153.292500", "133153.752500", "133154.212500", "133154.672500", "133155.132500", "133155.592500", "133156.052500", "133156.512500", "133156.972500", "133157.432500", "133157.892500", "133158.352500", "133158.812500", "133159.272500", "133159.732500", "133200.192500", "133200.652500", "133201.112500", "133201.572500", "133202.032500", "133202.492500", "133202.952500", "133203.412500", "133203.872500", "133204.332500", "133204.792500", "133205.252500", "133205.712500", "133206.172500", "133206.632500", "133207.092500", "133207.552500", "133208.012500", "133208.472500", "133208.932500", "133209.392500", "133209.852500", "133210.312500", "133210.772500", "133211.232500", "133211.692500", "133212.152500", "133212.612500", "133213.072500", "133213.532500", "133213.992500", "133214.452500", "133214.912500", "133215.372500", "133215.832500", "133216.292500", "133216.752500", "133217.212500", "133217.672500", "133218.132500", "133218.592500", "133219.052500", "133219.512500", "133219.972500", "133220.432500", "133220.892500", "133221.352500", "133221.812500", "133222.272500", "133222.732500", "133223.192500", "133223.652500", "133224.112500", "133224.572500", "133225.032500", "133225.492500", "133225.952500", "133226.412500", "133226.872500", "133227.332500", "133227.792500", "133228.252500", "133228.712500", "133229.172500", "133229.632500", "133230.092500", "133230.552500", "133231.012500", "133231.472500", "133231.932500", "133232.392500", "133232.852500", "133233.312500", "133233.772500", "133234.232500", "133234.692500", "133235.152500", "133235.612500", "133236.072500", "133236.532500", "133236.992500", "133237.452500", "133237.912500", "133238.372500", "133238.832500", "133239.292500", "133239.752500", "133240.212500", "133240.672500", "133241.132500", "133241.592500", "133242.052500", "133242.512500", "133242.972500", "133243.432500", "133243.892500", "133244.352500", "133244.812500", "133245.272500", "133245.732500", "133246.192500", "133246.652500", "133247.112500", "133247.572500", "133248.032500", "133248.492500", "133248.952500", "133249.412500", "133249.872500", "133250.332500", "133250.792500", "133251.252500", "133251.712500", "133252.172500", "133252.632500", "133253.092500", "133253.552500", "133254.012500", "133254.472500", "133254.932500", "133255.392500", "133255.852500", "133256.312500", "133256.772500", "133257.232500", "133257.692500", "133258.152500", "133258.612500", "133259.072500", "133259.532500", "133259.992500", "133300.452500", "133300.912500", "133301.372500", "133301.832500", "133302.292500", "133302.752500", "133303.212500", "133303.672500", "133304.132500", "133304.592500", "133305.052500", "133305.512500", "133305.972500", "133306.432500", "133306.892500", "133307.352500", "133307.812500", "133308.272500", "133308.732500", "133309.192500", "133309.652500", "133310.112500", "133310.572500", "133311.032500", "133311.492500", "133311.952500", "133312.412500", "133312.872500", "133313.332500", "133313.792500", "133314.252500", "133314.712500", "133315.172500", "133315.632500", "133316.092500", "133316.552500", "133317.012500", "133317.472500", "133317.932500", "133318.392500", "133318.852500", "133319.312500", "133319.772500", "133320.232500", "133320.692500", "133321.152500", "133321.612500", "133322.072500", "133322.532500", "133322.992500", "133323.452500", "133323.912500", "133324.372500", "133324.832500", "133325.292500", "133325.752500", "133326.212500", "133326.672500", "133327.132500", "133327.592500", "133328.052500", "133328.512500", "133328.972500", "133329.432500", "133329.892500", "133330.352500", "133330.812500", "133331.272500", "133331.732500", "133332.192500", "133332.652500", "133333.112500", "133333.572500", "133334.032500", "133334.492500", "133334.952500", "133335.412500", "133335.872500", "133336.332500", "133336.792500", "133337.252500", "133337.712500", "133338.172500", "133338.632500", "133339.092500", "133339.552500", "133340.012500", "133340.472500", "133340.932500", "133341.392500", "133341.852500", "133342.312500", "133342.772500", "133343.232500", "133343.692500", "133344.152500", "133344.612500", "133345.072500", "133345.532500", "133345.992500", "133346.452500", "133346.912500", "133347.372500", "133347.832500", "133348.292500", "133348.752500", "133349.212500", "133349.672500", "133350.132500", "133350.592500", "133351.052500", "133351.512500", "133351.972500", "133352.432500", "133352.892500", "133353.352500", "133353.812500", "133354.272500", "133354.732500", "133355.192500", "133355.652500", "133356.112500", "133356.572500", "133357.032500", "133357.492500", "133357.952500", "133358.412500", "133358.872500", "133359.332500", "133359.792500", "133400.252500", "133400.712500", "133401.172500", "133401.632500", "133402.092500", "133402.552500", "133403.012500", "133403.472500", "133403.932500", "133404.392500", "133404.852500", "133405.312500", "133405.772500", "133406.232500", "133406.692500", "133407.152500", "133407.612500", "133408.072500", "133408.532500", "133408.992500", "133409.452500", "133409.912500", "133410.372500", "133410.832500", "133411.292500", "133411.752500", "133412.212500", "133412.672500", "133413.132500", "133413.592500", "133414.052500", "133414.512500", "133414.972500", "133415.432500", "133415.892500", "133416.352500", "133416.812500", "133417.272500", "133417.732500", "133418.192500", "133418.652500", "133419.112500", "133419.572500", "133420.032500", "133420.492500", "133420.952500", "133421.412500", "133421.872500", "133422.332500", "133422.792500", "133423.252500", "133423.712500", "133424.172500", "133424.632500", "133425.092500", "133425.552500", "133426.012500", "133426.472500", "133426.932500", "133427.392500", "133427.852500", "133428.312500", "133428.772500", "133429.232500", "133429.692500", "133430.152500", "133430.612500", "133431.072500", "133431.532500", "133431.992500", "133432.452500", "133432.912500", "133433.372500", "133433.832500", "133434.292500", "133434.752500", "133435.212500", "133435.672500", "133436.132500", "133436.592500", "133437.052500", "133437.512500", "133437.972500", "133438.432500", "133438.892500", "133439.352500", "133439.812500", "133440.272500", "133440.732500", "133441.192500", "133441.652500", "133442.112500", "133442.572500", "133443.032500", "133443.492500", "133443.952500", "133444.412500", "133444.872500", "133445.332500", "133445.792500", "133446.252500", "133446.712500", "133447.172500", "133447.632500", "133448.092500", "133448.552500", "133449.012500", "133449.472500", "133449.932500", "133450.392500", "133450.852500", "133451.312500", "133451.772500", "133452.232500", "133452.692500", "133453.152500", "133453.612500", "133454.072500", "133454.532500", "133454.992500", "133455.452500", "133455.912500", "133456.372500", "133456.832500", "133457.292500", "133457.752500", "133458.212500", "133458.672500", "133459.132500", "133459.592500", "133500.052500", "133500.512500", "133500.972500", "133501.432500", "133501.892500", "133502.352500", "133502.812500", "133503.272500", "133503.732500", "133504.192500", "133504.652500", "133505.112500", "133505.572500", "133506.032500", "133506.492500", "133506.952500", "133507.412500", "133507.872500", "133508.332500", "133508.792500", "133509.252500", "133509.712500", "133510.172500", "133510.632500", "133511.092500", "133511.552500", "133512.012500", "133512.472500", "133512.932500", "133513.392500", "133513.852500", "133514.312500", "133514.772500", "133515.232500", "133515.692500", "133516.152500", "133516.612500", "133517.072500", "133517.532500", "133517.992500", "133518.452500", "133518.912500", "133519.372500", "133519.832500", "133520.292500", "133520.752500", "133521.212500", "133521.672500", "133522.132500", "133522.592500", "133523.052500", "133523.512500", "133523.972500", "133524.432500", "133524.892500", "133525.352500", "133525.812500", "133526.272500", "133526.732500", "133527.192500", "133527.652500", "133528.112500", "133528.572500", "133529.032500", "133529.492500", "133529.952500", "133530.412500", "133530.872500", "133531.332500", "133531.792500", "133532.252500", "133532.712500", "133533.172500", "133533.632500", "133534.092500", "133534.552500", "133535.012500", "133535.472500", "133535.932500", "133536.392500", "133536.852500", "133537.312500", "133537.772500", "133538.232500", "133538.692500", "133539.152500", "133539.612500", "133540.072500", "133540.532500", "133540.992500", "133541.452500", "133541.912500", "133542.372500", "133542.832500", "133543.292500", "133543.752500", "133544.212500", "133544.672500", "133545.132500", "133545.592500", "133546.052500", "133546.512500", "133546.972500", "133547.432500", "133547.892500", "133548.352500", "133548.812500", "133549.272500", "133549.732500", "133550.192500", "133550.652500", "133551.112500", "133551.572500", "133552.032500", "133552.492500", "133552.952500", "133553.412500", "133553.872500", "133554.332500", "133554.792500", "133555.252500", "133555.712500", "133556.172500", "133556.632500", "133557.092500", "133557.552500", "133558.012500", "133558.472500", "133558.932500", "133559.392500", "133559.852500", "133600.312500", "133600.772500", "133601.232500", "133601.692500", "133602.152500", "133602.612500", "133603.072500", "133603.532500", "133603.992500", "133604.452500", "133604.912500", "133605.372500", "133605.832500", "133606.292500", "133606.752500", "133607.212500", "133607.672500", "133608.132500", "133608.592500", "133609.052500", "133609.512500", "133609.972500", "133610.432500", "133610.892500", "133611.352500", "133611.812500", "133612.272500", "133612.732500", "133613.192500", "133613.652500", "133614.112500", "133614.572500", "133615.032500", "133615.492500", "133615.952500", "133616.412500", "133616.872500", "133617.332500", "133617.792500", "133618.252500", "133618.712500", "133619.172500", "133619.632500", "133620.092500", "133620.552500", "133621.012500", "133621.472500", "133621.932500", "133622.392500", "133622.852500", "133623.312500", "133623.772500", "133624.232500", "133624.692500", "133625.152500", "133625.612500", "133626.072500", "133626.532500", "133626.992500", "133627.452500", "133627.912500", "133628.372500", "133628.832500", "133629.292500", "133629.752500", "133630.212500", "133630.672500", "133631.132500", "133631.592500", "133632.052500", "133632.512500", "133632.972500", "133633.432500", "133633.892500", "133634.352500", "133634.812500", "133635.272500", "133635.732500", "133636.192500", "133636.652500", "133637.112500", "133637.572500", "133638.032500", "133638.492500", "133638.952500", "133639.412500", "133639.872500", "133640.332500", "133640.792500", "133641.252500", "133641.712500", "133642.172500", "133642.632500", "133643.092500", "133643.552500", "133644.012500", "133644.472500", "133644.932500", "133645.392500", "133645.852500", "133646.312500", "133646.772500", "133647.232500", "133647.692500", "133648.152500", "133648.612500", "133649.072500", "133649.532500", "133649.992500", "133650.452500", "133650.912500", "133651.372500", "133651.832500", "133652.292500", "133652.752500", "133653.212500", "133653.672500", "133654.132500", "133654.592500", "133655.052500", "133655.512500", "133655.972500", "133656.432500", "133656.892500", "133657.352500", "133657.812500", "133658.272500", "133658.732500", "133659.192500", "133659.652500", "133700.112500", "133700.572500", "133701.032500", "133701.492500", "133701.952500", "133702.412500", "133702.872500", "133703.332500", "133703.792500", "133704.252500", "133704.712500", "133705.172500", "133705.632500", "133706.092500", "133706.552500", "133707.012500", "133707.472500", "133707.932500", "133708.392500", "133708.852500", "133709.312500", "133709.772500", "133710.232500", "133710.692500", "133711.152500", "133711.612500", "133712.072500", "133712.532500", "133712.992500", "133713.452500", "133713.912500", "133714.372500", "133714.832500", "133715.292500", "133715.752500", "133716.212500", "133716.672500", "133717.132500", "133717.592500", "133718.052500", "133718.512500", "133718.972500", "133719.432500", "133719.892500", "133720.352500", "133720.812500", "133721.272500", "133721.732500", "133722.192500", "133722.652500", "133723.112500", "133723.572500", "133724.032500", "133724.492500", "133724.952500", "133725.412500", "133725.872500", "133726.332500", "133726.792500", "133727.252500", "133727.712500", "133728.172500", "133728.632500", "133729.092500", "133729.552500", "133730.012500", "133730.472500", "133730.932500", "133731.392500", "133731.852500", "133732.312500", "133732.772500", "133733.232500", "133733.692500", "133734.152500", "133734.612500", "133735.072500", "133735.532500", "133735.992500", "133736.452500", "133736.912500", "133737.372500", "133737.832500", "133738.292500", "133738.752500", "133739.212500", "133739.672500", "133740.132500", "133740.592500", "133741.052500", "133741.512500", "133741.972500", "133742.432500", "133742.892500", "133743.352500", "133743.812500", "133744.272500", "133744.732500", "133745.192500", "133745.652500", "133746.112500", "133746.572500", "133747.032500", "133747.492500", "133747.952500", "133748.412500", "133748.872500", "133749.332500", "133749.792500", "133750.252500", "133750.712500", "133751.172500", "133751.632500", "133752.092500", "133752.552500", "133753.012500", "133753.472500", "133753.932500", "133754.392500", "133754.852500", "133755.312500", "133755.772500", "133756.232500", "133756.692500", "133757.152500", "133757.612500", "133758.072500", "133758.532500", "133758.992500", "133759.452500", "133759.912500", "133800.372500", "133800.832500", "133801.292500", "133801.752500", "133802.212500", "133802.672500", "133803.132500", "133803.592500", "133804.052500", "133804.512500", "133804.972500", "133805.432500", "133805.892500", "133806.352500", "133806.812500", "133807.272500"],
