{
  "AcquisitionMatrixPE": 82,
  "AcquisitionNumber": 1,
  "AcquisitionTime": "12:57:48.040000",
  "BandwidthPerPixelPhaseEncode": 24.888,
  "BaseResolution": 82,
  "BodyPartExamined": "BRAIN",
  "ConsistencyInfo": "N4_VE11C_LATEST_20160120",
  "ConversionSoftware": "dcm2niix",
  "ConversionSoftwareVersion": "v1.0.20201102",
  "DerivedVendorReportedEchoSpacing": 0.00049,
  "DeviceSerialNumber": "66112",
  "DwellTime": 2e-06,
  "EchoTime": 0.0272,
  "EchoTrainLength": 82,
  "EffectiveEchoSpacing": 0.00049,
  "FlipAngle": 44,
  "ImageComments": "Unaliased MB8/PE3",
  "ImageOrientationPatientDICOM": [0.999975, 0.00641651, 0.00289499, -0.005934, 0.989606, -0.143681],
  "ImageType": [
    "ORIGINAL",
    "PRIMARY",
    "M",
    "MB",
    "ND",
    "NORM",
    "MOSAIC"
],
  "ImagingFrequency": 123.252,
  "InPlanePhaseEncodingDirectionDICOM": "COL",
  "InstitutionAddress": "Maynard 3,Hanover,NH,US,03755",
  "InstitutionName": "Dartmouth College - PBS",
  "InstitutionalDepartmentName": "Department",
  "MRAcquisitionType": "2D",
  "MagneticFieldStrength": 3,
  "Manufacturer": "Siemens",
  "ManufacturersModelName": "Prisma",
  "Modality": "MR",
  "MultibandAccelerationFactor": 8,
  "PartialFourier": 1,
  "PatientPosition": "HFS",
  "PercentPhaseFOV": 100,
  "PercentSampling": 100,
  "PhaseEncodingDirection": "j-",
  "PhaseEncodingSteps": 82,
  "PhaseResolution": 1,
  "PixelBandwidth": 3050,
  "ProcedureStepDescription": "Wager_Wager^1076_spacetop",
  "ProtocolName": "func_run-03_task-social_acq-ap-mb8",
  "PulseSequenceDetails": "%CustomerSeq%\\cmrr_mbep2d_bold",
  "ReceiveCoilActiveElements": "HEA;HEP",
  "ReceiveCoilName": "Head_32",
  "ReconMatrixPE": 82,
  "RepetitionTime": 0.46,
  "SAR": 0.086623,
  "ScanOptions": "FS",
  "ScanningSequence": "EP",
  "SequenceName": "epfid2d1_82",
  "SequenceVariant": "SK\\SS",
  "SeriesDescription": "func_run-03_task-social_acq-ap-mb8",
  "SeriesNumber": 16,
  "ShimSetting": [4160, -7726, -7303, 652, -44, -159, 61, 73],
  "SliceThickness": 2.7,
  "SliceTiming": [0, 0.2525, 0.065, 0.315, 0.1275, 0.3775, 0.19, 0, 0.2525, 0.065, 0.315, 0.1275, 0.3775, 0.19, 0, 0.2525, 0.065, 0.315, 0.1275, 0.3775, 0.19, 0, 0.2525, 0.065, 0.315, 0.1275, 0.3775, 0.19, 0, 0.2525, 0.065, 0.315, 0.1275, 0.3775, 0.19, 0, 0.2525, 0.065, 0.315, 0.1275, 0.3775, 0.19, 0, 0.2525, 0.065, 0.315, 0.1275, 0.3775, 0.19, 0, 0.2525, 0.065, 0.315, 0.1275, 0.3775, 0.19],
  "SoftwareVersions": "syngo MR E11",
  "SpacingBetweenSlices": 2.7,
  "StationName": "AWP66112",
  "TaskName": "social",
  "TotalReadoutTime": 0.03969,
  "TxRefAmp": 237.673,
  "WipMemBlock": "0e5bce20-66a4-4a59-8c93-ea6f8c94be8c||Sequence: R016 ve11c/master r/e634e98; Dec 19 2017 11:00:25 by eja",
  "dcmmeta_affine": [
    [-2.6828603744506836, -0.015920499339699745, 0.010224448516964912, 115.39981079101562],
    [-0.01721501350402832, 2.655040979385376, -0.3878839612007141, -75.88947296142578],
    [0.007767046336084604, 0.3854868710041046, 2.67197322845459, -74.99668884277344],
    [0.0, 0.0, 0.0, 1.0]
],
  "dcmmeta_reorient_transform": [
    [0.0, -1.0, 0.0, 81.0],
    [1.0, 0.0, 0.0, 0.0],
    [0.0, 0.0, 1.0, 0.0],
    [0.0, 0.0, 0.0, 1.0]
],
  "dcmmeta_shape": [82, 82, 56, 872],
  "dcmmeta_slice_dim": 2,
  "dcmmeta_version": 0.6,
  "global": {
    "const": {
      "AccessionNumber": "A003465",
      "AcquisitionMatrix": [82, 0, 0, 82],
      "AngioFlag": "N",
      "BitsAllocated": 16,
      "BitsStored": 16,
      "BodyPartExamined": "BRAIN",
      "Columns": 656,
      "EchoNumbers": 1,
      "EchoTime": 27.2,
      "EchoTrainLength": 82,
      "FlipAngle": 44.0,
      "HighBit": 15,
      "ImageOrientationPatient": [0.99997522344023, 0.00641650516151, 0.00289499001201, -0.0059340038667, 0.98960619579994, -0.1436814700387],
      "ImagePositionPatient": [-879.52200586485, -906.10634959588, 64.633343017691],
      "ImageType": [
        "ORIGINAL",
        "PRIMARY",
        "M",
        "MB",
        "ND",
        "NORM",
        "MOSAIC"
],
      "ImagedNucleus": "1H",
      "ImagingFrequency": 123.252153,
      "InPlanePhaseEncodingDirection": "COL",
      "MRAcquisitionType": "2D",
      "MagneticFieldStrength": 3.0,
      "Manufacturer": "SIEMENS",
      "ManufacturerModelName": "Prisma",
      "Modality": "MR",
      "NumberOfAverages": 1.0,
      "NumberOfPhaseEncodingSteps": 82,
      "PercentPhaseFieldOfView": 100.0,
      "PercentSampling": 100.0,
      "PerformedProcedureStepStartTime": "115019.985000",
      "PhotometricInterpretation": "MONOCHROME2",
      "PixelBandwidth": 3050.0,
      "PixelRepresentation": 0,
      "PixelSpacing": [2.6829268932343, 2.6829268932343],
      "ProtocolName": "func_run-03_task-social_acq-ap-mb8",
      "RepetitionTime": 460.0,
      "Rows": 656,
      "SAR": 0.08662297285109,
      "SamplesPerPixel": 1,
      "ScanOptions": "FS",
      "ScanningSequence": "EP",
      "SequenceName": "epfid2d1_82",
      "SequenceVariant": [
        "SK",
        "SS"
],
      "SeriesDescription": "func_run-03_task-social_acq-ap-mb8",
      "SeriesNumber": 16,
      "SeriesTime": "125812.023000",
      "SliceLocation": -62.878864931269,
      "SliceThickness": 2.7000000476837,
      "SmallestImagePixelValue": 0,
      "SoftwareVersions": "syngo MR E11",
      "SpacingBetweenSlices": 2.6999999461722,
      "SpecificCharacterSet": "ISO_IR 100",
      "StudyID": "1",
      "StudyTime": "115019.849000",
      "TransmitCoilName": "Body",
      "VariableFlipAngleFlag": "N",
      "WindowCenterWidthExplanation": "Algo1",
      "dBdt": 0.0},
    "slices": {}
  },
  "time": {
    "samples": {
      "AcquisitionNumber": [1, 2, 3, 4, 5, 6, 7, 8, 9, 10, 11, 12, 13, 14, 15, 16, 17, 18, 19, 20, 21, 22, 23, 24, 25, 26, 27, 28, 29, 30, 31, 32, 33, 34, 35, 36, 37, 38, 39, 40, 41, 42, 43, 44, 45, 46, 47, 48, 49, 50, 51, 52, 53, 54, 55, 56, 57, 58, 59, 60, 61, 62, 63, 64, 65, 66, 67, 68, 69, 70, 71, 72, 73, 74, 75, 76, 77, 78, 79, 80, 81, 82, 83, 84, 85, 86, 87, 88, 89, 90, 91, 92, 93, 94, 95, 96, 97, 98, 99, 100, 101, 102, 103, 104, 105, 106, 107, 108, 109, 110, 111, 112, 113, 114, 115, 116, 117, 118, 119, 120, 121, 122, 123, 124, 125, 126, 127, 128, 129, 130, 131, 132, 133, 134, 135, 136, 137, 138, 139, 140, 141, 142, 143, 144, 145, 146, 147, 148, 149, 150, 151, 152, 153, 154, 155, 156, 157, 158, 159, 160, 161, 162, 163, 164, 165, 166, 167, 168, 169, 170, 171, 172, 173, 174, 175, 176, 177, 178, 179, 180, 181, 182, 183, 184, 185, 186, 187, 188, 189, 190, 191, 192, 193, 194, 195, 196, 197, 198, 199, 200, 201, 202, 203, 204, 205, 206, 207, 208, 209, 210, 211, 212, 213, 214, 215, 216, 217, 218, 219, 220, 221, 222, 223, 224, 225, 226, 227, 228, 229, 230, 231, 232, 233, 234, 235, 236, 237, 238, 239, 240, 241, 242, 243, 244, 245, 246, 247, 248, 249, 250, 251, 252, 253, 254, 255, 256, 257, 258, 259, 260, 261, 262, 263, 264, 265, 266, 267, 268, 269, 270, 271, 272, 273, 274, 275, 276, 277, 278, 279, 280, 281, 282, 283, 284, 285, 286, 287, 288, 289, 290, 291, 292, 293, 294, 295, 296, 297, 298, 299, 300, 301, 302, 303, 304, 305, 306, 307, 308, 309, 310, 311, 312, 313, 314, 315, 316, 317, 318, 319, 320, 321, 322, 323, 324, 325, 326, 327, 328, 329, 330, 331, 332, 333, 334, 335, 336, 337, 338, 339, 340, 341, 342, 343, 344, 345, 346, 347, 348, 349, 350, 351, 352, 353, 354, 355, 356, 357, 358, 359, 360, 361, 362, 363, 364, 365, 366, 367, 368, 369, 370, 371, 372, 373, 374, 375, 376, 377, 378, 379, 380, 381, 382, 383, 384, 385, 386, 387, 388, 389, 390, 391, 392, 393, 394, 395, 396, 397, 398, 399, 400, 401, 402, 403, 404, 405, 406, 407, 408, 409, 410, 411, 412, 413, 414, 415, 416, 417, 418, 419, 420, 421, 422, 423, 424, 425, 426, 427, 428, 429, 430, 431, 432, 433, 434, 435, 436, 437, 438, 439, 440, 441, 442, 443, 444, 445, 446, 447, 448, 449, 450, 451, 452, 453, 454, 455, 456, 457, 458, 459, 460, 461, 462, 463, 464, 465, 466, 467, 468, 469, 470, 471, 472, 473, 474, 475, 476, 477, 478, 479, 480, 481, 482, 483, 484, 485, 486, 487, 488, 489, 490, 491, 492, 493, 494, 495, 496, 497, 498, 499, 500, 501, 502, 503, 504, 505, 506, 507, 508, 509, 510, 511, 512, 513, 514, 515, 516, 517, 518, 519, 520, 521, 522, 523, 524, 525, 526, 527, 528, 529, 530, 531, 532, 533, 534, 535, 536, 537, 538, 539, 540, 541, 542, 543, 544, 545, 546, 547, 548, 549, 550, 551, 552, 553, 554, 555, 556, 557, 558, 559, 560, 561, 562, 563, 564, 565, 566, 567, 568, 569, 570, 571, 572, 573, 574, 575, 576, 577, 578, 579, 580, 581, 582, 583, 584, 585, 586, 587, 588, 589, 590, 591, 592, 593, 594, 595, 596, 597, 598, 599, 600, 601, 602, 603, 604, 605, 606, 607, 608, 609, 610, 611, 612, 613, 614, 615, 616, 617, 618, 619, 620, 621, 622, 623, 624, 625, 626, 627, 628, 629, 630, 631, 632, 633, 634, 635, 636, 637, 638, 639, 640, 641, 642, 643, 644, 645, 646, 647, 648, 649, 650, 651, 652, 653, 654, 655, 656, 657, 658, 659, 660, 661, 662, 663, 664, 665, 666, 667, 668, 669, 670, 671, 672, 673, 674, 675, 676, 677, 678, 679, 680, 681, 682, 683, 684, 685, 686, 687, 688, 689, 690, 691, 692, 693, 694, 695, 696, 697, 698, 699, 700, 701, 702, 703, 704, 705, 706, 707, 708, 709, 710, 711, 712, 713, 714, 715, 716, 717, 718, 719, 720, 721, 722, 723, 724, 725, 726, 727, 728, 729, 730, 731, 732, 733, 734, 735, 736, 737, 738, 739, 740, 741, 742, 743, 744, 745, 746, 747, 748, 749, 750, 751, 752, 753, 754, 755, 756, 757, 758, 759, 760, 761, 762, 763, 764, 765, 766, 767, 768, 769, 770, 771, 772, 773, 774, 775, 776, 777, 778, 779, 780, 781, 782, 783, 784, 785, 786, 787, 788, 789, 790, 791, 792, 793, 794, 795, 796, 797, 798, 799, 800, 801, 802, 803, 804, 805, 806, 807, 808, 809, 810, 811, 812, 813, 814, 815, 816, 817, 818, 819, 820, 821, 822, 823, 824, 825, 826, 827, 828, 829, 830, 831, 832, 833, 834, 835, 836, 837, 838, 839, 840, 841, 842, 843, 844, 845, 846, 847, 848, 849, 850, 851, 852, 853, 854, 855, 856, 857, 858, 859, 860, 861, 862, 863, 864, 865, 866, 867, 868, 869, 870, 871, 872],
      "AcquisitionTime": ["125748.040000", "125748.500000", "125748.960000", "125749.420000", "125749.880000", "125750.340000", "125750.800000", "125751.260000", "125751.720000", "125752.180000", "125752.640000", "125753.100000", "125753.560000", "125754.020000", "125754.480000", "125754.940000", "125755.400000", "125755.860000", "125756.320000", "125756.780000", "125757.240000", "125757.700000", "125758.160000", "125758.620000", "125759.080000", "125759.540000", "125800.000000", "125800.460000", "125800.920000", "125801.380000", "125801.840000", "125802.300000", "125802.760000", "125803.220000", "125803.680000", "125804.140000", "125804.600000", "125805.060000", "125805.520000", "125805.980000", "125806.440000", "125806.900000", "125807.360000", "125807.820000", "125808.280000", "125808.740000", "125809.200000", "125809.660000", "125810.120000", "125810.580000", "125811.040000", "125811.500000", "125811.960000", "125812.420000", "125812.880000", "125813.340000", "125813.800000", "125814.260000", "125814.720000", "125815.180000", "125815.640000", "125816.100000", "125816.560000", "125817.020000", "125817.480000", "125817.940000", "125818.400000", "125818.860000", "125819.320000", "125819.780000", "125820.240000", "125820.700000", "125821.160000", "125821.620000", "125822.080000", "125822.540000", "125823.000000", "125823.460000", "125823.920000", "125824.380000", "125824.840000", "125825.300000", "125825.760000", "125826.220000", "125826.680000", "125827.140000", "125827.600000", "125828.060000", "125828.520000", "125828.980000", "125829.440000", "125829.900000", "125830.360000", "125830.820000", "125831.280000", "125831.740000", "125832.200000", "125832.660000", "125833.120000", "125833.580000", "125834.040000", "125834.500000", "125834.960000", "125835.420000", "125835.880000", "125836.340000", "125836.800000", "125837.260000", "125837.720000", "125838.180000", "125838.640000", "125839.100000", "125839.560000", "125840.020000", "125840.480000", "125840.940000", "125841.400000", "125841.860000", "125842.320000", "125842.780000", "125843.240000", "125843.700000", "125844.160000", "125844.620000", "125845.080000", "125845.540000", "125846.000000", "125846.460000", "125846.920000", "125847.380000", "125847.840000", "125848.300000", "125848.760000", "125849.220000", "125849.680000", "125850.140000", "125850.600000", "125851.060000", "125851.520000", "125851.980000", "125852.440000", "125852.900000", "125853.360000", "125853.820000", "125854.280000", "125854.740000", "125855.200000", "125855.660000", "125856.120000", "125856.580000", "125857.040000", "125857.500000", "125857.960000", "125858.420000", "125858.880000", "125859.340000", "125859.800000", "125900.260000", "125900.720000", "125901.180000", "125901.640000", "125902.100000", "125902.560000", "125903.020000", "125903.480000", "125903.940000", "125904.400000", "125904.860000", "125905.320000", "125905.780000", "125906.240000", "125906.700000", "125907.160000", "125907.620000", "125908.080000", "125908.540000", "125909.000000", "125909.460000", "125909.920000", "125910.380000", "125910.840000", "125911.300000", "125911.760000", "125912.220000", "125912.680000", "125913.140000", "125913.600000", "125914.060000", "125914.520000", "125914.980000", "125915.440000", "125915.900000", "125916.360000", "125916.820000", "125917.280000", "125917.740000", "125918.200000", "125918.660000", "125919.120000", "125919.580000", "125920.040000", "125920.500000", "125920.960000", "125921.420000", "125921.880000", "125922.340000", "125922.800000", "125923.260000", "125923.720000", "125924.180000", "125924.640000", "125925.100000", "125925.560000", "125926.020000", "125926.480000", "125926.940000", "125927.400000", "125927.860000", "125928.320000", "125928.780000", "125929.240000", "125929.700000", "125930.160000", "125930.620000", "125931.080000", "125931.540000", "125932.000000", "125932.460000", "125932.920000", "125933.380000", "125933.840000", "125934.300000", "125934.760000", "125935.220000", "125935.680000", "125936.140000", "125936.600000", "125937.060000", "125937.520000", "125937.980000", "125938.440000", "125938.900000", "125939.360000", "125939.820000", "125940.280000", "125940.740000", "125941.200000", "125941.660000", "125942.120000", "125942.580000", "125943.040000", "125943.500000", "125943.960000", "125944.420000", "125944.880000", "125945.340000", "125945.800000", "125946.260000", "125946.720000", "125947.180000", "125947.640000", "125948.100000", "125948.560000", "125949.020000", "125949.480000", "125949.940000", "125950.400000", "125950.860000", "125951.320000", "125951.780000", "125952.240000", "125952.700000", "125953.160000", "125953.620000", "125954.080000", "125954.540000", "125955.000000", "125955.460000", "125955.920000", "125956.380000", "125956.840000", "125957.300000", "125957.760000", "125958.220000", "125958.680000", "125959.140000", "125959.600000", "130000.060000", "130000.520000", "130000.980000", "130001.440000", "130001.900000", "130002.360000", "130002.820000", "130003.280000", "130003.740000", "130004.200000", "130004.660000", "130005.120000", "130005.580000", "130006.040000", "130006.500000", "130006.960000", "130007.420000", "130007.880000", "130008.340000", "130008.800000", "130009.260000", "130009.720000", "130010.180000", "130010.640000", "130011.100000", "130011.560000", "130012.020000", "130012.480000", "130012.940000", "130013.400000", "130013.860000", "130014.320000", "130014.780000", "130015.240000", "130015.700000", "130016.160000", "130016.620000", "130017.080000", "130017.540000", "130018.000000", "130018.460000", "130018.920000", "130019.380000", "130019.840000", "130020.300000", "130020.760000", "130021.220000", "130021.680000", "130022.140000", "130022.600000", "130023.060000", "130023.520000", "130023.980000", "130024.440000", "130024.900000", "130025.360000", "130025.820000", "130026.280000", "130026.740000", "130027.200000", "130027.660000", "130028.120000", "130028.580000", "130029.040000", "130029.500000", "130029.960000", "130030.420000", "130030.880000", "130031.340000", "130031.800000", "130032.260000", "130032.720000", "130033.180000", "130033.640000", "130034.100000", "130034.560000", "130035.020000", "130035.480000", "130035.940000", "130036.400000", "130036.860000", "130037.320000", "130037.780000", "130038.240000", "130038.700000", "130039.160000", "130039.620000", "130040.080000", "130040.540000", "130041.000000", "130041.460000", "130041.920000", "130042.380000", "130042.840000", "130043.300000", "130043.760000", "130044.220000", "130044.680000", "130045.140000", "130045.600000", "130046.060000", "130046.520000", "130046.980000", "130047.440000", "130047.900000", "130048.360000", "130048.820000", "130049.280000", "130049.740000", "130050.200000", "130050.660000", "130051.120000", "130051.580000", "130052.040000", "130052.500000", "130052.960000", "130053.420000", "130053.880000", "130054.340000", "130054.800000", "130055.260000", "130055.720000", "130056.180000", "130056.640000", "130057.100000", "130057.560000", "130058.020000", "130058.480000", "130058.940000", "130059.400000", "130059.860000", "130100.320000", "130100.780000", "130101.240000", "130101.700000", "130102.160000", "130102.620000", "130103.080000", "130103.540000", "130104.000000", "130104.460000", "130104.920000", "130105.380000", "130105.840000", "130106.300000", "130106.760000", "130107.220000", "130107.680000", "130108.140000", "130108.600000", "130109.060000", "130109.520000", "130109.980000", "130110.440000", "130110.900000", "130111.360000", "130111.820000", "130112.280000", "130112.740000", "130113.200000", "130113.660000", "130114.120000", "130114.580000", "130115.040000", "130115.500000", "130115.960000", "130116.420000", "130116.880000", "130117.340000", "130117.800000", "130118.260000", "130118.720000", "130119.180000", "130119.640000", "130120.100000", "130120.560000", "130121.020000", "130121.480000", "130121.940000", "130122.400000", "130122.860000", "130123.320000", "130123.780000", "130124.240000", "130124.700000", "130125.160000", "130125.620000", "130126.080000", "130126.540000", "130127.000000", "130127.460000", "130127.920000", "130128.380000", "130128.840000", "130129.300000", "130129.760000", "130130.220000", "130130.680000", "130131.140000", "130131.600000", "130132.060000", "130132.520000", "130132.980000", "130133.440000", "130133.900000", "130134.360000", "130134.820000", "130135.280000", "130135.740000", "130136.200000", "130136.660000", "130137.120000", "130137.580000", "130138.040000", "130138.500000", "130138.960000", "130139.420000", "130139.880000", "130140.340000", "130140.800000", "130141.260000", "130141.720000", "130142.180000", "130142.640000", "130143.100000", "130143.560000", "130144.020000", "130144.480000", "130144.940000", "130145.400000", "130145.860000", "130146.320000", "130146.780000", "130147.240000", "130147.700000", "130148.160000", "130148.620000", "130149.080000", "130149.540000", "130150.000000", "130150.460000", "130150.920000", "130151.380000", "130151.840000", "130152.300000", "130152.760000", "130153.220000", "130153.680000", "130154.140000", "130154.600000", "130155.060000", "130155.520000", "130155.980000", "130156.440000", "130156.900000", "130157.360000", "130157.820000", "130158.280000", "130158.740000", "130159.200000", "130159.660000", "130200.120000", "130200.580000", "130201.040000", "130201.500000", "130201.960000", "130202.420000", "130202.880000", "130203.340000", "130203.800000", "130204.260000", "130204.720000", "130205.180000", "130205.640000", "130206.100000", "130206.560000", "130207.020000", "130207.480000", "130207.940000", "130208.400000", "130208.860000", "130209.320000", "130209.780000", "130210.240000", "130210.700000", "130211.160000", "130211.620000", "130212.080000", "130212.540000", "130213.000000", "130213.460000", "130213.920000", "130214.380000", "130214.840000", "130215.300000", "130215.760000", "130216.220000", "130216.680000", "130217.140000", "130217.600000", "130218.060000", "130218.520000", "130218.980000", "130219.440000", "130219.900000", "130220.360000", "130220.820000", "130221.280000", "130221.740000", "130222.200000", "130222.660000", "130223.120000", "130223.580000", "130224.040000", "130224.500000", "130224.960000", "130225.420000", "130225.880000", "130226.340000", "130226.800000", "130227.260000", "130227.720000", "130228.180000", "130228.640000", "130229.100000", "130229.560000", "130230.020000", "130230.480000", "130230.940000", "130231.400000", "130231.860000", "130232.320000", "130232.780000", "130233.240000", "130233.700000", "130234.160000", "130234.620000", "130235.080000", "130235.540000", "130236.000000", "130236.460000", "130236.920000", "130237.380000", "130237.840000", "130238.300000", "130238.760000", "130239.220000", "130239.680000", "130240.140000", "130240.600000", "130241.060000", "130241.520000", "130241.980000", "130242.440000", "130242.900000", "130243.360000", "130243.820000", "130244.280000", "130244.740000", "130245.200000", "130245.660000", "130246.120000", "130246.580000", "130247.040000", "130247.500000", "130247.960000", "130248.420000", "130248.880000", "130249.340000", "130249.800000", "130250.260000", "130250.720000", "130251.180000", "130251.640000", "130252.100000", "130252.560000", "130253.020000", "130253.480000", "130253.940000", "130254.400000", "130254.860000", "130255.320000", "130255.780000", "130256.240000", "130256.700000", "130257.160000", "130257.620000", "130258.080000", "130258.540000", "130259.000000", "130259.460000", "130259.920000", "130300.380000", "130300.840000", "130301.300000", "130301.760000", "130302.220000", "130302.680000", "130303.140000", "130303.600000", "130304.060000", "130304.520000", "130304.980000", "130305.440000", "130305.900000", "130306.360000", "130306.820000", "130307.280000", "130307.740000", "130308.200000", "130308.660000", "130309.120000", "130309.580000", "130310.040000", "130310.500000", "130310.960000", "130311.420000", "130311.880000", "130312.340000", "130312.800000", "130313.260000", "130313.720000", "130314.180000", "130314.640000", "130315.100000", "130315.560000", "130316.020000", "130316.480000", "130316.940000", "130317.400000", "130317.860000", "130318.320000", "130318.780000", "130319.240000", "130319.700000", "130320.160000", "130320.620000", "130321.080000", "130321.540000", "130322.000000", "130322.460000", "130322.920000", "130323.380000", "130323.840000", "130324.300000", "130324.760000", "130325.220000", "130325.680000", "130326.140000", "130326.600000", "130327.060000", "130327.520000", "130327.980000", "130328.440000", "130328.900000", "130329.360000", "130329.820000", "130330.280000", "130330.740000", "130331.200000", "130331.660000", "130332.120000", "130332.580000", "130333.040000", "130333.500000", "130333.960000", "130334.420000", "130334.880000", "130335.340000", "130335.800000", "130336.260000", "130336.720000", "130337.180000", "130337.640000", "130338.100000", "130338.560000", "130339.020000", "130339.480000", "130339.940000", "130340.400000", "130340.860000", "130341.320000", "130341.780000", "130342.240000", "130342.700000", "130343.160000", "130343.620000", "130344.080000", "130344.540000", "130345.000000", "130345.460000", "130345.920000", "130346.380000", "130346.840000", "130347.300000", "130347.760000", "130348.220000", "130348.680000", "130349.140000", "130349.600000", "130350.060000", "130350.520000", "130350.980000", "130351.440000", "130351.900000", "130352.360000", "130352.820000", "130353.280000", "130353.740000", "130354.200000", "130354.660000", "130355.120000", "130355.580000", "130356.040000", "130356.500000", "130356.960000", "130357.420000", "130357.880000", "130358.340000", "130358.800000", "130359.260000", "130359.720000", "130400.180000", "130400.640000", "130401.100000", "130401.560000", "130402.020000", "130402.480000", "130402.940000", "130403.400000", "130403.860000", "130404.320000", "130404.780000", "130405.240000", "130405.700000", "130406.160000", "130406.620000", "130407.080000", "130407.540000", "130408.000000", "130408.460000", "130408.920000", "130409.380000", "130409.840000", "130410.300000", "130410.760000", "130411.220000", "130411.680000", "130412.140000", "130412.600000", "130413.060000", "130413.520000", "130413.980000", "130414.440000", "130414.900000", "130415.360000", "130415.820000", "130416.280000", "130416.740000", "130417.200000", "130417.660000", "130418.120000", "130418.580000", "130419.040000", "130419.500000", "130419.960000", "130420.420000", "130420.880000", "130421.340000", "130421.800000", "130422.260000", "130422.720000", "130423.180000", "130423.640000", "130424.100000", "130424.560000", "130425.020000", "130425.480000", "130425.940000", "130426.400000", "130426.860000", "130427.320000", "130427.780000", "130428.240000", "130428.700000"],
