{
  "AcquisitionMatrixPE": 82,
  "AcquisitionNumber": 1,
  "AcquisitionTime": "12:50:48.480000",
  "BandwidthPerPixelPhaseEncode": 24.888,
  "BaseResolution": 82,
  "BodyPartExamined": "BRAIN",
  "ConsistencyInfo": "N4_VE11C_LATEST_20160120",
  "ConversionSoftware": "dcm2niix",
  "ConversionSoftwareVersion": "v1.0.20201102",
  "DerivedVendorReportedEchoSpacing": 0.00049,
  "DeviceSerialNumber": "66112",
  "DwellTime": 2e-06,
  "EchoTime": 0.0272,
  "EchoTrainLength": 82,
  "EffectiveEchoSpacing": 0.00049,
  "FlipAngle": 44,
  "ImageComments": "Unaliased MB8/PE3",
  "ImageOrientationPatientDICOM": [0.999975, 0.00641651, 0.00289499, -0.005934, 0.989606, -0.143681],
  "ImageType": [
    "ORIGINAL",
    "PRIMARY",
    "M",
    "MB",
    "ND",
    "NORM",
    "MOSAIC"
],
  "ImagingFrequency": 123.252,
  "InPlanePhaseEncodingDirectionDICOM": "COL",
  "InstitutionAddress": "Maynard 3,Hanover,NH,US,03755",
  "InstitutionName": "Dartmouth College - PBS",
  "InstitutionalDepartmentName": "Department",
  "MRAcquisitionType": "2D",
  "MagneticFieldStrength": 3,
  "Manufacturer": "Siemens",
  "ManufacturersModelName": "Prisma",
  "Modality": "MR",
  "MultibandAccelerationFactor": 8,
  "PartialFourier": 1,
  "PatientPosition": "HFS",
  "PercentPhaseFOV": 100,
  "PercentSampling": 100,
  "PhaseEncodingDirection": "j-",
  "PhaseEncodingSteps": 82,
  "PhaseResolution": 1,
  "PixelBandwidth": 3050,
  "ProcedureStepDescription": "Wager_Wager^1076_spacetop",
  "ProtocolName": "func_run-02_task-social_acq-ap-mb8",
  "PulseSequenceDetails": "%CustomerSeq%\\cmrr_mbep2d_bold",
  "ReceiveCoilActiveElements": "HEA;HEP",
  "ReceiveCoilName": "Head_32",
  "ReconMatrixPE": 82,
  "RepetitionTime": 0.46,
  "SAR": 0.086623,
  "ScanOptions": "FS",
  "ScanningSequence": "EP",
  "SequenceName": "epfid2d1_82",
  "SequenceVariant": "SK\\SS",
  "SeriesDescription": "func_run-02_task-social_acq-ap-mb8",
  "SeriesNumber": 14,
  "ShimSetting": [4160, -7726, -7303, 652, -44, -159, 61, 73],
  "SliceThickness": 2.7,
  "SliceTiming": [0, 0.25, 0.0625, 0.3125, 0.125, 0.3775, 0.1875, 0, 0.25, 0.0625, 0.3125, 0.125, 0.3775, 0.1875, 0, 0.25, 0.0625, 0.3125, 0.125, 0.3775, 0.1875, 0, 0.25, 0.0625, 0.3125, 0.125, 0.3775, 0.1875, 0, 0.25, 0.0625, 0.3125, 0.125, 0.3775, 0.1875, 0, 0.25, 0.0625, 0.3125, 0.125, 0.3775, 0.1875, 0, 0.25, 0.0625, 0.3125, 0.125, 0.3775, 0.1875, 0, 0.25, 0.0625, 0.3125, 0.125, 0.3775, 0.1875],
  "SoftwareVersions": "syngo MR E11",
  "SpacingBetweenSlices": 2.7,
  "StationName": "AWP66112",
  "TaskName": "social",
  "TotalReadoutTime": 0.03969,
  "TxRefAmp": 237.673,
  "WipMemBlock": "54936a71-9ed6-488c-a504-d17c958ef628||Sequence: R016 ve11c/master r/e634e98; Dec 19 2017 11:00:25 by eja",
  "dcmmeta_affine": [
    [-2.6828603744506836, -0.015920499339699745, 0.010224448516964912, 115.39981079101562],
    [-0.01721501350402832, 2.655040979385376, -0.3878839612007141, -75.88947296142578],
    [0.007767046336084604, 0.3854868710041046, 2.67197322845459, -74.99668884277344],
    [0.0, 0.0, 0.0, 1.0]
],
  "dcmmeta_reorient_transform": [
    [0.0, -1.0, 0.0, 81.0],
    [1.0, 0.0, 0.0, 0.0],
    [0.0, 0.0, 1.0, 0.0],
    [0.0, 0.0, 0.0, 1.0]
],
  "dcmmeta_shape": [82, 82, 56, 872],
  "dcmmeta_slice_dim": 2,
  "dcmmeta_version": 0.6,
  "global": {
    "const": {
      "AccessionNumber": "A003465",
      "AcquisitionMatrix": [82, 0, 0, 82],
      "AngioFlag": "N",
      "BitsAllocated": 16,
      "BitsStored": 16,
      "BodyPartExamined": "BRAIN",
      "Columns": 656,
      "EchoNumbers": 1,
      "EchoTime": 27.2,
      "EchoTrainLength": 82,
      "FlipAngle": 44.0,
      "HighBit": 15,
      "ImageOrientationPatient": [0.99997522344023, 0.00641650516151, 0.00289499001201, -0.0059340038667, 0.98960619579994, -0.1436814700387],
      "ImagePositionPatient": [-879.52200586485, -906.10634959588, 64.633343017691],
      "ImageType": [
        "ORIGINAL",
        "PRIMARY",
        "M",
        "MB",
        "ND",
        "NORM",
        "MOSAIC"
],
      "ImagedNucleus": "1H",
      "ImagingFrequency": 123.252149,
      "InPlanePhaseEncodingDirection": "COL",
      "MRAcquisitionType": "2D",
      "MagneticFieldStrength": 3.0,
      "Manufacturer": "SIEMENS",
      "ManufacturerModelName": "Prisma",
      "Modality": "MR",
      "NumberOfAverages": 1.0,
      "NumberOfPhaseEncodingSteps": 82,
      "PercentPhaseFieldOfView": 100.0,
      "PercentSampling": 100.0,
      "PerformedProcedureStepStartTime": "115019.985000",
      "PhotometricInterpretation": "MONOCHROME2",
      "PixelBandwidth": 3050.0,
      "PixelRepresentation": 0,
      "PixelSpacing": [2.6829268932343, 2.6829268932343],
      "ProtocolName": "func_run-02_task-social_acq-ap-mb8",
      "RepetitionTime": 460.0,
      "Rows": 656,
      "SAR": 0.08662297285109,
      "SamplesPerPixel": 1,
      "ScanOptions": "FS",
      "ScanningSequence": "EP",
      "SequenceName": "epfid2d1_82",
      "SequenceVariant": [
        "SK",
        "SS"
],
      "SeriesDescription": "func_run-02_task-social_acq-ap-mb8",
      "SeriesNumber": 14,
      "SeriesTime": "125111.955000",
      "SliceLocation": -62.878864931269,
      "SliceThickness": 2.7000000476837,
      "SmallestImagePixelValue": 0,
      "SoftwareVersions": "syngo MR E11",
      "SpacingBetweenSlices": 2.6999999461722,
      "SpecificCharacterSet": "ISO_IR 100",
      "StudyID": "1",
      "StudyTime": "115019.849000",
      "TransmitCoilName": "Body",
      "VariableFlipAngleFlag": "N",
      "WindowCenterWidthExplanation": "Algo1",
      "dBdt": 0.0},
    "slices": {}
  },
  "time": {
    "samples": {
      "AcquisitionNumber": [1, 2, 3, 4, 5, 6, 7, 8, 9, 10, 11, 12, 13, 14, 15, 16, 17, 18, 19, 20, 21, 22, 23, 24, 25, 26, 27, 28, 29, 30, 31, 32, 33, 34, 35, 36, 37, 38, 39, 40, 41, 42, 43, 44, 45, 46, 47, 48, 49, 50, 51, 52, 53, 54, 55, 56, 57, 58, 59, 60, 61, 62, 63, 64, 65, 66, 67, 68, 69, 70, 71, 72, 73, 74, 75, 76, 77, 78, 79, 80, 81, 82, 83, 84, 85, 86, 87, 88, 89, 90, 91, 92, 93, 94, 95, 96, 97, 98, 99, 100, 101, 102, 103, 104, 105, 106, 107, 108, 109, 110, 111, 112, 113, 114, 115, 116, 117, 118, 119, 120, 121, 122, 123, 124, 125, 126, 127, 128, 129, 130, 131, 132, 133, 134, 135, 136, 137, 138, 139, 140, 141, 142, 143, 144, 145, 146, 147, 148, 149, 150, 151, 152, 153, 154, 155, 156, 157, 158, 159, 160, 161, 162, 163, 164, 165, 166, 167, 168, 169, 170, 171, 172, 173, 174, 175, 176, 177, 178, 179, 180, 181, 182, 183, 184, 185, 186, 187, 188, 189, 190, 191, 192, 193, 194, 195, 196, 197, 198, 199, 200, 201, 202, 203, 204, 205, 206, 207, 208, 209, 210, 211, 212, 213, 214, 215, 216, 217, 218, 219, 220, 221, 222, 223, 224, 225, 226, 227, 228, 229, 230, 231, 232, 233, 234, 235, 236, 237, 238, 239, 240, 241, 242, 243, 244, 245, 246, 247, 248, 249, 250, 251, 252, 253, 254, 255, 256, 257, 258, 259, 260, 261, 262, 263, 264, 265, 266, 267, 268, 269, 270, 271, 272, 273, 274, 275, 276, 277, 278, 279, 280, 281, 282, 283, 284, 285, 286, 287, 288, 289, 290, 291, 292, 293, 294, 295, 296, 297, 298, 299, 300, 301, 302, 303, 304, 305, 306, 307, 308, 309, 310, 311, 312, 313, 314, 315, 316, 317, 318, 319, 320, 321, 322, 323, 324, 325, 326, 327, 328, 329, 330, 331, 332, 333, 334, 335, 336, 337, 338, 339, 340, 341, 342, 343, 344, 345, 346, 347, 348, 349, 350, 351, 352, 353, 354, 355, 356, 357, 358, 359, 360, 361, 362, 363, 364, 365, 366, 367, 368, 369, 370, 371, 372, 373, 374, 375, 376, 377, 378, 379, 380, 381, 382, 383, 384, 385, 386, 387, 388, 389, 390, 391, 392, 393, 394, 395, 396, 397, 398, 399, 400, 401, 402, 403, 404, 405, 406, 407, 408, 409, 410, 411, 412, 413, 414, 415, 416, 417, 418, 419, 420, 421, 422, 423, 424, 425, 426, 427, 428, 429, 430, 431, 432, 433, 434, 435, 436, 437, 438, 439, 440, 441, 442, 443, 444, 445, 446, 447, 448, 449, 450, 451, 452, 453, 454, 455, 456, 457, 458, 459, 460, 461, 462, 463, 464, 465, 466, 467, 468, 469, 470, 471, 472, 473, 474, 475, 476, 477, 478, 479, 480, 481, 482, 483, 484, 485, 486, 487, 488, 489, 490, 491, 492, 493, 494, 495, 496, 497, 498, 499, 500, 501, 502, 503, 504, 505, 506, 507, 508, 509, 510, 511, 512, 513, 514, 515, 516, 517, 518, 519, 520, 521, 522, 523, 524, 525, 526, 527, 528, 529, 530, 531, 532, 533, 534, 535, 536, 537, 538, 539, 540, 541, 542, 543, 544, 545, 546, 547, 548, 549, 550, 551, 552, 553, 554, 555, 556, 557, 558, 559, 560, 561, 562, 563, 564, 565, 566, 567, 568, 569, 570, 571, 572, 573, 574, 575, 576, 577, 578, 579, 580, 581, 582, 583, 584, 585, 586, 587, 588, 589, 590, 591, 592, 593, 594, 595, 596, 597, 598, 599, 600, 601, 602, 603, 604, 605, 606, 607, 608, 609, 610, 611, 612, 613, 614, 615, 616, 617, 618, 619, 620, 621, 622, 623, 624, 625, 626, 627, 628, 629, 630, 631, 632, 633, 634, 635, 636, 637, 638, 639, 640, 641, 642, 643, 644, 645, 646, 647, 648, 649, 650, 651, 652, 653, 654, 655, 656, 657, 658, 659, 660, 661, 662, 663, 664, 665, 666, 667, 668, 669, 670, 671, 672, 673, 674, 675, 676, 677, 678, 679, 680, 681, 682, 683, 684, 685, 686, 687, 688, 689, 690, 691, 692, 693, 694, 695, 696, 697, 698, 699, 700, 701, 702, 703, 704, 705, 706, 707, 708, 709, 710, 711, 712, 713, 714, 715, 716, 717, 718, 719, 720, 721, 722, 723, 724, 725, 726, 727, 728, 729, 730, 731, 732, 733, 734, 735, 736, 737, 738, 739, 740, 741, 742, 743, 744, 745, 746, 747, 748, 749, 750, 751, 752, 753, 754, 755, 756, 757, 758, 759, 760, 761, 762, 763, 764, 765, 766, 767, 768, 769, 770, 771, 772, 773, 774, 775, 776, 777, 778, 779, 780, 781, 782, 783, 784, 785, 786, 787, 788, 789, 790, 791, 792, 793, 794, 795, 796, 797, 798, 799, 800, 801, 802, 803, 804, 805, 806, 807, 808, 809, 810, 811, 812, 813, 814, 815, 816, 817, 818, 819, 820, 821, 822, 823, 824, 825, 826, 827, 828, 829, 830, 831, 832, 833, 834, 835, 836, 837, 838, 839, 840, 841, 842, 843, 844, 845, 846, 847, 848, 849, 850, 851, 852, 853, 854, 855, 856, 857, 858, 859, 860, 861, 862, 863, 864, 865, 866, 867, 868, 869, 870, 871, 872],
      "AcquisitionTime": ["125048.480000", "125048.940000", "125049.400000", "125049.860000", "125050.320000", "125050.780000", "125051.240000", "125051.700000", "125052.160000", "125052.620000", "125053.080000", "125053.540000", "125054.000000", "125054.460000", "125054.920000", "125055.380000", "125055.840000", "125056.300000", "125056.760000", "125057.220000", "125057.680000", "125058.140000", "125058.600000", "125059.060000", "125059.520000", "125059.980000", "125100.440000", "125100.900000", "125101.360000", "125101.820000", "125102.280000", "125102.740000", "125103.200000", "125103.660000", "125104.120000", "125104.580000", "125105.040000", "125105.500000", "125105.960000", "125106.420000", "125106.880000", "125107.340000", "125107.800000", "125108.260000", "125108.720000", "125109.180000", "125109.640000", "125110.100000", "125110.560000", "125111.020000", "125111.480000", "125111.940000", "125112.400000", "125112.860000", "125113.320000", "125113.780000", "125114.240000", "125114.700000", "125115.160000", "125115.620000", "125116.080000", "125116.540000", "125117.000000", "125117.460000", "125117.920000", "125118.380000", "125118.840000", "125119.300000", "125119.760000", "125120.220000", "125120.680000", "125121.140000", "125121.600000", "125122.060000", "125122.520000", "125122.980000", "125123.440000", "125123.900000", "125124.360000", "125124.820000", "125125.280000", "125125.740000", "125126.200000", "125126.660000", "125127.120000", "125127.580000", "125128.040000", "125128.500000", "125128.960000", "125129.420000", "125129.880000", "125130.340000", "125130.800000", "125131.260000", "125131.720000", "125132.180000", "125132.640000", "125133.100000", "125133.560000", "125134.020000", "125134.480000", "125134.940000", "125135.400000", "125135.860000", "125136.320000", "125136.780000", "125137.240000", "125137.700000", "125138.160000", "125138.620000", "125139.080000", "125139.540000", "125140.000000", "125140.460000", "125140.920000", "125141.380000", "125141.840000", "125142.300000", "125142.760000", "125143.220000", "125143.680000", "125144.140000", "125144.600000", "125145.060000", "125145.520000", "125145.980000", "125146.440000", "125146.900000", "125147.360000", "125147.820000", "125148.280000", "125148.740000", "125149.200000", "125149.660000", "125150.120000", "125150.580000", "125151.040000", "125151.500000", "125151.960000", "125152.420000", "125152.880000", "125153.340000", "125153.800000", "125154.260000", "125154.720000", "125155.180000", "125155.640000", "125156.100000", "125156.560000", "125157.020000", "125157.480000", "125157.940000", "125158.400000", "125158.860000", "125159.320000", "125159.780000", "125200.240000", "125200.700000", "125201.160000", "125201.620000", "125202.080000", "125202.540000", "125203.000000", "125203.460000", "125203.920000", "125204.380000", "125204.840000", "125205.300000", "125205.760000", "125206.220000", "125206.680000", "125207.140000", "125207.600000", "125208.060000", "125208.520000", "125208.980000", "125209.440000", "125209.900000", "125210.360000", "125210.820000", "125211.280000", "125211.740000", "125212.200000", "125212.660000", "125213.120000", "125213.580000", "125214.040000", "125214.500000", "125214.960000", "125215.420000", "125215.880000", "125216.340000", "125216.800000", "125217.260000", "125217.720000", "125218.180000", "125218.640000", "125219.100000", "125219.560000", "125220.020000", "125220.480000", "125220.940000", "125221.400000", "125221.860000", "125222.320000", "125222.780000", "125223.240000", "125223.700000", "125224.160000", "125224.620000", "125225.080000", "125225.540000", "125226.000000", "125226.460000", "125226.920000", "125227.380000", "125227.840000", "125228.300000", "125228.760000", "125229.220000", "125229.680000", "125230.140000", "125230.600000", "125231.060000", "125231.520000", "125231.980000", "125232.440000", "125232.900000", "125233.360000", "125233.820000", "125234.280000", "125234.740000", "125235.200000", "125235.660000", "125236.120000", "125236.580000", "125237.040000", "125237.500000", "125237.960000", "125238.420000", "125238.880000", "125239.340000", "125239.800000", "125240.260000", "125240.720000", "125241.180000", "125241.640000", "125242.100000", "125242.560000", "125243.020000", "125243.480000", "125243.940000", "125244.400000", "125244.860000", "125245.320000", "125245.780000", "125246.240000", "125246.700000", "125247.160000", "125247.620000", "125248.080000", "125248.540000", "125249.000000", "125249.460000", "125249.920000", "125250.380000", "125250.840000", "125251.300000", "125251.760000", "125252.220000", "125252.680000", "125253.140000", "125253.600000", "125254.060000", "125254.520000", "125254.980000", "125255.440000", "125255.900000", "125256.360000", "125256.820000", "125257.280000", "125257.740000", "125258.200000", "125258.660000", "125259.120000", "125259.580000", "125300.040000", "125300.500000", "125300.960000", "125301.420000", "125301.880000", "125302.340000", "125302.800000", "125303.260000", "125303.720000", "125304.180000", "125304.640000", "125305.100000", "125305.560000", "125306.020000", "125306.480000", "125306.940000", "125307.400000", "125307.860000", "125308.320000", "125308.780000", "125309.240000", "125309.700000", "125310.160000", "125310.620000", "125311.080000", "125311.540000", "125312.000000", "125312.460000", "125312.920000", "125313.380000", "125313.840000", "125314.300000", "125314.760000", "125315.220000", "125315.680000", "125316.140000", "125316.600000", "125317.060000", "125317.520000", "125317.980000", "125318.440000", "125318.900000", "125319.360000", "125319.820000", "125320.280000", "125320.740000", "125321.200000", "125321.660000", "125322.120000", "125322.580000", "125323.040000", "125323.500000", "125323.960000", "125324.420000", "125324.880000", "125325.340000", "125325.800000", "125326.260000", "125326.720000", "125327.180000", "125327.640000", "125328.100000", "125328.560000", "125329.020000", "125329.480000", "125329.940000", "125330.400000", "125330.860000", "125331.320000", "125331.780000", "125332.240000", "125332.700000", "125333.160000", "125333.620000", "125334.080000", "125334.540000", "125335.000000", "125335.460000", "125335.920000", "125336.380000", "125336.840000", "125337.300000", "125337.760000", "125338.220000", "125338.680000", "125339.140000", "125339.600000", "125340.060000", "125340.520000", "125340.980000", "125341.440000", "125341.900000", "125342.360000", "125342.820000", "125343.280000", "125343.740000", "125344.200000", "125344.660000", "125345.120000", "125345.580000", "125346.040000", "125346.500000", "125346.960000", "125347.420000", "125347.880000", "125348.340000", "125348.800000", "125349.260000", "125349.720000", "125350.180000", "125350.640000", "125351.100000", "125351.560000", "125352.020000", "125352.480000", "125352.940000", "125353.400000", "125353.860000", "125354.320000", "125354.780000", "125355.240000", "125355.700000", "125356.160000", "125356.620000", "125357.080000", "125357.540000", "125358.000000", "125358.460000", "125358.920000", "125359.380000", "125359.840000", "125400.300000", "125400.760000", "125401.220000", "125401.680000", "125402.140000", "125402.600000", "125403.060000", "125403.520000", "125403.980000", "125404.440000", "125404.900000", "125405.360000", "125405.820000", "125406.280000", "125406.740000", "125407.200000", "125407.660000", "125408.120000", "125408.580000", "125409.040000", "125409.500000", "125409.960000", "125410.420000", "125410.880000", "125411.340000", "125411.800000", "125412.260000", "125412.720000", "125413.180000", "125413.640000", "125414.100000", "125414.560000", "125415.020000", "125415.480000", "125415.940000", "125416.400000", "125416.860000", "125417.320000", "125417.780000", "125418.240000", "125418.700000", "125419.160000", "125419.620000", "125420.080000", "125420.540000", "125421.000000", "125421.460000", "125421.920000", "125422.380000", "125422.840000", "125423.300000", "125423.760000", "125424.220000", "125424.680000", "125425.140000", "125425.600000", "125426.060000", "125426.520000", "125426.980000", "125427.440000", "125427.900000", "125428.360000", "125428.820000", "125429.280000", "125429.740000", "125430.200000", "125430.660000", "125431.120000", "125431.580000", "125432.040000", "125432.500000", "125432.960000", "125433.420000", "125433.880000", "125434.340000", "125434.800000", "125435.260000", "125435.720000", "125436.180000", "125436.640000", "125437.100000", "125437.560000", "125438.020000", "125438.480000", "125438.940000", "125439.400000", "125439.860000", "125440.320000", "125440.780000", "125441.240000", "125441.700000", "125442.160000", "125442.620000", "125443.080000", "125443.540000", "125444.000000", "125444.460000", "125444.920000", "125445.380000", "125445.840000", "125446.300000", "125446.760000", "125447.220000", "125447.680000", "125448.140000", "125448.600000", "125449.060000", "125449.520000", "125449.980000", "125450.440000", "125450.900000", "125451.360000", "125451.820000", "125452.280000", "125452.740000", "125453.200000", "125453.660000", "125454.120000", "125454.580000", "125455.040000", "125455.500000", "125455.960000", "125456.420000", "125456.880000", "125457.340000", "125457.800000", "125458.260000", "125458.720000", "125459.180000", "125459.640000", "125500.100000", "125500.560000", "125501.020000", "125501.480000", "125501.940000", "125502.400000", "125502.860000", "125503.320000", "125503.780000", "125504.240000", "125504.700000", "125505.160000", "125505.620000", "125506.080000", "125506.540000", "125507.000000", "125507.460000", "125507.920000", "125508.380000", "125508.840000", "125509.300000", "125509.760000", "125510.220000", "125510.680000", "125511.140000", "125511.600000", "125512.060000", "125512.520000", "125512.980000", "125513.440000", "125513.900000", "125514.360000", "125514.820000", "125515.280000", "125515.740000", "125516.200000", "125516.660000", "125517.120000", "125517.580000", "125518.040000", "125518.500000", "125518.960000", "125519.420000", "125519.880000", "125520.340000", "125520.800000", "125521.260000", "125521.720000", "125522.180000", "125522.640000", "125523.100000", "125523.560000", "125524.020000", "125524.480000", "125524.940000", "125525.400000", "125525.860000", "125526.320000", "125526.780000", "125527.240000", "125527.700000", "125528.160000", "125528.620000", "125529.080000", "125529.540000", "125530.000000", "125530.460000", "125530.920000", "125531.380000", "125531.840000", "125532.300000", "125532.760000", "125533.220000", "125533.680000", "125534.140000", "125534.600000", "125535.060000", "125535.520000", "125535.980000", "125536.440000", "125536.900000", "125537.360000", "125537.820000", "125538.280000", "125538.740000", "125539.200000", "125539.660000", "125540.120000", "125540.580000", "125541.040000", "125541.500000", "125541.960000", "125542.420000", "125542.880000", "125543.340000", "125543.800000", "125544.260000", "125544.720000", "125545.180000", "125545.640000", "125546.100000", "125546.560000", "125547.020000", "125547.480000", "125547.940000", "125548.400000", "125548.860000", "125549.320000", "125549.780000", "125550.240000", "125550.700000", "125551.160000", "125551.620000", "125552.080000", "125552.540000", "125553.000000", "125553.460000", "125553.920000", "125554.380000", "125554.840000", "125555.300000", "125555.760000", "125556.220000", "125556.680000", "125557.140000", "125557.600000", "125558.060000", "125558.520000", "125558.980000", "125559.440000", "125559.900000", "125600.360000", "125600.820000", "125601.280000", "125601.740000", "125602.200000", "125602.660000", "125603.120000", "125603.580000", "125604.040000", "125604.500000", "125604.960000", "125605.420000", "125605.880000", "125606.340000", "125606.800000", "125607.260000", "125607.720000", "125608.180000", "125608.640000", "125609.100000", "125609.560000", "125610.020000", "125610.480000", "125610.940000", "125611.400000", "125611.860000", "125612.320000", "125612.780000", "125613.240000", "125613.700000", "125614.160000", "125614.620000", "125615.080000", "125615.540000", "125616.000000", "125616.460000", "125616.920000", "125617.380000", "125617.840000", "125618.300000", "125618.760000", "125619.220000", "125619.680000", "125620.140000", "125620.600000", "125621.060000", "125621.520000", "125621.980000", "125622.440000", "125622.900000", "125623.360000", "125623.820000", "125624.280000", "125624.740000", "125625.200000", "125625.660000", "125626.120000", "125626.580000", "125627.040000", "125627.500000", "125627.960000", "125628.420000", "125628.880000", "125629.340000", "125629.800000", "125630.260000", "125630.720000", "125631.180000", "125631.640000", "125632.100000", "125632.560000", "125633.020000", "125633.480000", "125633.940000", "125634.400000", "125634.860000", "125635.320000", "125635.780000", "125636.240000", "125636.700000", "125637.160000", "125637.620000", "125638.080000", "125638.540000", "125639.000000", "125639.460000", "125639.920000", "125640.380000", "125640.840000", "125641.300000", "125641.760000", "125642.220000", "125642.680000", "125643.140000", "125643.600000", "125644.060000", "125644.520000", "125644.980000", "125645.440000", "125645.900000", "125646.360000", "125646.820000", "125647.280000", "125647.740000", "125648.200000", "125648.660000", "125649.120000", "125649.580000", "125650.040000", "125650.500000", "125650.960000", "125651.420000", "125651.880000", "125652.340000", "125652.800000", "125653.260000", "125653.720000", "125654.180000", "125654.640000", "125655.100000", "125655.560000", "125656.020000", "125656.480000", "125656.940000", "125657.400000", "125657.860000", "125658.320000", "125658.780000", "125659.240000", "125659.700000", "125700.160000", "125700.620000", "125701.080000", "125701.540000", "125702.000000", "125702.460000", "125702.920000", "125703.380000", "125703.840000", "125704.300000", "125704.760000", "125705.220000", "125705.680000", "125706.140000", "125706.600000", "125707.060000", "125707.520000", "125707.980000", "125708.440000", "125708.900000", "125709.360000", "125709.820000", "125710.280000", "125710.740000", "125711.200000", "125711.660000", "125712.120000", "125712.580000", "125713.040000", "125713.500000", "125713.960000", "125714.420000", "125714.880000", "125715.340000", "125715.800000", "125716.260000", "125716.720000", "125717.180000", "125717.640000", "125718.100000", "125718.560000", "125719.020000", "125719.480000", "125719.940000", "125720.400000", "125720.860000", "125721.320000", "125721.780000", "125722.240000", "125722.700000", "125723.160000", "125723.620000", "125724.080000", "125724.540000", "125725.000000", "125725.460000", "125725.920000", "125726.380000", "125726.840000", "125727.300000", "125727.760000", "125728.220000", "125728.680000", "125729.140000"],
