{
  "AcquisitionMatrixPE": 82,
  "AcquisitionNumber": 1,
  "AcquisitionTime": "13:13:19.857500",
  "BandwidthPerPixelPhaseEncode": 24.888,
  "BaseResolution": 82,
  "BodyPartExamined": "BRAIN",
  "ConsistencyInfo": "N4_VE11C_LATEST_20160120",
  "ConversionSoftware": "dcm2niix",
  "ConversionSoftwareVersion": "v1.0.20201102",
  "DerivedVendorReportedEchoSpacing": 0.00049,
  "DeviceSerialNumber": "66112",
  "DwellTime": 2e-06,
  "EchoTime": 0.0272,
  "EchoTrainLength": 82,
  "EffectiveEchoSpacing": 0.00049,
  "FlipAngle": 44,
  "ImageComments": "Unaliased MB8/PE3",
  "ImageOrientationPatientDICOM": [0.999975, 0.00641651, 0.00289499, -0.005934, 0.989606, -0.143681],
  "ImageType": [
    "ORIGINAL",
    "PRIMARY",
    "M",
    "MB",
    "ND",
    "NORM",
    "MOSAIC"
],
  "ImagingFrequency": 123.252,
  "InPlanePhaseEncodingDirectionDICOM": "COL",
  "InstitutionAddress": "Maynard 3,Hanover,NH,US,03755",
  "InstitutionName": "Dartmouth College - PBS",
  "InstitutionalDepartmentName": "Department",
  "MRAcquisitionType": "2D",
  "MagneticFieldStrength": 3,
  "Manufacturer": "Siemens",
  "ManufacturersModelName": "Prisma",
  "Modality": "MR",
  "MultibandAccelerationFactor": 8,
  "PartialFourier": 1,
  "PatientPosition": "HFS",
  "PercentPhaseFOV": 100,
  "PercentSampling": 100,
  "PhaseEncodingDirection": "j-",
  "PhaseEncodingSteps": 82,
  "PhaseResolution": 1,
  "PixelBandwidth": 3050,
  "ProcedureStepDescription": "Wager_Wager^1076_spacetop",
  "ProtocolName": "func_run-05_task-social_acq-ap-mb8",
  "PulseSequenceDetails": "%CustomerSeq%\\cmrr_mbep2d_bold",
  "ReceiveCoilActiveElements": "HEA;HEP",
  "ReceiveCoilName": "Head_32",
  "ReconMatrixPE": 82,
  "RepetitionTime": 0.46,
  "SAR": 0.086623,
  "ScanOptions": "FS",
  "ScanningSequence": "EP",
  "SequenceName": "epfid2d1_82",
  "SequenceVariant": "SK\\SS",
  "SeriesDescription": "func_run-05_task-social_acq-ap-mb8",
  "SeriesNumber": 20,
  "ShimSetting": [4160, -7726, -7303, 652, -44, -159, 61, 73],
  "SliceThickness": 2.7,
  "SliceTiming": [0, 0.2525, 0.065, 0.315, 0.1275, 0.3775, 0.19, 0, 0.2525, 0.065, 0.315, 0.1275, 0.3775, 0.19, 0, 0.2525, 0.065, 0.315, 0.1275, 0.3775, 0.19, 0, 0.2525, 0.065, 0.315, 0.1275, 0.3775, 0.19, 0, 0.2525, 0.065, 0.315, 0.1275, 0.3775, 0.19, 0, 0.2525, 0.065, 0.315, 0.1275, 0.3775, 0.19, 0, 0.2525, 0.065, 0.315, 0.1275, 0.3775, 0.19, 0, 0.2525, 0.065, 0.315, 0.1275, 0.3775, 0.19],
  "SoftwareVersions": "syngo MR E11",
  "SpacingBetweenSlices": 2.7,
  "StationName": "AWP66112",
  "TaskName": "social",
  "TotalReadoutTime": 0.03969,
  "TxRefAmp": 237.673,
  "WipMemBlock": "6e9043c9-302f-42c2-989c-0dd522724789||Sequence: R016 ve11c/master r/e634e98; Dec 19 2017 11:00:25 by eja",
  "dcmmeta_affine": [
    [-2.6828603744506836, -0.015920499339699745, 0.010224448516964912, 115.39981079101562],
    [-0.01721501350402832, 2.655040979385376, -0.3878839612007141, -75.88947296142578],
    [0.007767046336084604, 0.3854868710041046, 2.67197322845459, -74.99668884277344],
    [0.0, 0.0, 0.0, 1.0]
],
  "dcmmeta_reorient_transform": [
    [0.0, -1.0, 0.0, 81.0],
    [1.0, 0.0, 0.0, 0.0],
    [0.0, 0.0, 1.0, 0.0],
    [0.0, 0.0, 0.0, 1.0]
],
  "dcmmeta_shape": [82, 82, 56, 872],
  "dcmmeta_slice_dim": 2,
  "dcmmeta_version": 0.6,
  "global": {
    "const": {
      "AccessionNumber": "A003465",
      "AcquisitionMatrix": [82, 0, 0, 82],
      "AngioFlag": "N",
      "BitsAllocated": 16,
      "BitsStored": 16,
      "BodyPartExamined": "BRAIN",
      "Columns": 656,
      "EchoNumbers": 1,
      "EchoTime": 27.2,
      "EchoTrainLength": 82,
      "FlipAngle": 44.0,
      "HighBit": 15,
      "ImageOrientationPatient": [0.99997522344023, 0.00641650516151, 0.00289499001201, -0.0059340038667, 0.98960619579994, -0.1436814700387],
      "ImagePositionPatient": [-879.52200586485, -906.10634959588, 64.633343017691],
      "ImageType": [
        "ORIGINAL",
        "PRIMARY",
        "M",
        "MB",
        "ND",
        "NORM",
        "MOSAIC"
],
      "ImagedNucleus": "1H",
      "ImagingFrequency": 123.252157,
      "InPlanePhaseEncodingDirection": "COL",
      "MRAcquisitionType": "2D",
      "MagneticFieldStrength": 3.0,
      "Manufacturer": "SIEMENS",
      "ManufacturerModelName": "Prisma",
      "Modality": "MR",
      "NumberOfAverages": 1.0,
      "NumberOfPhaseEncodingSteps": 82,
      "PercentPhaseFieldOfView": 100.0,
      "PercentSampling": 100.0,
      "PerformedProcedureStepStartTime": "115019.985000",
      "PhotometricInterpretation": "MONOCHROME2",
      "PixelBandwidth": 3050.0,
      "PixelRepresentation": 0,
      "PixelSpacing": [2.6829268932343, 2.6829268932343],
      "ProtocolName": "func_run-05_task-social_acq-ap-mb8",
      "RepetitionTime": 460.0,
      "Rows": 656,
      "SAR": 0.08662297285109,
      "SamplesPerPixel": 1,
      "ScanOptions": "FS",
      "ScanningSequence": "EP",
      "SequenceName": "epfid2d1_82",
      "SequenceVariant": [
        "SK",
        "SS"
],
      "SeriesDescription": "func_run-05_task-social_acq-ap-mb8",
      "SeriesNumber": 20,
      "SeriesTime": "131331.981000",
      "SliceLocation": -62.878864931269,
      "SliceThickness": 2.7000000476837,
      "SmallestImagePixelValue": 0,
      "SoftwareVersions": "syngo MR E11",
      "SpacingBetweenSlices": 2.6999999461722,
      "SpecificCharacterSet": "ISO_IR 100",
      "StudyID": "1",
      "StudyTime": "115019.849000",
      "TransmitCoilName": "Body",
      "VariableFlipAngleFlag": "N",
      "WindowCenterWidthExplanation": "Algo1",
      "dBdt": 0.0},
    "slices": {}
  },
  "time": {
    "samples": {
      "AcquisitionNumber": [1, 2, 3, 4, 5, 6, 7, 8, 9, 10, 11, 12, 13, 14, 15, 16, 17, 18, 19, 20, 21, 22, 23, 24, 25, 26, 27, 28, 29, 30, 31, 32, 33, 34, 35, 36, 37, 38, 39, 40, 41, 42, 43, 44, 45, 46, 47, 48, 49, 50, 51, 52, 53, 54, 55, 56, 57, 58, 59, 60, 61, 62, 63, 64, 65, 66, 67, 68, 69, 70, 71, 72, 73, 74, 75, 76, 77, 78, 79, 80, 81, 82, 83, 84, 85, 86, 87, 88, 89, 90, 91, 92, 93, 94, 95, 96, 97, 98, 99, 100, 101, 102, 103, 104, 105, 106, 107, 108, 109, 110, 111, 112, 113, 114, 115, 116, 117, 118, 119, 120, 121, 122, 123, 124, 125, 126, 127, 128, 129, 130, 131, 132, 133, 134, 135, 136, 137, 138, 139, 140, 141, 142, 143, 144, 145, 146, 147, 148, 149, 150, 151, 152, 153, 154, 155, 156, 157, 158, 159, 160, 161, 162, 163, 164, 165, 166, 167, 168, 169, 170, 171, 172, 173, 174, 175, 176, 177, 178, 179, 180, 181, 182, 183, 184, 185, 186, 187, 188, 189, 190, 191, 192, 193, 194, 195, 196, 197, 198, 199, 200, 201, 202, 203, 204, 205, 206, 207, 208, 209, 210, 211, 212, 213, 214, 215, 216, 217, 218, 219, 220, 221, 222, 223, 224, 225, 226, 227, 228, 229, 230, 231, 232, 233, 234, 235, 236, 237, 238, 239, 240, 241, 242, 243, 244, 245, 246, 247, 248, 249, 250, 251, 252, 253, 254, 255, 256, 257, 258, 259, 260, 261, 262, 263, 264, 265, 266, 267, 268, 269, 270, 271, 272, 273, 274, 275, 276, 277, 278, 279, 280, 281, 282, 283, 284, 285, 286, 287, 288, 289, 290, 291, 292, 293, 294, 295, 296, 297, 298, 299, 300, 301, 302, 303, 304, 305, 306, 307, 308, 309, 310, 311, 312, 313, 314, 315, 316, 317, 318, 319, 320, 321, 322, 323, 324, 325, 326, 327, 328, 329, 330, 331, 332, 333, 334, 335, 336, 337, 338, 339, 340, 341, 342, 343, 344, 345, 346, 347, 348, 349, 350, 351, 352, 353, 354, 355, 356, 357, 358, 359, 360, 361, 362, 363, 364, 365, 366, 367, 368, 369, 370, 371, 372, 373, 374, 375, 376, 377, 378, 379, 380, 381, 382, 383, 384, 385, 386, 387, 388, 389, 390, 391, 392, 393, 394, 395, 396, 397, 398, 399, 400, 401, 402, 403, 404, 405, 406, 407, 408, 409, 410, 411, 412, 413, 414, 415, 416, 417, 418, 419, 420, 421, 422, 423, 424, 425, 426, 427, 428, 429, 430, 431, 432, 433, 434, 435, 436, 437, 438, 439, 440, 441, 442, 443, 444, 445, 446, 447, 448, 449, 450, 451, 452, 453, 454, 455, 456, 457, 458, 459, 460, 461, 462, 463, 464, 465, 466, 467, 468, 469, 470, 471, 472, 473, 474, 475, 476, 477, 478, 479, 480, 481, 482, 483, 484, 485, 486, 487, 488, 489, 490, 491, 492, 493, 494, 495, 496, 497, 498, 499, 500, 501, 502, 503, 504, 505, 506, 507, 508, 509, 510, 511, 512, 513, 514, 515, 516, 517, 518, 519, 520, 521, 522, 523, 524, 525, 526, 527, 528, 529, 530, 531, 532, 533, 534, 535, 536, 537, 538, 539, 540, 541, 542, 543, 544, 545, 546, 547, 548, 549, 550, 551, 552, 553, 554, 555, 556, 557, 558, 559, 560, 561, 562, 563, 564, 565, 566, 567, 568, 569, 570, 571, 572, 573, 574, 575, 576, 577, 578, 579, 580, 581, 582, 583, 584, 585, 586, 587, 588, 589, 590, 591, 592, 593, 594, 595, 596, 597, 598, 599, 600, 601, 602, 603, 604, 605, 606, 607, 608, 609, 610, 611, 612, 613, 614, 615, 616, 617, 618, 619, 620, 621, 622, 623, 624, 625, 626, 627, 628, 629, 630, 631, 632, 633, 634, 635, 636, 637, 638, 639, 640, 641, 642, 643, 644, 645, 646, 647, 648, 649, 650, 651, 652, 653, 654, 655, 656, 657, 658, 659, 660, 661, 662, 663, 664, 665, 666, 667, 668, 669, 670, 671, 672, 673, 674, 675, 676, 677, 678, 679, 680, 681, 682, 683, 684, 685, 686, 687, 688, 689, 690, 691, 692, 693, 694, 695, 696, 697, 698, 699, 700, 701, 702, 703, 704, 705, 706, 707, 708, 709, 710, 711, 712, 713, 714, 715, 716, 717, 718, 719, 720, 721, 722, 723, 724, 725, 726, 727, 728, 729, 730, 731, 732, 733, 734, 735, 736, 737, 738, 739, 740, 741, 742, 743, 744, 745, 746, 747, 748, 749, 750, 751, 752, 753, 754, 755, 756, 757, 758, 759, 760, 761, 762, 763, 764, 765, 766, 767, 768, 769, 770, 771, 772, 773, 774, 775, 776, 777, 778, 779, 780, 781, 782, 783, 784, 785, 786, 787, 788, 789, 790, 791, 792, 793, 794, 795, 796, 797, 798, 799, 800, 801, 802, 803, 804, 805, 806, 807, 808, 809, 810, 811, 812, 813, 814, 815, 816, 817, 818, 819, 820, 821, 822, 823, 824, 825, 826, 827, 828, 829, 830, 831, 832, 833, 834, 835, 836, 837, 838, 839, 840, 841, 842, 843, 844, 845, 846, 847, 848, 849, 850, 851, 852, 853, 854, 855, 856, 857, 858, 859, 860, 861, 862, 863, 864, 865, 866, 867, 868, 869, 870, 871, 872],
      "AcquisitionTime": ["131319.857500", "131320.317500", "131320.777500", "131321.237500", "131321.697500", "131322.157500", "131322.617500", "131323.077500", "131323.537500", "131323.997500", "131324.457500", "131324.917500", "131325.377500", "131325.837500", "131326.297500", "131326.757500", "131327.217500", "131327.677500", "131328.137500", "131328.597500", "131329.057500", "131329.517500", "131329.977500", "131330.437500", "131330.897500", "131331.357500", "131331.817500", "131332.277500", "131332.737500", "131333.197500", "131333.657500", "131334.117500", "131334.577500", "131335.037500", "131335.497500", "131335.957500", "131336.417500", "131336.877500", "131337.337500", "131337.797500", "131338.257500", "131338.717500", "131339.177500", "131339.637500", "131340.097500", "131340.557500", "131341.017500", "131341.477500", "131341.937500", "131342.397500", "131342.857500", "131343.317500", "131343.777500", "131344.237500", "131344.697500", "131345.157500", "131345.617500", "131346.077500", "131346.537500", "131346.997500", "131347.457500", "131347.917500", "131348.377500", "131348.837500", "131349.297500", "131349.757500", "131350.217500", "131350.677500", "131351.137500", "131351.597500", "131352.057500", "131352.517500", "131352.977500", "131353.437500", "131353.897500", "131354.357500", "131354.817500", "131355.277500", "131355.737500", "131356.197500", "131356.657500", "131357.117500", "131357.577500", "131358.037500", "131358.497500", "131358.957500", "131359.417500", "131359.877500", "131400.337500", "131400.797500", "131401.257500", "131401.717500", "131402.177500", "131402.637500", "131403.097500", "131403.557500", "131404.017500", "131404.477500", "131404.937500", "131405.397500", "131405.857500", "131406.317500", "131406.777500", "131407.237500", "131407.697500", "131408.157500", "131408.617500", "131409.077500", "131409.537500", "131409.997500", "131410.457500", "131410.917500", "131411.377500", "131411.837500", "131412.297500", "131412.757500", "131413.217500", "131413.677500", "131414.137500", "131414.597500", "131415.057500", "131415.517500", "131415.977500", "131416.437500", "131416.897500", "131417.357500", "131417.817500", "131418.277500", "131418.737500", "131419.197500", "131419.657500", "131420.117500", "131420.577500", "131421.037500", "131421.497500", "131421.957500", "131422.417500", "131422.877500", "131423.337500", "131423.797500", "131424.257500", "131424.717500", "131425.177500", "131425.637500", "131426.097500", "131426.557500", "131427.017500", "131427.477500", "131427.937500", "131428.397500", "131428.857500", "131429.317500", "131429.777500", "131430.237500", "131430.697500", "131431.157500", "131431.617500", "131432.077500", "131432.537500", "131432.997500", "131433.457500", "131433.917500", "131434.377500", "131434.837500", "131435.297500", "131435.757500", "131436.217500", "131436.677500", "131437.137500", "131437.597500", "131438.057500", "131438.517500", "131438.977500", "131439.437500", "131439.897500", "131440.357500", "131440.817500", "131441.277500", "131441.737500", "131442.197500", "131442.657500", "131443.117500", "131443.577500", "131444.037500", "131444.497500", "131444.957500", "131445.417500", "131445.877500", "131446.337500", "131446.797500", "131447.257500", "131447.717500", "131448.177500", "131448.637500", "131449.097500", "131449.557500", "131450.017500", "131450.477500", "131450.937500", "131451.397500", "131451.857500", "131452.317500", "131452.777500", "131453.237500", "131453.697500", "131454.157500", "131454.617500", "131455.077500", "131455.537500", "131455.997500", "131456.457500", "131456.917500", "131457.377500", "131457.837500", "131458.297500", "131458.757500", "131459.217500", "131459.677500", "131500.137500", "131500.597500", "131501.057500", "131501.517500", "131501.977500", "131502.437500", "131502.897500", "131503.357500", "131503.817500", "131504.277500", "131504.737500", "131505.197500", "131505.657500", "131506.117500", "131506.577500", "131507.037500", "131507.497500", "131507.957500", "131508.417500", "131508.877500", "131509.337500", "131509.797500", "131510.257500", "131510.717500", "131511.177500", "131511.637500", "131512.097500", "131512.557500", "131513.017500", "131513.477500", "131513.937500", "131514.397500", "131514.857500", "131515.317500", "131515.777500", "131516.237500", "131516.697500", "131517.157500", "131517.617500", "131518.077500", "131518.537500", "131518.997500", "131519.457500", "131519.917500", "131520.377500", "131520.837500", "131521.297500", "131521.757500", "131522.217500", "131522.677500", "131523.137500", "131523.597500", "131524.057500", "131524.517500", "131524.977500", "131525.437500", "131525.897500", "131526.357500", "131526.817500", "131527.277500", "131527.737500", "131528.197500", "131528.657500", "131529.117500", "131529.577500", "131530.037500", "131530.497500", "131530.957500", "131531.417500", "131531.877500", "131532.337500", "131532.797500", "131533.257500", "131533.717500", "131534.177500", "131534.637500", "131535.097500", "131535.557500", "131536.017500", "131536.477500", "131536.937500", "131537.397500", "131537.857500", "131538.317500", "131538.777500", "131539.237500", "131539.697500", "131540.157500", "131540.617500", "131541.077500", "131541.537500", "131541.997500", "131542.457500", "131542.917500", "131543.377500", "131543.837500", "131544.297500", "131544.757500", "131545.217500", "131545.677500", "131546.137500", "131546.597500", "131547.057500", "131547.517500", "131547.977500", "131548.437500", "131548.897500", "131549.357500", "131549.817500", "131550.277500", "131550.737500", "131551.197500", "131551.657500", "131552.117500", "131552.577500", "131553.037500", "131553.497500", "131553.957500", "131554.417500", "131554.877500", "131555.337500", "131555.797500", "131556.257500", "131556.717500", "131557.177500", "131557.637500", "131558.097500", "131558.557500", "131559.017500", "131559.477500", "131559.937500", "131600.397500", "131600.857500", "131601.317500", "131601.777500", "131602.237500", "131602.697500", "131603.157500", "131603.617500", "131604.077500", "131604.537500", "131604.997500", "131605.457500", "131605.917500", "131606.377500", "131606.837500", "131607.297500", "131607.757500", "131608.217500", "131608.677500", "131609.137500", "131609.597500", "131610.057500", "131610.517500", "131610.977500", "131611.437500", "131611.897500", "131612.357500", "131612.817500", "131613.277500", "131613.737500", "131614.197500", "131614.657500", "131615.117500", "131615.577500", "131616.037500", "131616.497500", "131616.957500", "131617.417500", "131617.877500", "131618.337500", "131618.797500", "131619.257500", "131619.717500", "131620.177500", "131620.637500", "131621.097500", "131621.557500", "131622.017500", "131622.477500", "131622.937500", "131623.397500", "131623.857500", "131624.317500", "131624.777500", "131625.237500", "131625.697500", "131626.157500", "131626.617500", "131627.077500", "131627.537500", "131627.997500", "131628.457500", "131628.917500", "131629.377500", "131629.837500", "131630.297500", "131630.757500", "131631.217500", "131631.677500", "131632.137500", "131632.597500", "131633.057500", "131633.517500", "131633.977500", "131634.437500", "131634.897500", "131635.357500", "131635.817500", "131636.277500", "131636.737500", "131637.197500", "131637.657500", "131638.117500", "131638.577500", "131639.037500", "131639.497500", "131639.957500", "131640.417500", "131640.877500", "131641.337500", "131641.797500", "131642.257500", "131642.717500", "131643.177500", "131643.637500", "131644.097500", "131644.557500", "131645.017500", "131645.477500", "131645.937500", "131646.397500", "131646.857500", "131647.317500", "131647.777500", "131648.237500", "131648.697500", "131649.157500", "131649.617500", "131650.077500", "131650.537500", "131650.997500", "131651.457500", "131651.917500", "131652.377500", "131652.837500", "131653.297500", "131653.757500", "131654.217500", "131654.677500", "131655.137500", "131655.597500", "131656.057500", "131656.517500", "131656.977500", "131657.437500", "131657.897500", "131658.357500", "131658.817500", "131659.277500", "131659.737500", "131700.197500", "131700.657500", "131701.117500", "131701.577500", "131702.037500", "131702.497500", "131702.957500", "131703.417500", "131703.877500", "131704.337500", "131704.797500", "131705.257500", "131705.717500", "131706.177500", "131706.637500", "131707.097500", "131707.557500", "131708.017500", "131708.477500", "131708.937500", "131709.397500", "131709.857500", "131710.317500", "131710.777500", "131711.237500", "131711.697500", "131712.157500", "131712.617500", "131713.077500", "131713.537500", "131713.997500", "131714.457500", "131714.917500", "131715.377500", "131715.837500", "131716.297500", "131716.757500", "131717.217500", "131717.677500", "131718.137500", "131718.597500", "131719.057500", "131719.517500", "131719.977500", "131720.437500", "131720.897500", "131721.357500", "131721.817500", "131722.277500", "131722.737500", "131723.197500", "131723.657500", "131724.117500", "131724.577500", "131725.037500", "131725.497500", "131725.957500", "131726.417500", "131726.877500", "131727.337500", "131727.797500", "131728.257500", "131728.717500", "131729.177500", "131729.637500", "131730.097500", "131730.557500", "131731.017500", "131731.477500", "131731.937500", "131732.397500", "131732.857500", "131733.317500", "131733.777500", "131734.237500", "131734.697500", "131735.157500", "131735.617500", "131736.077500", "131736.537500", "131736.997500", "131737.457500", "131737.917500", "131738.377500", "131738.837500", "131739.297500", "131739.757500", "131740.217500", "131740.677500", "131741.137500", "131741.597500", "131742.057500", "131742.517500", "131742.977500", "131743.437500", "131743.897500", "131744.357500", "131744.817500", "131745.277500", "131745.737500", "131746.197500", "131746.657500", "131747.117500", "131747.577500", "131748.037500", "131748.497500", "131748.957500", "131749.417500", "131749.877500", "131750.337500", "131750.797500", "131751.257500", "131751.717500", "131752.177500", "131752.637500", "131753.097500", "131753.557500", "131754.017500", "131754.477500", "131754.937500", "131755.397500", "131755.857500", "131756.317500", "131756.777500", "131757.237500", "131757.697500", "131758.157500", "131758.617500", "131759.077500", "131759.537500", "131759.997500", "131800.457500", "131800.917500", "131801.377500", "131801.837500", "131802.297500", "131802.757500", "131803.217500", "131803.677500", "131804.137500", "131804.597500", "131805.057500", "131805.517500", "131805.977500", "131806.437500", "131806.897500", "131807.357500", "131807.817500", "131808.277500", "131808.737500", "131809.197500", "131809.657500", "131810.117500", "131810.577500", "131811.037500", "131811.497500", "131811.957500", "131812.417500", "131812.877500", "131813.337500", "131813.797500", "131814.257500", "131814.717500", "131815.177500", "131815.637500", "131816.097500", "131816.557500", "131817.017500", "131817.477500", "131817.937500", "131818.397500", "131818.857500", "131819.317500", "131819.777500", "131820.237500", "131820.697500", "131821.157500", "131821.617500", "131822.077500", "131822.537500", "131822.997500", "131823.457500", "131823.917500", "131824.377500", "131824.837500", "131825.297500", "131825.757500", "131826.217500", "131826.677500", "131827.137500", "131827.597500", "131828.057500", "131828.517500", "131828.977500", "131829.437500", "131829.897500", "131830.357500", "131830.817500", "131831.277500", "131831.737500", "131832.197500", "131832.657500", "131833.117500", "131833.577500", "131834.037500", "131834.497500", "131834.957500", "131835.417500", "131835.877500", "131836.337500", "131836.797500", "131837.257500", "131837.717500", "131838.177500", "131838.637500", "131839.097500", "131839.557500", "131840.017500", "131840.477500", "131840.937500", "131841.397500", "131841.857500", "131842.317500", "131842.777500", "131843.237500", "131843.697500", "131844.157500", "131844.617500", "131845.077500", "131845.537500", "131845.997500", "131846.457500", "131846.917500", "131847.377500", "131847.837500", "131848.297500", "131848.757500", "131849.217500", "131849.677500", "131850.137500", "131850.597500", "131851.057500", "131851.517500", "131851.977500", "131852.437500", "131852.897500", "131853.357500", "131853.817500", "131854.277500", "131854.737500", "131855.197500", "131855.657500", "131856.117500", "131856.577500", "131857.037500", "131857.497500", "131857.957500", "131858.417500", "131858.877500", "131859.337500", "131859.797500", "131900.257500", "131900.717500", "131901.177500", "131901.637500", "131902.097500", "131902.557500", "131903.017500", "131903.477500", "131903.937500", "131904.397500", "131904.857500", "131905.317500", "131905.777500", "131906.237500", "131906.697500", "131907.157500", "131907.617500", "131908.077500", "131908.537500", "131908.997500", "131909.457500", "131909.917500", "131910.377500", "131910.837500", "131911.297500", "131911.757500", "131912.217500", "131912.677500", "131913.137500", "131913.597500", "131914.057500", "131914.517500", "131914.977500", "131915.437500", "131915.897500", "131916.357500", "131916.817500", "131917.277500", "131917.737500", "131918.197500", "131918.657500", "131919.117500", "131919.577500", "131920.037500", "131920.497500", "131920.957500", "131921.417500", "131921.877500", "131922.337500", "131922.797500", "131923.257500", "131923.717500", "131924.177500", "131924.637500", "131925.097500", "131925.557500", "131926.017500", "131926.477500", "131926.937500", "131927.397500", "131927.857500", "131928.317500", "131928.777500", "131929.237500", "131929.697500", "131930.157500", "131930.617500", "131931.077500", "131931.537500", "131931.997500", "131932.457500", "131932.917500", "131933.377500", "131933.837500", "131934.297500", "131934.757500", "131935.217500", "131935.677500", "131936.137500", "131936.597500", "131937.057500", "131937.517500", "131937.977500", "131938.437500", "131938.897500", "131939.357500", "131939.817500", "131940.277500", "131940.737500", "131941.197500", "131941.657500", "131942.117500", "131942.577500", "131943.037500", "131943.497500", "131943.957500", "131944.417500", "131944.877500", "131945.337500", "131945.797500", "131946.257500", "131946.717500", "131947.177500", "131947.637500", "131948.097500", "131948.557500", "131949.017500", "131949.477500", "131949.937500", "131950.397500", "131950.857500", "131951.317500", "131951.777500", "131952.237500", "131952.697500", "131953.157500", "131953.617500", "131954.077500", "131954.537500", "131954.997500", "131955.457500", "131955.917500", "131956.377500", "131956.837500", "131957.297500", "131957.757500", "131958.217500", "131958.677500", "131959.137500", "131959.597500", "132000.057500", "132000.517500"],
