{
  "AcquisitionMatrixPE": 82,
  "AcquisitionNumber": 1,
  "AcquisitionTime": "20:03:10.610000",
  "BandwidthPerPixelPhaseEncode": 24.888,
  "BaseResolution": 82,
  "BodyPartExamined": "BRAIN",
  "ConsistencyInfo": "N4_VE11E_LATEST_20181129",
  "ConversionSoftware": "dcm2niix",
  "ConversionSoftwareVersion": "v1.0.20201102",
  "DerivedVendorReportedEchoSpacing": 0.00049,
  "DeviceSerialNumber": "66112",
  "DwellTime": 2e-06,
  "EchoTime": 0.0272,
  "EchoTrainLength": 82,
  "EffectiveEchoSpacing": 0.00049,
  "FlipAngle": 44,
  "ImageComments": "Unaliased MB8/PE3",
  "ImageOrientationPatientDICOM": [0.999373, -0.034365, -0.00849876, 0.0348989, 0.996667, 0.0737295],
  "ImageType": [
    "ORIGINAL",
    "PRIMARY",
    "M",
    "MB",
    "ND",
    "NORM",
    "MOSAIC"
],
  "ImagingFrequency": 123.252,
  "InPlanePhaseEncodingDirectionDICOM": "COL",
  "InstitutionAddress": "Maynard 3,Hanover,NH,US,03755",
  "InstitutionName": "Dartmouth College - PBS",
  "InstitutionalDepartmentName": "Department",
  "MRAcquisitionType": "2D",
  "MagneticFieldStrength": 3,
  "Manufacturer": "Siemens",
  "ManufacturersModelName": "Prisma",
  "Modality": "MR",
  "MultibandAccelerationFactor": 8,
  "PartialFourier": 1,
  "PatientPosition": "HFS",
  "PercentPhaseFOV": 100,
  "PercentSampling": 100,
  "PhaseEncodingDirection": "j-",
  "PhaseEncodingSteps": 82,
  "PhaseResolution": 1,
  "PixelBandwidth": 3050,
  "ProcedureStepDescription": "Wager_Wager^1076_spacetop",
  "ProtocolName": "func_run-01_task-alignvideo_acq-ap-mb8",
  "PulseSequenceDetails": "%CustomerSeq%\\cmrr_mbep2d_bold",
  "ReceiveCoilActiveElements": "HEA;HEP",
  "ReceiveCoilName": "Head_32",
  "ReconMatrixPE": 82,
  "RepetitionTime": 0.46,
  "SAR": 0.0945029,
  "ScanOptions": "FS",
  "ScanningSequence": "EP",
  "SequenceName": "epfid2d1_82",
  "SequenceVariant": "SK\\SS",
  "SeriesDescription": "func_run-01_task-alignvideo_acq-ap-mb8",
  "SeriesNumber": 28,
  "ShimSetting": [4152, -7756, -7246, 482, -85, -226, 33, 26],
  "SliceThickness": 2.7,
  "SliceTiming": [0, 0.25, 0.0625, 0.3125, 0.125, 0.375, 0.1875, 0, 0.25, 0.0625, 0.3125, 0.125, 0.375, 0.1875, 0, 0.25, 0.0625, 0.3125, 0.125, 0.375, 0.1875, 0, 0.25, 0.0625, 0.3125, 0.125, 0.375, 0.1875, 0, 0.25, 0.0625, 0.3125, 0.125, 0.375, 0.1875, 0, 0.25, 0.0625, 0.3125, 0.125, 0.375, 0.1875, 0, 0.25, 0.0625, 0.3125, 0.125, 0.375, 0.1875, 0, 0.25, 0.0625, 0.3125, 0.125, 0.375, 0.1875],
  "SoftwareVersions": "syngo MR E11",
  "SpacingBetweenSlices": 2.7,
  "StationName": "AWP66112",
  "TaskName": "alignvideo",
  "TotalReadoutTime": 0.03969,
  "TxRefAmp": 290.449,
  "WipMemBlock": "d187b948-783a-49e4-a010-ed8e88b0bc00||Sequence: R016 ve11e/master r/434b28f1; Aug  7 2019 18:53:46 by eja",
  "dcmmeta_affine": [
    [-2.6812453269958496, 0.09363126754760742, -0.01602916792035103, 105.91879272460938],
    [0.0921986922621727, 2.6739859580993652, 0.199745774269104, -103.05026245117188],
    [-0.022801563143730164, -0.19781093299388885, 2.6925535202026367, -56.97764205932617],
    [0.0, 0.0, 0.0, 1.0]
],
  "dcmmeta_reorient_transform": [
    [0.0, -1.0, 0.0, 81.0],
    [1.0, 0.0, 0.0, 0.0],
    [0.0, 0.0, 1.0, 0.0],
    [0.0, 0.0, 0.0, 1.0]
],
  "dcmmeta_shape": [82, 82, 56, 839],
  "dcmmeta_slice_dim": 2,
  "dcmmeta_version": 0.6,
  "global": {
    "const": {
      "AccessionNumber": "A003998",
      "AcquisitionMatrix": [82, 0, 0, 82],
      "AngioFlag": "N",
      "BitsAllocated": 16,
      "BitsStored": 16,
      "BodyPartExamined": "BRAIN",
      "Columns": 656,
      "EchoNumbers": 1,
      "EchoTime": 27.2,
      "EchoTrainLength": 82,
      "FlipAngle": 44.0,
      "HighBit": 15,
      "ImageOrientationPatient": [0.99937321363685, -0.0343649658407, -0.0084987639061, 0.03489892717682, 0.99666745775506, 0.07372952959285],
      "ImagePositionPatient": [-909.89249531457, -854.51553173149, -123.22801871542],
      "ImageType": [
        "ORIGINAL",
        "PRIMARY",
        "M",
        "MB",
        "ND",
        "NORM",
        "MOSAIC"
],
      "ImagedNucleus": "1H",
      "ImagingFrequency": 123.25215,
      "InPlanePhaseEncodingDirection": "COL",
      "MRAcquisitionType": "2D",
      "MagneticFieldStrength": 3.0,
      "Manufacturer": "SIEMENS",
      "ManufacturerModelName": "Prisma",
      "Modality": "MR",
      "NumberOfAverages": 1.0,
      "NumberOfPhaseEncodingSteps": 82,
      "PercentPhaseFieldOfView": 100.0,
      "PercentSampling": 100.0,
      "PerformedProcedureStepStartTime": "180522.777000",
      "PhotometricInterpretation": "MONOCHROME2",
      "PixelBandwidth": 3050.0,
      "PixelRepresentation": 0,
      "PixelSpacing": [2.6829268932343, 2.6829268932343],
      "ProtocolName": "func_run-01_task-alignvideo_acq-ap-mb8",
      "RepetitionTime": 460.0,
      "Rows": 656,
      "SAR": 0.09450294702632,
      "SamplesPerPixel": 1,
      "ScanOptions": "FS",
      "ScanningSequence": "EP",
      "SequenceName": "epfid2d1_82",
      "SequenceVariant": [
        "SK",
        "SS"
],
      "SeriesDescription": "func_run-01_task-alignvideo_acq-ap-mb8",
      "SeriesNumber": 28,
      "SeriesTime": "200329.549000",
      "SliceLocation": -65.072962032948,
      "SliceThickness": 2.7000000476837,
      "SmallestImagePixelValue": 0,
      "SoftwareVersions": "syngo MR E11",
      "SpacingBetweenSlices": 2.7000000096734,
      "SpecificCharacterSet": "ISO_IR 100",
      "StudyID": "2",
      "StudyTime": "180522.724000",
      "TransmitCoilName": "Body",
      "VariableFlipAngleFlag": "N",
      "WindowCenterWidthExplanation": "Algo1"
    },
    "slices": {}
  },
  "time": {
    "samples": {
      "AcquisitionNumber": [1, 2, 3, 4, 5, 6, 7, 8, 9, 10, 11, 12, 13, 14, 15, 16, 17, 18, 19, 20, 21, 22, 23, 24, 25, 26, 27, 28, 29, 30, 31, 32, 33, 34, 35, 36, 37, 38, 39, 40, 41, 42, 43, 44, 45, 46, 47, 48, 49, 50, 51, 52, 53, 54, 55, 56, 57, 58, 59, 60, 61, 62, 63, 64, 65, 66, 67, 68, 69, 70, 71, 72, 73, 74, 75, 76, 77, 78, 79, 80, 81, 82, 83, 84, 85, 86, 87, 88, 89, 90, 91, 92, 93, 94, 95, 96, 97, 98, 99, 100, 101, 102, 103, 104, 105, 106, 107, 108, 109, 110, 111, 112, 113, 114, 115, 116, 117, 118, 119, 120, 121, 122, 123, 124, 125, 126, 127, 128, 129, 130, 131, 132, 133, 134, 135, 136, 137, 138, 139, 140, 141, 142, 143, 144, 145, 146, 147, 148, 149, 150, 151, 152, 153, 154, 155, 156, 157, 158, 159, 160, 161, 162, 163, 164, 165, 166, 167, 168, 169, 170, 171, 172, 173, 174, 175, 176, 177, 178, 179, 180, 181, 182, 183, 184, 185, 186, 187, 188, 189, 190, 191, 192, 193, 194, 195, 196, 197, 198, 199, 200, 201, 202, 203, 204, 205, 206, 207, 208, 209, 210, 211, 212, 213, 214, 215, 216, 217, 218, 219, 220, 221, 222, 223, 224, 225, 226, 227, 228, 229, 230, 231, 232, 233, 234, 235, 236, 237, 238, 239, 240, 241, 242, 243, 244, 245, 246, 247, 248, 249, 250, 251, 252, 253, 254, 255, 256, 257, 258, 259, 260, 261, 262, 263, 264, 265, 266, 267, 268, 269, 270, 271, 272, 273, 274, 275, 276, 277, 278, 279, 280, 281, 282, 283, 284, 285, 286, 287, 288, 289, 290, 291, 292, 293, 294, 295, 296, 297, 298, 299, 300, 301, 302, 303, 304, 305, 306, 307, 308, 309, 310, 311, 312, 313, 314, 315, 316, 317, 318, 319, 320, 321, 322, 323, 324, 325, 326, 327, 328, 329, 330, 331, 332, 333, 334, 335, 336, 337, 338, 339, 340, 341, 342, 343, 344, 345, 346, 347, 348, 349, 350, 351, 352, 353, 354, 355, 356, 357, 358, 359, 360, 361, 362, 363, 364, 365, 366, 367, 368, 369, 370, 371, 372, 373, 374, 375, 376, 377, 378, 379, 380, 381, 382, 383, 384, 385, 386, 387, 388, 389, 390, 391, 392, 393, 394, 395, 396, 397, 398, 399, 400, 401, 402, 403, 404, 405, 406, 407, 408, 409, 410, 411, 412, 413, 414, 415, 416, 417, 418, 419, 420, 421, 422, 423, 424, 425, 426, 427, 428, 429, 430, 431, 432, 433, 434, 435, 436, 437, 438, 439, 440, 441, 442, 443, 444, 445, 446, 447, 448, 449, 450, 451, 452, 453, 454, 455, 456, 457, 458, 459, 460, 461, 462, 463, 464, 465, 466, 467, 468, 469, 470, 471, 472, 473, 474, 475, 476, 477, 478, 479, 480, 481, 482, 483, 484, 485, 486, 487, 488, 489, 490, 491, 492, 493, 494, 495, 496, 497, 498, 499, 500, 501, 502, 503, 504, 505, 506, 507, 508, 509, 510, 511, 512, 513, 514, 515, 516, 517, 518, 519, 520, 521, 522, 523, 524, 525, 526, 527, 528, 529, 530, 531, 532, 533, 534, 535, 536, 537, 538, 539, 540, 541, 542, 543, 544, 545, 546, 547, 548, 549, 550, 551, 552, 553, 554, 555, 556, 557, 558, 559, 560, 561, 562, 563, 564, 565, 566, 567, 568, 569, 570, 571, 572, 573, 574, 575, 576, 577, 578, 579, 580, 581, 582, 583, 584, 585, 586, 587, 588, 589, 590, 591, 592, 593, 594, 595, 596, 597, 598, 599, 600, 601, 602, 603, 604, 605, 606, 607, 608, 609, 610, 611, 612, 613, 614, 615, 616, 617, 618, 619, 620, 621, 622, 623, 624, 625, 626, 627, 628, 629, 630, 631, 632, 633, 634, 635, 636, 637, 638, 639, 640, 641, 642, 643, 644, 645, 646, 647, 648, 649, 650, 651, 652, 653, 654, 655, 656, 657, 658, 659, 660, 661, 662, 663, 664, 665, 666, 667, 668, 669, 670, 671, 672, 673, 674, 675, 676, 677, 678, 679, 680, 681, 682, 683, 684, 685, 686, 687, 688, 689, 690, 691, 692, 693, 694, 695, 696, 697, 698, 699, 700, 701, 702, 703, 704, 705, 706, 707, 708, 709, 710, 711, 712, 713, 714, 715, 716, 717, 718, 719, 720, 721, 722, 723, 724, 725, 726, 727, 728, 729, 730, 731, 732, 733, 734, 735, 736, 737, 738, 739, 740, 741, 742, 743, 744, 745, 746, 747, 748, 749, 750, 751, 752, 753, 754, 755, 756, 757, 758, 759, 760, 761, 762, 763, 764, 765, 766, 767, 768, 769, 770, 771, 772, 773, 774, 775, 776, 777, 778, 779, 780, 781, 782, 783, 784, 785, 786, 787, 788, 789, 790, 791, 792, 793, 794, 795, 796, 797, 798, 799, 800, 801, 802, 803, 804, 805, 806, 807, 808, 809, 810, 811, 812, 813, 814, 815, 816, 817, 818, 819, 820, 821, 822, 823, 824, 825, 826, 827, 828, 829, 830, 831, 832, 833, 834, 835, 836, 837, 838, 839],
      "AcquisitionTime": ["200310.610000", "200311.070000", "200311.530000", "200311.990000", "200312.450000", "200312.910000", "200313.370000", "200313.830000", "200314.290000", "200314.750000", "200315.210000", "200315.670000", "200316.130000", "200316.590000", "200317.050000", "200317.510000", "200317.970000", "200318.430000", "200318.890000", "200319.350000", "200319.810000", "200320.270000", "200320.730000", "200321.190000", "200321.650000", "200322.110000", "200322.570000", "200323.030000", "200323.490000", "200323.950000", "200324.410000", "200324.870000", "200325.330000", "200325.790000", "200326.250000", "200326.710000", "200327.170000", "200327.630000", "200328.090000", "200328.550000", "200329.010000", "200329.470000", "200329.930000", "200330.390000", "200330.850000", "200331.310000", "200331.770000", "200332.230000", "200332.690000", "200333.150000", "200333.610000", "200334.070000", "200334.530000", "200334.990000", "200335.450000", "200335.910000", "200336.370000", "200336.830000", "200337.290000", "200337.750000", "200338.210000", "200338.670000", "200339.130000", "200339.590000", "200340.050000", "200340.510000", "200340.970000", "200341.430000", "200341.890000", "200342.350000", "200342.810000", "200343.270000", "200343.730000", "200344.190000", "200344.650000", "200345.110000", "200345.570000", "200346.030000", "200346.490000", "200346.950000", "200347.410000", "200347.870000", "200348.330000", "200348.790000", "200349.250000", "200349.710000", "200350.170000", "200350.630000", "200351.090000", "200351.550000", "200352.010000", "200352.470000", "200352.930000", "200353.390000", "200353.850000", "200354.310000", "200354.770000", "200355.230000", "200355.690000", "200356.150000", "200356.610000", "200357.070000", "200357.530000", "200357.990000", "200358.450000", "200358.910000", "200359.370000", "200359.830000", "200400.290000", "200400.750000", "200401.210000", "200401.670000", "200402.130000", "200402.590000", "200403.050000", "200403.510000", "200403.970000", "200404.430000", "200404.890000", "200405.350000", "200405.810000", "200406.270000", "200406.730000", "200407.190000", "200407.650000", "200408.110000", "200408.570000", "200409.030000", "200409.490000", "200409.950000", "200410.410000", "200410.870000", "200411.330000", "200411.790000", "200412.250000", "200412.710000", "200413.170000", "200413.630000", "200414.090000", "200414.550000", "200415.010000", "200415.470000", "200415.930000", "200416.390000", "200416.850000", "200417.310000", "200417.770000", "200418.230000", "200418.690000", "200419.150000", "200419.610000", "200420.070000", "200420.530000", "200420.990000", "200421.450000", "200421.910000", "200422.370000", "200422.830000", "200423.290000", "200423.750000", "200424.210000", "200424.670000", "200425.130000", "200425.590000", "200426.050000", "200426.510000", "200426.970000", "200427.430000", "200427.890000", "200428.350000", "200428.810000", "200429.270000", "200429.730000", "200430.190000", "200430.650000", "200431.110000", "200431.570000", "200432.030000", "200432.490000", "200432.950000", "200433.410000", "200433.870000", "200434.330000", "200434.790000", "200435.250000", "200435.710000", "200436.170000", "200436.630000", "200437.090000", "200437.550000", "200438.010000", "200438.470000", "200438.930000", "200439.390000", "200439.850000", "200440.310000", "200440.770000", "200441.230000", "200441.690000", "200442.150000", "200442.610000", "200443.070000", "200443.530000", "200443.990000", "200444.450000", "200444.910000", "200445.370000", "200445.830000", "200446.290000", "200446.750000", "200447.210000", "200447.670000", "200448.130000", "200448.590000", "200449.050000", "200449.510000", "200449.970000", "200450.430000", "200450.890000", "200451.350000", "200451.810000", "200452.270000", "200452.730000", "200453.190000", "200453.650000", "200454.110000", "200454.570000", "200455.030000", "200455.490000", "200455.950000", "200456.410000", "200456.870000", "200457.330000", "200457.790000", "200458.250000", "200458.710000", "200459.170000", "200459.630000", "200500.090000", "200500.550000", "200501.010000", "200501.470000", "200501.930000", "200502.390000", "200502.850000", "200503.310000", "200503.770000", "200504.230000", "200504.690000", "200505.150000", "200505.610000", "200506.070000", "200506.530000", "200506.990000", "200507.450000", "200507.910000", "200508.370000", "200508.830000", "200509.290000", "200509.750000", "200510.210000", "200510.670000", "200511.130000", "200511.590000", "200512.050000", "200512.510000", "200512.970000", "200513.430000", "200513.890000", "200514.350000", "200514.810000", "200515.270000", "200515.730000", "200516.190000", "200516.650000", "200517.110000", "200517.570000", "200518.030000", "200518.490000", "200518.950000", "200519.410000", "200519.870000", "200520.330000", "200520.790000", "200521.250000", "200521.710000", "200522.170000", "200522.630000", "200523.090000", "200523.550000", "200524.010000", "200524.470000", "200524.930000", "200525.390000", "200525.850000", "200526.310000", "200526.770000", "200527.230000", "200527.690000", "200528.150000", "200528.610000", "200529.070000", "200529.530000", "200529.990000", "200530.450000", "200530.910000", "200531.370000", "200531.830000", "200532.290000", "200532.750000", "200533.210000", "200533.670000", "200534.130000", "200534.590000", "200535.050000", "200535.510000", "200535.970000", "200536.430000", "200536.890000", "200537.350000", "200537.810000", "200538.270000", "200538.730000", "200539.190000", "200539.650000", "200540.110000", "200540.570000", "200541.030000", "200541.490000", "200541.950000", "200542.410000", "200542.870000", "200543.330000", "200543.790000", "200544.250000", "200544.710000", "200545.170000", "200545.630000", "200546.090000", "200546.550000", "200547.010000", "200547.470000", "200547.930000", "200548.390000", "200548.850000", "200549.310000", "200549.770000", "200550.230000", "200550.690000", "200551.150000", "200551.610000", "200552.070000", "200552.530000", "200552.990000", "200553.450000", "200553.910000", "200554.370000", "200554.830000", "200555.290000", "200555.750000", "200556.210000", "200556.670000", "200557.130000", "200557.590000", "200558.050000", "200558.510000", "200558.970000", "200559.430000", "200559.890000", "200600.350000", "200600.810000", "200601.270000", "200601.730000", "200602.190000", "200602.650000", "200603.110000", "200603.570000", "200604.030000", "200604.490000", "200604.950000", "200605.410000", "200605.870000", "200606.330000", "200606.790000", "200607.250000", "200607.710000", "200608.170000", "200608.630000", "200609.090000", "200609.550000", "200610.010000", "200610.470000", "200610.930000", "200611.390000", "200611.850000", "200612.310000", "200612.770000", "200613.230000", "200613.690000", "200614.150000", "200614.610000", "200615.070000", "200615.530000", "200615.990000", "200616.450000", "200616.910000", "200617.370000", "200617.830000", "200618.290000", "200618.750000", "200619.210000", "200619.670000", "200620.130000", "200620.590000", "200621.050000", "200621.510000", "200621.970000", "200622.430000", "200622.890000", "200623.350000", "200623.810000", "200624.270000", "200624.730000", "200625.190000", "200625.650000", "200626.110000", "200626.570000", "200627.030000", "200627.490000", "200627.950000", "200628.410000", "200628.870000", "200629.330000", "200629.790000", "200630.250000", "200630.710000", "200631.170000", "200631.630000", "200632.090000", "200632.550000", "200633.010000", "200633.470000", "200633.930000", "200634.390000", "200634.850000", "200635.310000", "200635.770000", "200636.230000", "200636.690000", "200637.150000", "200637.610000", "200638.070000", "200638.530000", "200638.990000", "200639.450000", "200639.910000", "200640.370000", "200640.830000", "200641.290000", "200641.750000", "200642.210000", "200642.670000", "200643.130000", "200643.590000", "200644.050000", "200644.510000", "200644.970000", "200645.430000", "200645.890000", "200646.350000", "200646.810000", "200647.270000", "200647.730000", "200648.190000", "200648.650000", "200649.110000", "200649.570000", "200650.030000", "200650.490000", "200650.950000", "200651.410000", "200651.870000", "200652.330000", "200652.790000", "200653.250000", "200653.710000", "200654.170000", "200654.630000", "200655.090000", "200655.550000", "200656.010000", "200656.470000", "200656.930000", "200657.390000", "200657.850000", "200658.310000", "200658.770000", "200659.230000", "200659.690000", "200700.150000", "200700.610000", "200701.070000", "200701.530000", "200701.990000", "200702.450000", "200702.910000", "200703.370000", "200703.830000", "200704.290000", "200704.750000", "200705.210000", "200705.670000", "200706.130000", "200706.590000", "200707.050000", "200707.510000", "200707.970000", "200708.430000", "200708.890000", "200709.350000", "200709.810000", "200710.270000", "200710.730000", "200711.190000", "200711.650000", "200712.110000", "200712.570000", "200713.030000", "200713.490000", "200713.950000", "200714.410000", "200714.870000", "200715.330000", "200715.790000", "200716.250000", "200716.710000", "200717.170000", "200717.630000", "200718.090000", "200718.550000", "200719.010000", "200719.470000", "200719.930000", "200720.390000", "200720.850000", "200721.310000", "200721.770000", "200722.230000", "200722.690000", "200723.150000", "200723.610000", "200724.070000", "200724.530000", "200724.990000", "200725.450000", "200725.910000", "200726.370000", "200726.830000", "200727.290000", "200727.750000", "200728.210000", "200728.670000", "200729.130000", "200729.590000", "200730.050000", "200730.510000", "200730.970000", "200731.430000", "200731.890000", "200732.350000", "200732.810000", "200733.270000", "200733.730000", "200734.190000", "200734.650000", "200735.110000", "200735.570000", "200736.030000", "200736.490000", "200736.950000", "200737.410000", "200737.870000", "200738.330000", "200738.790000", "200739.250000", "200739.710000", "200740.170000", "200740.630000", "200741.090000", "200741.550000", "200742.010000", "200742.470000", "200742.930000", "200743.390000", "200743.850000", "200744.310000", "200744.770000", "200745.230000", "200745.690000", "200746.150000", "200746.610000", "200747.070000", "200747.530000", "200747.990000", "200748.450000", "200748.910000", "200749.370000", "200749.830000", "200750.290000", "200750.750000", "200751.210000", "200751.670000", "200752.130000", "200752.590000", "200753.050000", "200753.510000", "200753.970000", "200754.430000", "200754.890000", "200755.350000", "200755.810000", "200756.270000", "200756.730000", "200757.190000", "200757.650000", "200758.110000", "200758.570000", "200759.030000", "200759.490000", "200759.950000", "200800.410000", "200800.870000", "200801.330000", "200801.790000", "200802.250000", "200802.710000", "200803.170000", "200803.630000", "200804.090000", "200804.550000", "200805.010000", "200805.470000", "200805.930000", "200806.390000", "200806.850000", "200807.310000", "200807.770000", "200808.230000", "200808.690000", "200809.150000", "200809.610000", "200810.070000", "200810.530000", "200810.990000", "200811.450000", "200811.910000", "200812.370000", "200812.830000", "200813.290000", "200813.750000", "200814.210000", "200814.670000", "200815.130000", "200815.590000", "200816.050000", "200816.510000", "200816.970000", "200817.430000", "200817.890000", "200818.350000", "200818.810000", "200819.270000", "200819.730000", "200820.190000", "200820.650000", "200821.110000", "200821.570000", "200822.030000", "200822.490000", "200822.950000", "200823.410000", "200823.870000", "200824.330000", "200824.790000", "200825.250000", "200825.710000", "200826.170000", "200826.630000", "200827.090000", "200827.550000", "200828.010000", "200828.470000", "200828.930000", "200829.390000", "200829.850000", "200830.310000", "200830.770000", "200831.230000", "200831.690000", "200832.150000", "200832.610000", "200833.070000", "200833.530000", "200833.990000", "200834.450000", "200834.910000", "200835.370000", "200835.830000", "200836.290000", "200836.750000", "200837.210000", "200837.670000", "200838.130000", "200838.590000", "200839.050000", "200839.510000", "200839.970000", "200840.430000", "200840.890000", "200841.350000", "200841.810000", "200842.270000", "200842.730000", "200843.190000", "200843.650000", "200844.110000", "200844.570000", "200845.030000", "200845.490000", "200845.950000", "200846.410000", "200846.870000", "200847.330000", "200847.790000", "200848.250000", "200848.710000", "200849.170000", "200849.630000", "200850.090000", "200850.550000", "200851.010000", "200851.470000", "200851.930000", "200852.390000", "200852.850000", "200853.310000", "200853.770000", "200854.230000", "200854.690000", "200855.150000", "200855.610000", "200856.070000", "200856.530000", "200856.990000", "200857.450000", "200857.910000", "200858.370000", "200858.830000", "200859.290000", "200859.750000", "200900.210000", "200900.670000", "200901.130000", "200901.590000", "200902.050000", "200902.510000", "200902.970000", "200903.430000", "200903.890000", "200904.350000", "200904.810000", "200905.270000", "200905.730000", "200906.190000", "200906.650000", "200907.110000", "200907.570000", "200908.030000", "200908.490000", "200908.950000", "200909.410000", "200909.870000", "200910.330000", "200910.790000", "200911.250000", "200911.710000", "200912.170000", "200912.630000", "200913.090000", "200913.550000", "200914.010000", "200914.470000", "200914.930000", "200915.390000", "200915.850000", "200916.310000", "200916.770000", "200917.230000", "200917.690000", "200918.150000", "200918.610000", "200919.070000", "200919.530000", "200919.990000", "200920.450000", "200920.910000", "200921.370000", "200921.830000", "200922.290000", "200922.750000", "200923.210000", "200923.670000", "200924.130000", "200924.590000", "200925.050000", "200925.510000", "200925.970000", "200926.430000", "200926.890000", "200927.350000", "200927.810000", "200928.270000", "200928.730000", "200929.190000", "200929.650000", "200930.110000", "200930.570000", "200931.030000", "200931.490000", "200931.950000", "200932.410000", "200932.870000", "200933.330000", "200933.790000", "200934.250000", "200934.710000", "200935.170000", "200935.630000", "200936.090000"],
