{
  "AcquisitionMatrixPE": 82,
  "AcquisitionNumber": 1,
  "AcquisitionTime": "19:06:17.167500",
  "BandwidthPerPixelPhaseEncode": 24.888,
  "BaseResolution": 82,
  "BodyPartExamined": "BRAIN",
  "ConsistencyInfo": "N4_VE11E_LATEST_20181129",
  "ConversionSoftware": "dcm2niix",
  "ConversionSoftwareVersion": "v1.0.20201102",
  "DerivedVendorReportedEchoSpacing": 0.00049,
  "DeviceSerialNumber": "66112",
  "DwellTime": 2e-06,
  "EchoTime": 0.0272,
  "EchoTrainLength": 82,
  "EffectiveEchoSpacing": 0.00049,
  "FlipAngle": 44,
  "ImageComments": "Unaliased MB8/PE3",
  "ImageOrientationPatientDICOM": [0.99948, -0.0280056, 0.0159619, 0.0270452, 0.997979, 0.0575028],
  "ImageType": [
    "ORIGINAL",
    "PRIMARY",
    "M",
    "MB",
    "ND",
    "NORM",
    "MOSAIC"
],
  "ImagingFrequency": 123.252,
  "InPlanePhaseEncodingDirectionDICOM": "COL",
  "InstitutionAddress": "Maynard 3,Hanover,NH,US,03755",
  "InstitutionName": "Dartmouth College - PBS",
  "InstitutionalDepartmentName": "Department",
  "MRAcquisitionType": "2D",
  "MagneticFieldStrength": 3,
  "Manufacturer": "Siemens",
  "ManufacturersModelName": "Prisma",
  "Modality": "MR",
  "MultibandAccelerationFactor": 8,
  "PartialFourier": 1,
  "PatientPosition": "HFS",
  "PercentPhaseFOV": 100,
  "PercentSampling": 100,
  "PhaseEncodingDirection": "j-",
  "PhaseEncodingSteps": 82,
  "PhaseResolution": 1,
  "PixelBandwidth": 3050,
  "ProcedureStepDescription": "Wager_Wager^1076_spacetop",
  "ProtocolName": "func_run-02_task-narratives_acq-ap-mb8",
  "PulseSequenceDetails": "%CustomerSeq%\\cmrr_mbep2d_bold",
  "ReceiveCoilActiveElements": "HEA;HEP",
  "ReceiveCoilName": "Head_32",
  "ReconMatrixPE": 82,
  "RepetitionTime": 0.46,
  "SAR": 0.0946472,
  "ScanOptions": "FS",
  "ScanningSequence": "EP",
  "SequenceName": "epfid2d1_82",
  "SequenceVariant": "SK\\SS",
  "SeriesDescription": "func_run-02_task-narratives_acq-ap-mb8",
  "SeriesNumber": 10,
  "ShimSetting": [4151, -7756, -7245, 479, -83, -227, 34, 28],
  "SliceThickness": 2.7,
  "SliceTiming": [0, 0.2525, 0.0625, 0.315, 0.125, 0.3775, 0.1875, 0, 0.2525, 0.0625, 0.315, 0.125, 0.3775, 0.1875, 0, 0.2525, 0.0625, 0.315, 0.125, 0.3775, 0.1875, 0, 0.2525, 0.0625, 0.315, 0.125, 0.3775, 0.1875, 0, 0.2525, 0.0625, 0.315, 0.125, 0.3775, 0.1875, 0, 0.2525, 0.0625, 0.315, 0.125, 0.3775, 0.1875, 0, 0.2525, 0.0625, 0.315, 0.125, 0.3775, 0.1875, 0, 0.2525, 0.0625, 0.315, 0.125, 0.3775, 0.1875],
  "SoftwareVersions": "syngo MR E11",
  "SpacingBetweenSlices": 2.7,
  "StationName": "AWP66112",
  "TaskName": "narratives",
  "TotalReadoutTime": 0.03969,
  "TxRefAmp": 290.449,
  "WipMemBlock": "fa624e85-361e-4ce9-baa1-e39dcdc21ad8||Sequence: R016 ve11e/master r/434b28f1; Aug  7 2019 18:53:46 by eja",
  "dcmmeta_affine": [
    [-2.681532621383667, 0.07256024330854416, 0.04735806584358215, 105.52013397216797],
    [0.0751369297504425, 2.677504539489746, 0.1540112942457199, -96.87763977050781],
    [0.04282457008957863, -0.1542758047580719, 2.695188045501709, -62.554195404052734],
    [0.0, 0.0, 0.0, 1.0]
],
  "dcmmeta_reorient_transform": [
    [0.0, -1.0, 0.0, 81.0],
    [1.0, 0.0, 0.0, 0.0],
    [0.0, 0.0, 1.0, 0.0],
    [0.0, 0.0, 0.0, 1.0]
],
  "dcmmeta_shape": [82, 82, 56, 1098],
  "dcmmeta_slice_dim": 2,
  "dcmmeta_version": 0.6,
  "global": {
    "const": {
      "AccessionNumber": "A003998",
      "AcquisitionMatrix": [82, 0, 0, 82],
      "AngioFlag": "N",
      "BitsAllocated": 16,
      "BitsStored": 16,
      "BodyPartExamined": "BRAIN",
      "Columns": 656,
      "EchoNumbers": 1,
      "EchoTime": 27.2,
      "EchoTrainLength": 82,
      "FlipAngle": 44.0,
      "HighBit": 15,
      "ImageOrientationPatient": [0.99948031778847, -0.0280055810794, 0.01596188528565, 0.02704518228503, 0.99797895093621, 0.0575027964835],
      "ImagePositionPatient": [-901.8221713465, -866.8797455386, -131.61834288492],
      "ImageType": [
        "ORIGINAL",
        "PRIMARY",
        "M",
        "MB",
        "ND",
        "NORM",
        "MOSAIC"
],
      "ImagedNucleus": "1H",
      "ImagingFrequency": 123.252131,
      "InPlanePhaseEncodingDirection": "COL",
      "MRAcquisitionType": "2D",
      "MagneticFieldStrength": 3.0,
      "Manufacturer": "SIEMENS",
      "ManufacturerModelName": "Prisma",
      "Modality": "MR",
      "NumberOfAverages": 1.0,
      "NumberOfPhaseEncodingSteps": 82,
      "PercentPhaseFieldOfView": 100.0,
      "PercentSampling": 100.0,
      "PerformedProcedureStepStartTime": "180522.777000",
      "PhotometricInterpretation": "MONOCHROME2",
      "PixelBandwidth": 3050.0,
      "PixelRepresentation": 0,
      "PixelSpacing": [2.6829268932343, 2.6829268932343],
      "ProtocolName": "func_run-02_task-narratives_acq-ap-mb8",
      "RepetitionTime": 460.0,
      "Rows": 656,
      "SAR": 0.09464715932128,
      "SamplesPerPixel": 1,
      "ScanOptions": "FS",
      "ScanningSequence": "EP",
      "SequenceName": "epfid2d1_82",
      "SequenceVariant": [
        "SK",
        "SS"
],
      "SeriesDescription": "func_run-02_task-narratives_acq-ap-mb8",
      "SeriesNumber": 10,
      "SeriesTime": "190629.476000",
      "SliceLocation": -66.117901588572,
      "SliceThickness": 2.7000000476837,
      "SmallestImagePixelValue": 0,
      "SoftwareVersions": "syngo MR E11",
      "SpacingBetweenSlices": 2.7000000477161,
      "SpecificCharacterSet": "ISO_IR 100",
      "StudyID": "2",
      "StudyTime": "180522.724000",
      "TransmitCoilName": "Body",
      "VariableFlipAngleFlag": "N",
      "WindowCenterWidthExplanation": "Algo1"
    },
    "slices": {}
  },
  "time": {
    "samples": {
      "AcquisitionNumber": [1, 2, 3, 4, 5, 6, 7, 8, 9, 10, 11, 12, 13, 14, 15, 16, 17, 18, 19, 20, 21, 22, 23, 24, 25, 26, 27, 28, 29, 30, 31, 32, 33, 34, 35, 36, 37, 38, 39, 40, 41, 42, 43, 44, 45, 46, 47, 48, 49, 50, 51, 52, 53, 54, 55, 56, 57, 58, 59, 60, 61, 62, 63, 64, 65, 66, 67, 68, 69, 70, 71, 72, 73, 74, 75, 76, 77, 78, 79, 80, 81, 82, 83, 84, 85, 86, 87, 88, 89, 90, 91, 92, 93, 94, 95, 96, 97, 98, 99, 100, 101, 102, 103, 104, 105, 106, 107, 108, 109, 110, 111, 112, 113, 114, 115, 116, 117, 118, 119, 120, 121, 122, 123, 124, 125, 126, 127, 128, 129, 130, 131, 132, 133, 134, 135, 136, 137, 138, 139, 140, 141, 142, 143, 144, 145, 146, 147, 148, 149, 150, 151, 152, 153, 154, 155, 156, 157, 158, 159, 160, 161, 162, 163, 164, 165, 166, 167, 168, 169, 170, 171, 172, 173, 174, 175, 176, 177, 178, 179, 180, 181, 182, 183, 184, 185, 186, 187, 188, 189, 190, 191, 192, 193, 194, 195, 196, 197, 198, 199, 200, 201, 202, 203, 204, 205, 206, 207, 208, 209, 210, 211, 212, 213, 214, 215, 216, 217, 218, 219, 220, 221, 222, 223, 224, 225, 226, 227, 228, 229, 230, 231, 232, 233, 234, 235, 236, 237, 238, 239, 240, 241, 242, 243, 244, 245, 246, 247, 248, 249, 250, 251, 252, 253, 254, 255, 256, 257, 258, 259, 260, 261, 262, 263, 264, 265, 266, 267, 268, 269, 270, 271, 272, 273, 274, 275, 276, 277, 278, 279, 280, 281, 282, 283, 284, 285, 286, 287, 288, 289, 290, 291, 292, 293, 294, 295, 296, 297, 298, 299, 300, 301, 302, 303, 304, 305, 306, 307, 308, 309, 310, 311, 312, 313, 314, 315, 316, 317, 318, 319, 320, 321, 322, 323, 324, 325, 326, 327, 328, 329, 330, 331, 332, 333, 334, 335, 336, 337, 338, 339, 340, 341, 342, 343, 344, 345, 346, 347, 348, 349, 350, 351, 352, 353, 354, 355, 356, 357, 358, 359, 360, 361, 362, 363, 364, 365, 366, 367, 368, 369, 370, 371, 372, 373, 374, 375, 376, 377, 378, 379, 380, 381, 382, 383, 384, 385, 386, 387, 388, 389, 390, 391, 392, 393, 394, 395, 396, 397, 398, 399, 400, 401, 402, 403, 404, 405, 406, 407, 408, 409, 410, 411, 412, 413, 414, 415, 416, 417, 418, 419, 420, 421, 422, 423, 424, 425, 426, 427, 428, 429, 430, 431, 432, 433, 434, 435, 436, 437, 438, 439, 440, 441, 442, 443, 444, 445, 446, 447, 448, 449, 450, 451, 452, 453, 454, 455, 456, 457, 458, 459, 460, 461, 462, 463, 464, 465, 466, 467, 468, 469, 470, 471, 472, 473, 474, 475, 476, 477, 478, 479, 480, 481, 482, 483, 484, 485, 486, 487, 488, 489, 490, 491, 492, 493, 494, 495, 496, 497, 498, 499, 500, 501, 502, 503, 504, 505, 506, 507, 508, 509, 510, 511, 512, 513, 514, 515, 516, 517, 518, 519, 520, 521, 522, 523, 524, 525, 526, 527, 528, 529, 530, 531, 532, 533, 534, 535, 536, 537, 538, 539, 540, 541, 542, 543, 544, 545, 546, 547, 548, 549, 550, 551, 552, 553, 554, 555, 556, 557, 558, 559, 560, 561, 562, 563, 564, 565, 566, 567, 568, 569, 570, 571, 572, 573, 574, 575, 576, 577, 578, 579, 580, 581, 582, 583, 584, 585, 586, 587, 588, 589, 590, 591, 592, 593, 594, 595, 596, 597, 598, 599, 600, 601, 602, 603, 604, 605, 606, 607, 608, 609, 610, 611, 612, 613, 614, 615, 616, 617, 618, 619, 620, 621, 622, 623, 624, 625, 626, 627, 628, 629, 630, 631, 632, 633, 634, 635, 636, 637, 638, 639, 640, 641, 642, 643, 644, 645, 646, 647, 648, 649, 650, 651, 652, 653, 654, 655, 656, 657, 658, 659, 660, 661, 662, 663, 664, 665, 666, 667, 668, 669, 670, 671, 672, 673, 674, 675, 676, 677, 678, 679, 680, 681, 682, 683, 684, 685, 686, 687, 688, 689, 690, 691, 692, 693, 694, 695, 696, 697, 698, 699, 700, 701, 702, 703, 704, 705, 706, 707, 708, 709, 710, 711, 712, 713, 714, 715, 716, 717, 718, 719, 720, 721, 722, 723, 724, 725, 726, 727, 728, 729, 730, 731, 732, 733, 734, 735, 736, 737, 738, 739, 740, 741, 742, 743, 744, 745, 746, 747, 748, 749, 750, 751, 752, 753, 754, 755, 756, 757, 758, 759, 760, 761, 762, 763, 764, 765, 766, 767, 768, 769, 770, 771, 772, 773, 774, 775, 776, 777, 778, 779, 780, 781, 782, 783, 784, 785, 786, 787, 788, 789, 790, 791, 792, 793, 794, 795, 796, 797, 798, 799, 800, 801, 802, 803, 804, 805, 806, 807, 808, 809, 810, 811, 812, 813, 814, 815, 816, 817, 818, 819, 820, 821, 822, 823, 824, 825, 826, 827, 828, 829, 830, 831, 832, 833, 834, 835, 836, 837, 838, 839, 840, 841, 842, 843, 844, 845, 846, 847, 848, 849, 850, 851, 852, 853, 854, 855, 856, 857, 858, 859, 860, 861, 862, 863, 864, 865, 866, 867, 868, 869, 870, 871, 872, 873, 874, 875, 876, 877, 878, 879, 880, 881, 882, 883, 884, 885, 886, 887, 888, 889, 890, 891, 892, 893, 894, 895, 896, 897, 898, 899, 900, 901, 902, 903, 904, 905, 906, 907, 908, 909, 910, 911, 912, 913, 914, 915, 916, 917, 918, 919, 920, 921, 922, 923, 924, 925, 926, 927, 928, 929, 930, 931, 932, 933, 934, 935, 936, 937, 938, 939, 940, 941, 942, 943, 944, 945, 946, 947, 948, 949, 950, 951, 952, 953, 954, 955, 956, 957, 958, 959, 960, 961, 962, 963, 964, 965, 966, 967, 968, 969, 970, 971, 972, 973, 974, 975, 976, 977, 978, 979, 980, 981, 982, 983, 984, 985, 986, 987, 988, 989, 990, 991, 992, 993, 994, 995, 996, 997, 998, 999, 1000, 1001, 1002, 1003, 1004, 1005, 1006, 1007, 1008, 1009, 1010, 1011, 1012, 1013, 1014, 1015, 1016, 1017, 1018, 1019, 1020, 1021, 1022, 1023, 1024, 1025, 1026, 1027, 1028, 1029, 1030, 1031, 1032, 1033, 1034, 1035, 1036, 1037, 1038, 1039, 1040, 1041, 1042, 1043, 1044, 1045, 1046, 1047, 1048, 1049, 1050, 1051, 1052, 1053, 1054, 1055, 1056, 1057, 1058, 1059, 1060, 1061, 1062, 1063, 1064, 1065, 1066, 1067, 1068, 1069, 1070, 1071, 1072, 1073, 1074, 1075, 1076, 1077, 1078, 1079, 1080, 1081, 1082, 1083, 1084, 1085, 1086, 1087, 1088, 1089, 1090, 1091, 1092, 1093, 1094, 1095, 1096, 1097, 1098],
      "AcquisitionTime": ["190617.167500", "190617.627500", "190618.087500", "190618.547500", "190619.007500", "190619.467500", "190619.927500", "190620.387500", "190620.847500", "190621.307500", "190621.767500", "190622.227500", "190622.687500", "190623.147500", "190623.607500", "190624.067500", "190624.527500", "190624.987500", "190625.447500", "190625.907500", "190626.367500", "190626.827500", "190627.287500", "190627.747500", "190628.207500", "190628.667500", "190629.127500", "190629.587500", "190630.047500", "190630.507500", "190630.967500", "190631.427500", "190631.887500", "190632.347500", "190632.807500", "190633.267500", "190633.727500", "190634.187500", "190634.647500", "190635.107500", "190635.567500", "190636.027500", "190636.487500", "190636.947500", "190637.407500", "190637.867500", "190638.327500", "190638.787500", "190639.247500", "190639.707500", "190640.167500", "190640.627500", "190641.087500", "190641.547500", "190642.007500", "190642.467500", "190642.927500", "190643.387500", "190643.847500", "190644.307500", "190644.767500", "190645.227500", "190645.687500", "190646.147500", "190646.607500", "190647.067500", "190647.527500", "190647.987500", "190648.447500", "190648.907500", "190649.367500", "190649.827500", "190650.287500", "190650.747500", "190651.207500", "190651.667500", "190652.127500", "190652.587500", "190653.047500", "190653.507500", "190653.967500", "190654.427500", "190654.887500", "190655.347500", "190655.807500", "190656.267500", "190656.727500", "190657.187500", "190657.647500", "190658.107500", "190658.567500", "190659.027500", "190659.487500", "190659.947500", "190700.407500", "190700.867500", "190701.327500", "190701.787500", "190702.247500", "190702.707500", "190703.167500", "190703.627500", "190704.087500", "190704.547500", "190705.007500", "190705.467500", "190705.927500", "190706.387500", "190706.847500", "190707.307500", "190707.767500", "190708.227500", "190708.687500", "190709.147500", "190709.607500", "190710.067500", "190710.527500", "190710.987500", "190711.447500", "190711.907500", "190712.367500", "190712.827500", "190713.287500", "190713.747500", "190714.207500", "190714.667500", "190715.127500", "190715.587500", "190716.047500", "190716.507500", "190716.967500", "190717.427500", "190717.887500", "190718.347500", "190718.807500", "190719.267500", "190719.727500", "190720.187500", "190720.647500", "190721.107500", "190721.567500", "190722.027500", "190722.487500", "190722.947500", "190723.407500", "190723.867500", "190724.327500", "190724.787500", "190725.247500", "190725.707500", "190726.167500", "190726.627500", "190727.087500", "190727.547500", "190728.007500", "190728.467500", "190728.927500", "190729.387500", "190729.847500", "190730.307500", "190730.767500", "190731.227500", "190731.687500", "190732.147500", "190732.607500", "190733.067500", "190733.527500", "190733.987500", "190734.447500", "190734.907500", "190735.367500", "190735.827500", "190736.287500", "190736.747500", "190737.207500", "190737.667500", "190738.127500", "190738.587500", "190739.047500", "190739.507500", "190739.967500", "190740.427500", "190740.887500", "190741.347500", "190741.807500", "190742.267500", "190742.727500", "190743.187500", "190743.647500", "190744.107500", "190744.567500", "190745.027500", "190745.487500", "190745.947500", "190746.407500", "190746.867500", "190747.327500", "190747.787500", "190748.247500", "190748.707500", "190749.167500", "190749.627500", "190750.087500", "190750.547500", "190751.007500", "190751.467500", "190751.927500", "190752.387500", "190752.847500", "190753.307500", "190753.767500", "190754.227500", "190754.687500", "190755.147500", "190755.607500", "190756.067500", "190756.527500", "190756.987500", "190757.447500", "190757.907500", "190758.367500", "190758.827500", "190759.287500", "190759.747500", "190800.207500", "190800.667500", "190801.127500", "190801.587500", "190802.047500", "190802.507500", "190802.967500", "190803.427500", "190803.887500", "190804.347500", "190804.807500", "190805.267500", "190805.727500", "190806.187500", "190806.647500", "190807.107500", "190807.567500", "190808.027500", "190808.487500", "190808.947500", "190809.407500", "190809.867500", "190810.327500", "190810.787500", "190811.247500", "190811.707500", "190812.167500", "190812.627500", "190813.087500", "190813.547500", "190814.007500", "190814.467500", "190814.927500", "190815.387500", "190815.847500", "190816.307500", "190816.767500", "190817.227500", "190817.687500", "190818.147500", "190818.607500", "190819.067500", "190819.527500", "190819.987500", "190820.447500", "190820.907500", "190821.367500", "190821.827500", "190822.287500", "190822.747500", "190823.207500", "190823.667500", "190824.127500", "190824.587500", "190825.047500", "190825.507500", "190825.967500", "190826.427500", "190826.887500", "190827.347500", "190827.807500", "190828.267500", "190828.727500", "190829.187500", "190829.647500", "190830.107500", "190830.567500", "190831.027500", "190831.487500", "190831.947500", "190832.407500", "190832.867500", "190833.327500", "190833.787500", "190834.247500", "190834.707500", "190835.167500", "190835.627500", "190836.087500", "190836.547500", "190837.007500", "190837.467500", "190837.927500", "190838.387500", "190838.847500", "190839.307500", "190839.767500", "190840.227500", "190840.687500", "190841.147500", "190841.607500", "190842.067500", "190842.527500", "190842.987500", "190843.447500", "190843.907500", "190844.367500", "190844.827500", "190845.287500", "190845.747500", "190846.207500", "190846.667500", "190847.127500", "190847.587500", "190848.047500", "190848.507500", "190848.967500", "190849.427500", "190849.887500", "190850.347500", "190850.807500", "190851.267500", "190851.727500", "190852.187500", "190852.647500", "190853.107500", "190853.567500", "190854.027500", "190854.487500", "190854.947500", "190855.407500", "190855.867500", "190856.327500", "190856.787500", "190857.247500", "190857.707500", "190858.167500", "190858.627500", "190859.087500", "190859.547500", "190900.007500", "190900.467500", "190900.927500", "190901.387500", "190901.847500", "190902.307500", "190902.767500", "190903.227500", "190903.687500", "190904.147500", "190904.607500", "190905.067500", "190905.527500", "190905.987500", "190906.447500", "190906.907500", "190907.367500", "190907.827500", "190908.287500", "190908.747500", "190909.207500", "190909.667500", "190910.127500", "190910.587500", "190911.047500", "190911.507500", "190911.967500", "190912.427500", "190912.887500", "190913.347500", "190913.807500", "190914.267500", "190914.727500", "190915.187500", "190915.647500", "190916.107500", "190916.567500", "190917.027500", "190917.487500", "190917.947500", "190918.407500", "190918.867500", "190919.327500", "190919.787500", "190920.247500", "190920.707500", "190921.167500", "190921.627500", "190922.087500", "190922.547500", "190923.007500", "190923.467500", "190923.927500", "190924.387500", "190924.847500", "190925.307500", "190925.767500", "190926.227500", "190926.687500", "190927.147500", "190927.607500", "190928.067500", "190928.527500", "190928.987500", "190929.447500", "190929.907500", "190930.367500", "190930.827500", "190931.287500", "190931.747500", "190932.207500", "190932.667500", "190933.127500", "190933.587500", "190934.047500", "190934.507500", "190934.967500", "190935.427500", "190935.887500", "190936.347500", "190936.807500", "190937.267500", "190937.727500", "190938.187500", "190938.647500", "190939.107500", "190939.567500", "190940.027500", "190940.487500", "190940.947500", "190941.407500", "190941.867500", "190942.327500", "190942.787500", "190943.247500", "190943.707500", "190944.167500", "190944.627500", "190945.087500", "190945.547500", "190946.007500", "190946.467500", "190946.927500", "190947.387500", "190947.847500", "190948.307500", "190948.767500", "190949.227500", "190949.687500", "190950.147500", "190950.607500", "190951.067500", "190951.527500", "190951.987500", "190952.447500", "190952.907500", "190953.367500", "190953.827500", "190954.287500", "190954.747500", "190955.207500", "190955.667500", "190956.127500", "190956.587500", "190957.047500", "190957.507500", "190957.967500", "190958.427500", "190958.887500", "190959.347500", "190959.807500", "191000.267500", "191000.727500", "191001.187500", "191001.647500", "191002.107500", "191002.567500", "191003.027500", "191003.487500", "191003.947500", "191004.407500", "191004.867500", "191005.327500", "191005.787500", "191006.247500", "191006.707500", "191007.167500", "191007.627500", "191008.087500", "191008.547500", "191009.007500", "191009.467500", "191009.927500", "191010.387500", "191010.847500", "191011.307500", "191011.767500", "191012.227500", "191012.687500", "191013.147500", "191013.607500", "191014.067500", "191014.527500", "191014.987500", "191015.447500", "191015.907500", "191016.367500", "191016.827500", "191017.287500", "191017.747500", "191018.207500", "191018.667500", "191019.127500", "191019.587500", "191020.047500", "191020.507500", "191020.967500", "191021.427500", "191021.887500", "191022.347500", "191022.807500", "191023.267500", "191023.727500", "191024.187500", "191024.647500", "191025.107500", "191025.567500", "191026.027500", "191026.487500", "191026.947500", "191027.407500", "191027.867500", "191028.327500", "191028.787500", "191029.247500", "191029.707500", "191030.167500", "191030.627500", "191031.087500", "191031.547500", "191032.007500", "191032.467500", "191032.927500", "191033.387500", "191033.847500", "191034.307500", "191034.767500", "191035.227500", "191035.687500", "191036.147500", "191036.607500", "191037.067500", "191037.527500", "191037.987500", "191038.447500", "191038.907500", "191039.367500", "191039.827500", "191040.287500", "191040.747500", "191041.207500", "191041.667500", "191042.127500", "191042.587500", "191043.047500", "191043.507500", "191043.967500", "191044.427500", "191044.887500", "191045.347500", "191045.807500", "191046.267500", "191046.727500", "191047.187500", "191047.647500", "191048.107500", "191048.567500", "191049.027500", "191049.487500", "191049.947500", "191050.407500", "191050.867500", "191051.327500", "191051.787500", "191052.247500", "191052.707500", "191053.167500", "191053.627500", "191054.087500", "191054.547500", "191055.007500", "191055.467500", "191055.927500", "191056.387500", "191056.847500", "191057.307500", "191057.767500", "191058.227500", "191058.687500", "191059.147500", "191059.607500", "191100.067500", "191100.527500", "191100.987500", "191101.447500", "191101.907500", "191102.367500", "191102.827500", "191103.287500", "191103.747500", "191104.207500", "191104.667500", "191105.127500", "191105.587500", "191106.047500", "191106.507500", "191106.967500", "191107.427500", "191107.887500", "191108.347500", "191108.807500", "191109.267500", "191109.727500", "191110.187500", "191110.647500", "191111.107500", "191111.567500", "191112.027500", "191112.487500", "191112.947500", "191113.407500", "191113.867500", "191114.327500", "191114.787500", "191115.247500", "191115.707500", "191116.167500", "191116.627500", "191117.087500", "191117.547500", "191118.007500", "191118.467500", "191118.927500", "191119.387500", "191119.847500", "191120.307500", "191120.767500", "191121.227500", "191121.687500", "191122.147500", "191122.607500", "191123.067500", "191123.527500", "191123.987500", "191124.447500", "191124.907500", "191125.367500", "191125.827500", "191126.287500", "191126.747500", "191127.207500", "191127.667500", "191128.127500", "191128.587500", "191129.047500", "191129.507500", "191129.967500", "191130.427500", "191130.887500", "191131.347500", "191131.807500", "191132.267500", "191132.727500", "191133.187500", "191133.647500", "191134.107500", "191134.567500", "191135.027500", "191135.487500", "191135.947500", "191136.407500", "191136.867500", "191137.327500", "191137.787500", "191138.247500", "191138.707500", "191139.167500", "191139.627500", "191140.087500", "191140.547500", "191141.007500", "191141.467500", "191141.927500", "191142.387500", "191142.847500", "191143.307500", "191143.767500", "191144.227500", "191144.687500", "191145.147500", "191145.607500", "191146.067500", "191146.527500", "191146.987500", "191147.447500", "191147.907500", "191148.367500", "191148.827500", "191149.287500", "191149.747500", "191150.207500", "191150.667500", "191151.127500", "191151.587500", "191152.047500", "191152.507500", "191152.967500", "191153.427500", "191153.887500", "191154.347500", "191154.807500", "191155.267500", "191155.727500", "191156.187500", "191156.647500", "191157.107500", "191157.567500", "191158.027500", "191158.487500", "191158.947500", "191159.407500", "191159.867500", "191200.327500", "191200.787500", "191201.247500", "191201.707500", "191202.167500", "191202.627500", "191203.087500", "191203.547500", "191204.007500", "191204.467500", "191204.927500", "191205.387500", "191205.847500", "191206.307500", "191206.767500", "191207.227500", "191207.687500", "191208.147500", "191208.607500", "191209.067500", "191209.527500", "191209.987500", "191210.447500", "191210.907500", "191211.367500", "191211.827500", "191212.287500", "191212.747500", "191213.207500", "191213.667500", "191214.127500", "191214.587500", "191215.047500", "191215.507500", "191215.967500", "191216.427500", "191216.887500", "191217.347500", "191217.807500", "191218.267500", "191218.727500", "191219.187500", "191219.647500", "191220.107500", "191220.567500", "191221.027500", "191221.487500", "191221.947500", "191222.407500", "191222.867500", "191223.327500", "191223.787500", "191224.247500", "191224.707500", "191225.167500", "191225.627500", "191226.087500", "191226.547500", "191227.007500", "191227.467500", "191227.927500", "191228.387500", "191228.847500", "191229.307500", "191229.767500", "191230.227500", "191230.687500", "191231.147500", "191231.607500", "191232.067500", "191232.527500", "191232.987500", "191233.447500", "191233.907500", "191234.367500", "191234.827500", "191235.287500", "191235.747500", "191236.207500", "191236.667500", "191237.127500", "191237.587500", "191238.047500", "191238.507500", "191238.967500", "191239.427500", "191239.887500", "191240.347500", "191240.807500", "191241.267500", "191241.727500", "191242.187500", "191242.647500", "191243.107500", "191243.567500", "191244.027500", "191244.487500", "191244.947500", "191245.407500", "191245.867500", "191246.327500", "191246.787500", "191247.247500", "191247.707500", "191248.167500", "191248.627500", "191249.087500", "191249.547500", "191250.007500", "191250.467500", "191250.927500", "191251.387500", "191251.847500", "191252.307500", "191252.767500", "191253.227500", "191253.687500", "191254.147500", "191254.607500", "191255.067500", "191255.527500", "191255.987500", "191256.447500", "191256.907500", "191257.367500", "191257.827500", "191258.287500", "191258.747500", "191259.207500", "191259.667500", "191300.127500", "191300.587500", "191301.047500", "191301.507500", "191301.967500", "191302.427500", "191302.887500", "191303.347500", "191303.807500", "191304.267500", "191304.727500", "191305.187500", "191305.647500", "191306.107500", "191306.567500", "191307.027500", "191307.487500", "191307.947500", "191308.407500", "191308.867500", "191309.327500", "191309.787500", "191310.247500", "191310.707500", "191311.167500", "191311.627500", "191312.087500", "191312.547500", "191313.007500", "191313.467500", "191313.927500", "191314.387500", "191314.847500", "191315.307500", "191315.767500", "191316.227500", "191316.687500", "191317.147500", "191317.607500", "191318.067500", "191318.527500", "191318.987500", "191319.447500", "191319.907500", "191320.367500", "191320.827500", "191321.287500", "191321.747500", "191322.207500", "191322.667500", "191323.127500", "191323.587500", "191324.047500", "191324.507500", "191324.967500", "191325.427500", "191325.887500", "191326.347500", "191326.807500", "191327.267500", "191327.727500", "191328.187500", "191328.647500", "191329.107500", "191329.567500", "191330.027500", "191330.487500", "191330.947500", "191331.407500", "191331.867500", "191332.327500", "191332.787500", "191333.247500", "191333.707500", "191334.167500", "191334.627500", "191335.087500", "191335.547500", "191336.007500", "191336.467500", "191336.927500", "191337.387500", "191337.847500", "191338.307500", "191338.767500", "191339.227500", "191339.687500", "191340.147500", "191340.607500", "191341.067500", "191341.527500", "191341.987500", "191342.447500", "191342.907500", "191343.367500", "191343.827500", "191344.287500", "191344.747500", "191345.207500", "191345.667500", "191346.127500", "191346.587500", "191347.047500", "191347.507500", "191347.967500", "191348.427500", "191348.887500", "191349.347500", "191349.807500", "191350.267500", "191350.727500", "191351.187500", "191351.647500", "191352.107500", "191352.567500", "191353.027500", "191353.487500", "191353.947500", "191354.407500", "191354.867500", "191355.327500", "191355.787500", "191356.247500", "191356.707500", "191357.167500", "191357.627500", "191358.087500", "191358.547500", "191359.007500", "191359.467500", "191359.927500", "191400.387500", "191400.847500", "191401.307500", "191401.767500", "191402.227500", "191402.687500", "191403.147500", "191403.607500", "191404.067500", "191404.527500", "191404.987500", "191405.447500", "191405.907500", "191406.367500", "191406.827500", "191407.287500", "191407.747500", "191408.207500", "191408.667500", "191409.127500", "191409.587500", "191410.047500", "191410.507500", "191410.967500", "191411.427500", "191411.887500", "191412.347500", "191412.807500", "191413.267500", "191413.727500", "191414.187500", "191414.647500", "191415.107500", "191415.567500", "191416.027500", "191416.487500", "191416.947500", "191417.407500", "191417.867500", "191418.327500", "191418.787500", "191419.247500", "191419.707500", "191420.167500", "191420.627500", "191421.087500", "191421.547500", "191422.007500", "191422.467500", "191422.927500", "191423.387500", "191423.847500", "191424.307500", "191424.767500", "191425.227500", "191425.687500", "191426.147500", "191426.607500", "191427.067500", "191427.527500", "191427.987500", "191428.447500", "191428.907500", "191429.367500", "191429.827500", "191430.287500", "191430.747500", "191431.207500", "191431.667500", "191432.127500", "191432.587500", "191433.047500", "191433.507500", "191433.967500", "191434.427500", "191434.887500", "191435.347500", "191435.807500", "191436.267500", "191436.727500", "191437.187500", "191437.647500", "191438.107500", "191438.567500", "191439.027500", "191439.487500", "191439.947500", "191440.407500", "191440.867500", "191441.327500", "191441.787500"],
