{
  "AcquisitionMatrixPE": 82,
  "AcquisitionNumber": 1,
  "AcquisitionTime": "18:58:37.332500",
  "BandwidthPerPixelPhaseEncode": 24.888,
  "BaseResolution": 82,
  "BodyPartExamined": "BRAIN",
  "ConsistencyInfo": "N4_VE11E_LATEST_20181129",
  "ConversionSoftware": "dcm2niix",
  "ConversionSoftwareVersion": "v1.0.20201102",
  "DerivedVendorReportedEchoSpacing": 0.00049,
  "DeviceSerialNumber": "66112",
  "DwellTime": 2e-06,
  "EchoTime": 0.0272,
  "EchoTrainLength": 82,
  "EffectiveEchoSpacing": 0.00049,
  "FlipAngle": 44,
  "ImageComments": "Unaliased MB8/PE3",
  "ImageOrientationPatientDICOM": [0.99948, -0.0280056, 0.0159619, 0.0270452, 0.997979, 0.0575028],
  "ImageType": [
    "ORIGINAL",
    "PRIMARY",
    "M",
    "MB",
    "ND",
    "NORM",
    "MOSAIC"
],
  "ImagingFrequency": 123.252,
  "InPlanePhaseEncodingDirectionDICOM": "COL",
  "InstitutionAddress": "Maynard 3,Hanover,NH,US,03755",
  "InstitutionName": "Dartmouth College - PBS",
  "InstitutionalDepartmentName": "Department",
  "MRAcquisitionType": "2D",
  "MagneticFieldStrength": 3,
  "Manufacturer": "Siemens",
  "ManufacturersModelName": "Prisma",
  "Modality": "MR",
  "MultibandAccelerationFactor": 8,
  "PartialFourier": 1,
  "PatientPosition": "HFS",
  "PercentPhaseFOV": 100,
  "PercentSampling": 100,
  "PhaseEncodingDirection": "j-",
  "PhaseEncodingSteps": 82,
  "PhaseResolution": 1,
  "PixelBandwidth": 3050,
  "ProcedureStepDescription": "Wager_Wager^1076_spacetop",
  "ProtocolName": "func_run-01_task-narratives_acq-ap-mb8",
  "PulseSequenceDetails": "%CustomerSeq%\\cmrr_mbep2d_bold",
  "ReceiveCoilActiveElements": "HEA;HEP",
  "ReceiveCoilName": "Head_32",
  "ReconMatrixPE": 82,
  "RepetitionTime": 0.46,
  "SAR": 0.0945837,
  "ScanOptions": "FS",
  "ScanningSequence": "EP",
  "SequenceName": "epfid2d1_82",
  "SequenceVariant": "SK\\SS",
  "SeriesDescription": "func_run-01_task-narratives_acq-ap-mb8",
  "SeriesNumber": 8,
  "ShimSetting": [4151, -7756, -7245, 479, -83, -227, 34, 28],
  "SliceThickness": 2.7,
  "SliceTiming": [0, 0.25, 0.0625, 0.3125, 0.125, 0.3775, 0.1875, 0, 0.25, 0.0625, 0.3125, 0.125, 0.3775, 0.1875, 0, 0.25, 0.0625, 0.3125, 0.125, 0.3775, 0.1875, 0, 0.25, 0.0625, 0.3125, 0.125, 0.3775, 0.1875, 0, 0.25, 0.0625, 0.3125, 0.125, 0.3775, 0.1875, 0, 0.25, 0.0625, 0.3125, 0.125, 0.3775, 0.1875, 0, 0.25, 0.0625, 0.3125, 0.125, 0.3775, 0.1875, 0, 0.25, 0.0625, 0.3125, 0.125, 0.3775, 0.1875],
  "SoftwareVersions": "syngo MR E11",
  "SpacingBetweenSlices": 2.7,
  "StationName": "AWP66112",
  "TaskName": "narratives",
  "TotalReadoutTime": 0.03969,
  "TxRefAmp": 290.449,
  "WipMemBlock": "9f5d509d-2c0a-49de-afec-634ae78845e3||Sequence: R016 ve11e/master r/434b28f1; Aug  7 2019 18:53:46 by eja",
  "dcmmeta_affine": [
    [-2.681532621383667, 0.07256024330854416, 0.04735806584358215, 105.52013397216797],
    [0.0751369297504425, 2.677504539489746, 0.1540112942457199, -96.87763977050781],
    [0.04282457008957863, -0.1542758047580719, 2.695188045501709, -62.554195404052734],
    [0.0, 0.0, 0.0, 1.0]
],
  "dcmmeta_reorient_transform": [
    [0.0, -1.0, 0.0, 81.0],
    [1.0, 0.0, 0.0, 0.0],
    [0.0, 0.0, 1.0, 0.0],
    [0.0, 0.0, 0.0, 1.0]
],
  "dcmmeta_shape": [82, 82, 56, 967],
  "dcmmeta_slice_dim": 2,
  "dcmmeta_version": 0.6,
  "global": {
    "const": {
      "AccessionNumber": "A003998",
      "AcquisitionMatrix": [82, 0, 0, 82],
      "AngioFlag": "N",
      "BitsAllocated": 16,
      "BitsStored": 16,
      "BodyPartExamined": "BRAIN",
      "Columns": 656,
      "EchoNumbers": 1,
      "EchoTime": 27.2,
      "EchoTrainLength": 82,
      "FlipAngle": 44.0,
      "HighBit": 15,
      "ImageOrientationPatient": [0.99948031778847, -0.0280055810794, 0.01596188528565, 0.02704518228503, 0.99797895093621, 0.0575027964835],
      "ImagePositionPatient": [-901.8221713465, -866.8797455386, -131.61834288492],
      "ImageType": [
        "ORIGINAL",
        "PRIMARY",
        "M",
        "MB",
        "ND",
        "NORM",
        "MOSAIC"
],
      "ImagedNucleus": "1H",
      "ImagingFrequency": 123.252125,
      "InPlanePhaseEncodingDirection": "COL",
      "MRAcquisitionType": "2D",
      "MagneticFieldStrength": 3.0,
      "Manufacturer": "SIEMENS",
      "ManufacturerModelName": "Prisma",
      "Modality": "MR",
      "NumberOfAverages": 1.0,
      "NumberOfPhaseEncodingSteps": 82,
      "PercentPhaseFieldOfView": 100.0,
      "PercentSampling": 100.0,
      "PerformedProcedureStepStartTime": "180522.777000",
      "PhotometricInterpretation": "MONOCHROME2",
      "PixelBandwidth": 3050.0,
      "PixelRepresentation": 0,
      "PixelSpacing": [2.6829268932343, 2.6829268932343],
      "ProtocolName": "func_run-01_task-narratives_acq-ap-mb8",
      "RepetitionTime": 460.0,
      "Rows": 656,
      "SAR": 0.09458373082754,
      "SamplesPerPixel": 1,
      "ScanOptions": "FS",
      "ScanningSequence": "EP",
      "SequenceName": "epfid2d1_82",
      "SequenceVariant": [
        "SK",
        "SS"
],
      "SeriesDescription": "func_run-01_task-narratives_acq-ap-mb8",
      "SeriesNumber": 8,
      "SeriesTime": "185849.636000",
      "SliceLocation": -66.117901588572,
      "SliceThickness": 2.7000000476837,
      "SmallestImagePixelValue": 0,
      "SoftwareVersions": "syngo MR E11",
      "SpacingBetweenSlices": 2.7000000477161,
      "SpecificCharacterSet": "ISO_IR 100",
      "StudyID": "2",
      "StudyTime": "180522.724000",
      "TransmitCoilName": "Body",
      "VariableFlipAngleFlag": "N",
      "WindowCenterWidthExplanation": "Algo1"
    },
    "slices": {}
  },
  "time": {
    "samples": {
      "AcquisitionNumber": [1, 2, 3, 4, 5, 6, 7, 8, 9, 10, 11, 12, 13, 14, 15, 16, 17, 18, 19, 20, 21, 22, 23, 24, 25, 26, 27, 28, 29, 30, 31, 32, 33, 34, 35, 36, 37, 38, 39, 40, 41, 42, 43, 44, 45, 46, 47, 48, 49, 50, 51, 52, 53, 54, 55, 56, 57, 58, 59, 60, 61, 62, 63, 64, 65, 66, 67, 68, 69, 70, 71, 72, 73, 74, 75, 76, 77, 78, 79, 80, 81, 82, 83, 84, 85, 86, 87, 88, 89, 90, 91, 92, 93, 94, 95, 96, 97, 98, 99, 100, 101, 102, 103, 104, 105, 106, 107, 108, 109, 110, 111, 112, 113, 114, 115, 116, 117, 118, 119, 120, 121, 122, 123, 124, 125, 126, 127, 128, 129, 130, 131, 132, 133, 134, 135, 136, 137, 138, 139, 140, 141, 142, 143, 144, 145, 146, 147, 148, 149, 150, 151, 152, 153, 154, 155, 156, 157, 158, 159, 160, 161, 162, 163, 164, 165, 166, 167, 168, 169, 170, 171, 172, 173, 174, 175, 176, 177, 178, 179, 180, 181, 182, 183, 184, 185, 186, 187, 188, 189, 190, 191, 192, 193, 194, 195, 196, 197, 198, 199, 200, 201, 202, 203, 204, 205, 206, 207, 208, 209, 210, 211, 212, 213, 214, 215, 216, 217, 218, 219, 220, 221, 222, 223, 224, 225, 226, 227, 228, 229, 230, 231, 232, 233, 234, 235, 236, 237, 238, 239, 240, 241, 242, 243, 244, 245, 246, 247, 248, 249, 250, 251, 252, 253, 254, 255, 256, 257, 258, 259, 260, 261, 262, 263, 264, 265, 266, 267, 268, 269, 270, 271, 272, 273, 274, 275, 276, 277, 278, 279, 280, 281, 282, 283, 284, 285, 286, 287, 288, 289, 290, 291, 292, 293, 294, 295, 296, 297, 298, 299, 300, 301, 302, 303, 304, 305, 306, 307, 308, 309, 310, 311, 312, 313, 314, 315, 316, 317, 318, 319, 320, 321, 322, 323, 324, 325, 326, 327, 328, 329, 330, 331, 332, 333, 334, 335, 336, 337, 338, 339, 340, 341, 342, 343, 344, 345, 346, 347, 348, 349, 350, 351, 352, 353, 354, 355, 356, 357, 358, 359, 360, 361, 362, 363, 364, 365, 366, 367, 368, 369, 370, 371, 372, 373, 374, 375, 376, 377, 378, 379, 380, 381, 382, 383, 384, 385, 386, 387, 388, 389, 390, 391, 392, 393, 394, 395, 396, 397, 398, 399, 400, 401, 402, 403, 404, 405, 406, 407, 408, 409, 410, 411, 412, 413, 414, 415, 416, 417, 418, 419, 420, 421, 422, 423, 424, 425, 426, 427, 428, 429, 430, 431, 432, 433, 434, 435, 436, 437, 438, 439, 440, 441, 442, 443, 444, 445, 446, 447, 448, 449, 450, 451, 452, 453, 454, 455, 456, 457, 458, 459, 460, 461, 462, 463, 464, 465, 466, 467, 468, 469, 470, 471, 472, 473, 474, 475, 476, 477, 478, 479, 480, 481, 482, 483, 484, 485, 486, 487, 488, 489, 490, 491, 492, 493, 494, 495, 496, 497, 498, 499, 500, 501, 502, 503, 504, 505, 506, 507, 508, 509, 510, 511, 512, 513, 514, 515, 516, 517, 518, 519, 520, 521, 522, 523, 524, 525, 526, 527, 528, 529, 530, 531, 532, 533, 534, 535, 536, 537, 538, 539, 540, 541, 542, 543, 544, 545, 546, 547, 548, 549, 550, 551, 552, 553, 554, 555, 556, 557, 558, 559, 560, 561, 562, 563, 564, 565, 566, 567, 568, 569, 570, 571, 572, 573, 574, 575, 576, 577, 578, 579, 580, 581, 582, 583, 584, 585, 586, 587, 588, 589, 590, 591, 592, 593, 594, 595, 596, 597, 598, 599, 600, 601, 602, 603, 604, 605, 606, 607, 608, 609, 610, 611, 612, 613, 614, 615, 616, 617, 618, 619, 620, 621, 622, 623, 624, 625, 626, 627, 628, 629, 630, 631, 632, 633, 634, 635, 636, 637, 638, 639, 640, 641, 642, 643, 644, 645, 646, 647, 648, 649, 650, 651, 652, 653, 654, 655, 656, 657, 658, 659, 660, 661, 662, 663, 664, 665, 666, 667, 668, 669, 670, 671, 672, 673, 674, 675, 676, 677, 678, 679, 680, 681, 682, 683, 684, 685, 686, 687, 688, 689, 690, 691, 692, 693, 694, 695, 696, 697, 698, 699, 700, 701, 702, 703, 704, 705, 706, 707, 708, 709, 710, 711, 712, 713, 714, 715, 716, 717, 718, 719, 720, 721, 722, 723, 724, 725, 726, 727, 728, 729, 730, 731, 732, 733, 734, 735, 736, 737, 738, 739, 740, 741, 742, 743, 744, 745, 746, 747, 748, 749, 750, 751, 752, 753, 754, 755, 756, 757, 758, 759, 760, 761, 762, 763, 764, 765, 766, 767, 768, 769, 770, 771, 772, 773, 774, 775, 776, 777, 778, 779, 780, 781, 782, 783, 784, 785, 786, 787, 788, 789, 790, 791, 792, 793, 794, 795, 796, 797, 798, 799, 800, 801, 802, 803, 804, 805, 806, 807, 808, 809, 810, 811, 812, 813, 814, 815, 816, 817, 818, 819, 820, 821, 822, 823, 824, 825, 826, 827, 828, 829, 830, 831, 832, 833, 834, 835, 836, 837, 838, 839, 840, 841, 842, 843, 844, 845, 846, 847, 848, 849, 850, 851, 852, 853, 854, 855, 856, 857, 858, 859, 860, 861, 862, 863, 864, 865, 866, 867, 868, 869, 870, 871, 872, 873, 874, 875, 876, 877, 878, 879, 880, 881, 882, 883, 884, 885, 886, 887, 888, 889, 890, 891, 892, 893, 894, 895, 896, 897, 898, 899, 900, 901, 902, 903, 904, 905, 906, 907, 908, 909, 910, 911, 912, 913, 914, 915, 916, 917, 918, 919, 920, 921, 922, 923, 924, 925, 926, 927, 928, 929, 930, 931, 932, 933, 934, 935, 936, 937, 938, 939, 940, 941, 942, 943, 944, 945, 946, 947, 948, 949, 950, 951, 952, 953, 954, 955, 956, 957, 958, 959, 960, 961, 962, 963, 964, 965, 966, 967],
      "AcquisitionTime": ["185837.332500", "185837.792500", "185838.252500", "185838.712500", "185839.172500", "185839.632500", "185840.092500", "185840.552500", "185841.012500", "185841.472500", "185841.932500", "185842.392500", "185842.852500", "185843.312500", "185843.772500", "185844.232500", "185844.692500", "185845.152500", "185845.612500", "185846.072500", "185846.532500", "185846.992500", "185847.452500", "185847.912500", "185848.372500", "185848.832500", "185849.292500", "185849.752500", "185850.212500", "185850.672500", "185851.132500", "185851.592500", "185852.052500", "185852.512500", "185852.972500", "185853.432500", "185853.892500", "185854.352500", "185854.812500", "185855.272500", "185855.732500", "185856.192500", "185856.652500", "185857.112500", "185857.572500", "185858.032500", "185858.492500", "185858.952500", "185859.412500", "185859.872500", "185900.332500", "185900.792500", "185901.252500", "185901.712500", "185902.172500", "185902.632500", "185903.092500", "185903.552500", "185904.012500", "185904.472500", "185904.932500", "185905.392500", "185905.852500", "185906.312500", "185906.772500", "185907.232500", "185907.692500", "185908.152500", "185908.612500", "185909.072500", "185909.532500", "185909.992500", "185910.452500", "185910.912500", "185911.372500", "185911.832500", "185912.292500", "185912.752500", "185913.212500", "185913.672500", "185914.132500", "185914.592500", "185915.052500", "185915.512500", "185915.972500", "185916.432500", "185916.892500", "185917.352500", "185917.812500", "185918.272500", "185918.732500", "185919.192500", "185919.652500", "185920.112500", "185920.572500", "185921.032500", "185921.492500", "185921.952500", "185922.412500", "185922.872500", "185923.332500", "185923.792500", "185924.252500", "185924.712500", "185925.172500", "185925.632500", "185926.092500", "185926.552500", "185927.012500", "185927.472500", "185927.932500", "185928.392500", "185928.852500", "185929.312500", "185929.772500", "185930.232500", "185930.692500", "185931.152500", "185931.612500", "185932.072500", "185932.532500", "185932.992500", "185933.452500", "185933.912500", "185934.372500", "185934.832500", "185935.292500", "185935.752500", "185936.212500", "185936.672500", "185937.132500", "185937.592500", "185938.052500", "185938.512500", "185938.972500", "185939.432500", "185939.892500", "185940.352500", "185940.812500", "185941.272500", "185941.732500", "185942.192500", "185942.652500", "185943.112500", "185943.572500", "185944.032500", "185944.492500", "185944.952500", "185945.412500", "185945.872500", "185946.332500", "185946.792500", "185947.252500", "185947.712500", "185948.172500", "185948.632500", "185949.092500", "185949.552500", "185950.012500", "185950.472500", "185950.932500", "185951.392500", "185951.852500", "185952.312500", "185952.772500", "185953.232500", "185953.692500", "185954.152500", "185954.612500", "185955.072500", "185955.532500", "185955.992500", "185956.452500", "185956.912500", "185957.372500", "185957.832500", "185958.292500", "185958.752500", "185959.212500", "185959.672500", "190000.132500", "190000.592500", "190001.052500", "190001.512500", "190001.972500", "190002.432500", "190002.892500", "190003.352500", "190003.812500", "190004.272500", "190004.732500", "190005.192500", "190005.652500", "190006.112500", "190006.572500", "190007.032500", "190007.492500", "190007.952500", "190008.412500", "190008.872500", "190009.332500", "190009.792500", "190010.252500", "190010.712500", "190011.172500", "190011.632500", "190012.092500", "190012.552500", "190013.012500", "190013.472500", "190013.932500", "190014.392500", "190014.852500", "190015.312500", "190015.772500", "190016.232500", "190016.692500", "190017.152500", "190017.612500", "190018.072500", "190018.532500", "190018.992500", "190019.452500", "190019.912500", "190020.372500", "190020.832500", "190021.292500", "190021.752500", "190022.212500", "190022.672500", "190023.132500", "190023.592500", "190024.052500", "190024.512500", "190024.972500", "190025.432500", "190025.892500", "190026.352500", "190026.812500", "190027.272500", "190027.732500", "190028.192500", "190028.652500", "190029.112500", "190029.572500", "190030.032500", "190030.492500", "190030.952500", "190031.412500", "190031.872500", "190032.332500", "190032.792500", "190033.252500", "190033.712500", "190034.172500", "190034.632500", "190035.092500", "190035.552500", "190036.012500", "190036.472500", "190036.932500", "190037.392500", "190037.852500", "190038.312500", "190038.772500", "190039.232500", "190039.692500", "190040.152500", "190040.612500", "190041.072500", "190041.532500", "190041.992500", "190042.452500", "190042.912500", "190043.372500", "190043.832500", "190044.292500", "190044.752500", "190045.212500", "190045.672500", "190046.132500", "190046.592500", "190047.052500", "190047.512500", "190047.972500", "190048.432500", "190048.892500", "190049.352500", "190049.812500", "190050.272500", "190050.732500", "190051.192500", "190051.652500", "190052.112500", "190052.572500", "190053.032500", "190053.492500", "190053.952500", "190054.412500", "190054.872500", "190055.332500", "190055.792500", "190056.252500", "190056.712500", "190057.172500", "190057.632500", "190058.092500", "190058.552500", "190059.012500", "190059.472500", "190059.932500", "190100.392500", "190100.852500", "190101.312500", "190101.772500", "190102.232500", "190102.692500", "190103.152500", "190103.612500", "190104.072500", "190104.532500", "190104.992500", "190105.452500", "190105.912500", "190106.372500", "190106.832500", "190107.292500", "190107.752500", "190108.212500", "190108.672500", "190109.132500", "190109.592500", "190110.052500", "190110.512500", "190110.972500", "190111.432500", "190111.892500", "190112.352500", "190112.812500", "190113.272500", "190113.732500", "190114.192500", "190114.652500", "190115.112500", "190115.572500", "190116.032500", "190116.492500", "190116.952500", "190117.412500", "190117.872500", "190118.332500", "190118.792500", "190119.252500", "190119.712500", "190120.172500", "190120.632500", "190121.092500", "190121.552500", "190122.012500", "190122.472500", "190122.932500", "190123.392500", "190123.852500", "190124.312500", "190124.772500", "190125.232500", "190125.692500", "190126.152500", "190126.612500", "190127.072500", "190127.532500", "190127.992500", "190128.452500", "190128.912500", "190129.372500", "190129.832500", "190130.292500", "190130.752500", "190131.212500", "190131.672500", "190132.132500", "190132.592500", "190133.052500", "190133.512500", "190133.972500", "190134.432500", "190134.892500", "190135.352500", "190135.812500", "190136.272500", "190136.732500", "190137.192500", "190137.652500", "190138.112500", "190138.572500", "190139.032500", "190139.492500", "190139.952500", "190140.412500", "190140.872500", "190141.332500", "190141.792500", "190142.252500", "190142.712500", "190143.172500", "190143.632500", "190144.092500", "190144.552500", "190145.012500", "190145.472500", "190145.932500", "190146.392500", "190146.852500", "190147.312500", "190147.772500", "190148.232500", "190148.692500", "190149.152500", "190149.612500", "190150.072500", "190150.532500", "190150.992500", "190151.452500", "190151.912500", "190152.372500", "190152.832500", "190153.292500", "190153.752500", "190154.212500", "190154.672500", "190155.132500", "190155.592500", "190156.052500", "190156.512500", "190156.972500", "190157.432500", "190157.892500", "190158.352500", "190158.812500", "190159.272500", "190159.732500", "190200.192500", "190200.652500", "190201.112500", "190201.572500", "190202.032500", "190202.492500", "190202.952500", "190203.412500", "190203.872500", "190204.332500", "190204.792500", "190205.252500", "190205.712500", "190206.172500", "190206.632500", "190207.092500", "190207.552500", "190208.012500", "190208.472500", "190208.932500", "190209.392500", "190209.852500", "190210.312500", "190210.772500", "190211.232500", "190211.692500", "190212.152500", "190212.612500", "190213.072500", "190213.532500", "190213.992500", "190214.452500", "190214.912500", "190215.372500", "190215.832500", "190216.292500", "190216.752500", "190217.212500", "190217.672500", "190218.132500", "190218.592500", "190219.052500", "190219.512500", "190219.972500", "190220.432500", "190220.892500", "190221.352500", "190221.812500", "190222.272500", "190222.732500", "190223.192500", "190223.652500", "190224.112500", "190224.572500", "190225.032500", "190225.492500", "190225.952500", "190226.412500", "190226.872500", "190227.332500", "190227.792500", "190228.252500", "190228.712500", "190229.172500", "190229.632500", "190230.092500", "190230.552500", "190231.012500", "190231.472500", "190231.932500", "190232.392500", "190232.852500", "190233.312500", "190233.772500", "190234.232500", "190234.692500", "190235.152500", "190235.612500", "190236.072500", "190236.532500", "190236.992500", "190237.452500", "190237.912500", "190238.372500", "190238.832500", "190239.292500", "190239.752500", "190240.212500", "190240.672500", "190241.132500", "190241.592500", "190242.052500", "190242.512500", "190242.972500", "190243.432500", "190243.892500", "190244.352500", "190244.812500", "190245.272500", "190245.732500", "190246.192500", "190246.652500", "190247.112500", "190247.572500", "190248.032500", "190248.492500", "190248.952500", "190249.412500", "190249.872500", "190250.332500", "190250.792500", "190251.252500", "190251.712500", "190252.172500", "190252.632500", "190253.092500", "190253.552500", "190254.012500", "190254.472500", "190254.932500", "190255.392500", "190255.852500", "190256.312500", "190256.772500", "190257.232500", "190257.692500", "190258.152500", "190258.612500", "190259.072500", "190259.532500", "190259.992500", "190300.452500", "190300.912500", "190301.372500", "190301.832500", "190302.292500", "190302.752500", "190303.212500", "190303.672500", "190304.132500", "190304.592500", "190305.052500", "190305.512500", "190305.972500", "190306.432500", "190306.892500", "190307.352500", "190307.812500", "190308.272500", "190308.732500", "190309.192500", "190309.652500", "190310.112500", "190310.572500", "190311.032500", "190311.492500", "190311.952500", "190312.412500", "190312.872500", "190313.332500", "190313.792500", "190314.252500", "190314.712500", "190315.172500", "190315.632500", "190316.092500", "190316.552500", "190317.012500", "190317.472500", "190317.932500", "190318.392500", "190318.852500", "190319.312500", "190319.772500", "190320.232500", "190320.692500", "190321.152500", "190321.612500", "190322.072500", "190322.532500", "190322.992500", "190323.452500", "190323.912500", "190324.372500", "190324.832500", "190325.292500", "190325.752500", "190326.212500", "190326.672500", "190327.132500", "190327.592500", "190328.052500", "190328.512500", "190328.972500", "190329.432500", "190329.892500", "190330.352500", "190330.812500", "190331.272500", "190331.732500", "190332.192500", "190332.652500", "190333.112500", "190333.572500", "190334.032500", "190334.492500", "190334.952500", "190335.412500", "190335.872500", "190336.332500", "190336.792500", "190337.252500", "190337.712500", "190338.172500", "190338.632500", "190339.092500", "190339.552500", "190340.012500", "190340.472500", "190340.932500", "190341.392500", "190341.852500", "190342.312500", "190342.772500", "190343.232500", "190343.692500", "190344.152500", "190344.612500", "190345.072500", "190345.532500", "190345.992500", "190346.452500", "190346.912500", "190347.372500", "190347.832500", "190348.292500", "190348.752500", "190349.212500", "190349.672500", "190350.132500", "190350.592500", "190351.052500", "190351.512500", "190351.972500", "190352.432500", "190352.892500", "190353.352500", "190353.812500", "190354.272500", "190354.732500", "190355.192500", "190355.652500", "190356.112500", "190356.572500", "190357.032500", "190357.492500", "190357.952500", "190358.412500", "190358.872500", "190359.332500", "190359.792500", "190400.252500", "190400.712500", "190401.172500", "190401.632500", "190402.092500", "190402.552500", "190403.012500", "190403.472500", "190403.932500", "190404.392500", "190404.852500", "190405.312500", "190405.772500", "190406.232500", "190406.692500", "190407.152500", "190407.612500", "190408.072500", "190408.532500", "190408.992500", "190409.452500", "190409.912500", "190410.372500", "190410.832500", "190411.292500", "190411.752500", "190412.212500", "190412.672500", "190413.132500", "190413.592500", "190414.052500", "190414.512500", "190414.972500", "190415.432500", "190415.892500", "190416.352500", "190416.812500", "190417.272500", "190417.732500", "190418.192500", "190418.652500", "190419.112500", "190419.572500", "190420.032500", "190420.492500", "190420.952500", "190421.412500", "190421.872500", "190422.332500", "190422.792500", "190423.252500", "190423.712500", "190424.172500", "190424.632500", "190425.092500", "190425.552500", "190426.012500", "190426.472500", "190426.932500", "190427.392500", "190427.852500", "190428.312500", "190428.772500", "190429.232500", "190429.692500", "190430.152500", "190430.612500", "190431.072500", "190431.532500", "190431.992500", "190432.452500", "190432.912500", "190433.372500", "190433.832500", "190434.292500", "190434.752500", "190435.212500", "190435.672500", "190436.132500", "190436.592500", "190437.052500", "190437.512500", "190437.972500", "190438.432500", "190438.892500", "190439.352500", "190439.812500", "190440.272500", "190440.732500", "190441.192500", "190441.652500", "190442.112500", "190442.572500", "190443.032500", "190443.492500", "190443.952500", "190444.412500", "190444.872500", "190445.332500", "190445.792500", "190446.252500", "190446.712500", "190447.172500", "190447.632500", "190448.092500", "190448.552500", "190449.012500", "190449.472500", "190449.932500", "190450.392500", "190450.852500", "190451.312500", "190451.772500", "190452.232500", "190452.692500", "190453.152500", "190453.612500", "190454.072500", "190454.532500", "190454.992500", "190455.452500", "190455.912500", "190456.372500", "190456.832500", "190457.292500", "190457.752500", "190458.212500", "190458.672500", "190459.132500", "190459.592500", "190500.052500", "190500.512500", "190500.972500", "190501.432500", "190501.892500", "190502.352500", "190502.812500", "190503.272500", "190503.732500", "190504.192500", "190504.652500", "190505.112500", "190505.572500", "190506.032500", "190506.492500", "190506.952500", "190507.412500", "190507.872500", "190508.332500", "190508.792500", "190509.252500", "190509.712500", "190510.172500", "190510.632500", "190511.092500", "190511.552500", "190512.012500", "190512.472500", "190512.932500", "190513.392500", "190513.852500", "190514.312500", "190514.772500", "190515.232500", "190515.692500", "190516.152500", "190516.612500", "190517.072500", "190517.532500", "190517.992500", "190518.452500", "190518.912500", "190519.372500", "190519.832500", "190520.292500", "190520.752500", "190521.212500", "190521.672500", "190522.132500", "190522.592500", "190523.052500", "190523.512500", "190523.972500", "190524.432500", "190524.892500", "190525.352500", "190525.812500", "190526.272500", "190526.732500", "190527.192500", "190527.652500", "190528.112500", "190528.572500", "190529.032500", "190529.492500", "190529.952500", "190530.412500", "190530.872500", "190531.332500", "190531.792500", "190532.252500", "190532.712500", "190533.172500", "190533.632500", "190534.092500", "190534.552500", "190535.012500", "190535.472500", "190535.932500", "190536.392500", "190536.852500", "190537.312500", "190537.772500", "190538.232500", "190538.692500", "190539.152500", "190539.612500", "190540.072500", "190540.532500", "190540.992500", "190541.452500", "190541.912500", "190542.372500", "190542.832500", "190543.292500", "190543.752500", "190544.212500", "190544.672500", "190545.132500", "190545.592500", "190546.052500", "190546.512500", "190546.972500", "190547.432500", "190547.892500", "190548.352500", "190548.812500", "190549.272500", "190549.732500", "190550.192500", "190550.652500", "190551.112500", "190551.572500", "190552.032500", "190552.492500", "190552.952500", "190553.412500", "190553.872500", "190554.332500", "190554.792500", "190555.252500", "190555.712500", "190556.172500", "190556.632500", "190557.092500", "190557.552500", "190558.012500", "190558.472500", "190558.932500", "190559.392500", "190559.852500", "190600.312500", "190600.772500", "190601.232500", "190601.692500"],
