{
  "AcquisitionMatrixPE": 82,
  "AcquisitionNumber": 1,
  "AcquisitionTime": "19:42:49.705000",
  "BandwidthPerPixelPhaseEncode": 24.888,
  "BaseResolution": 82,
  "BodyPartExamined": "BRAIN",
  "ConsistencyInfo": "N4_VE11E_LATEST_20181129",
  "ConversionSoftware": "dcm2niix",
  "ConversionSoftwareVersion": "v1.0.20201102",
  "DerivedVendorReportedEchoSpacing": 0.00049,
  "DeviceSerialNumber": "66112",
  "DwellTime": 2e-06,
  "EchoTime": 0.0272,
  "EchoTrainLength": 82,
  "EffectiveEchoSpacing": 0.00049,
  "FlipAngle": 44,
  "ImageComments": "Unaliased MB8/PE3",
  "ImageOrientationPatientDICOM": [0.99948, -0.0280056, 0.0159619, 0.0270452, 0.997979, 0.0575028],
  "ImageType": [
    "ORIGINAL",
    "PRIMARY",
    "M",
    "MB",
    "ND",
    "NORM",
    "MOSAIC"
],
  "ImagingFrequency": 123.252,
  "InPlanePhaseEncodingDirectionDICOM": "COL",
  "InstitutionAddress": "Maynard 3,Hanover,NH,US,03755",
  "InstitutionName": "Dartmouth College - PBS",
  "InstitutionalDepartmentName": "Department",
  "MRAcquisitionType": "2D",
  "MagneticFieldStrength": 3,
  "Manufacturer": "Siemens",
  "ManufacturersModelName": "Prisma",
  "Modality": "MR",
  "MultibandAccelerationFactor": 8,
  "PartialFourier": 1,
  "PatientPosition": "HFS",
  "PercentPhaseFOV": 100,
  "PercentSampling": 100,
  "PhaseEncodingDirection": "j-",
  "PhaseEncodingSteps": 82,
  "PhaseResolution": 1,
  "PixelBandwidth": 3050,
  "ProcedureStepDescription": "Wager_Wager^1076_spacetop",
  "ProtocolName": "func_run-02_task-faces_acq-ap-mb8",
  "PulseSequenceDetails": "%CustomerSeq%\\cmrr_mbep2d_bold",
  "ReceiveCoilActiveElements": "HEA;HEP",
  "ReceiveCoilName": "Head_32",
  "ReconMatrixPE": 82,
  "RepetitionTime": 0.46,
  "SAR": 0.094553,
  "ScanOptions": "FS",
  "ScanningSequence": "EP",
  "SequenceName": "epfid2d1_82",
  "SequenceVariant": "SK\\SS",
  "SeriesDescription": "func_run-02_task-faces_acq-ap-mb8",
  "SeriesNumber": 18,
  "ShimSetting": [4151, -7756, -7245, 479, -83, -227, 34, 28],
  "SliceThickness": 2.7,
  "SliceTiming": [0, 0.25, 0.0625, 0.315, 0.125, 0.3775, 0.1875, 0, 0.25, 0.0625, 0.315, 0.125, 0.3775, 0.1875, 0, 0.25, 0.0625, 0.315, 0.125, 0.3775, 0.1875, 0, 0.25, 0.0625, 0.315, 0.125, 0.3775, 0.1875, 0, 0.25, 0.0625, 0.315, 0.125, 0.3775, 0.1875, 0, 0.25, 0.0625, 0.315, 0.125, 0.3775, 0.1875, 0, 0.25, 0.0625, 0.315, 0.125, 0.3775, 0.1875, 0, 0.25, 0.0625, 0.315, 0.125, 0.3775, 0.1875],
  "SoftwareVersions": "syngo MR E11",
  "SpacingBetweenSlices": 2.7,
  "StationName": "AWP66112",
  "TaskName": "faces",
  "TotalReadoutTime": 0.03969,
  "TxRefAmp": 290.449,
  "WipMemBlock": "a3b63c4f-2345-4bb1-b79a-ba858d660a94||Sequence: R016 ve11e/master r/434b28f1; Aug  7 2019 18:53:46 by eja",
  "dcmmeta_affine": [
    [-2.681532621383667, 0.07256024330854416, 0.04735806584358215, 105.52013397216797],
    [0.0751369297504425, 2.677504539489746, 0.1540112942457199, -96.87763977050781],
    [0.04282457008957863, -0.1542758047580719, 2.695188045501709, -62.554195404052734],
    [0.0, 0.0, 0.0, 1.0]
],
  "dcmmeta_reorient_transform": [
    [0.0, -1.0, 0.0, 81.0],
    [1.0, 0.0, 0.0, 0.0],
    [0.0, 0.0, 1.0, 0.0],
    [0.0, 0.0, 0.0, 1.0]
],
  "dcmmeta_shape": [82, 82, 56, 914],
  "dcmmeta_slice_dim": 2,
  "dcmmeta_version": 0.6,
  "global": {
    "const": {
      "AccessionNumber": "A003998",
      "AcquisitionMatrix": [82, 0, 0, 82],
      "AngioFlag": "N",
      "BitsAllocated": 16,
      "BitsStored": 16,
      "BodyPartExamined": "BRAIN",
      "Columns": 656,
      "EchoNumbers": 1,
      "EchoTime": 27.2,
      "EchoTrainLength": 82,
      "FlipAngle": 44.0,
      "HighBit": 15,
      "ImageOrientationPatient": [0.99948031778847, -0.0280055810794, 0.01596188528565, 0.02704518228503, 0.99797895093621, 0.0575027964835],
      "ImagePositionPatient": [-901.8221713465, -866.8797455386, -131.61834288492],
      "ImageType": [
        "ORIGINAL",
        "PRIMARY",
        "M",
        "MB",
        "ND",
        "NORM",
        "MOSAIC"
],
      "ImagedNucleus": "1H",
      "ImagingFrequency": 123.25215,
      "InPlanePhaseEncodingDirection": "COL",
      "MRAcquisitionType": "2D",
      "MagneticFieldStrength": 3.0,
      "Manufacturer": "SIEMENS",
      "ManufacturerModelName": "Prisma",
      "Modality": "MR",
      "NumberOfAverages": 1.0,
      "NumberOfPhaseEncodingSteps": 82,
      "PercentPhaseFieldOfView": 100.0,
      "PercentSampling": 100.0,
      "PerformedProcedureStepStartTime": "180522.777000",
      "PhotometricInterpretation": "MONOCHROME2",
      "PixelBandwidth": 3050.0,
      "PixelRepresentation": 0,
      "PixelSpacing": [2.6829268932343, 2.6829268932343],
      "ProtocolName": "func_run-02_task-faces_acq-ap-mb8",
      "RepetitionTime": 460.0,
      "Rows": 656,
      "SAR": 0.09455298296785,
      "SamplesPerPixel": 1,
      "ScanOptions": "FS",
      "ScanningSequence": "EP",
      "SequenceName": "epfid2d1_82",
      "SequenceVariant": [
        "SK",
        "SS"
],
      "SeriesDescription": "func_run-02_task-faces_acq-ap-mb8",
      "SeriesNumber": 18,
      "SeriesTime": "194309.561000",
      "SliceLocation": -66.117901588572,
      "SliceThickness": 2.7000000476837,
      "SmallestImagePixelValue": 0,
      "SoftwareVersions": "syngo MR E11",
      "SpacingBetweenSlices": 2.7000000477161,
      "SpecificCharacterSet": "ISO_IR 100",
      "StudyID": "2",
      "StudyTime": "180522.724000",
      "TransmitCoilName": "Body",
      "VariableFlipAngleFlag": "N",
      "WindowCenterWidthExplanation": "Algo1"
    },
    "slices": {}
  },
  "time": {
    "samples": {
      "AcquisitionNumber": [1, 2, 3, 4, 5, 6, 7, 8, 9, 10, 11, 12, 13, 14, 15, 16, 17, 18, 19, 20, 21, 22, 23, 24, 25, 26, 27, 28, 29, 30, 31, 32, 33, 34, 35, 36, 37, 38, 39, 40, 41, 42, 43, 44, 45, 46, 47, 48, 49, 50, 51, 52, 53, 54, 55, 56, 57, 58, 59, 60, 61, 62, 63, 64, 65, 66, 67, 68, 69, 70, 71, 72, 73, 74, 75, 76, 77, 78, 79, 80, 81, 82, 83, 84, 85, 86, 87, 88, 89, 90, 91, 92, 93, 94, 95, 96, 97, 98, 99, 100, 101, 102, 103, 104, 105, 106, 107, 108, 109, 110, 111, 112, 113, 114, 115, 116, 117, 118, 119, 120, 121, 122, 123, 124, 125, 126, 127, 128, 129, 130, 131, 132, 133, 134, 135, 136, 137, 138, 139, 140, 141, 142, 143, 144, 145, 146, 147, 148, 149, 150, 151, 152, 153, 154, 155, 156, 157, 158, 159, 160, 161, 162, 163, 164, 165, 166, 167, 168, 169, 170, 171, 172, 173, 174, 175, 176, 177, 178, 179, 180, 181, 182, 183, 184, 185, 186, 187, 188, 189, 190, 191, 192, 193, 194, 195, 196, 197, 198, 199, 200, 201, 202, 203, 204, 205, 206, 207, 208, 209, 210, 211, 212, 213, 214, 215, 216, 217, 218, 219, 220, 221, 222, 223, 224, 225, 226, 227, 228, 229, 230, 231, 232, 233, 234, 235, 236, 237, 238, 239, 240, 241, 242, 243, 244, 245, 246, 247, 248, 249, 250, 251, 252, 253, 254, 255, 256, 257, 258, 259, 260, 261, 262, 263, 264, 265, 266, 267, 268, 269, 270, 271, 272, 273, 274, 275, 276, 277, 278, 279, 280, 281, 282, 283, 284, 285, 286, 287, 288, 289, 290, 291, 292, 293, 294, 295, 296, 297, 298, 299, 300, 301, 302, 303, 304, 305, 306, 307, 308, 309, 310, 311, 312, 313, 314, 315, 316, 317, 318, 319, 320, 321, 322, 323, 324, 325, 326, 327, 328, 329, 330, 331, 332, 333, 334, 335, 336, 337, 338, 339, 340, 341, 342, 343, 344, 345, 346, 347, 348, 349, 350, 351, 352, 353, 354, 355, 356, 357, 358, 359, 360, 361, 362, 363, 364, 365, 366, 367, 368, 369, 370, 371, 372, 373, 374, 375, 376, 377, 378, 379, 380, 381, 382, 383, 384, 385, 386, 387, 388, 389, 390, 391, 392, 393, 394, 395, 396, 397, 398, 399, 400, 401, 402, 403, 404, 405, 406, 407, 408, 409, 410, 411, 412, 413, 414, 415, 416, 417, 418, 419, 420, 421, 422, 423, 424, 425, 426, 427, 428, 429, 430, 431, 432, 433, 434, 435, 436, 437, 438, 439, 440, 441, 442, 443, 444, 445, 446, 447, 448, 449, 450, 451, 452, 453, 454, 455, 456, 457, 458, 459, 460, 461, 462, 463, 464, 465, 466, 467, 468, 469, 470, 471, 472, 473, 474, 475, 476, 477, 478, 479, 480, 481, 482, 483, 484, 485, 486, 487, 488, 489, 490, 491, 492, 493, 494, 495, 496, 497, 498, 499, 500, 501, 502, 503, 504, 505, 506, 507, 508, 509, 510, 511, 512, 513, 514, 515, 516, 517, 518, 519, 520, 521, 522, 523, 524, 525, 526, 527, 528, 529, 530, 531, 532, 533, 534, 535, 536, 537, 538, 539, 540, 541, 542, 543, 544, 545, 546, 547, 548, 549, 550, 551, 552, 553, 554, 555, 556, 557, 558, 559, 560, 561, 562, 563, 564, 565, 566, 567, 568, 569, 570, 571, 572, 573, 574, 575, 576, 577, 578, 579, 580, 581, 582, 583, 584, 585, 586, 587, 588, 589, 590, 591, 592, 593, 594, 595, 596, 597, 598, 599, 600, 601, 602, 603, 604, 605, 606, 607, 608, 609, 610, 611, 612, 613, 614, 615, 616, 617, 618, 619, 620, 621, 622, 623, 624, 625, 626, 627, 628, 629, 630, 631, 632, 633, 634, 635, 636, 637, 638, 639, 640, 641, 642, 643, 644, 645, 646, 647, 648, 649, 650, 651, 652, 653, 654, 655, 656, 657, 658, 659, 660, 661, 662, 663, 664, 665, 666, 667, 668, 669, 670, 671, 672, 673, 674, 675, 676, 677, 678, 679, 680, 681, 682, 683, 684, 685, 686, 687, 688, 689, 690, 691, 692, 693, 694, 695, 696, 697, 698, 699, 700, 701, 702, 703, 704, 705, 706, 707, 708, 709, 710, 711, 712, 713, 714, 715, 716, 717, 718, 719, 720, 721, 722, 723, 724, 725, 726, 727, 728, 729, 730, 731, 732, 733, 734, 735, 736, 737, 738, 739, 740, 741, 742, 743, 744, 745, 746, 747, 748, 749, 750, 751, 752, 753, 754, 755, 756, 757, 758, 759, 760, 761, 762, 763, 764, 765, 766, 767, 768, 769, 770, 771, 772, 773, 774, 775, 776, 777, 778, 779, 780, 781, 782, 783, 784, 785, 786, 787, 788, 789, 790, 791, 792, 793, 794, 795, 796, 797, 798, 799, 800, 801, 802, 803, 804, 805, 806, 807, 808, 809, 810, 811, 812, 813, 814, 815, 816, 817, 818, 819, 820, 821, 822, 823, 824, 825, 826, 827, 828, 829, 830, 831, 832, 833, 834, 835, 836, 837, 838, 839, 840, 841, 842, 843, 844, 845, 846, 847, 848, 849, 850, 851, 852, 853, 854, 855, 856, 857, 858, 859, 860, 861, 862, 863, 864, 865, 866, 867, 868, 869, 870, 871, 872, 873, 874, 875, 876, 877, 878, 879, 880, 881, 882, 883, 884, 885, 886, 887, 888, 889, 890, 891, 892, 893, 894, 895, 896, 897, 898, 899, 900, 901, 902, 903, 904, 905, 906, 907, 908, 909, 910, 911, 912, 913, 914],
      "AcquisitionTime": ["194249.705000", "194250.165000", "194250.625000", "194251.085000", "194251.545000", "194252.005000", "194252.465000", "194252.925000", "194253.385000", "194253.845000", "194254.305000", "194254.765000", "194255.225000", "194255.685000", "194256.145000", "194256.605000", "194257.065000", "194257.525000", "194257.985000", "194258.445000", "194258.905000", "194259.365000", "194259.825000", "194300.285000", "194300.745000", "194301.205000", "194301.665000", "194302.125000", "194302.585000", "194303.045000", "194303.505000", "194303.965000", "194304.425000", "194304.885000", "194305.345000", "194305.805000", "194306.265000", "194306.725000", "194307.185000", "194307.645000", "194308.105000", "194308.565000", "194309.025000", "194309.485000", "194309.945000", "194310.405000", "194310.865000", "194311.325000", "194311.785000", "194312.245000", "194312.705000", "194313.165000", "194313.625000", "194314.085000", "194314.545000", "194315.005000", "194315.465000", "194315.925000", "194316.385000", "194316.845000", "194317.305000", "194317.765000", "194318.225000", "194318.685000", "194319.145000", "194319.605000", "194320.065000", "194320.525000", "194320.985000", "194321.445000", "194321.905000", "194322.365000", "194322.825000", "194323.285000", "194323.745000", "194324.205000", "194324.665000", "194325.125000", "194325.585000", "194326.045000", "194326.505000", "194326.965000", "194327.425000", "194327.885000", "194328.345000", "194328.805000", "194329.265000", "194329.725000", "194330.185000", "194330.645000", "194331.105000", "194331.565000", "194332.025000", "194332.485000", "194332.945000", "194333.405000", "194333.865000", "194334.325000", "194334.785000", "194335.245000", "194335.705000", "194336.165000", "194336.625000", "194337.085000", "194337.545000", "194338.005000", "194338.465000", "194338.925000", "194339.385000", "194339.845000", "194340.305000", "194340.765000", "194341.225000", "194341.685000", "194342.145000", "194342.605000", "194343.065000", "194343.525000", "194343.985000", "194344.445000", "194344.905000", "194345.365000", "194345.825000", "194346.285000", "194346.745000", "194347.205000", "194347.665000", "194348.125000", "194348.585000", "194349.045000", "194349.505000", "194349.965000", "194350.425000", "194350.885000", "194351.345000", "194351.805000", "194352.265000", "194352.725000", "194353.185000", "194353.645000", "194354.105000", "194354.565000", "194355.025000", "194355.485000", "194355.945000", "194356.405000", "194356.865000", "194357.325000", "194357.785000", "194358.245000", "194358.705000", "194359.165000", "194359.625000", "194400.085000", "194400.545000", "194401.005000", "194401.465000", "194401.925000", "194402.385000", "194402.845000", "194403.305000", "194403.765000", "194404.225000", "194404.685000", "194405.145000", "194405.605000", "194406.065000", "194406.525000", "194406.985000", "194407.445000", "194407.905000", "194408.365000", "194408.825000", "194409.285000", "194409.745000", "194410.205000", "194410.665000", "194411.125000", "194411.585000", "194412.045000", "194412.505000", "194412.965000", "194413.425000", "194413.885000", "194414.345000", "194414.805000", "194415.265000", "194415.725000", "194416.185000", "194416.645000", "194417.105000", "194417.565000", "194418.025000", "194418.485000", "194418.945000", "194419.405000", "194419.865000", "194420.325000", "194420.785000", "194421.245000", "194421.705000", "194422.165000", "194422.625000", "194423.085000", "194423.545000", "194424.005000", "194424.465000", "194424.925000", "194425.385000", "194425.845000", "194426.305000", "194426.765000", "194427.225000", "194427.685000", "194428.145000", "194428.605000", "194429.065000", "194429.525000", "194429.985000", "194430.445000", "194430.905000", "194431.365000", "194431.825000", "194432.285000", "194432.745000", "194433.205000", "194433.665000", "194434.125000", "194434.585000", "194435.045000", "194435.505000", "194435.965000", "194436.425000", "194436.885000", "194437.345000", "194437.805000", "194438.265000", "194438.725000", "194439.185000", "194439.645000", "194440.105000", "194440.565000", "194441.025000", "194441.485000", "194441.945000", "194442.405000", "194442.865000", "194443.325000", "194443.785000", "194444.245000", "194444.705000", "194445.165000", "194445.625000", "194446.085000", "194446.545000", "194447.005000", "194447.465000", "194447.925000", "194448.385000", "194448.845000", "194449.305000", "194449.765000", "194450.225000", "194450.685000", "194451.145000", "194451.605000", "194452.065000", "194452.525000", "194452.985000", "194453.445000", "194453.905000", "194454.365000", "194454.825000", "194455.285000", "194455.745000", "194456.205000", "194456.665000", "194457.125000", "194457.585000", "194458.045000", "194458.505000", "194458.965000", "194459.425000", "194459.885000", "194500.345000", "194500.805000", "194501.265000", "194501.725000", "194502.185000", "194502.645000", "194503.105000", "194503.565000", "194504.025000", "194504.485000", "194504.945000", "194505.405000", "194505.865000", "194506.325000", "194506.785000", "194507.245000", "194507.705000", "194508.165000", "194508.625000", "194509.085000", "194509.545000", "194510.005000", "194510.465000", "194510.925000", "194511.385000", "194511.845000", "194512.305000", "194512.765000", "194513.225000", "194513.685000", "194514.145000", "194514.605000", "194515.065000", "194515.525000", "194515.985000", "194516.445000", "194516.905000", "194517.365000", "194517.825000", "194518.285000", "194518.745000", "194519.205000", "194519.665000", "194520.125000", "194520.585000", "194521.045000", "194521.505000", "194521.965000", "194522.425000", "194522.885000", "194523.345000", "194523.805000", "194524.265000", "194524.725000", "194525.185000", "194525.645000", "194526.105000", "194526.565000", "194527.025000", "194527.485000", "194527.945000", "194528.405000", "194528.865000", "194529.325000", "194529.785000", "194530.245000", "194530.705000", "194531.165000", "194531.625000", "194532.085000", "194532.545000", "194533.005000", "194533.465000", "194533.925000", "194534.385000", "194534.845000", "194535.305000", "194535.765000", "194536.225000", "194536.685000", "194537.145000", "194537.605000", "194538.065000", "194538.525000", "194538.985000", "194539.445000", "194539.905000", "194540.365000", "194540.825000", "194541.285000", "194541.745000", "194542.205000", "194542.665000", "194543.125000", "194543.585000", "194544.045000", "194544.505000", "194544.965000", "194545.425000", "194545.885000", "194546.345000", "194546.805000", "194547.265000", "194547.725000", "194548.185000", "194548.645000", "194549.105000", "194549.565000", "194550.025000", "194550.485000", "194550.945000", "194551.405000", "194551.865000", "194552.325000", "194552.785000", "194553.245000", "194553.705000", "194554.165000", "194554.625000", "194555.085000", "194555.545000", "194556.005000", "194556.465000", "194556.925000", "194557.385000", "194557.845000", "194558.305000", "194558.765000", "194559.225000", "194559.685000", "194600.145000", "194600.605000", "194601.065000", "194601.525000", "194601.985000", "194602.445000", "194602.905000", "194603.365000", "194603.825000", "194604.285000", "194604.745000", "194605.205000", "194605.665000", "194606.125000", "194606.585000", "194607.045000", "194607.505000", "194607.965000", "194608.425000", "194608.885000", "194609.345000", "194609.805000", "194610.265000", "194610.725000", "194611.185000", "194611.645000", "194612.105000", "194612.565000", "194613.025000", "194613.485000", "194613.945000", "194614.405000", "194614.865000", "194615.325000", "194615.785000", "194616.245000", "194616.705000", "194617.165000", "194617.625000", "194618.085000", "194618.545000", "194619.005000", "194619.465000", "194619.925000", "194620.385000", "194620.845000", "194621.305000", "194621.765000", "194622.225000", "194622.685000", "194623.145000", "194623.605000", "194624.065000", "194624.525000", "194624.985000", "194625.445000", "194625.905000", "194626.365000", "194626.825000", "194627.285000", "194627.745000", "194628.205000", "194628.665000", "194629.125000", "194629.585000", "194630.045000", "194630.505000", "194630.965000", "194631.425000", "194631.885000", "194632.345000", "194632.805000", "194633.265000", "194633.725000", "194634.185000", "194634.645000", "194635.105000", "194635.565000", "194636.025000", "194636.485000", "194636.945000", "194637.405000", "194637.865000", "194638.325000", "194638.785000", "194639.245000", "194639.705000", "194640.165000", "194640.625000", "194641.085000", "194641.545000", "194642.005000", "194642.465000", "194642.925000", "194643.385000", "194643.845000", "194644.305000", "194644.765000", "194645.225000", "194645.685000", "194646.145000", "194646.605000", "194647.065000", "194647.525000", "194647.985000", "194648.445000", "194648.905000", "194649.365000", "194649.825000", "194650.285000", "194650.745000", "194651.205000", "194651.665000", "194652.125000", "194652.585000", "194653.045000", "194653.505000", "194653.965000", "194654.425000", "194654.885000", "194655.345000", "194655.805000", "194656.265000", "194656.725000", "194657.185000", "194657.645000", "194658.105000", "194658.565000", "194659.025000", "194659.485000", "194659.945000", "194700.405000", "194700.865000", "194701.325000", "194701.785000", "194702.245000", "194702.705000", "194703.165000", "194703.625000", "194704.085000", "194704.545000", "194705.005000", "194705.465000", "194705.925000", "194706.385000", "194706.845000", "194707.305000", "194707.765000", "194708.225000", "194708.685000", "194709.145000", "194709.605000", "194710.065000", "194710.525000", "194710.985000", "194711.445000", "194711.905000", "194712.365000", "194712.825000", "194713.285000", "194713.745000", "194714.205000", "194714.665000", "194715.125000", "194715.585000", "194716.045000", "194716.505000", "194716.965000", "194717.425000", "194717.885000", "194718.345000", "194718.805000", "194719.265000", "194719.725000", "194720.185000", "194720.645000", "194721.105000", "194721.565000", "194722.025000", "194722.485000", "194722.945000", "194723.405000", "194723.865000", "194724.325000", "194724.785000", "194725.245000", "194725.705000", "194726.165000", "194726.625000", "194727.085000", "194727.545000", "194728.005000", "194728.465000", "194728.925000", "194729.385000", "194729.845000", "194730.305000", "194730.765000", "194731.225000", "194731.685000", "194732.145000", "194732.605000", "194733.065000", "194733.525000", "194733.985000", "194734.445000", "194734.905000", "194735.365000", "194735.825000", "194736.285000", "194736.745000", "194737.205000", "194737.665000", "194738.125000", "194738.585000", "194739.045000", "194739.505000", "194739.965000", "194740.425000", "194740.885000", "194741.345000", "194741.805000", "194742.265000", "194742.725000", "194743.185000", "194743.645000", "194744.105000", "194744.565000", "194745.025000", "194745.485000", "194745.945000", "194746.405000", "194746.865000", "194747.325000", "194747.785000", "194748.245000", "194748.705000", "194749.165000", "194749.625000", "194750.085000", "194750.545000", "194751.005000", "194751.465000", "194751.925000", "194752.385000", "194752.845000", "194753.305000", "194753.765000", "194754.225000", "194754.685000", "194755.145000", "194755.605000", "194756.065000", "194756.525000", "194756.985000", "194757.445000", "194757.905000", "194758.365000", "194758.825000", "194759.285000", "194759.745000", "194800.205000", "194800.665000", "194801.125000", "194801.585000", "194802.045000", "194802.505000", "194802.965000", "194803.425000", "194803.885000", "194804.345000", "194804.805000", "194805.265000", "194805.725000", "194806.185000", "194806.645000", "194807.105000", "194807.565000", "194808.025000", "194808.485000", "194808.945000", "194809.405000", "194809.865000", "194810.325000", "194810.785000", "194811.245000", "194811.705000", "194812.165000", "194812.625000", "194813.085000", "194813.545000", "194814.005000", "194814.465000", "194814.925000", "194815.385000", "194815.845000", "194816.305000", "194816.765000", "194817.225000", "194817.685000", "194818.145000", "194818.605000", "194819.065000", "194819.525000", "194819.985000", "194820.445000", "194820.905000", "194821.365000", "194821.825000", "194822.285000", "194822.745000", "194823.205000", "194823.665000", "194824.125000", "194824.585000", "194825.045000", "194825.505000", "194825.965000", "194826.425000", "194826.885000", "194827.345000", "194827.805000", "194828.265000", "194828.725000", "194829.185000", "194829.645000", "194830.105000", "194830.565000", "194831.025000", "194831.485000", "194831.945000", "194832.405000", "194832.865000", "194833.325000", "194833.785000", "194834.245000", "194834.705000", "194835.165000", "194835.625000", "194836.085000", "194836.545000", "194837.005000", "194837.465000", "194837.925000", "194838.385000", "194838.845000", "194839.305000", "194839.765000", "194840.225000", "194840.685000", "194841.145000", "194841.605000", "194842.065000", "194842.525000", "194842.985000", "194843.445000", "194843.905000", "194844.365000", "194844.825000", "194845.285000", "194845.745000", "194846.205000", "194846.665000", "194847.125000", "194847.585000", "194848.045000", "194848.505000", "194848.965000", "194849.425000", "194849.885000", "194850.345000", "194850.805000", "194851.265000", "194851.725000", "194852.185000", "194852.645000", "194853.105000", "194853.565000", "194854.025000", "194854.485000", "194854.945000", "194855.405000", "194855.865000", "194856.325000", "194856.785000", "194857.245000", "194857.705000", "194858.165000", "194858.625000", "194859.085000", "194859.545000", "194900.005000", "194900.465000", "194900.925000", "194901.385000", "194901.845000", "194902.305000", "194902.765000", "194903.225000", "194903.685000", "194904.145000", "194904.605000", "194905.065000", "194905.525000", "194905.985000", "194906.445000", "194906.905000", "194907.365000", "194907.825000", "194908.285000", "194908.745000", "194909.205000", "194909.665000", "194910.125000", "194910.585000", "194911.045000", "194911.505000", "194911.965000", "194912.425000", "194912.885000", "194913.345000", "194913.805000", "194914.265000", "194914.725000", "194915.185000", "194915.645000", "194916.105000", "194916.565000", "194917.025000", "194917.485000", "194917.945000", "194918.405000", "194918.865000", "194919.325000", "194919.785000", "194920.245000", "194920.705000", "194921.165000", "194921.625000", "194922.085000", "194922.545000", "194923.005000", "194923.465000", "194923.925000", "194924.385000", "194924.845000", "194925.305000", "194925.765000", "194926.225000", "194926.685000", "194927.145000", "194927.605000", "194928.065000", "194928.525000", "194928.985000", "194929.445000", "194929.905000", "194930.365000", "194930.825000", "194931.285000", "194931.745000", "194932.205000", "194932.665000", "194933.125000", "194933.585000", "194934.045000", "194934.505000", "194934.965000", "194935.425000", "194935.885000", "194936.345000", "194936.805000", "194937.265000", "194937.725000", "194938.185000", "194938.645000", "194939.105000", "194939.565000", "194940.025000", "194940.485000", "194940.945000", "194941.405000", "194941.865000", "194942.325000", "194942.785000", "194943.245000", "194943.705000", "194944.165000", "194944.625000", "194945.085000", "194945.545000", "194946.005000", "194946.465000", "194946.925000", "194947.385000", "194947.845000", "194948.305000", "194948.765000", "194949.225000", "194949.685000"],
