{
  "AcquisitionMatrixPE": 82,
  "AcquisitionNumber": 1,
  "AcquisitionTime": "11:47:8.612500",
  "BandwidthPerPixelPhaseEncode": 24.888,
  "BaseResolution": 82,
  "BodyPartExamined": "BRAIN",
  "ConsistencyInfo": "N4_VE11E_LATEST_20181129",
  "ConversionSoftware": "dcm2niix",
  "ConversionSoftwareVersion": "v1.0.20201102",
  "DerivedVendorReportedEchoSpacing": 0.00049,
  "DeviceSerialNumber": "66112",
  "DwellTime": 2e-06,
  "EchoTime": 0.0272,
  "EchoTrainLength": 82,
  "EffectiveEchoSpacing": 0.00049,
  "FlipAngle": 44,
  "ImageComments": "Unaliased MB8/PE3",
  "ImageOrientationPatientDICOM": [0.996546, 0.0786575, 0.026615, -0.0805304, 0.993639, 0.0787178],
  "ImageType": [
    "ORIGINAL",
    "PRIMARY",
    "M",
    "MB",
    "ND",
    "NORM",
    "MOSAIC"
],
  "ImagingFrequency": 123.252,
  "InPlanePhaseEncodingDirectionDICOM": "COL",
  "InstitutionAddress": "Maynard 3,Hanover,NH,US,03755",
  "InstitutionName": "Dartmouth College - PBS",
  "InstitutionalDepartmentName": "Department",
  "MRAcquisitionType": "2D",
  "MagneticFieldStrength": 3,
  "Manufacturer": "Siemens",
  "ManufacturersModelName": "Prisma",
  "Modality": "MR",
  "MultibandAccelerationFactor": 8,
  "PartialFourier": 1,
  "PatientPosition": "HFS",
  "PercentPhaseFOV": 100,
  "PercentSampling": 100,
  "PhaseEncodingDirection": "j-",
  "PhaseEncodingSteps": 82,
  "PhaseResolution": 1,
  "PixelBandwidth": 3050,
  "ProcedureStepDescription": "Wager_Wager^1076_spacetop",
  "ProtocolName": "func_run-03_task-social_acq-ap-mb8",
  "PulseSequenceDetails": "%CustomerSeq%\\cmrr_mbep2d_bold",
  "ReceiveCoilActiveElements": "HEA;HEP",
  "ReceiveCoilName": "Head_32",
  "ReconMatrixPE": 82,
  "RepetitionTime": 0.46,
  "SAR": 0.107306,
  "ScanOptions": "FS",
  "ScanningSequence": "EP",
  "SequenceName": "epfid2d1_82",
  "SequenceVariant": "SK\\SS",
  "SeriesDescription": "func_run-03_task-social_acq-ap-mb8",
  "SeriesNumber": 16,
  "ShimSetting": [4165, -7844, -7279, 760, -19, -635, 256, 14],
  "SliceThickness": 2.7,
  "SliceTiming": [0, 0.2525, 0.0625, 0.315, 0.125, 0.3775, 0.1875, 0, 0.2525, 0.0625, 0.315, 0.125, 0.3775, 0.1875, 0, 0.2525, 0.0625, 0.315, 0.125, 0.3775, 0.1875, 0, 0.2525, 0.0625, 0.315, 0.125, 0.3775, 0.1875, 0, 0.2525, 0.0625, 0.315, 0.125, 0.3775, 0.1875, 0, 0.2525, 0.0625, 0.315, 0.125, 0.3775, 0.1875, 0, 0.2525, 0.0625, 0.315, 0.125, 0.3775, 0.1875, 0, 0.2525, 0.0625, 0.315, 0.125, 0.3775, 0.1875],
  "SoftwareVersions": "syngo MR E11",
  "SpacingBetweenSlices": 2.7,
  "StationName": "AWP66112",
  "TaskName": "social",
  "TotalReadoutTime": 0.03969,
  "TxRefAmp": 232.532,
  "WipMemBlock": "d70711a8-9f4e-457d-b216-a2efa60fd453||Sequence: R016 ve11e/master r/434b28f1; Aug  7 2019 18:53:46 by eja",
  "dcmmeta_affine": [
    [-2.67366099357605, -0.21605709195137024, 0.054685577750205994, 119.72828674316406],
    [-0.21103236079216003, 2.665860652923584, 0.21759097278118134, -89.42184448242188],
    [0.07140599936246872, -0.21119411289691925, 2.690662145614624, -58.45695114135742],
    [0.0, 0.0, 0.0, 1.0]
],
  "dcmmeta_reorient_transform": [
    [0.0, -1.0, 0.0, 81.0],
    [1.0, 0.0, 0.0, 0.0],
    [0.0, 0.0, 1.0, 0.0],
    [0.0, 0.0, 0.0, 1.0]
],
  "dcmmeta_shape": [82, 82, 56, 872],
  "dcmmeta_slice_dim": 2,
  "dcmmeta_version": 0.6,
  "global": {
    "const": {
      "AccessionNumber": "A004238",
      "AcquisitionMatrix": [82, 0, 0, 82],
      "AngioFlag": "N",
      "BitsAllocated": 16,
      "BitsStored": 16,
      "BodyPartExamined": "BRAIN",
      "Columns": 656,
      "EchoNumbers": 1,
      "EchoTime": 27.2,
      "EchoTrainLength": 82,
      "FlipAngle": 44.0,
      "HighBit": 15,
      "ImageOrientationPatient": [0.99654635565378, 0.07865751551524, 0.02661496357567, -0.0805303659966, 0.99363895242775, 0.07871780212095],
      "ImagePositionPatient": [-807.55999459139, -952.18116647714, -156.66990587774],
      "ImageType": [
        "ORIGINAL",
        "PRIMARY",
        "M",
        "MB",
        "ND",
        "NORM",
        "MOSAIC"
],
      "ImagedNucleus": "1H",
      "ImagingFrequency": 123.252231,
      "InPlanePhaseEncodingDirection": "COL",
      "MRAcquisitionType": "2D",
      "MagneticFieldStrength": 3.0,
      "Manufacturer": "SIEMENS",
      "ManufacturerModelName": "Prisma",
      "Modality": "MR",
      "NumberOfAverages": 1.0,
      "NumberOfPhaseEncodingSteps": 82,
      "PercentPhaseFieldOfView": 100.0,
      "PercentSampling": 100.0,
      "PerformedProcedureStepStartTime": "105453.153000",
      "PhotometricInterpretation": "MONOCHROME2",
      "PixelBandwidth": 3050.0,
      "PixelRepresentation": 0,
      "PixelSpacing": [2.6829268932343, 2.6829268932343],
      "ProtocolName": "func_run-03_task-social_acq-ap-mb8",
      "RepetitionTime": 460.0,
      "Rows": 656,
      "SAR": 0.10730630139047,
      "SamplesPerPixel": 1,
      "ScanOptions": "FS",
      "ScanningSequence": "EP",
      "SequenceName": "epfid2d1_82",
      "SequenceVariant": [
        "SK",
        "SS"
],
      "SeriesDescription": "func_run-03_task-social_acq-ap-mb8",
      "SeriesNumber": 16,
      "SeriesTime": "114718.656000",
      "SliceLocation": -63.036256635382,
      "SliceThickness": 2.7000000476837,
      "SmallestImagePixelValue": 0,
      "SoftwareVersions": "syngo MR E11",
      "SpacingBetweenSlices": 2.6999999375528,
      "SpecificCharacterSet": "ISO_IR 100",
      "StudyID": "1",
      "StudyTime": "105452.947000",
      "TransmitCoilName": "Body",
      "VariableFlipAngleFlag": "N",
      "WindowCenterWidthExplanation": "Algo1"
    },
    "slices": {}
  },
  "time": {
    "samples": {
      "AcquisitionNumber": [1, 2, 3, 4, 5, 6, 7, 8, 9, 10, 11, 12, 13, 14, 15, 16, 17, 18, 19, 20, 21, 22, 23, 24, 25, 26, 27, 28, 29, 30, 31, 32, 33, 34, 35, 36, 37, 38, 39, 40, 41, 42, 43, 44, 45, 46, 47, 48, 49, 50, 51, 52, 53, 54, 55, 56, 57, 58, 59, 60, 61, 62, 63, 64, 65, 66, 67, 68, 69, 70, 71, 72, 73, 74, 75, 76, 77, 78, 79, 80, 81, 82, 83, 84, 85, 86, 87, 88, 89, 90, 91, 92, 93, 94, 95, 96, 97, 98, 99, 100, 101, 102, 103, 104, 105, 106, 107, 108, 109, 110, 111, 112, 113, 114, 115, 116, 117, 118, 119, 120, 121, 122, 123, 124, 125, 126, 127, 128, 129, 130, 131, 132, 133, 134, 135, 136, 137, 138, 139, 140, 141, 142, 143, 144, 145, 146, 147, 148, 149, 150, 151, 152, 153, 154, 155, 156, 157, 158, 159, 160, 161, 162, 163, 164, 165, 166, 167, 168, 169, 170, 171, 172, 173, 174, 175, 176, 177, 178, 179, 180, 181, 182, 183, 184, 185, 186, 187, 188, 189, 190, 191, 192, 193, 194, 195, 196, 197, 198, 199, 200, 201, 202, 203, 204, 205, 206, 207, 208, 209, 210, 211, 212, 213, 214, 215, 216, 217, 218, 219, 220, 221, 222, 223, 224, 225, 226, 227, 228, 229, 230, 231, 232, 233, 234, 235, 236, 237, 238, 239, 240, 241, 242, 243, 244, 245, 246, 247, 248, 249, 250, 251, 252, 253, 254, 255, 256, 257, 258, 259, 260, 261, 262, 263, 264, 265, 266, 267, 268, 269, 270, 271, 272, 273, 274, 275, 276, 277, 278, 279, 280, 281, 282, 283, 284, 285, 286, 287, 288, 289, 290, 291, 292, 293, 294, 295, 296, 297, 298, 299, 300, 301, 302, 303, 304, 305, 306, 307, 308, 309, 310, 311, 312, 313, 314, 315, 316, 317, 318, 319, 320, 321, 322, 323, 324, 325, 326, 327, 328, 329, 330, 331, 332, 333, 334, 335, 336, 337, 338, 339, 340, 341, 342, 343, 344, 345, 346, 347, 348, 349, 350, 351, 352, 353, 354, 355, 356, 357, 358, 359, 360, 361, 362, 363, 364, 365, 366, 367, 368, 369, 370, 371, 372, 373, 374, 375, 376, 377, 378, 379, 380, 381, 382, 383, 384, 385, 386, 387, 388, 389, 390, 391, 392, 393, 394, 395, 396, 397, 398, 399, 400, 401, 402, 403, 404, 405, 406, 407, 408, 409, 410, 411, 412, 413, 414, 415, 416, 417, 418, 419, 420, 421, 422, 423, 424, 425, 426, 427, 428, 429, 430, 431, 432, 433, 434, 435, 436, 437, 438, 439, 440, 441, 442, 443, 444, 445, 446, 447, 448, 449, 450, 451, 452, 453, 454, 455, 456, 457, 458, 459, 460, 461, 462, 463, 464, 465, 466, 467, 468, 469, 470, 471, 472, 473, 474, 475, 476, 477, 478, 479, 480, 481, 482, 483, 484, 485, 486, 487, 488, 489, 490, 491, 492, 493, 494, 495, 496, 497, 498, 499, 500, 501, 502, 503, 504, 505, 506, 507, 508, 509, 510, 511, 512, 513, 514, 515, 516, 517, 518, 519, 520, 521, 522, 523, 524, 525, 526, 527, 528, 529, 530, 531, 532, 533, 534, 535, 536, 537, 538, 539, 540, 541, 542, 543, 544, 545, 546, 547, 548, 549, 550, 551, 552, 553, 554, 555, 556, 557, 558, 559, 560, 561, 562, 563, 564, 565, 566, 567, 568, 569, 570, 571, 572, 573, 574, 575, 576, 577, 578, 579, 580, 581, 582, 583, 584, 585, 586, 587, 588, 589, 590, 591, 592, 593, 594, 595, 596, 597, 598, 599, 600, 601, 602, 603, 604, 605, 606, 607, 608, 609, 610, 611, 612, 613, 614, 615, 616, 617, 618, 619, 620, 621, 622, 623, 624, 625, 626, 627, 628, 629, 630, 631, 632, 633, 634, 635, 636, 637, 638, 639, 640, 641, 642, 643, 644, 645, 646, 647, 648, 649, 650, 651, 652, 653, 654, 655, 656, 657, 658, 659, 660, 661, 662, 663, 664, 665, 666, 667, 668, 669, 670, 671, 672, 673, 674, 675, 676, 677, 678, 679, 680, 681, 682, 683, 684, 685, 686, 687, 688, 689, 690, 691, 692, 693, 694, 695, 696, 697, 698, 699, 700, 701, 702, 703, 704, 705, 706, 707, 708, 709, 710, 711, 712, 713, 714, 715, 716, 717, 718, 719, 720, 721, 722, 723, 724, 725, 726, 727, 728, 729, 730, 731, 732, 733, 734, 735, 736, 737, 738, 739, 740, 741, 742, 743, 744, 745, 746, 747, 748, 749, 750, 751, 752, 753, 754, 755, 756, 757, 758, 759, 760, 761, 762, 763, 764, 765, 766, 767, 768, 769, 770, 771, 772, 773, 774, 775, 776, 777, 778, 779, 780, 781, 782, 783, 784, 785, 786, 787, 788, 789, 790, 791, 792, 793, 794, 795, 796, 797, 798, 799, 800, 801, 802, 803, 804, 805, 806, 807, 808, 809, 810, 811, 812, 813, 814, 815, 816, 817, 818, 819, 820, 821, 822, 823, 824, 825, 826, 827, 828, 829, 830, 831, 832, 833, 834, 835, 836, 837, 838, 839, 840, 841, 842, 843, 844, 845, 846, 847, 848, 849, 850, 851, 852, 853, 854, 855, 856, 857, 858, 859, 860, 861, 862, 863, 864, 865, 866, 867, 868, 869, 870, 871, 872],
      "AcquisitionTime": ["114708.612500", "114709.072500", "114709.532500", "114709.992500", "114710.452500", "114710.912500", "114711.372500", "114711.832500", "114712.292500", "114712.752500", "114713.212500", "114713.672500", "114714.132500", "114714.592500", "114715.052500", "114715.512500", "114715.972500", "114716.432500", "114716.892500", "114717.352500", "114717.812500", "114718.272500", "114718.732500", "114719.192500", "114719.652500", "114720.112500", "114720.572500", "114721.032500", "114721.492500", "114721.952500", "114722.412500", "114722.872500", "114723.332500", "114723.792500", "114724.252500", "114724.712500", "114725.172500", "114725.632500", "114726.092500", "114726.552500", "114727.012500", "114727.472500", "114727.932500", "114728.392500", "114728.852500", "114729.312500", "114729.772500", "114730.232500", "114730.692500", "114731.152500", "114731.612500", "114732.072500", "114732.532500", "114732.992500", "114733.452500", "114733.912500", "114734.372500", "114734.832500", "114735.292500", "114735.752500", "114736.212500", "114736.672500", "114737.132500", "114737.592500", "114738.052500", "114738.512500", "114738.972500", "114739.432500", "114739.892500", "114740.352500", "114740.812500", "114741.272500", "114741.732500", "114742.192500", "114742.652500", "114743.112500", "114743.572500", "114744.032500", "114744.492500", "114744.952500", "114745.412500", "114745.872500", "114746.332500", "114746.792500", "114747.252500", "114747.712500", "114748.172500", "114748.632500", "114749.092500", "114749.552500", "114750.012500", "114750.472500", "114750.932500", "114751.392500", "114751.852500", "114752.312500", "114752.772500", "114753.232500", "114753.692500", "114754.152500", "114754.612500", "114755.072500", "114755.532500", "114755.992500", "114756.452500", "114756.912500", "114757.372500", "114757.832500", "114758.292500", "114758.752500", "114759.212500", "114759.672500", "114800.132500", "114800.592500", "114801.052500", "114801.512500", "114801.972500", "114802.432500", "114802.892500", "114803.352500", "114803.812500", "114804.272500", "114804.732500", "114805.192500", "114805.652500", "114806.112500", "114806.572500", "114807.032500", "114807.492500", "114807.952500", "114808.412500", "114808.872500", "114809.332500", "114809.792500", "114810.252500", "114810.712500", "114811.172500", "114811.632500", "114812.092500", "114812.552500", "114813.012500", "114813.472500", "114813.932500", "114814.392500", "114814.852500", "114815.312500", "114815.772500", "114816.232500", "114816.692500", "114817.152500", "114817.612500", "114818.072500", "114818.532500", "114818.992500", "114819.452500", "114819.912500", "114820.372500", "114820.832500", "114821.292500", "114821.752500", "114822.212500", "114822.672500", "114823.132500", "114823.592500", "114824.052500", "114824.512500", "114824.972500", "114825.432500", "114825.892500", "114826.352500", "114826.812500", "114827.272500", "114827.732500", "114828.192500", "114828.652500", "114829.112500", "114829.572500", "114830.032500", "114830.492500", "114830.952500", "114831.412500", "114831.872500", "114832.332500", "114832.792500", "114833.252500", "114833.712500", "114834.172500", "114834.632500", "114835.092500", "114835.552500", "114836.012500", "114836.472500", "114836.932500", "114837.392500", "114837.852500", "114838.312500", "114838.772500", "114839.232500", "114839.692500", "114840.152500", "114840.612500", "114841.072500", "114841.532500", "114841.992500", "114842.452500", "114842.912500", "114843.372500", "114843.832500", "114844.292500", "114844.752500", "114845.212500", "114845.672500", "114846.132500", "114846.592500", "114847.052500", "114847.512500", "114847.972500", "114848.432500", "114848.892500", "114849.352500", "114849.812500", "114850.272500", "114850.732500", "114851.192500", "114851.652500", "114852.112500", "114852.572500", "114853.032500", "114853.492500", "114853.952500", "114854.412500", "114854.872500", "114855.332500", "114855.792500", "114856.252500", "114856.712500", "114857.172500", "114857.632500", "114858.092500", "114858.552500", "114859.012500", "114859.472500", "114859.932500", "114900.392500", "114900.852500", "114901.312500", "114901.772500", "114902.232500", "114902.692500", "114903.152500", "114903.612500", "114904.072500", "114904.532500", "114904.992500", "114905.452500", "114905.912500", "114906.372500", "114906.832500", "114907.292500", "114907.752500", "114908.212500", "114908.672500", "114909.132500", "114909.592500", "114910.052500", "114910.512500", "114910.972500", "114911.432500", "114911.892500", "114912.352500", "114912.812500", "114913.272500", "114913.732500", "114914.192500", "114914.652500", "114915.112500", "114915.572500", "114916.032500", "114916.492500", "114916.952500", "114917.412500", "114917.872500", "114918.332500", "114918.792500", "114919.252500", "114919.712500", "114920.172500", "114920.632500", "114921.092500", "114921.552500", "114922.012500", "114922.472500", "114922.932500", "114923.392500", "114923.852500", "114924.312500", "114924.772500", "114925.232500", "114925.692500", "114926.152500", "114926.612500", "114927.072500", "114927.532500", "114927.992500", "114928.452500", "114928.912500", "114929.372500", "114929.832500", "114930.292500", "114930.752500", "114931.212500", "114931.672500", "114932.132500", "114932.592500", "114933.052500", "114933.512500", "114933.972500", "114934.432500", "114934.892500", "114935.352500", "114935.812500", "114936.272500", "114936.732500", "114937.192500", "114937.652500", "114938.112500", "114938.572500", "114939.032500", "114939.492500", "114939.952500", "114940.412500", "114940.872500", "114941.332500", "114941.792500", "114942.252500", "114942.712500", "114943.172500", "114943.632500", "114944.092500", "114944.552500", "114945.012500", "114945.472500", "114945.932500", "114946.392500", "114946.852500", "114947.312500", "114947.772500", "114948.232500", "114948.692500", "114949.152500", "114949.612500", "114950.072500", "114950.532500", "114950.992500", "114951.452500", "114951.912500", "114952.372500", "114952.832500", "114953.292500", "114953.752500", "114954.212500", "114954.672500", "114955.132500", "114955.592500", "114956.052500", "114956.512500", "114956.972500", "114957.432500", "114957.892500", "114958.352500", "114958.812500", "114959.272500", "114959.732500", "115000.192500", "115000.652500", "115001.112500", "115001.572500", "115002.032500", "115002.492500", "115002.952500", "115003.412500", "115003.872500", "115004.332500", "115004.792500", "115005.252500", "115005.712500", "115006.172500", "115006.632500", "115007.092500", "115007.552500", "115008.012500", "115008.472500", "115008.932500", "115009.392500", "115009.852500", "115010.312500", "115010.772500", "115011.232500", "115011.692500", "115012.152500", "115012.612500", "115013.072500", "115013.532500", "115013.992500", "115014.452500", "115014.912500", "115015.372500", "115015.832500", "115016.292500", "115016.752500", "115017.212500", "115017.672500", "115018.132500", "115018.592500", "115019.052500", "115019.512500", "115019.972500", "115020.432500", "115020.892500", "115021.352500", "115021.812500", "115022.272500", "115022.732500", "115023.192500", "115023.652500", "115024.112500", "115024.572500", "115025.032500", "115025.492500", "115025.952500", "115026.412500", "115026.872500", "115027.332500", "115027.792500", "115028.252500", "115028.712500", "115029.172500", "115029.632500", "115030.092500", "115030.552500", "115031.012500", "115031.472500", "115031.932500", "115032.392500", "115032.852500", "115033.312500", "115033.772500", "115034.232500", "115034.692500", "115035.152500", "115035.612500", "115036.072500", "115036.532500", "115036.992500", "115037.452500", "115037.912500", "115038.372500", "115038.832500", "115039.292500", "115039.752500", "115040.212500", "115040.672500", "115041.132500", "115041.592500", "115042.052500", "115042.512500", "115042.972500", "115043.432500", "115043.892500", "115044.352500", "115044.812500", "115045.272500", "115045.732500", "115046.192500", "115046.652500", "115047.112500", "115047.572500", "115048.032500", "115048.492500", "115048.952500", "115049.412500", "115049.872500", "115050.332500", "115050.792500", "115051.252500", "115051.712500", "115052.172500", "115052.632500", "115053.092500", "115053.552500", "115054.012500", "115054.472500", "115054.932500", "115055.392500", "115055.852500", "115056.312500", "115056.772500", "115057.232500", "115057.692500", "115058.152500", "115058.612500", "115059.072500", "115059.532500", "115059.992500", "115100.452500", "115100.912500", "115101.372500", "115101.832500", "115102.292500", "115102.752500", "115103.212500", "115103.672500", "115104.132500", "115104.592500", "115105.052500", "115105.512500", "115105.972500", "115106.432500", "115106.892500", "115107.352500", "115107.812500", "115108.272500", "115108.732500", "115109.192500", "115109.652500", "115110.112500", "115110.572500", "115111.032500", "115111.492500", "115111.952500", "115112.412500", "115112.872500", "115113.332500", "115113.792500", "115114.252500", "115114.712500", "115115.172500", "115115.632500", "115116.092500", "115116.552500", "115117.012500", "115117.472500", "115117.932500", "115118.392500", "115118.852500", "115119.312500", "115119.772500", "115120.232500", "115120.692500", "115121.152500", "115121.612500", "115122.072500", "115122.532500", "115122.992500", "115123.452500", "115123.912500", "115124.372500", "115124.832500", "115125.292500", "115125.752500", "115126.212500", "115126.672500", "115127.132500", "115127.592500", "115128.052500", "115128.512500", "115128.972500", "115129.432500", "115129.892500", "115130.352500", "115130.812500", "115131.272500", "115131.732500", "115132.192500", "115132.652500", "115133.112500", "115133.572500", "115134.032500", "115134.492500", "115134.952500", "115135.412500", "115135.872500", "115136.332500", "115136.792500", "115137.252500", "115137.712500", "115138.172500", "115138.632500", "115139.092500", "115139.552500", "115140.012500", "115140.472500", "115140.932500", "115141.392500", "115141.852500", "115142.312500", "115142.772500", "115143.232500", "115143.692500", "115144.152500", "115144.612500", "115145.072500", "115145.532500", "115145.992500", "115146.452500", "115146.912500", "115147.372500", "115147.832500", "115148.292500", "115148.752500", "115149.212500", "115149.672500", "115150.132500", "115150.592500", "115151.052500", "115151.512500", "115151.972500", "115152.432500", "115152.892500", "115153.352500", "115153.812500", "115154.272500", "115154.732500", "115155.192500", "115155.652500", "115156.112500", "115156.572500", "115157.032500", "115157.492500", "115157.952500", "115158.412500", "115158.872500", "115159.332500", "115159.792500", "115200.252500", "115200.712500", "115201.172500", "115201.632500", "115202.092500", "115202.552500", "115203.012500", "115203.472500", "115203.932500", "115204.392500", "115204.852500", "115205.312500", "115205.772500", "115206.232500", "115206.692500", "115207.152500", "115207.612500", "115208.072500", "115208.532500", "115208.992500", "115209.452500", "115209.912500", "115210.372500", "115210.832500", "115211.292500", "115211.752500", "115212.212500", "115212.672500", "115213.132500", "115213.592500", "115214.052500", "115214.512500", "115214.972500", "115215.432500", "115215.892500", "115216.352500", "115216.812500", "115217.272500", "115217.732500", "115218.192500", "115218.652500", "115219.112500", "115219.572500", "115220.032500", "115220.492500", "115220.952500", "115221.412500", "115221.872500", "115222.332500", "115222.792500", "115223.252500", "115223.712500", "115224.172500", "115224.632500", "115225.092500", "115225.552500", "115226.012500", "115226.472500", "115226.932500", "115227.392500", "115227.852500", "115228.312500", "115228.772500", "115229.232500", "115229.692500", "115230.152500", "115230.612500", "115231.072500", "115231.532500", "115231.992500", "115232.452500", "115232.912500", "115233.372500", "115233.832500", "115234.292500", "115234.752500", "115235.212500", "115235.672500", "115236.132500", "115236.592500", "115237.052500", "115237.512500", "115237.972500", "115238.432500", "115238.892500", "115239.352500", "115239.812500", "115240.272500", "115240.732500", "115241.192500", "115241.652500", "115242.112500", "115242.572500", "115243.032500", "115243.492500", "115243.952500", "115244.412500", "115244.872500", "115245.332500", "115245.792500", "115246.252500", "115246.712500", "115247.172500", "115247.632500", "115248.092500", "115248.552500", "115249.012500", "115249.472500", "115249.932500", "115250.392500", "115250.852500", "115251.312500", "115251.772500", "115252.232500", "115252.692500", "115253.152500", "115253.612500", "115254.072500", "115254.532500", "115254.992500", "115255.452500", "115255.912500", "115256.372500", "115256.832500", "115257.292500", "115257.752500", "115258.212500", "115258.672500", "115259.132500", "115259.592500", "115300.052500", "115300.512500", "115300.972500", "115301.432500", "115301.892500", "115302.352500", "115302.812500", "115303.272500", "115303.732500", "115304.192500", "115304.652500", "115305.112500", "115305.572500", "115306.032500", "115306.492500", "115306.952500", "115307.412500", "115307.872500", "115308.332500", "115308.792500", "115309.252500", "115309.712500", "115310.172500", "115310.632500", "115311.092500", "115311.552500", "115312.012500", "115312.472500", "115312.932500", "115313.392500", "115313.852500", "115314.312500", "115314.772500", "115315.232500", "115315.692500", "115316.152500", "115316.612500", "115317.072500", "115317.532500", "115317.992500", "115318.452500", "115318.912500", "115319.372500", "115319.832500", "115320.292500", "115320.752500", "115321.212500", "115321.672500", "115322.132500", "115322.592500", "115323.052500", "115323.512500", "115323.972500", "115324.432500", "115324.892500", "115325.352500", "115325.812500", "115326.272500", "115326.732500", "115327.192500", "115327.652500", "115328.112500", "115328.572500", "115329.032500", "115329.492500", "115329.952500", "115330.412500", "115330.872500", "115331.332500", "115331.792500", "115332.252500", "115332.712500", "115333.172500", "115333.632500", "115334.092500", "115334.552500", "115335.012500", "115335.472500", "115335.932500", "115336.392500", "115336.852500", "115337.312500", "115337.772500", "115338.232500", "115338.692500", "115339.152500", "115339.612500", "115340.072500", "115340.532500", "115340.992500", "115341.452500", "115341.912500", "115342.372500", "115342.832500", "115343.292500", "115343.752500", "115344.212500", "115344.672500", "115345.132500", "115345.592500", "115346.052500", "115346.512500", "115346.972500", "115347.432500", "115347.892500", "115348.352500", "115348.812500", "115349.272500"],
