{
  "AcquisitionMatrixPE": 82,
  "AcquisitionNumber": 1,
  "AcquisitionTime": "16:39:5.927500",
  "BandwidthPerPixelPhaseEncode": 24.888,
  "BaseResolution": 82,
  "BodyPartExamined": "BRAIN",
  "ConsistencyInfo": "N4_VE11E_LATEST_20181129",
  "ConversionSoftware": "dcm2niix",
  "ConversionSoftwareVersion": "v1.0.20201102",
  "DerivedVendorReportedEchoSpacing": 0.00049,
  "DeviceSerialNumber": "66112",
  "DwellTime": 2e-06,
  "EchoTime": 0.0272,
  "EchoTrainLength": 82,
  "EffectiveEchoSpacing": 0.00049,
  "FlipAngle": 44,
  "ImageComments": "Unaliased MB8/PE3",
  "ImageOrientationPatientDICOM": [0.996723, 0.0351561, -0.0728516, -0.0396841, 0.997308, -0.061667],
  "ImageType": [
    "ORIGINAL",
    "PRIMARY",
    "M",
    "MB",
    "ND",
    "NORM",
    "MOSAIC"
],
  "ImagingFrequency": 123.252,
  "InPlanePhaseEncodingDirectionDICOM": "COL",
  "InstitutionAddress": "Maynard 3,Hanover,NH,US,03755",
  "InstitutionName": "Dartmouth College - PBS",
  "InstitutionalDepartmentName": "Department",
  "MRAcquisitionType": "2D",
  "MagneticFieldStrength": 3,
  "Manufacturer": "Siemens",
  "ManufacturersModelName": "Prisma",
  "Modality": "MR",
  "MultibandAccelerationFactor": 8,
  "PartialFourier": 1,
  "PatientPosition": "HFS",
  "PercentPhaseFOV": 100,
  "PercentSampling": 100,
  "PhaseEncodingDirection": "j-",
  "PhaseEncodingSteps": 82,
  "PhaseResolution": 1,
  "PixelBandwidth": 3050,
  "ProcedureStepDescription": "Wager_Wager^1076_spacetop",
  "ProtocolName": "func_run-01_task-social_acq-ap-mb8",
  "PulseSequenceDetails": "%CustomerSeq%\\cmrr_mbep2d_bold",
  "ReceiveCoilActiveElements": "HEA;HEP",
  "ReceiveCoilName": "Head_32",
  "ReconMatrixPE": 82,
  "RepetitionTime": 0.46,
  "SAR": 0.0812003,
  "ScanOptions": "FS",
  "ScanningSequence": "EP",
  "SequenceName": "epfid2d1_82",
  "SequenceVariant": "SK\\SS",
  "SeriesDescription": "func_run-01_task-social_acq-ap-mb8",
  "SeriesNumber": 8,
  "ShimSetting": [4138, -7705, -7249, 466, -27, -18, -31, 89],
  "SliceThickness": 2.7,
  "SliceTiming": [0, 0.2525, 0.0625, 0.315, 0.1275, 0.3775, 0.19, 0, 0.2525, 0.0625, 0.315, 0.1275, 0.3775, 0.19, 0, 0.2525, 0.0625, 0.315, 0.1275, 0.3775, 0.19, 0, 0.2525, 0.0625, 0.315, 0.1275, 0.3775, 0.19, 0, 0.2525, 0.0625, 0.315, 0.1275, 0.3775, 0.19, 0, 0.2525, 0.0625, 0.315, 0.1275, 0.3775, 0.19, 0, 0.2525, 0.0625, 0.315, 0.1275, 0.3775, 0.19, 0, 0.2525, 0.0625, 0.315, 0.1275, 0.3775, 0.19],
  "SoftwareVersions": "syngo MR E11",
  "SpacingBetweenSlices": 2.7,
  "StationName": "AWP66112",
  "TaskName": "social",
  "TotalReadoutTime": 0.03969,
  "TxRefAmp": 245.092,
  "WipMemBlock": "ca90cee3-783b-455d-9960-9bed5e34a190||Sequence: R016 ve11e/master r/434b28f1; Aug  7 2019 18:53:46 by eja",
  "dcmmeta_affine": [
    [-2.6741349697113037, -0.10646944493055344, -0.1903161257505417, 119.3976058959961],
    [-0.0943213403224945, 2.675703287124634, -0.17376112937927246, -81.53611755371094],
    [-0.19545544683933258, 0.16544808447360992, 2.6876730918884277, -57.602256774902344],
    [0.0, 0.0, 0.0, 1.0]
],
  "dcmmeta_reorient_transform": [
    [0.0, -1.0, 0.0, 81.0],
    [1.0, 0.0, 0.0, 0.0],
    [0.0, 0.0, 1.0, 0.0],
    [0.0, 0.0, 0.0, 1.0]
],
  "dcmmeta_shape": [82, 82, 56, 872],
  "dcmmeta_slice_dim": 2,
  "dcmmeta_version": 0.6,
  "global": {
    "const": {
      "AccessionNumber": "A003937",
      "AcquisitionMatrix": [82, 0, 0, 82],
      "AngioFlag": "N",
      "BitsAllocated": 16,
      "BitsStored": 16,
      "BodyPartExamined": "BRAIN",
      "Columns": 656,
      "EchoNumbers": 1,
      "EchoTime": 27.2,
      "EchoTrainLength": 82,
      "FlipAngle": 44.0,
      "HighBit": 15,
      "ImageOrientationPatient": [0.99672297764522, 0.03515613623752, -0.0728515745807, -0.0396840646338, 0.99730755273, -0.0616670112933],
      "ImagePositionPatient": [-847.69356162521, -930.19290582873, 59.378349663412],
      "ImageType": [
        "ORIGINAL",
        "PRIMARY",
        "M",
        "MB",
        "ND",
        "NORM",
        "MOSAIC"
],
      "ImagedNucleus": "1H",
      "ImagingFrequency": 123.252156,
      "InPlanePhaseEncodingDirection": "COL",
      "MRAcquisitionType": "2D",
      "MagneticFieldStrength": 3.0,
      "Manufacturer": "SIEMENS",
      "ManufacturerModelName": "Prisma",
      "Modality": "MR",
      "NumberOfAverages": 1.0,
      "NumberOfPhaseEncodingSteps": 82,
      "PercentPhaseFieldOfView": 100.0,
      "PercentSampling": 100.0,
      "PerformedProcedureStepStartTime": "160407.390000",
      "PhotometricInterpretation": "MONOCHROME2",
      "PixelBandwidth": 3050.0,
      "PixelRepresentation": 0,
      "PixelSpacing": [2.6829268932343, 2.6829268932343],
      "ProtocolName": "func_run-01_task-social_acq-ap-mb8",
      "RepetitionTime": 460.0,
      "Rows": 656,
      "SAR": 0.08120029061015,
      "SamplesPerPixel": 1,
      "ScanOptions": "FS",
      "ScanningSequence": "EP",
      "SequenceName": "epfid2d1_82",
      "SequenceVariant": [
        "SK",
        "SS"
],
      "SeriesDescription": "func_run-01_task-social_acq-ap-mb8",
      "SeriesNumber": 8,
      "SeriesTime": "163917.978000",
      "SliceLocation": -60.507971852099,
      "SliceThickness": 2.7000000476837,
      "SmallestImagePixelValue": 0,
      "SoftwareVersions": "syngo MR E11",
      "SpacingBetweenSlices": 2.6999999895605,
      "SpecificCharacterSet": "ISO_IR 100",
      "StudyID": "1",
      "StudyTime": "160407.320000",
      "TransmitCoilName": "Body",
      "VariableFlipAngleFlag": "N",
      "WindowCenterWidthExplanation": "Algo1"
    },
    "slices": {}
  },
  "time": {
    "samples": {
      "AcquisitionNumber": [1, 2, 3, 4, 5, 6, 7, 8, 9, 10, 11, 12, 13, 14, 15, 16, 17, 18, 19, 20, 21, 22, 23, 24, 25, 26, 27, 28, 29, 30, 31, 32, 33, 34, 35, 36, 37, 38, 39, 40, 41, 42, 43, 44, 45, 46, 47, 48, 49, 50, 51, 52, 53, 54, 55, 56, 57, 58, 59, 60, 61, 62, 63, 64, 65, 66, 67, 68, 69, 70, 71, 72, 73, 74, 75, 76, 77, 78, 79, 80, 81, 82, 83, 84, 85, 86, 87, 88, 89, 90, 91, 92, 93, 94, 95, 96, 97, 98, 99, 100, 101, 102, 103, 104, 105, 106, 107, 108, 109, 110, 111, 112, 113, 114, 115, 116, 117, 118, 119, 120, 121, 122, 123, 124, 125, 126, 127, 128, 129, 130, 131, 132, 133, 134, 135, 136, 137, 138, 139, 140, 141, 142, 143, 144, 145, 146, 147, 148, 149, 150, 151, 152, 153, 154, 155, 156, 157, 158, 159, 160, 161, 162, 163, 164, 165, 166, 167, 168, 169, 170, 171, 172, 173, 174, 175, 176, 177, 178, 179, 180, 181, 182, 183, 184, 185, 186, 187, 188, 189, 190, 191, 192, 193, 194, 195, 196, 197, 198, 199, 200, 201, 202, 203, 204, 205, 206, 207, 208, 209, 210, 211, 212, 213, 214, 215, 216, 217, 218, 219, 220, 221, 222, 223, 224, 225, 226, 227, 228, 229, 230, 231, 232, 233, 234, 235, 236, 237, 238, 239, 240, 241, 242, 243, 244, 245, 246, 247, 248, 249, 250, 251, 252, 253, 254, 255, 256, 257, 258, 259, 260, 261, 262, 263, 264, 265, 266, 267, 268, 269, 270, 271, 272, 273, 274, 275, 276, 277, 278, 279, 280, 281, 282, 283, 284, 285, 286, 287, 288, 289, 290, 291, 292, 293, 294, 295, 296, 297, 298, 299, 300, 301, 302, 303, 304, 305, 306, 307, 308, 309, 310, 311, 312, 313, 314, 315, 316, 317, 318, 319, 320, 321, 322, 323, 324, 325, 326, 327, 328, 329, 330, 331, 332, 333, 334, 335, 336, 337, 338, 339, 340, 341, 342, 343, 344, 345, 346, 347, 348, 349, 350, 351, 352, 353, 354, 355, 356, 357, 358, 359, 360, 361, 362, 363, 364, 365, 366, 367, 368, 369, 370, 371, 372, 373, 374, 375, 376, 377, 378, 379, 380, 381, 382, 383, 384, 385, 386, 387, 388, 389, 390, 391, 392, 393, 394, 395, 396, 397, 398, 399, 400, 401, 402, 403, 404, 405, 406, 407, 408, 409, 410, 411, 412, 413, 414, 415, 416, 417, 418, 419, 420, 421, 422, 423, 424, 425, 426, 427, 428, 429, 430, 431, 432, 433, 434, 435, 436, 437, 438, 439, 440, 441, 442, 443, 444, 445, 446, 447, 448, 449, 450, 451, 452, 453, 454, 455, 456, 457, 458, 459, 460, 461, 462, 463, 464, 465, 466, 467, 468, 469, 470, 471, 472, 473, 474, 475, 476, 477, 478, 479, 480, 481, 482, 483, 484, 485, 486, 487, 488, 489, 490, 491, 492, 493, 494, 495, 496, 497, 498, 499, 500, 501, 502, 503, 504, 505, 506, 507, 508, 509, 510, 511, 512, 513, 514, 515, 516, 517, 518, 519, 520, 521, 522, 523, 524, 525, 526, 527, 528, 529, 530, 531, 532, 533, 534, 535, 536, 537, 538, 539, 540, 541, 542, 543, 544, 545, 546, 547, 548, 549, 550, 551, 552, 553, 554, 555, 556, 557, 558, 559, 560, 561, 562, 563, 564, 565, 566, 567, 568, 569, 570, 571, 572, 573, 574, 575, 576, 577, 578, 579, 580, 581, 582, 583, 584, 585, 586, 587, 588, 589, 590, 591, 592, 593, 594, 595, 596, 597, 598, 599, 600, 601, 602, 603, 604, 605, 606, 607, 608, 609, 610, 611, 612, 613, 614, 615, 616, 617, 618, 619, 620, 621, 622, 623, 624, 625, 626, 627, 628, 629, 630, 631, 632, 633, 634, 635, 636, 637, 638, 639, 640, 641, 642, 643, 644, 645, 646, 647, 648, 649, 650, 651, 652, 653, 654, 655, 656, 657, 658, 659, 660, 661, 662, 663, 664, 665, 666, 667, 668, 669, 670, 671, 672, 673, 674, 675, 676, 677, 678, 679, 680, 681, 682, 683, 684, 685, 686, 687, 688, 689, 690, 691, 692, 693, 694, 695, 696, 697, 698, 699, 700, 701, 702, 703, 704, 705, 706, 707, 708, 709, 710, 711, 712, 713, 714, 715, 716, 717, 718, 719, 720, 721, 722, 723, 724, 725, 726, 727, 728, 729, 730, 731, 732, 733, 734, 735, 736, 737, 738, 739, 740, 741, 742, 743, 744, 745, 746, 747, 748, 749, 750, 751, 752, 753, 754, 755, 756, 757, 758, 759, 760, 761, 762, 763, 764, 765, 766, 767, 768, 769, 770, 771, 772, 773, 774, 775, 776, 777, 778, 779, 780, 781, 782, 783, 784, 785, 786, 787, 788, 789, 790, 791, 792, 793, 794, 795, 796, 797, 798, 799, 800, 801, 802, 803, 804, 805, 806, 807, 808, 809, 810, 811, 812, 813, 814, 815, 816, 817, 818, 819, 820, 821, 822, 823, 824, 825, 826, 827, 828, 829, 830, 831, 832, 833, 834, 835, 836, 837, 838, 839, 840, 841, 842, 843, 844, 845, 846, 847, 848, 849, 850, 851, 852, 853, 854, 855, 856, 857, 858, 859, 860, 861, 862, 863, 864, 865, 866, 867, 868, 869, 870, 871, 872],
      "AcquisitionTime": ["163905.927500", "163906.387500", "163906.847500", "163907.307500", "163907.767500", "163908.227500", "163908.687500", "163909.147500", "163909.607500", "163910.067500", "163910.527500", "163910.987500", "163911.447500", "163911.907500", "163912.367500", "163912.827500", "163913.287500", "163913.747500", "163914.207500", "163914.667500", "163915.127500", "163915.587500", "163916.047500", "163916.507500", "163916.967500", "163917.427500", "163917.887500", "163918.347500", "163918.807500", "163919.267500", "163919.727500", "163920.187500", "163920.647500", "163921.107500", "163921.567500", "163922.027500", "163922.487500", "163922.947500", "163923.407500", "163923.867500", "163924.327500", "163924.787500", "163925.247500", "163925.707500", "163926.167500", "163926.627500", "163927.087500", "163927.547500", "163928.007500", "163928.467500", "163928.927500", "163929.387500", "163929.847500", "163930.307500", "163930.767500", "163931.227500", "163931.687500", "163932.147500", "163932.607500", "163933.067500", "163933.527500", "163933.987500", "163934.447500", "163934.907500", "163935.367500", "163935.827500", "163936.287500", "163936.747500", "163937.207500", "163937.667500", "163938.127500", "163938.587500", "163939.047500", "163939.507500", "163939.967500", "163940.427500", "163940.887500", "163941.347500", "163941.807500", "163942.267500", "163942.727500", "163943.187500", "163943.647500", "163944.107500", "163944.567500", "163945.027500", "163945.487500", "163945.947500", "163946.407500", "163946.867500", "163947.327500", "163947.787500", "163948.247500", "163948.707500", "163949.167500", "163949.627500", "163950.087500", "163950.547500", "163951.007500", "163951.467500", "163951.927500", "163952.387500", "163952.847500", "163953.307500", "163953.767500", "163954.227500", "163954.687500", "163955.147500", "163955.607500", "163956.067500", "163956.527500", "163956.987500", "163957.447500", "163957.907500", "163958.367500", "163958.827500", "163959.287500", "163959.747500", "164000.207500", "164000.667500", "164001.127500", "164001.587500", "164002.047500", "164002.507500", "164002.967500", "164003.427500", "164003.887500", "164004.347500", "164004.807500", "164005.267500", "164005.727500", "164006.187500", "164006.647500", "164007.107500", "164007.567500", "164008.027500", "164008.487500", "164008.947500", "164009.407500", "164009.867500", "164010.327500", "164010.787500", "164011.247500", "164011.707500", "164012.167500", "164012.627500", "164013.087500", "164013.547500", "164014.007500", "164014.467500", "164014.927500", "164015.387500", "164015.847500", "164016.307500", "164016.767500", "164017.227500", "164017.687500", "164018.147500", "164018.607500", "164019.067500", "164019.527500", "164019.987500", "164020.447500", "164020.907500", "164021.367500", "164021.827500", "164022.287500", "164022.747500", "164023.207500", "164023.667500", "164024.127500", "164024.587500", "164025.047500", "164025.507500", "164025.967500", "164026.427500", "164026.887500", "164027.347500", "164027.807500", "164028.267500", "164028.727500", "164029.187500", "164029.647500", "164030.107500", "164030.567500", "164031.027500", "164031.487500", "164031.947500", "164032.407500", "164032.867500", "164033.327500", "164033.787500", "164034.247500", "164034.707500", "164035.167500", "164035.627500", "164036.087500", "164036.547500", "164037.007500", "164037.467500", "164037.927500", "164038.387500", "164038.847500", "164039.307500", "164039.767500", "164040.227500", "164040.687500", "164041.147500", "164041.607500", "164042.067500", "164042.527500", "164042.987500", "164043.447500", "164043.907500", "164044.367500", "164044.827500", "164045.287500", "164045.747500", "164046.207500", "164046.667500", "164047.127500", "164047.587500", "164048.047500", "164048.507500", "164048.967500", "164049.427500", "164049.887500", "164050.347500", "164050.807500", "164051.267500", "164051.727500", "164052.187500", "164052.647500", "164053.107500", "164053.567500", "164054.027500", "164054.487500", "164054.947500", "164055.407500", "164055.867500", "164056.327500", "164056.787500", "164057.247500", "164057.707500", "164058.167500", "164058.627500", "164059.087500", "164059.547500", "164100.007500", "164100.467500", "164100.927500", "164101.387500", "164101.847500", "164102.307500", "164102.767500", "164103.227500", "164103.687500", "164104.147500", "164104.607500", "164105.067500", "164105.527500", "164105.987500", "164106.447500", "164106.907500", "164107.367500", "164107.827500", "164108.287500", "164108.747500", "164109.207500", "164109.667500", "164110.127500", "164110.587500", "164111.047500", "164111.507500", "164111.967500", "164112.427500", "164112.887500", "164113.347500", "164113.807500", "164114.267500", "164114.727500", "164115.187500", "164115.647500", "164116.107500", "164116.567500", "164117.027500", "164117.487500", "164117.947500", "164118.407500", "164118.867500", "164119.327500", "164119.787500", "164120.247500", "164120.707500", "164121.167500", "164121.627500", "164122.087500", "164122.547500", "164123.007500", "164123.467500", "164123.927500", "164124.387500", "164124.847500", "164125.307500", "164125.767500", "164126.227500", "164126.687500", "164127.147500", "164127.607500", "164128.067500", "164128.527500", "164128.987500", "164129.447500", "164129.907500", "164130.367500", "164130.827500", "164131.287500", "164131.747500", "164132.207500", "164132.667500", "164133.127500", "164133.587500", "164134.047500", "164134.507500", "164134.967500", "164135.427500", "164135.887500", "164136.347500", "164136.807500", "164137.267500", "164137.727500", "164138.187500", "164138.647500", "164139.107500", "164139.567500", "164140.027500", "164140.487500", "164140.947500", "164141.407500", "164141.867500", "164142.327500", "164142.787500", "164143.247500", "164143.707500", "164144.167500", "164144.627500", "164145.087500", "164145.547500", "164146.007500", "164146.467500", "164146.927500", "164147.387500", "164147.847500", "164148.307500", "164148.767500", "164149.227500", "164149.687500", "164150.147500", "164150.607500", "164151.067500", "164151.527500", "164151.987500", "164152.447500", "164152.907500", "164153.367500", "164153.827500", "164154.287500", "164154.747500", "164155.207500", "164155.667500", "164156.127500", "164156.587500", "164157.047500", "164157.507500", "164157.967500", "164158.427500", "164158.887500", "164159.347500", "164159.807500", "164200.267500", "164200.727500", "164201.187500", "164201.647500", "164202.107500", "164202.567500", "164203.027500", "164203.487500", "164203.947500", "164204.407500", "164204.867500", "164205.327500", "164205.787500", "164206.247500", "164206.707500", "164207.167500", "164207.627500", "164208.087500", "164208.547500", "164209.007500", "164209.467500", "164209.927500", "164210.387500", "164210.847500", "164211.307500", "164211.767500", "164212.227500", "164212.687500", "164213.147500", "164213.607500", "164214.067500", "164214.527500", "164214.987500", "164215.447500", "164215.907500", "164216.367500", "164216.827500", "164217.287500", "164217.747500", "164218.207500", "164218.667500", "164219.127500", "164219.587500", "164220.047500", "164220.507500", "164220.967500", "164221.427500", "164221.887500", "164222.347500", "164222.807500", "164223.267500", "164223.727500", "164224.187500", "164224.647500", "164225.107500", "164225.567500", "164226.027500", "164226.487500", "164226.947500", "164227.407500", "164227.867500", "164228.327500", "164228.787500", "164229.247500", "164229.707500", "164230.167500", "164230.627500", "164231.087500", "164231.547500", "164232.007500", "164232.467500", "164232.927500", "164233.387500", "164233.847500", "164234.307500", "164234.767500", "164235.227500", "164235.687500", "164236.147500", "164236.607500", "164237.067500", "164237.527500", "164237.987500", "164238.447500", "164238.907500", "164239.367500", "164239.827500", "164240.287500", "164240.747500", "164241.207500", "164241.667500", "164242.127500", "164242.587500", "164243.047500", "164243.507500", "164243.967500", "164244.427500", "164244.887500", "164245.347500", "164245.807500", "164246.267500", "164246.727500", "164247.187500", "164247.647500", "164248.107500", "164248.567500", "164249.027500", "164249.487500", "164249.947500", "164250.407500", "164250.867500", "164251.327500", "164251.787500", "164252.247500", "164252.707500", "164253.167500", "164253.627500", "164254.087500", "164254.547500", "164255.007500", "164255.467500", "164255.927500", "164256.387500", "164256.847500", "164257.307500", "164257.767500", "164258.227500", "164258.687500", "164259.147500", "164259.607500", "164300.067500", "164300.527500", "164300.987500", "164301.447500", "164301.907500", "164302.367500", "164302.827500", "164303.287500", "164303.747500", "164304.207500", "164304.667500", "164305.127500", "164305.587500", "164306.047500", "164306.507500", "164306.967500", "164307.427500", "164307.887500", "164308.347500", "164308.807500", "164309.267500", "164309.727500", "164310.187500", "164310.647500", "164311.107500", "164311.567500", "164312.027500", "164312.487500", "164312.947500", "164313.407500", "164313.867500", "164314.327500", "164314.787500", "164315.247500", "164315.707500", "164316.167500", "164316.627500", "164317.087500", "164317.547500", "164318.007500", "164318.467500", "164318.927500", "164319.387500", "164319.847500", "164320.307500", "164320.767500", "164321.227500", "164321.687500", "164322.147500", "164322.607500", "164323.067500", "164323.527500", "164323.987500", "164324.447500", "164324.907500", "164325.367500", "164325.827500", "164326.287500", "164326.747500", "164327.207500", "164327.667500", "164328.127500", "164328.587500", "164329.047500", "164329.507500", "164329.967500", "164330.427500", "164330.887500", "164331.347500", "164331.807500", "164332.267500", "164332.727500", "164333.187500", "164333.647500", "164334.107500", "164334.567500", "164335.027500", "164335.487500", "164335.947500", "164336.407500", "164336.867500", "164337.327500", "164337.787500", "164338.247500", "164338.707500", "164339.167500", "164339.627500", "164340.087500", "164340.547500", "164341.007500", "164341.467500", "164341.927500", "164342.387500", "164342.847500", "164343.307500", "164343.767500", "164344.227500", "164344.687500", "164345.147500", "164345.607500", "164346.067500", "164346.527500", "164346.987500", "164347.447500", "164347.907500", "164348.367500", "164348.827500", "164349.287500", "164349.747500", "164350.207500", "164350.667500", "164351.127500", "164351.587500", "164352.047500", "164352.507500", "164352.967500", "164353.427500", "164353.887500", "164354.347500", "164354.807500", "164355.267500", "164355.727500", "164356.187500", "164356.647500", "164357.107500", "164357.567500", "164358.027500", "164358.487500", "164358.947500", "164359.407500", "164359.867500", "164400.327500", "164400.787500", "164401.247500", "164401.707500", "164402.167500", "164402.627500", "164403.087500", "164403.547500", "164404.007500", "164404.467500", "164404.927500", "164405.387500", "164405.847500", "164406.307500", "164406.767500", "164407.227500", "164407.687500", "164408.147500", "164408.607500", "164409.067500", "164409.527500", "164409.987500", "164410.447500", "164410.907500", "164411.367500", "164411.827500", "164412.287500", "164412.747500", "164413.207500", "164413.667500", "164414.127500", "164414.587500", "164415.047500", "164415.507500", "164415.967500", "164416.427500", "164416.887500", "164417.347500", "164417.807500", "164418.267500", "164418.727500", "164419.187500", "164419.647500", "164420.107500", "164420.567500", "164421.027500", "164421.487500", "164421.947500", "164422.407500", "164422.867500", "164423.327500", "164423.787500", "164424.247500", "164424.707500", "164425.167500", "164425.627500", "164426.087500", "164426.547500", "164427.007500", "164427.467500", "164427.927500", "164428.387500", "164428.847500", "164429.307500", "164429.767500", "164430.227500", "164430.687500", "164431.147500", "164431.607500", "164432.067500", "164432.527500", "164432.987500", "164433.447500", "164433.907500", "164434.367500", "164434.827500", "164435.287500", "164435.747500", "164436.207500", "164436.667500", "164437.127500", "164437.587500", "164438.047500", "164438.507500", "164438.967500", "164439.427500", "164439.887500", "164440.347500", "164440.807500", "164441.267500", "164441.727500", "164442.187500", "164442.647500", "164443.107500", "164443.567500", "164444.027500", "164444.487500", "164444.947500", "164445.407500", "164445.867500", "164446.327500", "164446.787500", "164447.247500", "164447.707500", "164448.167500", "164448.627500", "164449.087500", "164449.547500", "164450.007500", "164450.467500", "164450.927500", "164451.387500", "164451.847500", "164452.307500", "164452.767500", "164453.227500", "164453.687500", "164454.147500", "164454.607500", "164455.067500", "164455.527500", "164455.987500", "164456.447500", "164456.907500", "164457.367500", "164457.827500", "164458.287500", "164458.747500", "164459.207500", "164459.667500", "164500.127500", "164500.587500", "164501.047500", "164501.507500", "164501.967500", "164502.427500", "164502.887500", "164503.347500", "164503.807500", "164504.267500", "164504.727500", "164505.187500", "164505.647500", "164506.107500", "164506.567500", "164507.027500", "164507.487500", "164507.947500", "164508.407500", "164508.867500", "164509.327500", "164509.787500", "164510.247500", "164510.707500", "164511.167500", "164511.627500", "164512.087500", "164512.547500", "164513.007500", "164513.467500", "164513.927500", "164514.387500", "164514.847500", "164515.307500", "164515.767500", "164516.227500", "164516.687500", "164517.147500", "164517.607500", "164518.067500", "164518.527500", "164518.987500", "164519.447500", "164519.907500", "164520.367500", "164520.827500", "164521.287500", "164521.747500", "164522.207500", "164522.667500", "164523.127500", "164523.587500", "164524.047500", "164524.507500", "164524.967500", "164525.427500", "164525.887500", "164526.347500", "164526.807500", "164527.267500", "164527.727500", "164528.187500", "164528.647500", "164529.107500", "164529.567500", "164530.027500", "164530.487500", "164530.947500", "164531.407500", "164531.867500", "164532.327500", "164532.787500", "164533.247500", "164533.707500", "164534.167500", "164534.627500", "164535.087500", "164535.547500", "164536.007500", "164536.467500", "164536.927500", "164537.387500", "164537.847500", "164538.307500", "164538.767500", "164539.227500", "164539.687500", "164540.147500", "164540.607500", "164541.067500", "164541.527500", "164541.987500", "164542.447500", "164542.907500", "164543.367500", "164543.827500", "164544.287500", "164544.747500", "164545.207500", "164545.667500", "164546.127500", "164546.587500"],
