{
  "AcquisitionMatrixPE": 82,
  "AcquisitionNumber": 1,
  "AcquisitionTime": "11:10:58.580000",
  "BandwidthPerPixelPhaseEncode": 24.888,
  "BaseResolution": 82,
  "BodyPartExamined": "BRAIN",
  "ConsistencyInfo": "N4_VE11E_LATEST_20181129",
  "ConversionSoftware": "dcm2niix",
  "ConversionSoftwareVersion": "v1.0.20201102",
  "DerivedVendorReportedEchoSpacing": 0.00049,
  "DeviceSerialNumber": "66112",
  "DwellTime": 2e-06,
  "EchoTime": 0.0272,
  "EchoTrainLength": 82,
  "EffectiveEchoSpacing": 0.00049,
  "FlipAngle": 44,
  "ImageComments": "Unaliased MB8/PE3",
  "ImageOrientationPatientDICOM": [0.999404, 0.00126565, -0.0344869, 0.00122101, 0.997405, 0.0719879],
  "ImageType": [
    "ORIGINAL",
    "PRIMARY",
    "M",
    "MB",
    "ND",
    "NORM",
    "MOSAIC"
],
  "ImagingFrequency": 123.252,
  "InPlanePhaseEncodingDirectionDICOM": "COL",
  "InstitutionAddress": "Maynard 3,Hanover,NH,US,03755",
  "InstitutionName": "Dartmouth College - PBS",
  "InstitutionalDepartmentName": "Department",
  "MRAcquisitionType": "2D",
  "MagneticFieldStrength": 3,
  "Manufacturer": "Siemens",
  "ManufacturersModelName": "Prisma",
  "Modality": "MR",
  "MultibandAccelerationFactor": 8,
  "PartialFourier": 1,
  "PatientPosition": "HFS",
  "PercentPhaseFOV": 100,
  "PercentSampling": 100,
  "PhaseEncodingDirection": "j-",
  "PhaseEncodingSteps": 82,
  "PhaseResolution": 1,
  "PixelBandwidth": 3050,
  "ProcedureStepDescription": "Wager_Wager^1076_spacetop",
  "ProtocolName": "func_run-06_task-social_acq-ap-mb8",
  "PulseSequenceDetails": "%CustomerSeq%\\cmrr_mbep2d_bold",
  "ReceiveCoilActiveElements": "HEA;HEP",
  "ReceiveCoilName": "Head_32",
  "ReconMatrixPE": 82,
  "RepetitionTime": 0.46,
  "SAR": 0.10381,
  "ScanOptions": "FS",
  "ScanningSequence": "EP",
  "SequenceName": "epfid2d1_82",
  "SequenceVariant": "SK\\SS",
  "SeriesDescription": "func_run-06_task-social_acq-ap-mb8",
  "SeriesNumber": 18,
  "ShimSetting": [4168, -7704, -7206, 685, 31, 43, -32, 65],
  "SliceThickness": 2.7,
  "SliceTiming": [0, 0.25, 0.0625, 0.315, 0.125, 0.3775, 0.1875, 0, 0.25, 0.0625, 0.315, 0.125, 0.3775, 0.1875, 0, 0.25, 0.0625, 0.315, 0.125, 0.3775, 0.1875, 0, 0.25, 0.0625, 0.315, 0.125, 0.3775, 0.1875, 0, 0.25, 0.0625, 0.315, 0.125, 0.3775, 0.1875, 0, 0.25, 0.0625, 0.315, 0.125, 0.3775, 0.1875, 0, 0.25, 0.0625, 0.315, 0.125, 0.3775, 0.1875, 0, 0.25, 0.0625, 0.315, 0.125, 0.3775, 0.1875],
  "SoftwareVersions": "syngo MR E11",
  "SpacingBetweenSlices": 2.7,
  "StationName": "AWP66112",
  "TaskName": "social",
  "TotalReadoutTime": 0.03969,
  "TxRefAmp": 244.77,
  "WipMemBlock": "20a9d164-893d-42e1-af2e-3588b48d0ffc||Sequence: R016 ve11e/master r/434b28f1; Aug  7 2019 18:53:46 by eja",
  "dcmmeta_affine": [
    [-2.681328773498535, 0.0032758733723312616, -0.0931190773844719, 116.2338638305664],
    [-0.0033956393599510193, 2.675964117050171, 0.19436529278755188, -97.48538970947266],
    [-0.09252592921257019, -0.19313831627368927, 2.6913845539093018, -31.806289672851562],
    [0.0, 0.0, 0.0, 1.0]
],
  "dcmmeta_reorient_transform": [
    [0.0, -1.0, 0.0, 81.0],
    [1.0, 0.0, 0.0, 0.0],
    [0.0, 0.0, 1.0, 0.0],
    [0.0, 0.0, 0.0, 1.0]
],
  "dcmmeta_shape": [82, 82, 56, 872],
  "dcmmeta_slice_dim": 2,
  "dcmmeta_version": 0.6,
  "global": {
    "const": {
      "AccessionNumber": "A004014",
      "AcquisitionMatrix": [82, 0, 0, 82],
      "AngioFlag": "N",
      "BitsAllocated": 16,
      "BitsStored": 16,
      "BodyPartExamined": "BRAIN",
      "Columns": 656,
      "EchoNumbers": 1,
      "EchoTime": 27.2,
      "EchoTrainLength": 82,
      "FlipAngle": 44.0,
      "HighBit": 15,
      "ImageOrientationPatient": [0.99940434724598, 0.00126564735018, -0.0344869372752, 0.00122100734269, 0.99740475692248, 0.07198791571842],
      "ImagePositionPatient": [-886.98075009284, -888.24392763298, -76.326247864163],
      "ImageType": [
        "ORIGINAL",
        "PRIMARY",
        "M",
        "MB",
        "ND",
        "NORM",
        "MOSAIC"
],
      "ImagedNucleus": "1H",
      "ImagingFrequency": 123.252182,
      "InPlanePhaseEncodingDirection": "COL",
      "MRAcquisitionType": "2D",
      "MagneticFieldStrength": 3.0,
      "Manufacturer": "SIEMENS",
      "ManufacturerModelName": "Prisma",
      "Modality": "MR",
      "NumberOfAverages": 1.0,
      "NumberOfPhaseEncodingSteps": 82,
      "PercentPhaseFieldOfView": 100.0,
      "PercentSampling": 100.0,
      "PerformedProcedureStepStartTime": "100947.520000",
      "PhotometricInterpretation": "MONOCHROME2",
      "PixelBandwidth": 3050.0,
      "PixelRepresentation": 0,
      "PixelSpacing": [2.6829268932343, 2.6829268932343],
      "ProtocolName": "func_run-06_task-social_acq-ap-mb8",
      "RepetitionTime": 460.0,
      "Rows": 656,
      "SAR": 0.10380987453502,
      "SamplesPerPixel": 1,
      "ScanOptions": "FS",
      "ScanningSequence": "EP",
      "SequenceName": "epfid2d1_82",
      "SequenceVariant": [
        "SK",
        "SS"
],
      "SeriesDescription": "func_run-06_task-social_acq-ap-mb8",
      "SeriesNumber": 18,
      "SeriesTime": "111115.314000",
      "SliceLocation": -42.731231566445,
      "SliceThickness": 2.7000000476837,
      "SmallestImagePixelValue": 0,
      "SoftwareVersions": "syngo MR E11",
      "SpacingBetweenSlices": 2.7000000277323,
      "SpecificCharacterSet": "ISO_IR 100",
      "StudyID": "1",
      "StudyTime": "100947.433000",
      "TransmitCoilName": "Body",
      "VariableFlipAngleFlag": "N",
      "WindowCenterWidthExplanation": "Algo1"
    },
    "slices": {}
  },
  "time": {
    "samples": {
      "AcquisitionNumber": [1, 2, 3, 4, 5, 6, 7, 8, 9, 10, 11, 12, 13, 14, 15, 16, 17, 18, 19, 20, 21, 22, 23, 24, 25, 26, 27, 28, 29, 30, 31, 32, 33, 34, 35, 36, 37, 38, 39, 40, 41, 42, 43, 44, 45, 46, 47, 48, 49, 50, 51, 52, 53, 54, 55, 56, 57, 58, 59, 60, 61, 62, 63, 64, 65, 66, 67, 68, 69, 70, 71, 72, 73, 74, 75, 76, 77, 78, 79, 80, 81, 82, 83, 84, 85, 86, 87, 88, 89, 90, 91, 92, 93, 94, 95, 96, 97, 98, 99, 100, 101, 102, 103, 104, 105, 106, 107, 108, 109, 110, 111, 112, 113, 114, 115, 116, 117, 118, 119, 120, 121, 122, 123, 124, 125, 126, 127, 128, 129, 130, 131, 132, 133, 134, 135, 136, 137, 138, 139, 140, 141, 142, 143, 144, 145, 146, 147, 148, 149, 150, 151, 152, 153, 154, 155, 156, 157, 158, 159, 160, 161, 162, 163, 164, 165, 166, 167, 168, 169, 170, 171, 172, 173, 174, 175, 176, 177, 178, 179, 180, 181, 182, 183, 184, 185, 186, 187, 188, 189, 190, 191, 192, 193, 194, 195, 196, 197, 198, 199, 200, 201, 202, 203, 204, 205, 206, 207, 208, 209, 210, 211, 212, 213, 214, 215, 216, 217, 218, 219, 220, 221, 222, 223, 224, 225, 226, 227, 228, 229, 230, 231, 232, 233, 234, 235, 236, 237, 238, 239, 240, 241, 242, 243, 244, 245, 246, 247, 248, 249, 250, 251, 252, 253, 254, 255, 256, 257, 258, 259, 260, 261, 262, 263, 264, 265, 266, 267, 268, 269, 270, 271, 272, 273, 274, 275, 276, 277, 278, 279, 280, 281, 282, 283, 284, 285, 286, 287, 288, 289, 290, 291, 292, 293, 294, 295, 296, 297, 298, 299, 300, 301, 302, 303, 304, 305, 306, 307, 308, 309, 310, 311, 312, 313, 314, 315, 316, 317, 318, 319, 320, 321, 322, 323, 324, 325, 326, 327, 328, 329, 330, 331, 332, 333, 334, 335, 336, 337, 338, 339, 340, 341, 342, 343, 344, 345, 346, 347, 348, 349, 350, 351, 352, 353, 354, 355, 356, 357, 358, 359, 360, 361, 362, 363, 364, 365, 366, 367, 368, 369, 370, 371, 372, 373, 374, 375, 376, 377, 378, 379, 380, 381, 382, 383, 384, 385, 386, 387, 388, 389, 390, 391, 392, 393, 394, 395, 396, 397, 398, 399, 400, 401, 402, 403, 404, 405, 406, 407, 408, 409, 410, 411, 412, 413, 414, 415, 416, 417, 418, 419, 420, 421, 422, 423, 424, 425, 426, 427, 428, 429, 430, 431, 432, 433, 434, 435, 436, 437, 438, 439, 440, 441, 442, 443, 444, 445, 446, 447, 448, 449, 450, 451, 452, 453, 454, 455, 456, 457, 458, 459, 460, 461, 462, 463, 464, 465, 466, 467, 468, 469, 470, 471, 472, 473, 474, 475, 476, 477, 478, 479, 480, 481, 482, 483, 484, 485, 486, 487, 488, 489, 490, 491, 492, 493, 494, 495, 496, 497, 498, 499, 500, 501, 502, 503, 504, 505, 506, 507, 508, 509, 510, 511, 512, 513, 514, 515, 516, 517, 518, 519, 520, 521, 522, 523, 524, 525, 526, 527, 528, 529, 530, 531, 532, 533, 534, 535, 536, 537, 538, 539, 540, 541, 542, 543, 544, 545, 546, 547, 548, 549, 550, 551, 552, 553, 554, 555, 556, 557, 558, 559, 560, 561, 562, 563, 564, 565, 566, 567, 568, 569, 570, 571, 572, 573, 574, 575, 576, 577, 578, 579, 580, 581, 582, 583, 584, 585, 586, 587, 588, 589, 590, 591, 592, 593, 594, 595, 596, 597, 598, 599, 600, 601, 602, 603, 604, 605, 606, 607, 608, 609, 610, 611, 612, 613, 614, 615, 616, 617, 618, 619, 620, 621, 622, 623, 624, 625, 626, 627, 628, 629, 630, 631, 632, 633, 634, 635, 636, 637, 638, 639, 640, 641, 642, 643, 644, 645, 646, 647, 648, 649, 650, 651, 652, 653, 654, 655, 656, 657, 658, 659, 660, 661, 662, 663, 664, 665, 666, 667, 668, 669, 670, 671, 672, 673, 674, 675, 676, 677, 678, 679, 680, 681, 682, 683, 684, 685, 686, 687, 688, 689, 690, 691, 692, 693, 694, 695, 696, 697, 698, 699, 700, 701, 702, 703, 704, 705, 706, 707, 708, 709, 710, 711, 712, 713, 714, 715, 716, 717, 718, 719, 720, 721, 722, 723, 724, 725, 726, 727, 728, 729, 730, 731, 732, 733, 734, 735, 736, 737, 738, 739, 740, 741, 742, 743, 744, 745, 746, 747, 748, 749, 750, 751, 752, 753, 754, 755, 756, 757, 758, 759, 760, 761, 762, 763, 764, 765, 766, 767, 768, 769, 770, 771, 772, 773, 774, 775, 776, 777, 778, 779, 780, 781, 782, 783, 784, 785, 786, 787, 788, 789, 790, 791, 792, 793, 794, 795, 796, 797, 798, 799, 800, 801, 802, 803, 804, 805, 806, 807, 808, 809, 810, 811, 812, 813, 814, 815, 816, 817, 818, 819, 820, 821, 822, 823, 824, 825, 826, 827, 828, 829, 830, 831, 832, 833, 834, 835, 836, 837, 838, 839, 840, 841, 842, 843, 844, 845, 846, 847, 848, 849, 850, 851, 852, 853, 854, 855, 856, 857, 858, 859, 860, 861, 862, 863, 864, 865, 866, 867, 868, 869, 870, 871, 872],
      "AcquisitionTime": ["111058.580000", "111059.040000", "111059.500000", "111059.960000", "111100.420000", "111100.880000", "111101.340000", "111101.800000", "111102.260000", "111102.720000", "111103.180000", "111103.640000", "111104.100000", "111104.560000", "111105.020000", "111105.480000", "111105.940000", "111106.400000", "111106.860000", "111107.320000", "111107.780000", "111108.240000", "111108.700000", "111109.160000", "111109.620000", "111110.080000", "111110.540000", "111111.000000", "111111.460000", "111111.920000", "111112.380000", "111112.840000", "111113.300000", "111113.760000", "111114.220000", "111114.680000", "111115.140000", "111115.600000", "111116.060000", "111116.520000", "111116.980000", "111117.440000", "111117.900000", "111118.360000", "111118.820000", "111119.280000", "111119.740000", "111120.200000", "111120.660000", "111121.120000", "111121.580000", "111122.040000", "111122.500000", "111122.960000", "111123.420000", "111123.880000", "111124.340000", "111124.800000", "111125.260000", "111125.720000", "111126.180000", "111126.640000", "111127.100000", "111127.560000", "111128.020000", "111128.480000", "111128.940000", "111129.400000", "111129.860000", "111130.320000", "111130.780000", "111131.240000", "111131.700000", "111132.160000", "111132.620000", "111133.080000", "111133.540000", "111134.000000", "111134.460000", "111134.920000", "111135.380000", "111135.840000", "111136.300000", "111136.760000", "111137.220000", "111137.680000", "111138.140000", "111138.600000", "111139.060000", "111139.520000", "111139.980000", "111140.440000", "111140.900000", "111141.360000", "111141.820000", "111142.280000", "111142.740000", "111143.200000", "111143.660000", "111144.120000", "111144.580000", "111145.040000", "111145.500000", "111145.960000", "111146.420000", "111146.880000", "111147.340000", "111147.800000", "111148.260000", "111148.720000", "111149.180000", "111149.640000", "111150.100000", "111150.560000", "111151.020000", "111151.480000", "111151.940000", "111152.400000", "111152.860000", "111153.320000", "111153.780000", "111154.240000", "111154.700000", "111155.160000", "111155.620000", "111156.080000", "111156.540000", "111157.000000", "111157.460000", "111157.920000", "111158.380000", "111158.840000", "111159.300000", "111159.760000", "111200.220000", "111200.680000", "111201.140000", "111201.600000", "111202.060000", "111202.520000", "111202.980000", "111203.440000", "111203.900000", "111204.360000", "111204.820000", "111205.280000", "111205.740000", "111206.200000", "111206.660000", "111207.120000", "111207.580000", "111208.040000", "111208.500000", "111208.960000", "111209.420000", "111209.880000", "111210.340000", "111210.800000", "111211.260000", "111211.720000", "111212.180000", "111212.640000", "111213.100000", "111213.560000", "111214.020000", "111214.480000", "111214.940000", "111215.400000", "111215.860000", "111216.320000", "111216.780000", "111217.240000", "111217.700000", "111218.160000", "111218.620000", "111219.080000", "111219.540000", "111220.000000", "111220.460000", "111220.920000", "111221.380000", "111221.840000", "111222.300000", "111222.760000", "111223.220000", "111223.680000", "111224.140000", "111224.600000", "111225.060000", "111225.520000", "111225.980000", "111226.440000", "111226.900000", "111227.360000", "111227.820000", "111228.280000", "111228.740000", "111229.200000", "111229.660000", "111230.120000", "111230.580000", "111231.040000", "111231.500000", "111231.960000", "111232.420000", "111232.880000", "111233.340000", "111233.800000", "111234.260000", "111234.720000", "111235.180000", "111235.640000", "111236.100000", "111236.560000", "111237.020000", "111237.480000", "111237.940000", "111238.400000", "111238.860000", "111239.320000", "111239.780000", "111240.240000", "111240.700000", "111241.160000", "111241.620000", "111242.080000", "111242.540000", "111243.000000", "111243.460000", "111243.920000", "111244.380000", "111244.840000", "111245.300000", "111245.760000", "111246.220000", "111246.680000", "111247.140000", "111247.600000", "111248.060000", "111248.520000", "111248.980000", "111249.440000", "111249.900000", "111250.360000", "111250.820000", "111251.280000", "111251.740000", "111252.200000", "111252.660000", "111253.120000", "111253.580000", "111254.040000", "111254.500000", "111254.960000", "111255.420000", "111255.880000", "111256.340000", "111256.800000", "111257.260000", "111257.720000", "111258.180000", "111258.640000", "111259.100000", "111259.560000", "111300.020000", "111300.480000", "111300.940000", "111301.400000", "111301.860000", "111302.320000", "111302.780000", "111303.240000", "111303.700000", "111304.160000", "111304.620000", "111305.080000", "111305.540000", "111306.000000", "111306.460000", "111306.920000", "111307.380000", "111307.840000", "111308.300000", "111308.760000", "111309.220000", "111309.680000", "111310.140000", "111310.600000", "111311.060000", "111311.520000", "111311.980000", "111312.440000", "111312.900000", "111313.360000", "111313.820000", "111314.280000", "111314.740000", "111315.200000", "111315.660000", "111316.120000", "111316.580000", "111317.040000", "111317.500000", "111317.960000", "111318.420000", "111318.880000", "111319.340000", "111319.800000", "111320.260000", "111320.720000", "111321.180000", "111321.640000", "111322.100000", "111322.560000", "111323.020000", "111323.480000", "111323.940000", "111324.400000", "111324.860000", "111325.320000", "111325.780000", "111326.240000", "111326.700000", "111327.160000", "111327.620000", "111328.080000", "111328.540000", "111329.000000", "111329.460000", "111329.920000", "111330.380000", "111330.840000", "111331.300000", "111331.760000", "111332.220000", "111332.680000", "111333.140000", "111333.600000", "111334.060000", "111334.520000", "111334.980000", "111335.440000", "111335.900000", "111336.360000", "111336.820000", "111337.280000", "111337.740000", "111338.200000", "111338.660000", "111339.120000", "111339.580000", "111340.040000", "111340.500000", "111340.960000", "111341.420000", "111341.880000", "111342.340000", "111342.800000", "111343.260000", "111343.720000", "111344.180000", "111344.640000", "111345.100000", "111345.560000", "111346.020000", "111346.480000", "111346.940000", "111347.400000", "111347.860000", "111348.320000", "111348.780000", "111349.240000", "111349.700000", "111350.160000", "111350.620000", "111351.080000", "111351.540000", "111352.000000", "111352.460000", "111352.920000", "111353.380000", "111353.840000", "111354.300000", "111354.760000", "111355.220000", "111355.680000", "111356.140000", "111356.600000", "111357.060000", "111357.520000", "111357.980000", "111358.440000", "111358.900000", "111359.360000", "111359.820000", "111400.280000", "111400.740000", "111401.200000", "111401.660000", "111402.120000", "111402.580000", "111403.040000", "111403.500000", "111403.960000", "111404.420000", "111404.880000", "111405.340000", "111405.800000", "111406.260000", "111406.720000", "111407.180000", "111407.640000", "111408.100000", "111408.560000", "111409.020000", "111409.480000", "111409.940000", "111410.400000", "111410.860000", "111411.320000", "111411.780000", "111412.240000", "111412.700000", "111413.160000", "111413.620000", "111414.080000", "111414.540000", "111415.000000", "111415.460000", "111415.920000", "111416.380000", "111416.840000", "111417.300000", "111417.760000", "111418.220000", "111418.680000", "111419.140000", "111419.600000", "111420.060000", "111420.520000", "111420.980000", "111421.440000", "111421.900000", "111422.360000", "111422.820000", "111423.280000", "111423.740000", "111424.200000", "111424.660000", "111425.120000", "111425.580000", "111426.040000", "111426.500000", "111426.960000", "111427.420000", "111427.880000", "111428.340000", "111428.800000", "111429.260000", "111429.720000", "111430.180000", "111430.640000", "111431.100000", "111431.560000", "111432.020000", "111432.480000", "111432.940000", "111433.400000", "111433.860000", "111434.320000", "111434.780000", "111435.240000", "111435.700000", "111436.160000", "111436.620000", "111437.080000", "111437.540000", "111438.000000", "111438.460000", "111438.920000", "111439.380000", "111439.840000", "111440.300000", "111440.760000", "111441.220000", "111441.680000", "111442.140000", "111442.600000", "111443.060000", "111443.520000", "111443.980000", "111444.440000", "111444.900000", "111445.360000", "111445.820000", "111446.280000", "111446.740000", "111447.200000", "111447.660000", "111448.120000", "111448.580000", "111449.040000", "111449.500000", "111449.960000", "111450.420000", "111450.880000", "111451.340000", "111451.800000", "111452.260000", "111452.720000", "111453.180000", "111453.640000", "111454.100000", "111454.560000", "111455.020000", "111455.480000", "111455.940000", "111456.400000", "111456.860000", "111457.320000", "111457.780000", "111458.240000", "111458.700000", "111459.160000", "111459.620000", "111500.080000", "111500.540000", "111501.000000", "111501.460000", "111501.920000", "111502.380000", "111502.840000", "111503.300000", "111503.760000", "111504.220000", "111504.680000", "111505.140000", "111505.600000", "111506.060000", "111506.520000", "111506.980000", "111507.440000", "111507.900000", "111508.360000", "111508.820000", "111509.280000", "111509.740000", "111510.200000", "111510.660000", "111511.120000", "111511.580000", "111512.040000", "111512.500000", "111512.960000", "111513.420000", "111513.880000", "111514.340000", "111514.800000", "111515.260000", "111515.720000", "111516.180000", "111516.640000", "111517.100000", "111517.560000", "111518.020000", "111518.480000", "111518.940000", "111519.400000", "111519.860000", "111520.320000", "111520.780000", "111521.240000", "111521.700000", "111522.160000", "111522.620000", "111523.080000", "111523.540000", "111524.000000", "111524.460000", "111524.920000", "111525.380000", "111525.840000", "111526.300000", "111526.760000", "111527.220000", "111527.680000", "111528.140000", "111528.600000", "111529.060000", "111529.520000", "111529.980000", "111530.440000", "111530.900000", "111531.360000", "111531.820000", "111532.280000", "111532.740000", "111533.200000", "111533.660000", "111534.120000", "111534.580000", "111535.040000", "111535.500000", "111535.960000", "111536.420000", "111536.880000", "111537.340000", "111537.800000", "111538.260000", "111538.720000", "111539.180000", "111539.640000", "111540.100000", "111540.560000", "111541.020000", "111541.480000", "111541.940000", "111542.400000", "111542.860000", "111543.320000", "111543.780000", "111544.240000", "111544.700000", "111545.160000", "111545.620000", "111546.080000", "111546.540000", "111547.000000", "111547.460000", "111547.920000", "111548.380000", "111548.840000", "111549.300000", "111549.760000", "111550.220000", "111550.680000", "111551.140000", "111551.600000", "111552.060000", "111552.520000", "111552.980000", "111553.440000", "111553.900000", "111554.360000", "111554.820000", "111555.280000", "111555.740000", "111556.200000", "111556.660000", "111557.120000", "111557.580000", "111558.040000", "111558.500000", "111558.960000", "111559.420000", "111559.880000", "111600.340000", "111600.800000", "111601.260000", "111601.720000", "111602.180000", "111602.640000", "111603.100000", "111603.560000", "111604.020000", "111604.480000", "111604.940000", "111605.400000", "111605.860000", "111606.320000", "111606.780000", "111607.240000", "111607.700000", "111608.160000", "111608.620000", "111609.080000", "111609.540000", "111610.000000", "111610.460000", "111610.920000", "111611.380000", "111611.840000", "111612.300000", "111612.760000", "111613.220000", "111613.680000", "111614.140000", "111614.600000", "111615.060000", "111615.520000", "111615.980000", "111616.440000", "111616.900000", "111617.360000", "111617.820000", "111618.280000", "111618.740000", "111619.200000", "111619.660000", "111620.120000", "111620.580000", "111621.040000", "111621.500000", "111621.960000", "111622.420000", "111622.880000", "111623.340000", "111623.800000", "111624.260000", "111624.720000", "111625.180000", "111625.640000", "111626.100000", "111626.560000", "111627.020000", "111627.480000", "111627.940000", "111628.400000", "111628.860000", "111629.320000", "111629.780000", "111630.240000", "111630.700000", "111631.160000", "111631.620000", "111632.080000", "111632.540000", "111633.000000", "111633.460000", "111633.920000", "111634.380000", "111634.840000", "111635.300000", "111635.760000", "111636.220000", "111636.680000", "111637.140000", "111637.600000", "111638.060000", "111638.520000", "111638.980000", "111639.440000", "111639.900000", "111640.360000", "111640.820000", "111641.280000", "111641.740000", "111642.200000", "111642.660000", "111643.120000", "111643.580000", "111644.040000", "111644.500000", "111644.960000", "111645.420000", "111645.880000", "111646.340000", "111646.800000", "111647.260000", "111647.720000", "111648.180000", "111648.640000", "111649.100000", "111649.560000", "111650.020000", "111650.480000", "111650.940000", "111651.400000", "111651.860000", "111652.320000", "111652.780000", "111653.240000", "111653.700000", "111654.160000", "111654.620000", "111655.080000", "111655.540000", "111656.000000", "111656.460000", "111656.920000", "111657.380000", "111657.840000", "111658.300000", "111658.760000", "111659.220000", "111659.680000", "111700.140000", "111700.600000", "111701.060000", "111701.520000", "111701.980000", "111702.440000", "111702.900000", "111703.360000", "111703.820000", "111704.280000", "111704.740000", "111705.200000", "111705.660000", "111706.120000", "111706.580000", "111707.040000", "111707.500000", "111707.960000", "111708.420000", "111708.880000", "111709.340000", "111709.800000", "111710.260000", "111710.720000", "111711.180000", "111711.640000", "111712.100000", "111712.560000", "111713.020000", "111713.480000", "111713.940000", "111714.400000", "111714.860000", "111715.320000", "111715.780000", "111716.240000", "111716.700000", "111717.160000", "111717.620000", "111718.080000", "111718.540000", "111719.000000", "111719.460000", "111719.920000", "111720.380000", "111720.840000", "111721.300000", "111721.760000", "111722.220000", "111722.680000", "111723.140000", "111723.600000", "111724.060000", "111724.520000", "111724.980000", "111725.440000", "111725.900000", "111726.360000", "111726.820000", "111727.280000", "111727.740000", "111728.200000", "111728.660000", "111729.120000", "111729.580000", "111730.040000", "111730.500000", "111730.960000", "111731.420000", "111731.880000", "111732.340000", "111732.800000", "111733.260000", "111733.720000", "111734.180000", "111734.640000", "111735.100000", "111735.560000", "111736.020000", "111736.480000", "111736.940000", "111737.400000", "111737.860000", "111738.320000", "111738.780000", "111739.240000"],
