{
  "AcquisitionMatrixPE": 82,
  "AcquisitionNumber": 1,
  "AcquisitionTime": "11:20:33.752500",
  "BandwidthPerPixelPhaseEncode": 24.888,
  "BaseResolution": 82,
  "BodyPartExamined": "BRAIN",
  "ConsistencyInfo": "N4_VE11E_LATEST_20181129",
  "ConversionSoftware": "dcm2niix",
  "ConversionSoftwareVersion": "v1.0.20201102",
  "DerivedVendorReportedEchoSpacing": 0.00049,
  "DeviceSerialNumber": "66112",
  "DwellTime": 2e-06,
  "EchoTime": 0.0272,
  "EchoTrainLength": 82,
  "EffectiveEchoSpacing": 0.00049,
  "FlipAngle": 44,
  "ImageComments": "Unaliased MB8/PE3",
  "ImageOrientationPatientDICOM": [0.999302, -0.00784484, -0.0365319, 0.00906958, 0.999398, 0.0334813],
  "ImageType": [
    "ORIGINAL",
    "PRIMARY",
    "M",
    "MB",
    "ND",
    "NORM",
    "MOSAIC"
],
  "ImagingFrequency": 123.252,
  "InPlanePhaseEncodingDirectionDICOM": "COL",
  "InstitutionAddress": "Maynard 3,Hanover,NH,US,03755",
  "InstitutionName": "Dartmouth College - PBS",
  "InstitutionalDepartmentName": "Department",
  "MRAcquisitionType": "2D",
  "MagneticFieldStrength": 3,
  "Manufacturer": "Siemens",
  "ManufacturersModelName": "Prisma",
  "Modality": "MR",
  "MultibandAccelerationFactor": 8,
  "PartialFourier": 1,
  "PatientPosition": "HFS",
  "PercentPhaseFOV": 100,
  "PercentSampling": 100,
  "PhaseEncodingDirection": "j-",
  "PhaseEncodingSteps": 82,
  "PhaseResolution": 1,
  "PixelBandwidth": 3050,
  "ProcedureStepDescription": "Wager_Wager^1076_spacetop",
  "ProtocolName": "func_run-01_task-alignvideo_acq-ap-mb8",
  "PulseSequenceDetails": "%CustomerSeq%\\cmrr_mbep2d_bold",
  "ReceiveCoilActiveElements": "HEA;HEP",
  "ReceiveCoilName": "Head_32",
  "ReconMatrixPE": 82,
  "RepetitionTime": 0.46,
  "SAR": 0.103931,
  "ScanOptions": "FS",
  "ScanningSequence": "EP",
  "SequenceName": "epfid2d1_82",
  "SequenceVariant": "SK\\SS",
  "SeriesDescription": "func_run-01_task-alignvideo_acq-ap-mb8",
  "SeriesNumber": 26,
  "ShimSetting": [4167, -7704, -7204, 690, 28, 46, -33, 65],
  "SliceThickness": 2.7,
  "SliceTiming": [0, 0.25, 0.0625, 0.315, 0.125, 0.3775, 0.1875, 0, 0.25, 0.0625, 0.315, 0.125, 0.3775, 0.1875, 0, 0.25, 0.0625, 0.315, 0.125, 0.3775, 0.1875, 0, 0.25, 0.0625, 0.315, 0.125, 0.3775, 0.1875, 0, 0.25, 0.0625, 0.315, 0.125, 0.3775, 0.1875, 0, 0.25, 0.0625, 0.315, 0.125, 0.3775, 0.1875, 0, 0.25, 0.0625, 0.315, 0.125, 0.3775, 0.1875, 0, 0.25, 0.0625, 0.315, 0.125, 0.3775, 0.1875],
  "SoftwareVersions": "syngo MR E11",
  "SpacingBetweenSlices": 2.7,
  "StationName": "AWP66112",
  "TaskName": "alignvideo",
  "TotalReadoutTime": 0.03969,
  "TxRefAmp": 244.77,
  "WipMemBlock": "df4cfa24-a6dd-4a50-b608-0bd8d8afe004||Sequence: R016 ve11e/master r/434b28f1; Aug  7 2019 18:53:46 by eja",
  "dcmmeta_affine": [
    [-2.681053400039673, 0.024333029985427856, -0.0978676825761795, 115.04586029052734],
    [0.021047120913863182, 2.681312322616577, 0.09123091399669647, -96.13279724121094],
    [-0.09801249951124191, -0.08982782065868378, 2.696682929992676, -35.60719299316406],
    [0.0, 0.0, 0.0, 1.0]
],
  "dcmmeta_reorient_transform": [
    [0.0, -1.0, 0.0, 81.0],
    [1.0, 0.0, 0.0, 0.0],
    [0.0, 0.0, 1.0, 0.0],
    [0.0, 0.0, 0.0, 1.0]
],
  "dcmmeta_shape": [82, 82, 56, 1073],
  "dcmmeta_slice_dim": 2,
  "dcmmeta_version": 0.6,
  "global": {
    "const": {
      "AccessionNumber": "A004014",
      "AcquisitionMatrix": [82, 0, 0, 82],
      "AngioFlag": "N",
      "BitsAllocated": 16,
      "BitsStored": 16,
      "BodyPartExamined": "BRAIN",
      "Columns": 656,
      "EchoNumbers": 1,
      "EchoTime": 27.2,
      "EchoTrainLength": 82,
      "FlipAngle": 44.0,
      "HighBit": 15,
      "ImageOrientationPatient": [0.9993016944632, -0.0078448354667, -0.0365319312311, 0.00906958346253, 0.99939819226003, 0.03348127780127],
      "ImagePositionPatient": [-893.46273877311, -884.54959978936, -40.534243582265],
      "ImageType": [
        "ORIGINAL",
        "PRIMARY",
        "M",
        "MB",
        "ND",
        "NORM",
        "MOSAIC"
],
      "ImagedNucleus": "1H",
      "ImagingFrequency": 123.252181,
      "InPlanePhaseEncodingDirection": "COL",
      "MRAcquisitionType": "2D",
      "MagneticFieldStrength": 3.0,
      "Manufacturer": "SIEMENS",
      "ManufacturerModelName": "Prisma",
      "Modality": "MR",
      "NumberOfAverages": 1.0,
      "NumberOfPhaseEncodingSteps": 82,
      "PercentPhaseFieldOfView": 100.0,
      "PercentSampling": 100.0,
      "PerformedProcedureStepStartTime": "100947.520000",
      "PhotometricInterpretation": "MONOCHROME2",
      "PixelBandwidth": 3050.0,
      "PixelRepresentation": 0,
      "PixelSpacing": [2.6829268932343, 2.6829268932343],
      "ProtocolName": "func_run-01_task-alignvideo_acq-ap-mb8",
      "RepetitionTime": 460.0,
      "Rows": 656,
      "SAR": 0.1039309383524,
      "SamplesPerPixel": 1,
      "ScanOptions": "FS",
      "ScanningSequence": "EP",
      "SequenceName": "epfid2d1_82",
      "SequenceVariant": [
        "SK",
        "SS"
],
      "SeriesDescription": "func_run-01_task-alignvideo_acq-ap-mb8",
      "SeriesNumber": 26,
      "SeriesTime": "112055.373000",
      "SliceLocation": -42.981802056019,
      "SliceThickness": 2.7000000476837,
      "SmallestImagePixelValue": 0,
      "SoftwareVersions": "syngo MR E11",
      "SpacingBetweenSlices": 2.6999999464285,
      "SpecificCharacterSet": "ISO_IR 100",
      "StudyID": "1",
      "StudyTime": "100947.433000",
      "TransmitCoilName": "Body",
      "VariableFlipAngleFlag": "N",
      "WindowCenterWidthExplanation": "Algo1"
    },
    "slices": {}
  },
  "time": {
    "samples": {
      "AcquisitionNumber": [1, 2, 3, 4, 5, 6, 7, 8, 9, 10, 11, 12, 13, 14, 15, 16, 17, 18, 19, 20, 21, 22, 23, 24, 25, 26, 27, 28, 29, 30, 31, 32, 33, 34, 35, 36, 37, 38, 39, 40, 41, 42, 43, 44, 45, 46, 47, 48, 49, 50, 51, 52, 53, 54, 55, 56, 57, 58, 59, 60, 61, 62, 63, 64, 65, 66, 67, 68, 69, 70, 71, 72, 73, 74, 75, 76, 77, 78, 79, 80, 81, 82, 83, 84, 85, 86, 87, 88, 89, 90, 91, 92, 93, 94, 95, 96, 97, 98, 99, 100, 101, 102, 103, 104, 105, 106, 107, 108, 109, 110, 111, 112, 113, 114, 115, 116, 117, 118, 119, 120, 121, 122, 123, 124, 125, 126, 127, 128, 129, 130, 131, 132, 133, 134, 135, 136, 137, 138, 139, 140, 141, 142, 143, 144, 145, 146, 147, 148, 149, 150, 151, 152, 153, 154, 155, 156, 157, 158, 159, 160, 161, 162, 163, 164, 165, 166, 167, 168, 169, 170, 171, 172, 173, 174, 175, 176, 177, 178, 179, 180, 181, 182, 183, 184, 185, 186, 187, 188, 189, 190, 191, 192, 193, 194, 195, 196, 197, 198, 199, 200, 201, 202, 203, 204, 205, 206, 207, 208, 209, 210, 211, 212, 213, 214, 215, 216, 217, 218, 219, 220, 221, 222, 223, 224, 225, 226, 227, 228, 229, 230, 231, 232, 233, 234, 235, 236, 237, 238, 239, 240, 241, 242, 243, 244, 245, 246, 247, 248, 249, 250, 251, 252, 253, 254, 255, 256, 257, 258, 259, 260, 261, 262, 263, 264, 265, 266, 267, 268, 269, 270, 271, 272, 273, 274, 275, 276, 277, 278, 279, 280, 281, 282, 283, 284, 285, 286, 287, 288, 289, 290, 291, 292, 293, 294, 295, 296, 297, 298, 299, 300, 301, 302, 303, 304, 305, 306, 307, 308, 309, 310, 311, 312, 313, 314, 315, 316, 317, 318, 319, 320, 321, 322, 323, 324, 325, 326, 327, 328, 329, 330, 331, 332, 333, 334, 335, 336, 337, 338, 339, 340, 341, 342, 343, 344, 345, 346, 347, 348, 349, 350, 351, 352, 353, 354, 355, 356, 357, 358, 359, 360, 361, 362, 363, 364, 365, 366, 367, 368, 369, 370, 371, 372, 373, 374, 375, 376, 377, 378, 379, 380, 381, 382, 383, 384, 385, 386, 387, 388, 389, 390, 391, 392, 393, 394, 395, 396, 397, 398, 399, 400, 401, 402, 403, 404, 405, 406, 407, 408, 409, 410, 411, 412, 413, 414, 415, 416, 417, 418, 419, 420, 421, 422, 423, 424, 425, 426, 427, 428, 429, 430, 431, 432, 433, 434, 435, 436, 437, 438, 439, 440, 441, 442, 443, 444, 445, 446, 447, 448, 449, 450, 451, 452, 453, 454, 455, 456, 457, 458, 459, 460, 461, 462, 463, 464, 465, 466, 467, 468, 469, 470, 471, 472, 473, 474, 475, 476, 477, 478, 479, 480, 481, 482, 483, 484, 485, 486, 487, 488, 489, 490, 491, 492, 493, 494, 495, 496, 497, 498, 499, 500, 501, 502, 503, 504, 505, 506, 507, 508, 509, 510, 511, 512, 513, 514, 515, 516, 517, 518, 519, 520, 521, 522, 523, 524, 525, 526, 527, 528, 529, 530, 531, 532, 533, 534, 535, 536, 537, 538, 539, 540, 541, 542, 543, 544, 545, 546, 547, 548, 549, 550, 551, 552, 553, 554, 555, 556, 557, 558, 559, 560, 561, 562, 563, 564, 565, 566, 567, 568, 569, 570, 571, 572, 573, 574, 575, 576, 577, 578, 579, 580, 581, 582, 583, 584, 585, 586, 587, 588, 589, 590, 591, 592, 593, 594, 595, 596, 597, 598, 599, 600, 601, 602, 603, 604, 605, 606, 607, 608, 609, 610, 611, 612, 613, 614, 615, 616, 617, 618, 619, 620, 621, 622, 623, 624, 625, 626, 627, 628, 629, 630, 631, 632, 633, 634, 635, 636, 637, 638, 639, 640, 641, 642, 643, 644, 645, 646, 647, 648, 649, 650, 651, 652, 653, 654, 655, 656, 657, 658, 659, 660, 661, 662, 663, 664, 665, 666, 667, 668, 669, 670, 671, 672, 673, 674, 675, 676, 677, 678, 679, 680, 681, 682, 683, 684, 685, 686, 687, 688, 689, 690, 691, 692, 693, 694, 695, 696, 697, 698, 699, 700, 701, 702, 703, 704, 705, 706, 707, 708, 709, 710, 711, 712, 713, 714, 715, 716, 717, 718, 719, 720, 721, 722, 723, 724, 725, 726, 727, 728, 729, 730, 731, 732, 733, 734, 735, 736, 737, 738, 739, 740, 741, 742, 743, 744, 745, 746, 747, 748, 749, 750, 751, 752, 753, 754, 755, 756, 757, 758, 759, 760, 761, 762, 763, 764, 765, 766, 767, 768, 769, 770, 771, 772, 773, 774, 775, 776, 777, 778, 779, 780, 781, 782, 783, 784, 785, 786, 787, 788, 789, 790, 791, 792, 793, 794, 795, 796, 797, 798, 799, 800, 801, 802, 803, 804, 805, 806, 807, 808, 809, 810, 811, 812, 813, 814, 815, 816, 817, 818, 819, 820, 821, 822, 823, 824, 825, 826, 827, 828, 829, 830, 831, 832, 833, 834, 835, 836, 837, 838, 839, 840, 841, 842, 843, 844, 845, 846, 847, 848, 849, 850, 851, 852, 853, 854, 855, 856, 857, 858, 859, 860, 861, 862, 863, 864, 865, 866, 867, 868, 869, 870, 871, 872, 873, 874, 875, 876, 877, 878, 879, 880, 881, 882, 883, 884, 885, 886, 887, 888, 889, 890, 891, 892, 893, 894, 895, 896, 897, 898, 899, 900, 901, 902, 903, 904, 905, 906, 907, 908, 909, 910, 911, 912, 913, 914, 915, 916, 917, 918, 919, 920, 921, 922, 923, 924, 925, 926, 927, 928, 929, 930, 931, 932, 933, 934, 935, 936, 937, 938, 939, 940, 941, 942, 943, 944, 945, 946, 947, 948, 949, 950, 951, 952, 953, 954, 955, 956, 957, 958, 959, 960, 961, 962, 963, 964, 965, 966, 967, 968, 969, 970, 971, 972, 973, 974, 975, 976, 977, 978, 979, 980, 981, 982, 983, 984, 985, 986, 987, 988, 989, 990, 991, 992, 993, 994, 995, 996, 997, 998, 999, 1000, 1001, 1002, 1003, 1004, 1005, 1006, 1007, 1008, 1009, 1010, 1011, 1012, 1013, 1014, 1015, 1016, 1017, 1018, 1019, 1020, 1021, 1022, 1023, 1024, 1025, 1026, 1027, 1028, 1029, 1030, 1031, 1032, 1033, 1034, 1035, 1036, 1037, 1038, 1039, 1040, 1041, 1042, 1043, 1044, 1045, 1046, 1047, 1048, 1049, 1050, 1051, 1052, 1053, 1054, 1055, 1056, 1057, 1058, 1059, 1060, 1061, 1062, 1063, 1064, 1065, 1066, 1067, 1068, 1069, 1070, 1071, 1072, 1073],
      "AcquisitionTime": ["112033.752500", "112034.212500", "112034.672500", "112035.132500", "112035.592500", "112036.052500", "112036.512500", "112036.972500", "112037.432500", "112037.892500", "112038.352500", "112038.812500", "112039.272500", "112039.732500", "112040.192500", "112040.652500", "112041.112500", "112041.572500", "112042.032500", "112042.492500", "112042.952500", "112043.412500", "112043.872500", "112044.332500", "112044.792500", "112045.252500", "112045.712500", "112046.172500", "112046.632500", "112047.092500", "112047.552500", "112048.012500", "112048.472500", "112048.932500", "112049.392500", "112049.852500", "112050.312500", "112050.772500", "112051.232500", "112051.692500", "112052.152500", "112052.612500", "112053.072500", "112053.532500", "112053.992500", "112054.452500", "112054.912500", "112055.372500", "112055.832500", "112056.292500", "112056.752500", "112057.212500", "112057.672500", "112058.132500", "112058.592500", "112059.052500", "112059.512500", "112059.972500", "112100.432500", "112100.892500", "112101.352500", "112101.812500", "112102.272500", "112102.732500", "112103.192500", "112103.652500", "112104.112500", "112104.572500", "112105.032500", "112105.492500", "112105.952500", "112106.412500", "112106.872500", "112107.332500", "112107.792500", "112108.252500", "112108.712500", "112109.172500", "112109.632500", "112110.092500", "112110.552500", "112111.012500", "112111.472500", "112111.932500", "112112.392500", "112112.852500", "112113.312500", "112113.772500", "112114.232500", "112114.692500", "112115.152500", "112115.612500", "112116.072500", "112116.532500", "112116.992500", "112117.452500", "112117.912500", "112118.372500", "112118.832500", "112119.292500", "112119.752500", "112120.212500", "112120.672500", "112121.132500", "112121.592500", "112122.052500", "112122.512500", "112122.972500", "112123.432500", "112123.892500", "112124.352500", "112124.812500", "112125.272500", "112125.732500", "112126.192500", "112126.652500", "112127.112500", "112127.572500", "112128.032500", "112128.492500", "112128.952500", "112129.412500", "112129.872500", "112130.332500", "112130.792500", "112131.252500", "112131.712500", "112132.172500", "112132.632500", "112133.092500", "112133.552500", "112134.012500", "112134.472500", "112134.932500", "112135.392500", "112135.852500", "112136.312500", "112136.772500", "112137.232500", "112137.692500", "112138.152500", "112138.612500", "112139.072500", "112139.532500", "112139.992500", "112140.452500", "112140.912500", "112141.372500", "112141.832500", "112142.292500", "112142.752500", "112143.212500", "112143.672500", "112144.132500", "112144.592500", "112145.052500", "112145.512500", "112145.972500", "112146.432500", "112146.892500", "112147.352500", "112147.812500", "112148.272500", "112148.732500", "112149.192500", "112149.652500", "112150.112500", "112150.572500", "112151.032500", "112151.492500", "112151.952500", "112152.412500", "112152.872500", "112153.332500", "112153.792500", "112154.252500", "112154.712500", "112155.172500", "112155.632500", "112156.092500", "112156.552500", "112157.012500", "112157.472500", "112157.932500", "112158.392500", "112158.852500", "112159.312500", "112159.772500", "112200.232500", "112200.692500", "112201.152500", "112201.612500", "112202.072500", "112202.532500", "112202.992500", "112203.452500", "112203.912500", "112204.372500", "112204.832500", "112205.292500", "112205.752500", "112206.212500", "112206.672500", "112207.132500", "112207.592500", "112208.052500", "112208.512500", "112208.972500", "112209.432500", "112209.892500", "112210.352500", "112210.812500", "112211.272500", "112211.732500", "112212.192500", "112212.652500", "112213.112500", "112213.572500", "112214.032500", "112214.492500", "112214.952500", "112215.412500", "112215.872500", "112216.332500", "112216.792500", "112217.252500", "112217.712500", "112218.172500", "112218.632500", "112219.092500", "112219.552500", "112220.012500", "112220.472500", "112220.932500", "112221.392500", "112221.852500", "112222.312500", "112222.772500", "112223.232500", "112223.692500", "112224.152500", "112224.612500", "112225.072500", "112225.532500", "112225.992500", "112226.452500", "112226.912500", "112227.372500", "112227.832500", "112228.292500", "112228.752500", "112229.212500", "112229.672500", "112230.132500", "112230.592500", "112231.052500", "112231.512500", "112231.972500", "112232.432500", "112232.892500", "112233.352500", "112233.812500", "112234.272500", "112234.732500", "112235.192500", "112235.652500", "112236.112500", "112236.572500", "112237.032500", "112237.492500", "112237.952500", "112238.412500", "112238.872500", "112239.332500", "112239.792500", "112240.252500", "112240.712500", "112241.172500", "112241.632500", "112242.092500", "112242.552500", "112243.012500", "112243.472500", "112243.932500", "112244.392500", "112244.852500", "112245.312500", "112245.772500", "112246.232500", "112246.692500", "112247.152500", "112247.612500", "112248.072500", "112248.532500", "112248.992500", "112249.452500", "112249.912500", "112250.372500", "112250.832500", "112251.292500", "112251.752500", "112252.212500", "112252.672500", "112253.132500", "112253.592500", "112254.052500", "112254.512500", "112254.972500", "112255.432500", "112255.892500", "112256.352500", "112256.812500", "112257.272500", "112257.732500", "112258.192500", "112258.652500", "112259.112500", "112259.572500", "112300.032500", "112300.492500", "112300.952500", "112301.412500", "112301.872500", "112302.332500", "112302.792500", "112303.252500", "112303.712500", "112304.172500", "112304.632500", "112305.092500", "112305.552500", "112306.012500", "112306.472500", "112306.932500", "112307.392500", "112307.852500", "112308.312500", "112308.772500", "112309.232500", "112309.692500", "112310.152500", "112310.612500", "112311.072500", "112311.532500", "112311.992500", "112312.452500", "112312.912500", "112313.372500", "112313.832500", "112314.292500", "112314.752500", "112315.212500", "112315.672500", "112316.132500", "112316.592500", "112317.052500", "112317.512500", "112317.972500", "112318.432500", "112318.892500", "112319.352500", "112319.812500", "112320.272500", "112320.732500", "112321.192500", "112321.652500", "112322.112500", "112322.572500", "112323.032500", "112323.492500", "112323.952500", "112324.412500", "112324.872500", "112325.332500", "112325.792500", "112326.252500", "112326.712500", "112327.172500", "112327.632500", "112328.092500", "112328.552500", "112329.012500", "112329.472500", "112329.932500", "112330.392500", "112330.852500", "112331.312500", "112331.772500", "112332.232500", "112332.692500", "112333.152500", "112333.612500", "112334.072500", "112334.532500", "112334.992500", "112335.452500", "112335.912500", "112336.372500", "112336.832500", "112337.292500", "112337.752500", "112338.212500", "112338.672500", "112339.132500", "112339.592500", "112340.052500", "112340.512500", "112340.972500", "112341.432500", "112341.892500", "112342.352500", "112342.812500", "112343.272500", "112343.732500", "112344.192500", "112344.652500", "112345.112500", "112345.572500", "112346.032500", "112346.492500", "112346.952500", "112347.412500", "112347.872500", "112348.332500", "112348.792500", "112349.252500", "112349.712500", "112350.172500", "112350.632500", "112351.092500", "112351.552500", "112352.012500", "112352.472500", "112352.932500", "112353.392500", "112353.852500", "112354.312500", "112354.772500", "112355.232500", "112355.692500", "112356.152500", "112356.612500", "112357.072500", "112357.532500", "112357.992500", "112358.452500", "112358.912500", "112359.372500", "112359.832500", "112400.292500", "112400.752500", "112401.212500", "112401.672500", "112402.132500", "112402.592500", "112403.052500", "112403.512500", "112403.972500", "112404.432500", "112404.892500", "112405.352500", "112405.812500", "112406.272500", "112406.732500", "112407.192500", "112407.652500", "112408.112500", "112408.572500", "112409.032500", "112409.492500", "112409.952500", "112410.412500", "112410.872500", "112411.332500", "112411.792500", "112412.252500", "112412.712500", "112413.172500", "112413.632500", "112414.092500", "112414.552500", "112415.012500", "112415.472500", "112415.932500", "112416.392500", "112416.852500", "112417.312500", "112417.772500", "112418.232500", "112418.692500", "112419.152500", "112419.612500", "112420.072500", "112420.532500", "112420.992500", "112421.452500", "112421.912500", "112422.372500", "112422.832500", "112423.292500", "112423.752500", "112424.212500", "112424.672500", "112425.132500", "112425.592500", "112426.052500", "112426.512500", "112426.972500", "112427.432500", "112427.892500", "112428.352500", "112428.812500", "112429.272500", "112429.732500", "112430.192500", "112430.652500", "112431.112500", "112431.572500", "112432.032500", "112432.492500", "112432.952500", "112433.412500", "112433.872500", "112434.332500", "112434.792500", "112435.252500", "112435.712500", "112436.172500", "112436.632500", "112437.092500", "112437.552500", "112438.012500", "112438.472500", "112438.932500", "112439.392500", "112439.852500", "112440.312500", "112440.772500", "112441.232500", "112441.692500", "112442.152500", "112442.612500", "112443.072500", "112443.532500", "112443.992500", "112444.452500", "112444.912500", "112445.372500", "112445.832500", "112446.292500", "112446.752500", "112447.212500", "112447.672500", "112448.132500", "112448.592500", "112449.052500", "112449.512500", "112449.972500", "112450.432500", "112450.892500", "112451.352500", "112451.812500", "112452.272500", "112452.732500", "112453.192500", "112453.652500", "112454.112500", "112454.572500", "112455.032500", "112455.492500", "112455.952500", "112456.412500", "112456.872500", "112457.332500", "112457.792500", "112458.252500", "112458.712500", "112459.172500", "112459.632500", "112500.092500", "112500.552500", "112501.012500", "112501.472500", "112501.932500", "112502.392500", "112502.852500", "112503.312500", "112503.772500", "112504.232500", "112504.692500", "112505.152500", "112505.612500", "112506.072500", "112506.532500", "112506.992500", "112507.452500", "112507.912500", "112508.372500", "112508.832500", "112509.292500", "112509.752500", "112510.212500", "112510.672500", "112511.132500", "112511.592500", "112512.052500", "112512.512500", "112512.972500", "112513.432500", "112513.892500", "112514.352500", "112514.812500", "112515.272500", "112515.732500", "112516.192500", "112516.652500", "112517.112500", "112517.572500", "112518.032500", "112518.492500", "112518.952500", "112519.412500", "112519.872500", "112520.332500", "112520.792500", "112521.252500", "112521.712500", "112522.172500", "112522.632500", "112523.092500", "112523.552500", "112524.012500", "112524.472500", "112524.932500", "112525.392500", "112525.852500", "112526.312500", "112526.772500", "112527.232500", "112527.692500", "112528.152500", "112528.612500", "112529.072500", "112529.532500", "112529.992500", "112530.452500", "112530.912500", "112531.372500", "112531.832500", "112532.292500", "112532.752500", "112533.212500", "112533.672500", "112534.132500", "112534.592500", "112535.052500", "112535.512500", "112535.972500", "112536.432500", "112536.892500", "112537.352500", "112537.812500", "112538.272500", "112538.732500", "112539.192500", "112539.652500", "112540.112500", "112540.572500", "112541.032500", "112541.492500", "112541.952500", "112542.412500", "112542.872500", "112543.332500", "112543.792500", "112544.252500", "112544.712500", "112545.172500", "112545.632500", "112546.092500", "112546.552500", "112547.012500", "112547.472500", "112547.932500", "112548.392500", "112548.852500", "112549.312500", "112549.772500", "112550.232500", "112550.692500", "112551.152500", "112551.612500", "112552.072500", "112552.532500", "112552.992500", "112553.452500", "112553.912500", "112554.372500", "112554.832500", "112555.292500", "112555.752500", "112556.212500", "112556.672500", "112557.132500", "112557.592500", "112558.052500", "112558.512500", "112558.972500", "112559.432500", "112559.892500", "112600.352500", "112600.812500", "112601.272500", "112601.732500", "112602.192500", "112602.652500", "112603.112500", "112603.572500", "112604.032500", "112604.492500", "112604.952500", "112605.412500", "112605.872500", "112606.332500", "112606.792500", "112607.252500", "112607.712500", "112608.172500", "112608.632500", "112609.092500", "112609.552500", "112610.012500", "112610.472500", "112610.932500", "112611.392500", "112611.852500", "112612.312500", "112612.772500", "112613.232500", "112613.692500", "112614.152500", "112614.612500", "112615.072500", "112615.532500", "112615.992500", "112616.452500", "112616.912500", "112617.372500", "112617.832500", "112618.292500", "112618.752500", "112619.212500", "112619.672500", "112620.132500", "112620.592500", "112621.052500", "112621.512500", "112621.972500", "112622.432500", "112622.892500", "112623.352500", "112623.812500", "112624.272500", "112624.732500", "112625.192500", "112625.652500", "112626.112500", "112626.572500", "112627.032500", "112627.492500", "112627.952500", "112628.412500", "112628.872500", "112629.332500", "112629.792500", "112630.252500", "112630.712500", "112631.172500", "112631.632500", "112632.092500", "112632.552500", "112633.012500", "112633.472500", "112633.932500", "112634.392500", "112634.852500", "112635.312500", "112635.772500", "112636.232500", "112636.692500", "112637.152500", "112637.612500", "112638.072500", "112638.532500", "112638.992500", "112639.452500", "112639.912500", "112640.372500", "112640.832500", "112641.292500", "112641.752500", "112642.212500", "112642.672500", "112643.132500", "112643.592500", "112644.052500", "112644.512500", "112644.972500", "112645.432500", "112645.892500", "112646.352500", "112646.812500", "112647.272500", "112647.732500", "112648.192500", "112648.652500", "112649.112500", "112649.572500", "112650.032500", "112650.492500", "112650.952500", "112651.412500", "112651.872500", "112652.332500", "112652.792500", "112653.252500", "112653.712500", "112654.172500", "112654.632500", "112655.092500", "112655.552500", "112656.012500", "112656.472500", "112656.932500", "112657.392500", "112657.852500", "112658.312500", "112658.772500", "112659.232500", "112659.692500", "112700.152500", "112700.612500", "112701.072500", "112701.532500", "112701.992500", "112702.452500", "112702.912500", "112703.372500", "112703.832500", "112704.292500", "112704.752500", "112705.212500", "112705.672500", "112706.132500", "112706.592500", "112707.052500", "112707.512500", "112707.972500", "112708.432500", "112708.892500", "112709.352500", "112709.812500", "112710.272500", "112710.732500", "112711.192500", "112711.652500", "112712.112500", "112712.572500", "112713.032500", "112713.492500", "112713.952500", "112714.412500", "112714.872500", "112715.332500", "112715.792500", "112716.252500", "112716.712500", "112717.172500", "112717.632500", "112718.092500", "112718.552500", "112719.012500", "112719.472500", "112719.932500", "112720.392500", "112720.852500", "112721.312500", "112721.772500", "112722.232500", "112722.692500", "112723.152500", "112723.612500", "112724.072500", "112724.532500", "112724.992500", "112725.452500", "112725.912500", "112726.372500", "112726.832500", "112727.292500", "112727.752500", "112728.212500", "112728.672500", "112729.132500", "112729.592500", "112730.052500", "112730.512500", "112730.972500", "112731.432500", "112731.892500", "112732.352500", "112732.812500", "112733.272500", "112733.732500", "112734.192500", "112734.652500", "112735.112500", "112735.572500", "112736.032500", "112736.492500", "112736.952500", "112737.412500", "112737.872500", "112738.332500", "112738.792500", "112739.252500", "112739.712500", "112740.172500", "112740.632500", "112741.092500", "112741.552500", "112742.012500", "112742.472500", "112742.932500", "112743.392500", "112743.852500", "112744.312500", "112744.772500", "112745.232500", "112745.692500", "112746.152500", "112746.612500", "112747.072500", "112747.532500", "112747.992500", "112748.452500", "112748.912500", "112749.372500", "112749.832500", "112750.292500", "112750.752500", "112751.212500", "112751.672500", "112752.132500", "112752.592500", "112753.052500", "112753.512500", "112753.972500", "112754.432500", "112754.892500", "112755.352500", "112755.812500", "112756.272500", "112756.732500", "112757.192500", "112757.652500", "112758.112500", "112758.572500", "112759.032500", "112759.492500", "112759.952500", "112800.412500", "112800.872500", "112801.332500", "112801.792500", "112802.252500", "112802.712500", "112803.172500", "112803.632500", "112804.092500", "112804.552500", "112805.012500", "112805.472500", "112805.932500", "112806.392500", "112806.852500", "112807.312500", "112807.772500", "112808.232500", "112808.692500", "112809.152500", "112809.612500", "112810.072500", "112810.532500", "112810.992500", "112811.452500", "112811.912500", "112812.372500", "112812.832500", "112813.292500", "112813.752500", "112814.212500", "112814.672500", "112815.132500", "112815.592500", "112816.052500", "112816.512500", "112816.972500", "112817.432500", "112817.892500", "112818.352500", "112818.812500", "112819.272500", "112819.732500", "112820.192500", "112820.652500", "112821.112500", "112821.572500", "112822.032500", "112822.492500", "112822.952500", "112823.412500", "112823.872500", "112824.332500", "112824.792500", "112825.252500", "112825.712500", "112826.172500", "112826.632500", "112827.092500", "112827.552500", "112828.012500", "112828.472500", "112828.932500", "112829.392500", "112829.852500", "112830.312500", "112830.772500", "112831.232500", "112831.692500", "112832.152500", "112832.612500", "112833.072500", "112833.532500", "112833.992500", "112834.452500", "112834.912500", "112835.372500", "112835.832500", "112836.292500", "112836.752500", "112837.212500", "112837.672500", "112838.132500", "112838.592500", "112839.052500", "112839.512500", "112839.972500", "112840.432500", "112840.892500", "112841.352500", "112841.812500", "112842.272500", "112842.732500", "112843.192500", "112843.652500", "112844.112500", "112844.572500", "112845.032500", "112845.492500", "112845.952500", "112846.412500", "112846.872500"],
