{
  "AcquisitionMatrixPE": 82,
  "AcquisitionNumber": 1,
  "AcquisitionTime": "11:03:59.450000",
  "BandwidthPerPixelPhaseEncode": 24.888,
  "BaseResolution": 82,
  "BodyPartExamined": "BRAIN",
  "ConsistencyInfo": "N4_VE11E_LATEST_20181129",
  "ConversionSoftware": "dcm2niix",
  "ConversionSoftwareVersion": "v1.0.20201102",
  "DerivedVendorReportedEchoSpacing": 0.00049,
  "DeviceSerialNumber": "66112",
  "DwellTime": 2e-06,
  "EchoTime": 0.0272,
  "EchoTrainLength": 82,
  "EffectiveEchoSpacing": 0.00049,
  "FlipAngle": 44,
  "ImageComments": "Unaliased MB8/PE3",
  "ImageOrientationPatientDICOM": [0.999404, 0.00126565, -0.0344869, 0.00122101, 0.997405, 0.0719879],
  "ImageType": [
    "ORIGINAL",
    "PRIMARY",
    "M",
    "MB",
    "ND",
    "NORM",
    "MOSAIC"
],
  "ImagingFrequency": 123.252,
  "InPlanePhaseEncodingDirectionDICOM": "COL",
  "InstitutionAddress": "Maynard 3,Hanover,NH,US,03755",
  "InstitutionName": "Dartmouth College - PBS",
  "InstitutionalDepartmentName": "Department",
  "MRAcquisitionType": "2D",
  "MagneticFieldStrength": 3,
  "Manufacturer": "Siemens",
  "ManufacturersModelName": "Prisma",
  "Modality": "MR",
  "MultibandAccelerationFactor": 8,
  "PartialFourier": 1,
  "PatientPosition": "HFS",
  "PercentPhaseFOV": 100,
  "PercentSampling": 100,
  "PhaseEncodingDirection": "j-",
  "PhaseEncodingSteps": 82,
  "PhaseResolution": 1,
  "PixelBandwidth": 3050,
  "ProcedureStepDescription": "Wager_Wager^1076_spacetop",
  "ProtocolName": "func_run-05_task-social_acq-ap-mb8",
  "PulseSequenceDetails": "%CustomerSeq%\\cmrr_mbep2d_bold",
  "ReceiveCoilActiveElements": "HEA;HEP",
  "ReceiveCoilName": "Head_32",
  "ReconMatrixPE": 82,
  "RepetitionTime": 0.46,
  "SAR": 0.10381,
  "ScanOptions": "FS",
  "ScanningSequence": "EP",
  "SequenceName": "epfid2d1_82",
  "SequenceVariant": "SK\\SS",
  "SeriesDescription": "func_run-05_task-social_acq-ap-mb8",
  "SeriesNumber": 16,
  "ShimSetting": [4168, -7704, -7206, 685, 31, 43, -32, 65],
  "SliceThickness": 2.7,
  "SliceTiming": [0, 0.2525, 0.0625, 0.315, 0.125, 0.3775, 0.1875, 0, 0.2525, 0.0625, 0.315, 0.125, 0.3775, 0.1875, 0, 0.2525, 0.0625, 0.315, 0.125, 0.3775, 0.1875, 0, 0.2525, 0.0625, 0.315, 0.125, 0.3775, 0.1875, 0, 0.2525, 0.0625, 0.315, 0.125, 0.3775, 0.1875, 0, 0.2525, 0.0625, 0.315, 0.125, 0.3775, 0.1875, 0, 0.2525, 0.0625, 0.315, 0.125, 0.3775, 0.1875, 0, 0.2525, 0.0625, 0.315, 0.125, 0.3775, 0.1875],
  "SoftwareVersions": "syngo MR E11",
  "SpacingBetweenSlices": 2.7,
  "StationName": "AWP66112",
  "TaskName": "social",
  "TotalReadoutTime": 0.03969,
  "TxRefAmp": 244.77,
  "WipMemBlock": "a5c04912-bb05-4197-8f86-3753dc9d9bf9||Sequence: R016 ve11e/master r/434b28f1; Aug  7 2019 18:53:46 by eja",
  "dcmmeta_affine": [
    [-2.681328773498535, 0.0032758733723312616, -0.0931190773844719, 116.2338638305664],
    [-0.0033956393599510193, 2.675964117050171, 0.19436529278755188, -97.48538970947266],
    [-0.09252592921257019, -0.19313831627368927, 2.6913845539093018, -31.806289672851562],
    [0.0, 0.0, 0.0, 1.0]
],
  "dcmmeta_reorient_transform": [
    [0.0, -1.0, 0.0, 81.0],
    [1.0, 0.0, 0.0, 0.0],
    [0.0, 0.0, 1.0, 0.0],
    [0.0, 0.0, 0.0, 1.0]
],
  "dcmmeta_shape": [82, 82, 56, 872],
  "dcmmeta_slice_dim": 2,
  "dcmmeta_version": 0.6,
  "global": {
    "const": {
      "AccessionNumber": "A004014",
      "AcquisitionMatrix": [82, 0, 0, 82],
      "AngioFlag": "N",
      "BitsAllocated": 16,
      "BitsStored": 16,
      "BodyPartExamined": "BRAIN",
      "Columns": 656,
      "EchoNumbers": 1,
      "EchoTime": 27.2,
      "EchoTrainLength": 82,
      "FlipAngle": 44.0,
      "HighBit": 15,
      "ImageOrientationPatient": [0.99940434724598, 0.00126564735018, -0.0344869372752, 0.00122100734269, 0.99740475692248, 0.07198791571842],
      "ImagePositionPatient": [-886.98075009284, -888.24392763298, -76.326247864163],
      "ImageType": [
        "ORIGINAL",
        "PRIMARY",
        "M",
        "MB",
        "ND",
        "NORM",
        "MOSAIC"
],
      "ImagedNucleus": "1H",
      "ImagingFrequency": 123.252181,
      "InPlanePhaseEncodingDirection": "COL",
      "MRAcquisitionType": "2D",
      "MagneticFieldStrength": 3.0,
      "Manufacturer": "SIEMENS",
      "ManufacturerModelName": "Prisma",
      "Modality": "MR",
      "NumberOfAverages": 1.0,
      "NumberOfPhaseEncodingSteps": 82,
      "PercentPhaseFieldOfView": 100.0,
      "PercentSampling": 100.0,
      "PerformedProcedureStepStartTime": "100947.520000",
      "PhotometricInterpretation": "MONOCHROME2",
      "PixelBandwidth": 3050.0,
      "PixelRepresentation": 0,
      "PixelSpacing": [2.6829268932343, 2.6829268932343],
      "ProtocolName": "func_run-05_task-social_acq-ap-mb8",
      "RepetitionTime": 460.0,
      "Rows": 656,
      "SAR": 0.10380987453502,
      "SamplesPerPixel": 1,
      "ScanOptions": "FS",
      "ScanningSequence": "EP",
      "SequenceName": "epfid2d1_82",
      "SequenceVariant": [
        "SK",
        "SS"
],
      "SeriesDescription": "func_run-05_task-social_acq-ap-mb8",
      "SeriesNumber": 16,
      "SeriesTime": "110415.211000",
      "SliceLocation": -42.731231566445,
      "SliceThickness": 2.7000000476837,
      "SmallestImagePixelValue": 0,
      "SoftwareVersions": "syngo MR E11",
      "SpacingBetweenSlices": 2.7000000277323,
      "SpecificCharacterSet": "ISO_IR 100",
      "StudyID": "1",
      "StudyTime": "100947.433000",
      "TransmitCoilName": "Body",
      "VariableFlipAngleFlag": "N",
      "WindowCenterWidthExplanation": "Algo1"
    },
    "slices": {}
  },
  "time": {
    "samples": {
      "AcquisitionNumber": [1, 2, 3, 4, 5, 6, 7, 8, 9, 10, 11, 12, 13, 14, 15, 16, 17, 18, 19, 20, 21, 22, 23, 24, 25, 26, 27, 28, 29, 30, 31, 32, 33, 34, 35, 36, 37, 38, 39, 40, 41, 42, 43, 44, 45, 46, 47, 48, 49, 50, 51, 52, 53, 54, 55, 56, 57, 58, 59, 60, 61, 62, 63, 64, 65, 66, 67, 68, 69, 70, 71, 72, 73, 74, 75, 76, 77, 78, 79, 80, 81, 82, 83, 84, 85, 86, 87, 88, 89, 90, 91, 92, 93, 94, 95, 96, 97, 98, 99, 100, 101, 102, 103, 104, 105, 106, 107, 108, 109, 110, 111, 112, 113, 114, 115, 116, 117, 118, 119, 120, 121, 122, 123, 124, 125, 126, 127, 128, 129, 130, 131, 132, 133, 134, 135, 136, 137, 138, 139, 140, 141, 142, 143, 144, 145, 146, 147, 148, 149, 150, 151, 152, 153, 154, 155, 156, 157, 158, 159, 160, 161, 162, 163, 164, 165, 166, 167, 168, 169, 170, 171, 172, 173, 174, 175, 176, 177, 178, 179, 180, 181, 182, 183, 184, 185, 186, 187, 188, 189, 190, 191, 192, 193, 194, 195, 196, 197, 198, 199, 200, 201, 202, 203, 204, 205, 206, 207, 208, 209, 210, 211, 212, 213, 214, 215, 216, 217, 218, 219, 220, 221, 222, 223, 224, 225, 226, 227, 228, 229, 230, 231, 232, 233, 234, 235, 236, 237, 238, 239, 240, 241, 242, 243, 244, 245, 246, 247, 248, 249, 250, 251, 252, 253, 254, 255, 256, 257, 258, 259, 260, 261, 262, 263, 264, 265, 266, 267, 268, 269, 270, 271, 272, 273, 274, 275, 276, 277, 278, 279, 280, 281, 282, 283, 284, 285, 286, 287, 288, 289, 290, 291, 292, 293, 294, 295, 296, 297, 298, 299, 300, 301, 302, 303, 304, 305, 306, 307, 308, 309, 310, 311, 312, 313, 314, 315, 316, 317, 318, 319, 320, 321, 322, 323, 324, 325, 326, 327, 328, 329, 330, 331, 332, 333, 334, 335, 336, 337, 338, 339, 340, 341, 342, 343, 344, 345, 346, 347, 348, 349, 350, 351, 352, 353, 354, 355, 356, 357, 358, 359, 360, 361, 362, 363, 364, 365, 366, 367, 368, 369, 370, 371, 372, 373, 374, 375, 376, 377, 378, 379, 380, 381, 382, 383, 384, 385, 386, 387, 388, 389, 390, 391, 392, 393, 394, 395, 396, 397, 398, 399, 400, 401, 402, 403, 404, 405, 406, 407, 408, 409, 410, 411, 412, 413, 414, 415, 416, 417, 418, 419, 420, 421, 422, 423, 424, 425, 426, 427, 428, 429, 430, 431, 432, 433, 434, 435, 436, 437, 438, 439, 440, 441, 442, 443, 444, 445, 446, 447, 448, 449, 450, 451, 452, 453, 454, 455, 456, 457, 458, 459, 460, 461, 462, 463, 464, 465, 466, 467, 468, 469, 470, 471, 472, 473, 474, 475, 476, 477, 478, 479, 480, 481, 482, 483, 484, 485, 486, 487, 488, 489, 490, 491, 492, 493, 494, 495, 496, 497, 498, 499, 500, 501, 502, 503, 504, 505, 506, 507, 508, 509, 510, 511, 512, 513, 514, 515, 516, 517, 518, 519, 520, 521, 522, 523, 524, 525, 526, 527, 528, 529, 530, 531, 532, 533, 534, 535, 536, 537, 538, 539, 540, 541, 542, 543, 544, 545, 546, 547, 548, 549, 550, 551, 552, 553, 554, 555, 556, 557, 558, 559, 560, 561, 562, 563, 564, 565, 566, 567, 568, 569, 570, 571, 572, 573, 574, 575, 576, 577, 578, 579, 580, 581, 582, 583, 584, 585, 586, 587, 588, 589, 590, 591, 592, 593, 594, 595, 596, 597, 598, 599, 600, 601, 602, 603, 604, 605, 606, 607, 608, 609, 610, 611, 612, 613, 614, 615, 616, 617, 618, 619, 620, 621, 622, 623, 624, 625, 626, 627, 628, 629, 630, 631, 632, 633, 634, 635, 636, 637, 638, 639, 640, 641, 642, 643, 644, 645, 646, 647, 648, 649, 650, 651, 652, 653, 654, 655, 656, 657, 658, 659, 660, 661, 662, 663, 664, 665, 666, 667, 668, 669, 670, 671, 672, 673, 674, 675, 676, 677, 678, 679, 680, 681, 682, 683, 684, 685, 686, 687, 688, 689, 690, 691, 692, 693, 694, 695, 696, 697, 698, 699, 700, 701, 702, 703, 704, 705, 706, 707, 708, 709, 710, 711, 712, 713, 714, 715, 716, 717, 718, 719, 720, 721, 722, 723, 724, 725, 726, 727, 728, 729, 730, 731, 732, 733, 734, 735, 736, 737, 738, 739, 740, 741, 742, 743, 744, 745, 746, 747, 748, 749, 750, 751, 752, 753, 754, 755, 756, 757, 758, 759, 760, 761, 762, 763, 764, 765, 766, 767, 768, 769, 770, 771, 772, 773, 774, 775, 776, 777, 778, 779, 780, 781, 782, 783, 784, 785, 786, 787, 788, 789, 790, 791, 792, 793, 794, 795, 796, 797, 798, 799, 800, 801, 802, 803, 804, 805, 806, 807, 808, 809, 810, 811, 812, 813, 814, 815, 816, 817, 818, 819, 820, 821, 822, 823, 824, 825, 826, 827, 828, 829, 830, 831, 832, 833, 834, 835, 836, 837, 838, 839, 840, 841, 842, 843, 844, 845, 846, 847, 848, 849, 850, 851, 852, 853, 854, 855, 856, 857, 858, 859, 860, 861, 862, 863, 864, 865, 866, 867, 868, 869, 870, 871, 872],
      "AcquisitionTime": ["110359.450000", "110359.910000", "110400.370000", "110400.830000", "110401.290000", "110401.750000", "110402.210000", "110402.670000", "110403.130000", "110403.590000", "110404.050000", "110404.510000", "110404.970000", "110405.430000", "110405.890000", "110406.350000", "110406.810000", "110407.270000", "110407.730000", "110408.190000", "110408.650000", "110409.110000", "110409.570000", "110410.030000", "110410.490000", "110410.950000", "110411.410000", "110411.870000", "110412.330000", "110412.790000", "110413.250000", "110413.710000", "110414.170000", "110414.630000", "110415.090000", "110415.550000", "110416.010000", "110416.470000", "110416.930000", "110417.390000", "110417.850000", "110418.310000", "110418.770000", "110419.230000", "110419.690000", "110420.150000", "110420.610000", "110421.070000", "110421.530000", "110421.990000", "110422.450000", "110422.910000", "110423.370000", "110423.830000", "110424.290000", "110424.750000", "110425.210000", "110425.670000", "110426.130000", "110426.590000", "110427.050000", "110427.510000", "110427.970000", "110428.430000", "110428.890000", "110429.350000", "110429.810000", "110430.270000", "110430.730000", "110431.190000", "110431.650000", "110432.110000", "110432.570000", "110433.030000", "110433.490000", "110433.950000", "110434.410000", "110434.870000", "110435.330000", "110435.790000", "110436.250000", "110436.710000", "110437.170000", "110437.630000", "110438.090000", "110438.550000", "110439.010000", "110439.470000", "110439.930000", "110440.390000", "110440.850000", "110441.310000", "110441.770000", "110442.230000", "110442.690000", "110443.150000", "110443.610000", "110444.070000", "110444.530000", "110444.990000", "110445.450000", "110445.910000", "110446.370000", "110446.830000", "110447.290000", "110447.750000", "110448.210000", "110448.670000", "110449.130000", "110449.590000", "110450.050000", "110450.510000", "110450.970000", "110451.430000", "110451.890000", "110452.350000", "110452.810000", "110453.270000", "110453.730000", "110454.190000", "110454.650000", "110455.110000", "110455.570000", "110456.030000", "110456.490000", "110456.950000", "110457.410000", "110457.870000", "110458.330000", "110458.790000", "110459.250000", "110459.710000", "110500.170000", "110500.630000", "110501.090000", "110501.550000", "110502.010000", "110502.470000", "110502.930000", "110503.390000", "110503.850000", "110504.310000", "110504.770000", "110505.230000", "110505.690000", "110506.150000", "110506.610000", "110507.070000", "110507.530000", "110507.990000", "110508.450000", "110508.910000", "110509.370000", "110509.830000", "110510.290000", "110510.750000", "110511.210000", "110511.670000", "110512.130000", "110512.590000", "110513.050000", "110513.510000", "110513.970000", "110514.430000", "110514.890000", "110515.350000", "110515.810000", "110516.270000", "110516.730000", "110517.190000", "110517.650000", "110518.110000", "110518.570000", "110519.030000", "110519.490000", "110519.950000", "110520.410000", "110520.870000", "110521.330000", "110521.790000", "110522.250000", "110522.710000", "110523.170000", "110523.630000", "110524.090000", "110524.550000", "110525.010000", "110525.470000", "110525.930000", "110526.390000", "110526.850000", "110527.310000", "110527.770000", "110528.230000", "110528.690000", "110529.150000", "110529.610000", "110530.070000", "110530.530000", "110530.990000", "110531.450000", "110531.910000", "110532.370000", "110532.830000", "110533.290000", "110533.750000", "110534.210000", "110534.670000", "110535.130000", "110535.590000", "110536.050000", "110536.510000", "110536.970000", "110537.430000", "110537.890000", "110538.350000", "110538.810000", "110539.270000", "110539.730000", "110540.190000", "110540.650000", "110541.110000", "110541.570000", "110542.030000", "110542.490000", "110542.950000", "110543.410000", "110543.870000", "110544.330000", "110544.790000", "110545.250000", "110545.710000", "110546.170000", "110546.630000", "110547.090000", "110547.550000", "110548.010000", "110548.470000", "110548.930000", "110549.390000", "110549.850000", "110550.310000", "110550.770000", "110551.230000", "110551.690000", "110552.150000", "110552.610000", "110553.070000", "110553.530000", "110553.990000", "110554.450000", "110554.910000", "110555.370000", "110555.830000", "110556.290000", "110556.750000", "110557.210000", "110557.670000", "110558.130000", "110558.590000", "110559.050000", "110559.510000", "110559.970000", "110600.430000", "110600.890000", "110601.350000", "110601.810000", "110602.270000", "110602.730000", "110603.190000", "110603.650000", "110604.110000", "110604.570000", "110605.030000", "110605.490000", "110605.950000", "110606.410000", "110606.870000", "110607.330000", "110607.790000", "110608.250000", "110608.710000", "110609.170000", "110609.630000", "110610.090000", "110610.550000", "110611.010000", "110611.470000", "110611.930000", "110612.390000", "110612.850000", "110613.310000", "110613.770000", "110614.230000", "110614.690000", "110615.150000", "110615.610000", "110616.070000", "110616.530000", "110616.990000", "110617.450000", "110617.910000", "110618.370000", "110618.830000", "110619.290000", "110619.750000", "110620.210000", "110620.670000", "110621.130000", "110621.590000", "110622.050000", "110622.510000", "110622.970000", "110623.430000", "110623.890000", "110624.350000", "110624.810000", "110625.270000", "110625.730000", "110626.190000", "110626.650000", "110627.110000", "110627.570000", "110628.030000", "110628.490000", "110628.950000", "110629.410000", "110629.870000", "110630.330000", "110630.790000", "110631.250000", "110631.710000", "110632.170000", "110632.630000", "110633.090000", "110633.550000", "110634.010000", "110634.470000", "110634.930000", "110635.390000", "110635.850000", "110636.310000", "110636.770000", "110637.230000", "110637.690000", "110638.150000", "110638.610000", "110639.070000", "110639.530000", "110639.990000", "110640.450000", "110640.910000", "110641.370000", "110641.830000", "110642.290000", "110642.750000", "110643.210000", "110643.670000", "110644.130000", "110644.590000", "110645.050000", "110645.510000", "110645.970000", "110646.430000", "110646.890000", "110647.350000", "110647.810000", "110648.270000", "110648.730000", "110649.190000", "110649.650000", "110650.110000", "110650.570000", "110651.030000", "110651.490000", "110651.950000", "110652.410000", "110652.870000", "110653.330000", "110653.790000", "110654.250000", "110654.710000", "110655.170000", "110655.630000", "110656.090000", "110656.550000", "110657.010000", "110657.470000", "110657.930000", "110658.390000", "110658.850000", "110659.310000", "110659.770000", "110700.230000", "110700.690000", "110701.150000", "110701.610000", "110702.070000", "110702.530000", "110702.990000", "110703.450000", "110703.910000", "110704.370000", "110704.830000", "110705.290000", "110705.750000", "110706.210000", "110706.670000", "110707.130000", "110707.590000", "110708.050000", "110708.510000", "110708.970000", "110709.430000", "110709.890000", "110710.350000", "110710.810000", "110711.270000", "110711.730000", "110712.190000", "110712.650000", "110713.110000", "110713.570000", "110714.030000", "110714.490000", "110714.950000", "110715.410000", "110715.870000", "110716.330000", "110716.790000", "110717.250000", "110717.710000", "110718.170000", "110718.630000", "110719.090000", "110719.550000", "110720.010000", "110720.470000", "110720.930000", "110721.390000", "110721.850000", "110722.310000", "110722.770000", "110723.230000", "110723.690000", "110724.150000", "110724.610000", "110725.070000", "110725.530000", "110725.990000", "110726.450000", "110726.910000", "110727.370000", "110727.830000", "110728.290000", "110728.750000", "110729.210000", "110729.670000", "110730.130000", "110730.590000", "110731.050000", "110731.510000", "110731.970000", "110732.430000", "110732.890000", "110733.350000", "110733.810000", "110734.270000", "110734.730000", "110735.190000", "110735.650000", "110736.110000", "110736.570000", "110737.030000", "110737.490000", "110737.950000", "110738.410000", "110738.870000", "110739.330000", "110739.790000", "110740.250000", "110740.710000", "110741.170000", "110741.630000", "110742.090000", "110742.550000", "110743.010000", "110743.470000", "110743.930000", "110744.390000", "110744.850000", "110745.310000", "110745.770000", "110746.230000", "110746.690000", "110747.150000", "110747.610000", "110748.070000", "110748.530000", "110748.990000", "110749.450000", "110749.910000", "110750.370000", "110750.830000", "110751.290000", "110751.750000", "110752.210000", "110752.670000", "110753.130000", "110753.590000", "110754.050000", "110754.510000", "110754.970000", "110755.430000", "110755.890000", "110756.350000", "110756.810000", "110757.270000", "110757.730000", "110758.190000", "110758.650000", "110759.110000", "110759.570000", "110800.030000", "110800.490000", "110800.950000", "110801.410000", "110801.870000", "110802.330000", "110802.790000", "110803.250000", "110803.710000", "110804.170000", "110804.630000", "110805.090000", "110805.550000", "110806.010000", "110806.470000", "110806.930000", "110807.390000", "110807.850000", "110808.310000", "110808.770000", "110809.230000", "110809.690000", "110810.150000", "110810.610000", "110811.070000", "110811.530000", "110811.990000", "110812.450000", "110812.910000", "110813.370000", "110813.830000", "110814.290000", "110814.750000", "110815.210000", "110815.670000", "110816.130000", "110816.590000", "110817.050000", "110817.510000", "110817.970000", "110818.430000", "110818.890000", "110819.350000", "110819.810000", "110820.270000", "110820.730000", "110821.190000", "110821.650000", "110822.110000", "110822.570000", "110823.030000", "110823.490000", "110823.950000", "110824.410000", "110824.870000", "110825.330000", "110825.790000", "110826.250000", "110826.710000", "110827.170000", "110827.630000", "110828.090000", "110828.550000", "110829.010000", "110829.470000", "110829.930000", "110830.390000", "110830.850000", "110831.310000", "110831.770000", "110832.230000", "110832.690000", "110833.150000", "110833.610000", "110834.070000", "110834.530000", "110834.990000", "110835.450000", "110835.910000", "110836.370000", "110836.830000", "110837.290000", "110837.750000", "110838.210000", "110838.670000", "110839.130000", "110839.590000", "110840.050000", "110840.510000", "110840.970000", "110841.430000", "110841.890000", "110842.350000", "110842.810000", "110843.270000", "110843.730000", "110844.190000", "110844.650000", "110845.110000", "110845.570000", "110846.030000", "110846.490000", "110846.950000", "110847.410000", "110847.870000", "110848.330000", "110848.790000", "110849.250000", "110849.710000", "110850.170000", "110850.630000", "110851.090000", "110851.550000", "110852.010000", "110852.470000", "110852.930000", "110853.390000", "110853.850000", "110854.310000", "110854.770000", "110855.230000", "110855.690000", "110856.150000", "110856.610000", "110857.070000", "110857.530000", "110857.990000", "110858.450000", "110858.910000", "110859.370000", "110859.830000", "110900.290000", "110900.750000", "110901.210000", "110901.670000", "110902.130000", "110902.590000", "110903.050000", "110903.510000", "110903.970000", "110904.430000", "110904.890000", "110905.350000", "110905.810000", "110906.270000", "110906.730000", "110907.190000", "110907.650000", "110908.110000", "110908.570000", "110909.030000", "110909.490000", "110909.950000", "110910.410000", "110910.870000", "110911.330000", "110911.790000", "110912.250000", "110912.710000", "110913.170000", "110913.630000", "110914.090000", "110914.550000", "110915.010000", "110915.470000", "110915.930000", "110916.390000", "110916.850000", "110917.310000", "110917.770000", "110918.230000", "110918.690000", "110919.150000", "110919.610000", "110920.070000", "110920.530000", "110920.990000", "110921.450000", "110921.910000", "110922.370000", "110922.830000", "110923.290000", "110923.750000", "110924.210000", "110924.670000", "110925.130000", "110925.590000", "110926.050000", "110926.510000", "110926.970000", "110927.430000", "110927.890000", "110928.350000", "110928.810000", "110929.270000", "110929.730000", "110930.190000", "110930.650000", "110931.110000", "110931.570000", "110932.030000", "110932.490000", "110932.950000", "110933.410000", "110933.870000", "110934.330000", "110934.790000", "110935.250000", "110935.710000", "110936.170000", "110936.630000", "110937.090000", "110937.550000", "110938.010000", "110938.470000", "110938.930000", "110939.390000", "110939.850000", "110940.310000", "110940.770000", "110941.230000", "110941.690000", "110942.150000", "110942.610000", "110943.070000", "110943.530000", "110943.990000", "110944.450000", "110944.910000", "110945.370000", "110945.830000", "110946.290000", "110946.750000", "110947.210000", "110947.670000", "110948.130000", "110948.590000", "110949.050000", "110949.510000", "110949.970000", "110950.430000", "110950.890000", "110951.350000", "110951.810000", "110952.270000", "110952.730000", "110953.190000", "110953.650000", "110954.110000", "110954.570000", "110955.030000", "110955.490000", "110955.950000", "110956.410000", "110956.870000", "110957.330000", "110957.790000", "110958.250000", "110958.710000", "110959.170000", "110959.630000", "111000.090000", "111000.550000", "111001.010000", "111001.470000", "111001.930000", "111002.390000", "111002.850000", "111003.310000", "111003.770000", "111004.230000", "111004.690000", "111005.150000", "111005.610000", "111006.070000", "111006.530000", "111006.990000", "111007.450000", "111007.910000", "111008.370000", "111008.830000", "111009.290000", "111009.750000", "111010.210000", "111010.670000", "111011.130000", "111011.590000", "111012.050000", "111012.510000", "111012.970000", "111013.430000", "111013.890000", "111014.350000", "111014.810000", "111015.270000", "111015.730000", "111016.190000", "111016.650000", "111017.110000", "111017.570000", "111018.030000", "111018.490000", "111018.950000", "111019.410000", "111019.870000", "111020.330000", "111020.790000", "111021.250000", "111021.710000", "111022.170000", "111022.630000", "111023.090000", "111023.550000", "111024.010000", "111024.470000", "111024.930000", "111025.390000", "111025.850000", "111026.310000", "111026.770000", "111027.230000", "111027.690000", "111028.150000", "111028.610000", "111029.070000", "111029.530000", "111029.990000", "111030.450000", "111030.910000", "111031.370000", "111031.830000", "111032.290000", "111032.750000", "111033.210000", "111033.670000", "111034.130000", "111034.590000", "111035.050000", "111035.510000", "111035.970000", "111036.430000", "111036.890000", "111037.350000", "111037.810000", "111038.270000", "111038.730000", "111039.190000", "111039.650000", "111040.110000"],
