{
  "AcquisitionMatrixPE": 82,
  "AcquisitionNumber": 1,
  "AcquisitionTime": "14:55:39.897500",
  "BandwidthPerPixelPhaseEncode": 24.888,
  "BaseResolution": 82,
  "BodyPartExamined": "BRAIN",
  "ConsistencyInfo": "N4_VE11E_LATEST_20181129",
  "ConversionSoftware": "dcm2niix",
  "ConversionSoftwareVersion": "v1.0.20201102",
  "DerivedVendorReportedEchoSpacing": 0.00049,
  "DeviceSerialNumber": "66112",
  "DwellTime": 2e-06,
  "EchoTime": 0.0272,
  "EchoTrainLength": 82,
  "EffectiveEchoSpacing": 0.00049,
  "FlipAngle": 44,
  "ImageComments": "Unaliased MB8/PE3",
  "ImageOrientationPatientDICOM": [0.999745, -0.0034114, -0.0223434, 0.00523467, 0.996614, 0.0820594],
  "ImageType": [
    "ORIGINAL",
    "PRIMARY",
    "M",
    "MB",
    "ND",
    "NORM",
    "MOSAIC"
],
  "ImagingFrequency": 123.259,
  "InPlanePhaseEncodingDirectionDICOM": "COL",
  "InstitutionAddress": "Maynard 3,Hanover,NH,US,03755",
  "InstitutionName": "Dartmouth College - PBS",
  "InstitutionalDepartmentName": "Department",
  "MRAcquisitionType": "2D",
  "MagneticFieldStrength": 3,
  "Manufacturer": "Siemens",
  "ManufacturersModelName": "Prisma",
  "Modality": "MR",
  "MultibandAccelerationFactor": 8,
  "PartialFourier": 1,
  "PatientPosition": "HFS",
  "PercentPhaseFOV": 100,
  "PercentSampling": 100,
  "PhaseEncodingDirection": "j-",
  "PhaseEncodingSteps": 82,
  "PhaseResolution": 1,
  "PixelBandwidth": 3050,
  "ProcedureStepDescription": "Wager_Wager^1076_spacetop",
  "ProtocolName": "func_run-03_task-alignvideo_acq-ap-mb8",
  "PulseSequenceDetails": "%CustomerSeq%\\cmrr_mbep2d_bold",
  "ReceiveCoilActiveElements": "HEA;HEP",
  "ReceiveCoilName": "Head_32",
  "ReconMatrixPE": 82,
  "RepetitionTime": 0.46,
  "SAR": 0.100432,
  "ScanOptions": "FS",
  "ScanningSequence": "EP",
  "SequenceName": "epfid2d1_82",
  "SequenceVariant": "SK\\SS",
  "SeriesDescription": "func_run-03_task-alignvideo_acq-ap-mb8",
  "SeriesNumber": 34,
  "ShimSetting": [4220, -7764, -7196, 290, -106, -32, 8, 94],
  "SliceThickness": 2.7,
  "SliceTiming": [0, 0.2525, 0.0625, 0.315, 0.125, 0.3775, 0.1875, 0, 0.2525, 0.0625, 0.315, 0.125, 0.3775, 0.1875, 0, 0.2525, 0.0625, 0.315, 0.125, 0.3775, 0.1875, 0, 0.2525, 0.0625, 0.315, 0.125, 0.3775, 0.1875, 0, 0.2525, 0.0625, 0.315, 0.125, 0.3775, 0.1875, 0, 0.2525, 0.0625, 0.315, 0.125, 0.3775, 0.1875, 0, 0.2525, 0.0625, 0.315, 0.125, 0.3775, 0.1875, 0, 0.2525, 0.0625, 0.315, 0.125, 0.3775, 0.1875],
  "SoftwareVersions": "syngo MR E11",
  "SpacingBetweenSlices": 2.7,
  "StationName": "AWP66112",
  "TaskName": "alignvideo",
  "TotalReadoutTime": 0.03969,
  "TxRefAmp": 251.09,
  "WipMemBlock": "75b917e5-9ab8-44f5-ae3d-80f9a88b1e6f||Sequence: R016 ve11e/master r/434b28f1; Aug  7 2019 18:53:46 by eja",
  "dcmmeta_affine": [
    [-2.682241439819336, 0.01404423639178276, -0.05936715379357338, 114.79668426513672],
    [0.009152526967227459, 2.673841714859009, 0.22181949019432068, -99.85633087158203],
    [-0.05994579941034317, -0.22015929222106934, 2.6902177333831787, -34.97200012207031],
    [0.0, 0.0, 0.0, 1.0]
],
  "dcmmeta_reorient_transform": [
    [0.0, -1.0, 0.0, 81.0],
    [1.0, 0.0, 0.0, 0.0],
    [0.0, 0.0, 1.0, 0.0],
    [0.0, 0.0, 0.0, 1.0]
],
  "dcmmeta_shape": [82, 82, 56, 1065],
  "dcmmeta_slice_dim": 2,
  "dcmmeta_version": 0.6,
  "global": {
    "const": {
      "AccessionNumber": "A004412",
      "AcquisitionMatrix": [82, 0, 0, 82],
      "AngioFlag": "N",
      "BitsAllocated": 16,
      "BitsStored": 16,
      "BodyPartExamined": "BRAIN",
      "Columns": 656,
      "EchoNumbers": 1,
      "EchoTime": 27.2,
      "EchoTrainLength": 82,
      "FlipAngle": 44.0,
      "HighBit": 15,
      "ImageOrientationPatient": [0.99974453403709, -0.0034113963622, -0.0223434338862, 0.00523466969541, 0.99661369559011, 0.08205936872413],
      "ImagePositionPatient": [-889.76826936587, -881.49063317475, -98.786172744504],
      "ImageType": [
        "ORIGINAL",
        "PRIMARY",
        "M",
        "MB",
        "ND",
        "NORM",
        "MOSAIC"
],
      "ImagedNucleus": "1H",
      "ImagingFrequency": 123.259071,
      "InPlanePhaseEncodingDirection": "COL",
      "MRAcquisitionType": "2D",
      "MagneticFieldStrength": 3.0,
      "Manufacturer": "SIEMENS",
      "ManufacturerModelName": "Prisma",
      "Modality": "MR",
      "NumberOfAverages": 1.0,
      "NumberOfPhaseEncodingSteps": 82,
      "PercentPhaseFieldOfView": 100.0,
      "PercentSampling": 100.0,
      "PerformedProcedureStepStartTime": "131231.253000",
      "PhotometricInterpretation": "MONOCHROME2",
      "PixelBandwidth": 3050.0,
      "PixelRepresentation": 0,
      "PixelSpacing": [2.6829268932343, 2.6829268932343],
      "ProtocolName": "func_run-03_task-alignvideo_acq-ap-mb8",
      "RepetitionTime": 460.0,
      "Rows": 656,
      "SAR": 0.1004323624912,
      "SamplesPerPixel": 1,
      "ScanOptions": "FS",
      "ScanningSequence": "EP",
      "SequenceName": "epfid2d1_82",
      "SequenceVariant": [
        "SK",
        "SS"
],
      "SeriesDescription": "func_run-03_task-alignvideo_acq-ap-mb8",
      "SeriesNumber": 34,
      "SeriesTime": "145558.075000",
      "SliceLocation": -45.573158326164,
      "SliceThickness": 2.7000000476837,
      "SmallestImagePixelValue": 0,
      "SoftwareVersions": "syngo MR E11",
      "SpacingBetweenSlices": 2.7000000270988,
      "SpecificCharacterSet": "ISO_IR 100",
      "StudyID": "4",
      "StudyTime": "131231.213000",
      "TransmitCoilName": "Body",
      "VariableFlipAngleFlag": "N",
      "WindowCenterWidthExplanation": "Algo1"
    },
    "slices": {}
  },
  "time": {
    "samples": {
      "AcquisitionNumber": [1, 2, 3, 4, 5, 6, 7, 8, 9, 10, 11, 12, 13, 14, 15, 16, 17, 18, 19, 20, 21, 22, 23, 24, 25, 26, 27, 28, 29, 30, 31, 32, 33, 34, 35, 36, 37, 38, 39, 40, 41, 42, 43, 44, 45, 46, 47, 48, 49, 50, 51, 52, 53, 54, 55, 56, 57, 58, 59, 60, 61, 62, 63, 64, 65, 66, 67, 68, 69, 70, 71, 72, 73, 74, 75, 76, 77, 78, 79, 80, 81, 82, 83, 84, 85, 86, 87, 88, 89, 90, 91, 92, 93, 94, 95, 96, 97, 98, 99, 100, 101, 102, 103, 104, 105, 106, 107, 108, 109, 110, 111, 112, 113, 114, 115, 116, 117, 118, 119, 120, 121, 122, 123, 124, 125, 126, 127, 128, 129, 130, 131, 132, 133, 134, 135, 136, 137, 138, 139, 140, 141, 142, 143, 144, 145, 146, 147, 148, 149, 150, 151, 152, 153, 154, 155, 156, 157, 158, 159, 160, 161, 162, 163, 164, 165, 166, 167, 168, 169, 170, 171, 172, 173, 174, 175, 176, 177, 178, 179, 180, 181, 182, 183, 184, 185, 186, 187, 188, 189, 190, 191, 192, 193, 194, 195, 196, 197, 198, 199, 200, 201, 202, 203, 204, 205, 206, 207, 208, 209, 210, 211, 212, 213, 214, 215, 216, 217, 218, 219, 220, 221, 222, 223, 224, 225, 226, 227, 228, 229, 230, 231, 232, 233, 234, 235, 236, 237, 238, 239, 240, 241, 242, 243, 244, 245, 246, 247, 248, 249, 250, 251, 252, 253, 254, 255, 256, 257, 258, 259, 260, 261, 262, 263, 264, 265, 266, 267, 268, 269, 270, 271, 272, 273, 274, 275, 276, 277, 278, 279, 280, 281, 282, 283, 284, 285, 286, 287, 288, 289, 290, 291, 292, 293, 294, 295, 296, 297, 298, 299, 300, 301, 302, 303, 304, 305, 306, 307, 308, 309, 310, 311, 312, 313, 314, 315, 316, 317, 318, 319, 320, 321, 322, 323, 324, 325, 326, 327, 328, 329, 330, 331, 332, 333, 334, 335, 336, 337, 338, 339, 340, 341, 342, 343, 344, 345, 346, 347, 348, 349, 350, 351, 352, 353, 354, 355, 356, 357, 358, 359, 360, 361, 362, 363, 364, 365, 366, 367, 368, 369, 370, 371, 372, 373, 374, 375, 376, 377, 378, 379, 380, 381, 382, 383, 384, 385, 386, 387, 388, 389, 390, 391, 392, 393, 394, 395, 396, 397, 398, 399, 400, 401, 402, 403, 404, 405, 406, 407, 408, 409, 410, 411, 412, 413, 414, 415, 416, 417, 418, 419, 420, 421, 422, 423, 424, 425, 426, 427, 428, 429, 430, 431, 432, 433, 434, 435, 436, 437, 438, 439, 440, 441, 442, 443, 444, 445, 446, 447, 448, 449, 450, 451, 452, 453, 454, 455, 456, 457, 458, 459, 460, 461, 462, 463, 464, 465, 466, 467, 468, 469, 470, 471, 472, 473, 474, 475, 476, 477, 478, 479, 480, 481, 482, 483, 484, 485, 486, 487, 488, 489, 490, 491, 492, 493, 494, 495, 496, 497, 498, 499, 500, 501, 502, 503, 504, 505, 506, 507, 508, 509, 510, 511, 512, 513, 514, 515, 516, 517, 518, 519, 520, 521, 522, 523, 524, 525, 526, 527, 528, 529, 530, 531, 532, 533, 534, 535, 536, 537, 538, 539, 540, 541, 542, 543, 544, 545, 546, 547, 548, 549, 550, 551, 552, 553, 554, 555, 556, 557, 558, 559, 560, 561, 562, 563, 564, 565, 566, 567, 568, 569, 570, 571, 572, 573, 574, 575, 576, 577, 578, 579, 580, 581, 582, 583, 584, 585, 586, 587, 588, 589, 590, 591, 592, 593, 594, 595, 596, 597, 598, 599, 600, 601, 602, 603, 604, 605, 606, 607, 608, 609, 610, 611, 612, 613, 614, 615, 616, 617, 618, 619, 620, 621, 622, 623, 624, 625, 626, 627, 628, 629, 630, 631, 632, 633, 634, 635, 636, 637, 638, 639, 640, 641, 642, 643, 644, 645, 646, 647, 648, 649, 650, 651, 652, 653, 654, 655, 656, 657, 658, 659, 660, 661, 662, 663, 664, 665, 666, 667, 668, 669, 670, 671, 672, 673, 674, 675, 676, 677, 678, 679, 680, 681, 682, 683, 684, 685, 686, 687, 688, 689, 690, 691, 692, 693, 694, 695, 696, 697, 698, 699, 700, 701, 702, 703, 704, 705, 706, 707, 708, 709, 710, 711, 712, 713, 714, 715, 716, 717, 718, 719, 720, 721, 722, 723, 724, 725, 726, 727, 728, 729, 730, 731, 732, 733, 734, 735, 736, 737, 738, 739, 740, 741, 742, 743, 744, 745, 746, 747, 748, 749, 750, 751, 752, 753, 754, 755, 756, 757, 758, 759, 760, 761, 762, 763, 764, 765, 766, 767, 768, 769, 770, 771, 772, 773, 774, 775, 776, 777, 778, 779, 780, 781, 782, 783, 784, 785, 786, 787, 788, 789, 790, 791, 792, 793, 794, 795, 796, 797, 798, 799, 800, 801, 802, 803, 804, 805, 806, 807, 808, 809, 810, 811, 812, 813, 814, 815, 816, 817, 818, 819, 820, 821, 822, 823, 824, 825, 826, 827, 828, 829, 830, 831, 832, 833, 834, 835, 836, 837, 838, 839, 840, 841, 842, 843, 844, 845, 846, 847, 848, 849, 850, 851, 852, 853, 854, 855, 856, 857, 858, 859, 860, 861, 862, 863, 864, 865, 866, 867, 868, 869, 870, 871, 872, 873, 874, 875, 876, 877, 878, 879, 880, 881, 882, 883, 884, 885, 886, 887, 888, 889, 890, 891, 892, 893, 894, 895, 896, 897, 898, 899, 900, 901, 902, 903, 904, 905, 906, 907, 908, 909, 910, 911, 912, 913, 914, 915, 916, 917, 918, 919, 920, 921, 922, 923, 924, 925, 926, 927, 928, 929, 930, 931, 932, 933, 934, 935, 936, 937, 938, 939, 940, 941, 942, 943, 944, 945, 946, 947, 948, 949, 950, 951, 952, 953, 954, 955, 956, 957, 958, 959, 960, 961, 962, 963, 964, 965, 966, 967, 968, 969, 970, 971, 972, 973, 974, 975, 976, 977, 978, 979, 980, 981, 982, 983, 984, 985, 986, 987, 988, 989, 990, 991, 992, 993, 994, 995, 996, 997, 998, 999, 1000, 1001, 1002, 1003, 1004, 1005, 1006, 1007, 1008, 1009, 1010, 1011, 1012, 1013, 1014, 1015, 1016, 1017, 1018, 1019, 1020, 1021, 1022, 1023, 1024, 1025, 1026, 1027, 1028, 1029, 1030, 1031, 1032, 1033, 1034, 1035, 1036, 1037, 1038, 1039, 1040, 1041, 1042, 1043, 1044, 1045, 1046, 1047, 1048, 1049, 1050, 1051, 1052, 1053, 1054, 1055, 1056, 1057, 1058, 1059, 1060, 1061, 1062, 1063, 1064, 1065],
      "AcquisitionTime": ["145539.897500", "145540.357500", "145540.817500", "145541.277500", "145541.737500", "145542.197500", "145542.657500", "145543.117500", "145543.577500", "145544.037500", "145544.497500", "145544.957500", "145545.417500", "145545.877500", "145546.337500", "145546.797500", "145547.257500", "145547.717500", "145548.177500", "145548.637500", "145549.097500", "145549.557500", "145550.017500", "145550.477500", "145550.937500", "145551.397500", "145551.857500", "145552.317500", "145552.777500", "145553.237500", "145553.697500", "145554.157500", "145554.617500", "145555.077500", "145555.537500", "145555.997500", "145556.457500", "145556.917500", "145557.377500", "145557.837500", "145558.297500", "145558.757500", "145559.217500", "145559.677500", "145600.137500", "145600.597500", "145601.057500", "145601.517500", "145601.977500", "145602.437500", "145602.897500", "145603.357500", "145603.817500", "145604.277500", "145604.737500", "145605.197500", "145605.657500", "145606.117500", "145606.577500", "145607.037500", "145607.497500", "145607.957500", "145608.417500", "145608.877500", "145609.337500", "145609.797500", "145610.257500", "145610.717500", "145611.177500", "145611.637500", "145612.097500", "145612.557500", "145613.017500", "145613.477500", "145613.937500", "145614.397500", "145614.857500", "145615.317500", "145615.777500", "145616.237500", "145616.697500", "145617.157500", "145617.617500", "145618.077500", "145618.537500", "145618.997500", "145619.457500", "145619.917500", "145620.377500", "145620.837500", "145621.297500", "145621.757500", "145622.217500", "145622.677500", "145623.137500", "145623.597500", "145624.057500", "145624.517500", "145624.977500", "145625.437500", "145625.897500", "145626.357500", "145626.817500", "145627.277500", "145627.737500", "145628.197500", "145628.657500", "145629.117500", "145629.577500", "145630.037500", "145630.497500", "145630.957500", "145631.417500", "145631.877500", "145632.337500", "145632.797500", "145633.257500", "145633.717500", "145634.177500", "145634.637500", "145635.097500", "145635.557500", "145636.017500", "145636.477500", "145636.937500", "145637.397500", "145637.857500", "145638.317500", "145638.777500", "145639.237500", "145639.697500", "145640.157500", "145640.617500", "145641.077500", "145641.537500", "145641.997500", "145642.457500", "145642.917500", "145643.377500", "145643.837500", "145644.297500", "145644.757500", "145645.217500", "145645.677500", "145646.137500", "145646.597500", "145647.057500", "145647.517500", "145647.977500", "145648.437500", "145648.897500", "145649.357500", "145649.817500", "145650.277500", "145650.737500", "145651.197500", "145651.657500", "145652.117500", "145652.577500", "145653.037500", "145653.497500", "145653.957500", "145654.417500", "145654.877500", "145655.337500", "145655.797500", "145656.257500", "145656.717500", "145657.177500", "145657.637500", "145658.097500", "145658.557500", "145659.017500", "145659.477500", "145659.937500", "145700.397500", "145700.857500", "145701.317500", "145701.777500", "145702.237500", "145702.697500", "145703.157500", "145703.617500", "145704.077500", "145704.537500", "145704.997500", "145705.457500", "145705.917500", "145706.377500", "145706.837500", "145707.297500", "145707.757500", "145708.217500", "145708.677500", "145709.137500", "145709.597500", "145710.057500", "145710.517500", "145710.977500", "145711.437500", "145711.897500", "145712.357500", "145712.817500", "145713.277500", "145713.737500", "145714.197500", "145714.657500", "145715.117500", "145715.577500", "145716.037500", "145716.497500", "145716.957500", "145717.417500", "145717.877500", "145718.337500", "145718.797500", "145719.257500", "145719.717500", "145720.177500", "145720.637500", "145721.097500", "145721.557500", "145722.017500", "145722.477500", "145722.937500", "145723.397500", "145723.857500", "145724.317500", "145724.777500", "145725.237500", "145725.697500", "145726.157500", "145726.617500", "145727.077500", "145727.537500", "145727.997500", "145728.457500", "145728.917500", "145729.377500", "145729.837500", "145730.297500", "145730.757500", "145731.217500", "145731.677500", "145732.137500", "145732.597500", "145733.057500", "145733.517500", "145733.977500", "145734.437500", "145734.897500", "145735.357500", "145735.817500", "145736.277500", "145736.737500", "145737.197500", "145737.657500", "145738.117500", "145738.577500", "145739.037500", "145739.497500", "145739.957500", "145740.417500", "145740.877500", "145741.337500", "145741.797500", "145742.257500", "145742.717500", "145743.177500", "145743.637500", "145744.097500", "145744.557500", "145745.017500", "145745.477500", "145745.937500", "145746.397500", "145746.857500", "145747.317500", "145747.777500", "145748.237500", "145748.697500", "145749.157500", "145749.617500", "145750.077500", "145750.537500", "145750.997500", "145751.457500", "145751.917500", "145752.377500", "145752.837500", "145753.297500", "145753.757500", "145754.217500", "145754.677500", "145755.137500", "145755.597500", "145756.057500", "145756.517500", "145756.977500", "145757.437500", "145757.897500", "145758.357500", "145758.817500", "145759.277500", "145759.737500", "145800.197500", "145800.657500", "145801.117500", "145801.577500", "145802.037500", "145802.497500", "145802.957500", "145803.417500", "145803.877500", "145804.337500", "145804.797500", "145805.257500", "145805.717500", "145806.177500", "145806.637500", "145807.097500", "145807.557500", "145808.017500", "145808.477500", "145808.937500", "145809.397500", "145809.857500", "145810.317500", "145810.777500", "145811.237500", "145811.697500", "145812.157500", "145812.617500", "145813.077500", "145813.537500", "145813.997500", "145814.457500", "145814.917500", "145815.377500", "145815.837500", "145816.297500", "145816.757500", "145817.217500", "145817.677500", "145818.137500", "145818.597500", "145819.057500", "145819.517500", "145819.977500", "145820.437500", "145820.897500", "145821.357500", "145821.817500", "145822.277500", "145822.737500", "145823.197500", "145823.657500", "145824.117500", "145824.577500", "145825.037500", "145825.497500", "145825.957500", "145826.417500", "145826.877500", "145827.337500", "145827.797500", "145828.257500", "145828.717500", "145829.177500", "145829.637500", "145830.097500", "145830.557500", "145831.017500", "145831.477500", "145831.937500", "145832.397500", "145832.857500", "145833.317500", "145833.777500", "145834.237500", "145834.697500", "145835.157500", "145835.617500", "145836.077500", "145836.537500", "145836.997500", "145837.457500", "145837.917500", "145838.377500", "145838.837500", "145839.297500", "145839.757500", "145840.217500", "145840.677500", "145841.137500", "145841.597500", "145842.057500", "145842.517500", "145842.977500", "145843.437500", "145843.897500", "145844.357500", "145844.817500", "145845.277500", "145845.737500", "145846.197500", "145846.657500", "145847.117500", "145847.577500", "145848.037500", "145848.497500", "145848.957500", "145849.417500", "145849.877500", "145850.337500", "145850.797500", "145851.257500", "145851.717500", "145852.177500", "145852.637500", "145853.097500", "145853.557500", "145854.017500", "145854.477500", "145854.937500", "145855.397500", "145855.857500", "145856.317500", "145856.777500", "145857.237500", "145857.697500", "145858.157500", "145858.617500", "145859.077500", "145859.537500", "145859.997500", "145900.457500", "145900.917500", "145901.377500", "145901.837500", "145902.297500", "145902.757500", "145903.217500", "145903.677500", "145904.137500", "145904.597500", "145905.057500", "145905.517500", "145905.977500", "145906.437500", "145906.897500", "145907.357500", "145907.817500", "145908.277500", "145908.737500", "145909.197500", "145909.657500", "145910.117500", "145910.577500", "145911.037500", "145911.497500", "145911.957500", "145912.417500", "145912.877500", "145913.337500", "145913.797500", "145914.257500", "145914.717500", "145915.177500", "145915.637500", "145916.097500", "145916.557500", "145917.017500", "145917.477500", "145917.937500", "145918.397500", "145918.857500", "145919.317500", "145919.777500", "145920.237500", "145920.697500", "145921.157500", "145921.617500", "145922.077500", "145922.537500", "145922.997500", "145923.457500", "145923.917500", "145924.377500", "145924.837500", "145925.297500", "145925.757500", "145926.217500", "145926.677500", "145927.137500", "145927.597500", "145928.057500", "145928.517500", "145928.977500", "145929.437500", "145929.897500", "145930.357500", "145930.817500", "145931.277500", "145931.737500", "145932.197500", "145932.657500", "145933.117500", "145933.577500", "145934.037500", "145934.497500", "145934.957500", "145935.417500", "145935.877500", "145936.337500", "145936.797500", "145937.257500", "145937.717500", "145938.177500", "145938.637500", "145939.097500", "145939.557500", "145940.017500", "145940.477500", "145940.937500", "145941.397500", "145941.857500", "145942.317500", "145942.777500", "145943.237500", "145943.697500", "145944.157500", "145944.617500", "145945.077500", "145945.537500", "145945.997500", "145946.457500", "145946.917500", "145947.377500", "145947.837500", "145948.297500", "145948.757500", "145949.217500", "145949.677500", "145950.137500", "145950.597500", "145951.057500", "145951.517500", "145951.977500", "145952.437500", "145952.897500", "145953.357500", "145953.817500", "145954.277500", "145954.737500", "145955.197500", "145955.657500", "145956.117500", "145956.577500", "145957.037500", "145957.497500", "145957.957500", "145958.417500", "145958.877500", "145959.337500", "145959.797500", "150000.257500", "150000.717500", "150001.177500", "150001.637500", "150002.097500", "150002.557500", "150003.017500", "150003.477500", "150003.937500", "150004.397500", "150004.857500", "150005.317500", "150005.777500", "150006.237500", "150006.697500", "150007.157500", "150007.617500", "150008.077500", "150008.537500", "150008.997500", "150009.457500", "150009.917500", "150010.377500", "150010.837500", "150011.297500", "150011.757500", "150012.217500", "150012.677500", "150013.137500", "150013.597500", "150014.057500", "150014.517500", "150014.977500", "150015.437500", "150015.897500", "150016.357500", "150016.817500", "150017.277500", "150017.737500", "150018.197500", "150018.657500", "150019.117500", "150019.577500", "150020.037500", "150020.497500", "150020.957500", "150021.417500", "150021.877500", "150022.337500", "150022.797500", "150023.257500", "150023.717500", "150024.177500", "150024.637500", "150025.097500", "150025.557500", "150026.017500", "150026.477500", "150026.937500", "150027.397500", "150027.857500", "150028.317500", "150028.777500", "150029.237500", "150029.697500", "150030.157500", "150030.617500", "150031.077500", "150031.537500", "150031.997500", "150032.457500", "150032.917500", "150033.377500", "150033.837500", "150034.297500", "150034.757500", "150035.217500", "150035.677500", "150036.137500", "150036.597500", "150037.057500", "150037.517500", "150037.977500", "150038.437500", "150038.897500", "150039.357500", "150039.817500", "150040.277500", "150040.737500", "150041.197500", "150041.657500", "150042.117500", "150042.577500", "150043.037500", "150043.497500", "150043.957500", "150044.417500", "150044.877500", "150045.337500", "150045.797500", "150046.257500", "150046.717500", "150047.177500", "150047.637500", "150048.097500", "150048.557500", "150049.017500", "150049.477500", "150049.937500", "150050.397500", "150050.857500", "150051.317500", "150051.777500", "150052.237500", "150052.697500", "150053.157500", "150053.617500", "150054.077500", "150054.537500", "150054.997500", "150055.457500", "150055.917500", "150056.377500", "150056.837500", "150057.297500", "150057.757500", "150058.217500", "150058.677500", "150059.137500", "150059.597500", "150100.057500", "150100.517500", "150100.977500", "150101.437500", "150101.897500", "150102.357500", "150102.817500", "150103.277500", "150103.737500", "150104.197500", "150104.657500", "150105.117500", "150105.577500", "150106.037500", "150106.497500", "150106.957500", "150107.417500", "150107.877500", "150108.337500", "150108.797500", "150109.257500", "150109.717500", "150110.177500", "150110.637500", "150111.097500", "150111.557500", "150112.017500", "150112.477500", "150112.937500", "150113.397500", "150113.857500", "150114.317500", "150114.777500", "150115.237500", "150115.697500", "150116.157500", "150116.617500", "150117.077500", "150117.537500", "150117.997500", "150118.457500", "150118.917500", "150119.377500", "150119.837500", "150120.297500", "150120.757500", "150121.217500", "150121.677500", "150122.137500", "150122.597500", "150123.057500", "150123.517500", "150123.977500", "150124.437500", "150124.897500", "150125.357500", "150125.817500", "150126.277500", "150126.737500", "150127.197500", "150127.657500", "150128.117500", "150128.577500", "150129.037500", "150129.497500", "150129.957500", "150130.417500", "150130.877500", "150131.337500", "150131.797500", "150132.257500", "150132.717500", "150133.177500", "150133.637500", "150134.097500", "150134.557500", "150135.017500", "150135.477500", "150135.937500", "150136.397500", "150136.857500", "150137.317500", "150137.777500", "150138.237500", "150138.697500", "150139.157500", "150139.617500", "150140.077500", "150140.537500", "150140.997500", "150141.457500", "150141.917500", "150142.377500", "150142.837500", "150143.297500", "150143.757500", "150144.217500", "150144.677500", "150145.137500", "150145.597500", "150146.057500", "150146.517500", "150146.977500", "150147.437500", "150147.897500", "150148.357500", "150148.817500", "150149.277500", "150149.737500", "150150.197500", "150150.657500", "150151.117500", "150151.577500", "150152.037500", "150152.497500", "150152.957500", "150153.417500", "150153.877500", "150154.337500", "150154.797500", "150155.257500", "150155.717500", "150156.177500", "150156.637500", "150157.097500", "150157.557500", "150158.017500", "150158.477500", "150158.937500", "150159.397500", "150159.857500", "150200.317500", "150200.777500", "150201.237500", "150201.697500", "150202.157500", "150202.617500", "150203.077500", "150203.537500", "150203.997500", "150204.457500", "150204.917500", "150205.377500", "150205.837500", "150206.297500", "150206.757500", "150207.217500", "150207.677500", "150208.137500", "150208.597500", "150209.057500", "150209.517500", "150209.977500", "150210.437500", "150210.897500", "150211.357500", "150211.817500", "150212.277500", "150212.737500", "150213.197500", "150213.657500", "150214.117500", "150214.577500", "150215.037500", "150215.497500", "150215.957500", "150216.417500", "150216.877500", "150217.337500", "150217.797500", "150218.257500", "150218.717500", "150219.177500", "150219.637500", "150220.097500", "150220.557500", "150221.017500", "150221.477500", "150221.937500", "150222.397500", "150222.857500", "150223.317500", "150223.777500", "150224.237500", "150224.697500", "150225.157500", "150225.617500", "150226.077500", "150226.537500", "150226.997500", "150227.457500", "150227.917500", "150228.377500", "150228.837500", "150229.297500", "150229.757500", "150230.217500", "150230.677500", "150231.137500", "150231.597500", "150232.057500", "150232.517500", "150232.977500", "150233.437500", "150233.897500", "150234.357500", "150234.817500", "150235.277500", "150235.737500", "150236.197500", "150236.657500", "150237.117500", "150237.577500", "150238.037500", "150238.497500", "150238.957500", "150239.417500", "150239.877500", "150240.337500", "150240.797500", "150241.257500", "150241.717500", "150242.177500", "150242.637500", "150243.097500", "150243.557500", "150244.017500", "150244.477500", "150244.937500", "150245.397500", "150245.857500", "150246.317500", "150246.777500", "150247.237500", "150247.697500", "150248.157500", "150248.617500", "150249.077500", "150249.537500", "150249.997500", "150250.457500", "150250.917500", "150251.377500", "150251.837500", "150252.297500", "150252.757500", "150253.217500", "150253.677500", "150254.137500", "150254.597500", "150255.057500", "150255.517500", "150255.977500", "150256.437500", "150256.897500", "150257.357500", "150257.817500", "150258.277500", "150258.737500", "150259.197500", "150259.657500", "150300.117500", "150300.577500", "150301.037500", "150301.497500", "150301.957500", "150302.417500", "150302.877500", "150303.337500", "150303.797500", "150304.257500", "150304.717500", "150305.177500", "150305.637500", "150306.097500", "150306.557500", "150307.017500", "150307.477500", "150307.937500", "150308.397500", "150308.857500", "150309.317500", "150309.777500", "150310.237500", "150310.697500", "150311.157500", "150311.617500", "150312.077500", "150312.537500", "150312.997500", "150313.457500", "150313.917500", "150314.377500", "150314.837500", "150315.297500", "150315.757500", "150316.217500", "150316.677500", "150317.137500", "150317.597500", "150318.057500", "150318.517500", "150318.977500", "150319.437500", "150319.897500", "150320.357500", "150320.817500", "150321.277500", "150321.737500", "150322.197500", "150322.657500", "150323.117500", "150323.577500", "150324.037500", "150324.497500", "150324.957500", "150325.417500", "150325.877500", "150326.337500", "150326.797500", "150327.257500", "150327.717500", "150328.177500", "150328.637500", "150329.097500", "150329.557500", "150330.017500", "150330.477500", "150330.937500", "150331.397500", "150331.857500", "150332.317500", "150332.777500", "150333.237500", "150333.697500", "150334.157500", "150334.617500", "150335.077500", "150335.537500", "150335.997500", "150336.457500", "150336.917500", "150337.377500", "150337.837500", "150338.297500", "150338.757500", "150339.217500", "150339.677500", "150340.137500", "150340.597500", "150341.057500", "150341.517500", "150341.977500", "150342.437500", "150342.897500", "150343.357500", "150343.817500", "150344.277500", "150344.737500", "150345.197500", "150345.657500", "150346.117500", "150346.577500", "150347.037500", "150347.497500", "150347.957500", "150348.417500", "150348.877500", "150349.337500"],
