{
  "AcquisitionMatrixPE": 82,
  "AcquisitionNumber": 1,
  "AcquisitionTime": "13:41:3.142500",
  "BandwidthPerPixelPhaseEncode": 24.888,
  "BaseResolution": 82,
  "BodyPartExamined": "BRAIN",
  "ConsistencyInfo": "N4_VE11E_LATEST_20181129",
  "ConversionSoftware": "dcm2niix",
  "ConversionSoftwareVersion": "v1.0.20201102",
  "DerivedVendorReportedEchoSpacing": 0.00049,
  "DeviceSerialNumber": "66112",
  "DwellTime": 2e-06,
  "EchoTime": 0.0272,
  "EchoTrainLength": 82,
  "EffectiveEchoSpacing": 0.00049,
  "FlipAngle": 44,
  "ImageComments": "Unaliased MB8/PE3",
  "ImageOrientationPatientDICOM": [0.999891, -0.00637204, -0.013351, 0.00680616, 0.999441, 0.0327266],
  "ImageType": [
    "ORIGINAL",
    "PRIMARY",
    "M",
    "MB",
    "ND",
    "NORM",
    "MOSAIC"
],
  "ImagingFrequency": 123.259,
  "InPlanePhaseEncodingDirectionDICOM": "COL",
  "InstitutionAddress": "Maynard 3,Hanover,NH,US,03755",
  "InstitutionName": "Dartmouth College - PBS",
  "InstitutionalDepartmentName": "Department",
  "MRAcquisitionType": "2D",
  "MagneticFieldStrength": 3,
  "Manufacturer": "Siemens",
  "ManufacturersModelName": "Prisma",
  "Modality": "MR",
  "MultibandAccelerationFactor": 8,
  "PartialFourier": 1,
  "PatientPosition": "HFS",
  "PercentPhaseFOV": 100,
  "PercentSampling": 100,
  "PhaseEncodingDirection": "j-",
  "PhaseEncodingSteps": 82,
  "PhaseResolution": 1,
  "PixelBandwidth": 3050,
  "ProcedureStepDescription": "Wager_Wager^1076_spacetop",
  "ProtocolName": "func_run-03_task-social_acq-ap-mb8",
  "PulseSequenceDetails": "%CustomerSeq%\\cmrr_mbep2d_bold",
  "ReceiveCoilActiveElements": "HEA;HEP",
  "ReceiveCoilName": "Head_32",
  "ReconMatrixPE": 82,
  "RepetitionTime": 0.46,
  "SAR": 0.100319,
  "ScanOptions": "FS",
  "ScanningSequence": "EP",
  "SequenceName": "epfid2d1_82",
  "SequenceVariant": "SK\\SS",
  "SeriesDescription": "func_run-03_task-social_acq-ap-mb8",
  "SeriesNumber": 12,
  "ShimSetting": [4220, -7766, -7198, 283, -105, -46, 14, 96],
  "SliceThickness": 2.7,
  "SliceTiming": [0, 0.25, 0.0625, 0.315, 0.125, 0.3775, 0.1875, 0, 0.25, 0.0625, 0.315, 0.125, 0.3775, 0.1875, 0, 0.25, 0.0625, 0.315, 0.125, 0.3775, 0.1875, 0, 0.25, 0.0625, 0.315, 0.125, 0.3775, 0.1875, 0, 0.25, 0.0625, 0.315, 0.125, 0.3775, 0.1875, 0, 0.25, 0.0625, 0.315, 0.125, 0.3775, 0.1875, 0, 0.25, 0.0625, 0.315, 0.125, 0.3775, 0.1875, 0, 0.25, 0.0625, 0.315, 0.125, 0.3775, 0.1875],
  "SoftwareVersions": "syngo MR E11",
  "SpacingBetweenSlices": 2.7,
  "StationName": "AWP66112",
  "TaskName": "social",
  "TotalReadoutTime": 0.03969,
  "TxRefAmp": 251.09,
  "WipMemBlock": "69103666-81e1-48a8-a880-f20150b855cd||Sequence: R016 ve11e/master r/434b28f1; Aug  7 2019 18:53:46 by eja",
  "dcmmeta_affine": [
    [-2.682633399963379, 0.018260426819324493, -0.035464536398649216, 114.69422149658203],
    [0.017095722258090973, 2.681427478790283, 0.08859754353761673, -94.36073303222656],
    [-0.03581978380680084, -0.08780312538146973, 2.698312997817993, -46.87079620361328],
    [0.0, 0.0, 0.0, 1.0]
],
  "dcmmeta_reorient_transform": [
    [0.0, -1.0, 0.0, 81.0],
    [1.0, 0.0, 0.0, 0.0],
    [0.0, 0.0, 1.0, 0.0],
    [0.0, 0.0, 0.0, 1.0]
],
  "dcmmeta_shape": [82, 82, 56, 872],
  "dcmmeta_slice_dim": 2,
  "dcmmeta_version": 0.6,
  "global": {
    "const": {
      "AccessionNumber": "A004412",
      "AcquisitionMatrix": [82, 0, 0, 82],
      "AngioFlag": "N",
      "BitsAllocated": 16,
      "BitsStored": 16,
      "BodyPartExamined": "BRAIN",
      "Columns": 656,
      "EchoNumbers": 1,
      "EchoTime": 27.2,
      "EchoTrainLength": 82,
      "FlipAngle": 44.0,
      "HighBit": 15,
      "ImageOrientationPatient": [0.99989056782151, -0.0063720415668, -0.0133510099935, 0.00680615886966, 0.99944116619422, 0.03272661787873],
      "ImagePositionPatient": [-891.32981711179, -887.49814340768, -68.902067327964],
      "ImageType": [
        "ORIGINAL",
        "PRIMARY",
        "M",
        "MB",
        "ND",
        "NORM",
        "MOSAIC"
],
      "ImagedNucleus": "1H",
      "ImagingFrequency": 123.259056,
      "InPlanePhaseEncodingDirection": "COL",
      "MRAcquisitionType": "2D",
      "MagneticFieldStrength": 3.0,
      "Manufacturer": "SIEMENS",
      "ManufacturerModelName": "Prisma",
      "Modality": "MR",
      "NumberOfAverages": 1.0,
      "NumberOfPhaseEncodingSteps": 82,
      "PercentPhaseFieldOfView": 100.0,
      "PercentSampling": 100.0,
      "PerformedProcedureStepStartTime": "131231.253000",
      "PhotometricInterpretation": "MONOCHROME2",
      "PixelBandwidth": 3050.0,
      "PixelRepresentation": 0,
      "PixelSpacing": [2.6829268932343, 2.6829268932343],
      "ProtocolName": "func_run-03_task-social_acq-ap-mb8",
      "RepetitionTime": 460.0,
      "Rows": 656,
      "SAR": 0.10031918919234,
      "SamplesPerPixel": 1,
      "ScanOptions": "FS",
      "ScanningSequence": "EP",
      "SequenceName": "epfid2d1_82",
      "SequenceVariant": [
        "SK",
        "SS"
],
      "SeriesDescription": "func_run-03_task-social_acq-ap-mb8",
      "SeriesNumber": 12,
      "SeriesTime": "134118.156000",
      "SliceLocation": -51.444363827922,
      "SliceThickness": 2.7000000476837,
      "SmallestImagePixelValue": 0,
      "SoftwareVersions": "syngo MR E11",
      "SpacingBetweenSlices": 2.6999999890038,
      "SpecificCharacterSet": "ISO_IR 100",
      "StudyID": "4",
      "StudyTime": "131231.213000",
      "TransmitCoilName": "Body",
      "VariableFlipAngleFlag": "N",
      "WindowCenterWidthExplanation": "Algo1"
    },
    "slices": {}
  },
  "time": {
    "samples": {
      "AcquisitionNumber": [1, 2, 3, 4, 5, 6, 7, 8, 9, 10, 11, 12, 13, 14, 15, 16, 17, 18, 19, 20, 21, 22, 23, 24, 25, 26, 27, 28, 29, 30, 31, 32, 33, 34, 35, 36, 37, 38, 39, 40, 41, 42, 43, 44, 45, 46, 47, 48, 49, 50, 51, 52, 53, 54, 55, 56, 57, 58, 59, 60, 61, 62, 63, 64, 65, 66, 67, 68, 69, 70, 71, 72, 73, 74, 75, 76, 77, 78, 79, 80, 81, 82, 83, 84, 85, 86, 87, 88, 89, 90, 91, 92, 93, 94, 95, 96, 97, 98, 99, 100, 101, 102, 103, 104, 105, 106, 107, 108, 109, 110, 111, 112, 113, 114, 115, 116, 117, 118, 119, 120, 121, 122, 123, 124, 125, 126, 127, 128, 129, 130, 131, 132, 133, 134, 135, 136, 137, 138, 139, 140, 141, 142, 143, 144, 145, 146, 147, 148, 149, 150, 151, 152, 153, 154, 155, 156, 157, 158, 159, 160, 161, 162, 163, 164, 165, 166, 167, 168, 169, 170, 171, 172, 173, 174, 175, 176, 177, 178, 179, 180, 181, 182, 183, 184, 185, 186, 187, 188, 189, 190, 191, 192, 193, 194, 195, 196, 197, 198, 199, 200, 201, 202, 203, 204, 205, 206, 207, 208, 209, 210, 211, 212, 213, 214, 215, 216, 217, 218, 219, 220, 221, 222, 223, 224, 225, 226, 227, 228, 229, 230, 231, 232, 233, 234, 235, 236, 237, 238, 239, 240, 241, 242, 243, 244, 245, 246, 247, 248, 249, 250, 251, 252, 253, 254, 255, 256, 257, 258, 259, 260, 261, 262, 263, 264, 265, 266, 267, 268, 269, 270, 271, 272, 273, 274, 275, 276, 277, 278, 279, 280, 281, 282, 283, 284, 285, 286, 287, 288, 289, 290, 291, 292, 293, 294, 295, 296, 297, 298, 299, 300, 301, 302, 303, 304, 305, 306, 307, 308, 309, 310, 311, 312, 313, 314, 315, 316, 317, 318, 319, 320, 321, 322, 323, 324, 325, 326, 327, 328, 329, 330, 331, 332, 333, 334, 335, 336, 337, 338, 339, 340, 341, 342, 343, 344, 345, 346, 347, 348, 349, 350, 351, 352, 353, 354, 355, 356, 357, 358, 359, 360, 361, 362, 363, 364, 365, 366, 367, 368, 369, 370, 371, 372, 373, 374, 375, 376, 377, 378, 379, 380, 381, 382, 383, 384, 385, 386, 387, 388, 389, 390, 391, 392, 393, 394, 395, 396, 397, 398, 399, 400, 401, 402, 403, 404, 405, 406, 407, 408, 409, 410, 411, 412, 413, 414, 415, 416, 417, 418, 419, 420, 421, 422, 423, 424, 425, 426, 427, 428, 429, 430, 431, 432, 433, 434, 435, 436, 437, 438, 439, 440, 441, 442, 443, 444, 445, 446, 447, 448, 449, 450, 451, 452, 453, 454, 455, 456, 457, 458, 459, 460, 461, 462, 463, 464, 465, 466, 467, 468, 469, 470, 471, 472, 473, 474, 475, 476, 477, 478, 479, 480, 481, 482, 483, 484, 485, 486, 487, 488, 489, 490, 491, 492, 493, 494, 495, 496, 497, 498, 499, 500, 501, 502, 503, 504, 505, 506, 507, 508, 509, 510, 511, 512, 513, 514, 515, 516, 517, 518, 519, 520, 521, 522, 523, 524, 525, 526, 527, 528, 529, 530, 531, 532, 533, 534, 535, 536, 537, 538, 539, 540, 541, 542, 543, 544, 545, 546, 547, 548, 549, 550, 551, 552, 553, 554, 555, 556, 557, 558, 559, 560, 561, 562, 563, 564, 565, 566, 567, 568, 569, 570, 571, 572, 573, 574, 575, 576, 577, 578, 579, 580, 581, 582, 583, 584, 585, 586, 587, 588, 589, 590, 591, 592, 593, 594, 595, 596, 597, 598, 599, 600, 601, 602, 603, 604, 605, 606, 607, 608, 609, 610, 611, 612, 613, 614, 615, 616, 617, 618, 619, 620, 621, 622, 623, 624, 625, 626, 627, 628, 629, 630, 631, 632, 633, 634, 635, 636, 637, 638, 639, 640, 641, 642, 643, 644, 645, 646, 647, 648, 649, 650, 651, 652, 653, 654, 655, 656, 657, 658, 659, 660, 661, 662, 663, 664, 665, 666, 667, 668, 669, 670, 671, 672, 673, 674, 675, 676, 677, 678, 679, 680, 681, 682, 683, 684, 685, 686, 687, 688, 689, 690, 691, 692, 693, 694, 695, 696, 697, 698, 699, 700, 701, 702, 703, 704, 705, 706, 707, 708, 709, 710, 711, 712, 713, 714, 715, 716, 717, 718, 719, 720, 721, 722, 723, 724, 725, 726, 727, 728, 729, 730, 731, 732, 733, 734, 735, 736, 737, 738, 739, 740, 741, 742, 743, 744, 745, 746, 747, 748, 749, 750, 751, 752, 753, 754, 755, 756, 757, 758, 759, 760, 761, 762, 763, 764, 765, 766, 767, 768, 769, 770, 771, 772, 773, 774, 775, 776, 777, 778, 779, 780, 781, 782, 783, 784, 785, 786, 787, 788, 789, 790, 791, 792, 793, 794, 795, 796, 797, 798, 799, 800, 801, 802, 803, 804, 805, 806, 807, 808, 809, 810, 811, 812, 813, 814, 815, 816, 817, 818, 819, 820, 821, 822, 823, 824, 825, 826, 827, 828, 829, 830, 831, 832, 833, 834, 835, 836, 837, 838, 839, 840, 841, 842, 843, 844, 845, 846, 847, 848, 849, 850, 851, 852, 853, 854, 855, 856, 857, 858, 859, 860, 861, 862, 863, 864, 865, 866, 867, 868, 869, 870, 871, 872],
      "AcquisitionTime": ["134103.142500", "134103.602500", "134104.062500", "134104.522500", "134104.982500", "134105.442500", "134105.902500", "134106.362500", "134106.822500", "134107.282500", "134107.742500", "134108.202500", "134108.662500", "134109.122500", "134109.582500", "134110.042500", "134110.502500", "134110.962500", "134111.422500", "134111.882500", "134112.342500", "134112.802500", "134113.262500", "134113.722500", "134114.182500", "134114.642500", "134115.102500", "134115.562500", "134116.022500", "134116.482500", "134116.942500", "134117.402500", "134117.862500", "134118.322500", "134118.782500", "134119.242500", "134119.702500", "134120.162500", "134120.622500", "134121.082500", "134121.542500", "134122.002500", "134122.462500", "134122.922500", "134123.382500", "134123.842500", "134124.302500", "134124.762500", "134125.222500", "134125.682500", "134126.142500", "134126.602500", "134127.062500", "134127.522500", "134127.982500", "134128.442500", "134128.902500", "134129.362500", "134129.822500", "134130.282500", "134130.742500", "134131.202500", "134131.662500", "134132.122500", "134132.582500", "134133.042500", "134133.502500", "134133.962500", "134134.422500", "134134.882500", "134135.342500", "134135.802500", "134136.262500", "134136.722500", "134137.182500", "134137.642500", "134138.102500", "134138.562500", "134139.022500", "134139.482500", "134139.942500", "134140.402500", "134140.862500", "134141.322500", "134141.782500", "134142.242500", "134142.702500", "134143.162500", "134143.622500", "134144.082500", "134144.542500", "134145.002500", "134145.462500", "134145.922500", "134146.382500", "134146.842500", "134147.302500", "134147.762500", "134148.222500", "134148.682500", "134149.142500", "134149.602500", "134150.062500", "134150.522500", "134150.982500", "134151.442500", "134151.902500", "134152.362500", "134152.822500", "134153.282500", "134153.742500", "134154.202500", "134154.662500", "134155.122500", "134155.582500", "134156.042500", "134156.502500", "134156.962500", "134157.422500", "134157.882500", "134158.342500", "134158.802500", "134159.262500", "134159.722500", "134200.182500", "134200.642500", "134201.102500", "134201.562500", "134202.022500", "134202.482500", "134202.942500", "134203.402500", "134203.862500", "134204.322500", "134204.782500", "134205.242500", "134205.702500", "134206.162500", "134206.622500", "134207.082500", "134207.542500", "134208.002500", "134208.462500", "134208.922500", "134209.382500", "134209.842500", "134210.302500", "134210.762500", "134211.222500", "134211.682500", "134212.142500", "134212.602500", "134213.062500", "134213.522500", "134213.982500", "134214.442500", "134214.902500", "134215.362500", "134215.822500", "134216.282500", "134216.742500", "134217.202500", "134217.662500", "134218.122500", "134218.582500", "134219.042500", "134219.502500", "134219.962500", "134220.422500", "134220.882500", "134221.342500", "134221.802500", "134222.262500", "134222.722500", "134223.182500", "134223.642500", "134224.102500", "134224.562500", "134225.022500", "134225.482500", "134225.942500", "134226.402500", "134226.862500", "134227.322500", "134227.782500", "134228.242500", "134228.702500", "134229.162500", "134229.622500", "134230.082500", "134230.542500", "134231.002500", "134231.462500", "134231.922500", "134232.382500", "134232.842500", "134233.302500", "134233.762500", "134234.222500", "134234.682500", "134235.142500", "134235.602500", "134236.062500", "134236.522500", "134236.982500", "134237.442500", "134237.902500", "134238.362500", "134238.822500", "134239.282500", "134239.742500", "134240.202500", "134240.662500", "134241.122500", "134241.582500", "134242.042500", "134242.502500", "134242.962500", "134243.422500", "134243.882500", "134244.342500", "134244.802500", "134245.262500", "134245.722500", "134246.182500", "134246.642500", "134247.102500", "134247.562500", "134248.022500", "134248.482500", "134248.942500", "134249.402500", "134249.862500", "134250.322500", "134250.782500", "134251.242500", "134251.702500", "134252.162500", "134252.622500", "134253.082500", "134253.542500", "134254.002500", "134254.462500", "134254.922500", "134255.382500", "134255.842500", "134256.302500", "134256.762500", "134257.222500", "134257.682500", "134258.142500", "134258.602500", "134259.062500", "134259.522500", "134259.982500", "134300.442500", "134300.902500", "134301.362500", "134301.822500", "134302.282500", "134302.742500", "134303.202500", "134303.662500", "134304.122500", "134304.582500", "134305.042500", "134305.502500", "134305.962500", "134306.422500", "134306.882500", "134307.342500", "134307.802500", "134308.262500", "134308.722500", "134309.182500", "134309.642500", "134310.102500", "134310.562500", "134311.022500", "134311.482500", "134311.942500", "134312.402500", "134312.862500", "134313.322500", "134313.782500", "134314.242500", "134314.702500", "134315.162500", "134315.622500", "134316.082500", "134316.542500", "134317.002500", "134317.462500", "134317.922500", "134318.382500", "134318.842500", "134319.302500", "134319.762500", "134320.222500", "134320.682500", "134321.142500", "134321.602500", "134322.062500", "134322.522500", "134322.982500", "134323.442500", "134323.902500", "134324.362500", "134324.822500", "134325.282500", "134325.742500", "134326.202500", "134326.662500", "134327.122500", "134327.582500", "134328.042500", "134328.502500", "134328.962500", "134329.422500", "134329.882500", "134330.342500", "134330.802500", "134331.262500", "134331.722500", "134332.182500", "134332.642500", "134333.102500", "134333.562500", "134334.022500", "134334.482500", "134334.942500", "134335.402500", "134335.862500", "134336.322500", "134336.782500", "134337.242500", "134337.702500", "134338.162500", "134338.622500", "134339.082500", "134339.542500", "134340.002500", "134340.462500", "134340.922500", "134341.382500", "134341.842500", "134342.302500", "134342.762500", "134343.222500", "134343.682500", "134344.142500", "134344.602500", "134345.062500", "134345.522500", "134345.982500", "134346.442500", "134346.902500", "134347.362500", "134347.822500", "134348.282500", "134348.742500", "134349.202500", "134349.662500", "134350.122500", "134350.582500", "134351.042500", "134351.502500", "134351.962500", "134352.422500", "134352.882500", "134353.342500", "134353.802500", "134354.262500", "134354.722500", "134355.182500", "134355.642500", "134356.102500", "134356.562500", "134357.022500", "134357.482500", "134357.942500", "134358.402500", "134358.862500", "134359.322500", "134359.782500", "134400.242500", "134400.702500", "134401.162500", "134401.622500", "134402.082500", "134402.542500", "134403.002500", "134403.462500", "134403.922500", "134404.382500", "134404.842500", "134405.302500", "134405.762500", "134406.222500", "134406.682500", "134407.142500", "134407.602500", "134408.062500", "134408.522500", "134408.982500", "134409.442500", "134409.902500", "134410.362500", "134410.822500", "134411.282500", "134411.742500", "134412.202500", "134412.662500", "134413.122500", "134413.582500", "134414.042500", "134414.502500", "134414.962500", "134415.422500", "134415.882500", "134416.342500", "134416.802500", "134417.262500", "134417.722500", "134418.182500", "134418.642500", "134419.102500", "134419.562500", "134420.022500", "134420.482500", "134420.942500", "134421.402500", "134421.862500", "134422.322500", "134422.782500", "134423.242500", "134423.702500", "134424.162500", "134424.622500", "134425.082500", "134425.542500", "134426.002500", "134426.462500", "134426.922500", "134427.382500", "134427.842500", "134428.302500", "134428.762500", "134429.222500", "134429.682500", "134430.142500", "134430.602500", "134431.062500", "134431.522500", "134431.982500", "134432.442500", "134432.902500", "134433.362500", "134433.822500", "134434.282500", "134434.742500", "134435.202500", "134435.662500", "134436.122500", "134436.582500", "134437.042500", "134437.502500", "134437.962500", "134438.422500", "134438.882500", "134439.342500", "134439.802500", "134440.262500", "134440.722500", "134441.182500", "134441.642500", "134442.102500", "134442.562500", "134443.022500", "134443.482500", "134443.942500", "134444.402500", "134444.862500", "134445.322500", "134445.782500", "134446.242500", "134446.702500", "134447.162500", "134447.622500", "134448.082500", "134448.542500", "134449.002500", "134449.462500", "134449.922500", "134450.382500", "134450.842500", "134451.302500", "134451.762500", "134452.222500", "134452.682500", "134453.142500", "134453.602500", "134454.062500", "134454.522500", "134454.982500", "134455.442500", "134455.902500", "134456.362500", "134456.822500", "134457.282500", "134457.742500", "134458.202500", "134458.662500", "134459.122500", "134459.582500", "134500.042500", "134500.502500", "134500.962500", "134501.422500", "134501.882500", "134502.342500", "134502.802500", "134503.262500", "134503.722500", "134504.182500", "134504.642500", "134505.102500", "134505.562500", "134506.022500", "134506.482500", "134506.942500", "134507.402500", "134507.862500", "134508.322500", "134508.782500", "134509.242500", "134509.702500", "134510.162500", "134510.622500", "134511.082500", "134511.542500", "134512.002500", "134512.462500", "134512.922500", "134513.382500", "134513.842500", "134514.302500", "134514.762500", "134515.222500", "134515.682500", "134516.142500", "134516.602500", "134517.062500", "134517.522500", "134517.982500", "134518.442500", "134518.902500", "134519.362500", "134519.822500", "134520.282500", "134520.742500", "134521.202500", "134521.662500", "134522.122500", "134522.582500", "134523.042500", "134523.502500", "134523.962500", "134524.422500", "134524.882500", "134525.342500", "134525.802500", "134526.262500", "134526.722500", "134527.182500", "134527.642500", "134528.102500", "134528.562500", "134529.022500", "134529.482500", "134529.942500", "134530.402500", "134530.862500", "134531.322500", "134531.782500", "134532.242500", "134532.702500", "134533.162500", "134533.622500", "134534.082500", "134534.542500", "134535.002500", "134535.462500", "134535.922500", "134536.382500", "134536.842500", "134537.302500", "134537.762500", "134538.222500", "134538.682500", "134539.142500", "134539.602500", "134540.062500", "134540.522500", "134540.982500", "134541.442500", "134541.902500", "134542.362500", "134542.822500", "134543.282500", "134543.742500", "134544.202500", "134544.662500", "134545.122500", "134545.582500", "134546.042500", "134546.502500", "134546.962500", "134547.422500", "134547.882500", "134548.342500", "134548.802500", "134549.262500", "134549.722500", "134550.182500", "134550.642500", "134551.102500", "134551.562500", "134552.022500", "134552.482500", "134552.942500", "134553.402500", "134553.862500", "134554.322500", "134554.782500", "134555.242500", "134555.702500", "134556.162500", "134556.622500", "134557.082500", "134557.542500", "134558.002500", "134558.462500", "134558.922500", "134559.382500", "134559.842500", "134600.302500", "134600.762500", "134601.222500", "134601.682500", "134602.142500", "134602.602500", "134603.062500", "134603.522500", "134603.982500", "134604.442500", "134604.902500", "134605.362500", "134605.822500", "134606.282500", "134606.742500", "134607.202500", "134607.662500", "134608.122500", "134608.582500", "134609.042500", "134609.502500", "134609.962500", "134610.422500", "134610.882500", "134611.342500", "134611.802500", "134612.262500", "134612.722500", "134613.182500", "134613.642500", "134614.102500", "134614.562500", "134615.022500", "134615.482500", "134615.942500", "134616.402500", "134616.862500", "134617.322500", "134617.782500", "134618.242500", "134618.702500", "134619.162500", "134619.622500", "134620.082500", "134620.542500", "134621.002500", "134621.462500", "134621.922500", "134622.382500", "134622.842500", "134623.302500", "134623.762500", "134624.222500", "134624.682500", "134625.142500", "134625.602500", "134626.062500", "134626.522500", "134626.982500", "134627.442500", "134627.902500", "134628.362500", "134628.822500", "134629.282500", "134629.742500", "134630.202500", "134630.662500", "134631.122500", "134631.582500", "134632.042500", "134632.502500", "134632.962500", "134633.422500", "134633.882500", "134634.342500", "134634.802500", "134635.262500", "134635.722500", "134636.182500", "134636.642500", "134637.102500", "134637.562500", "134638.022500", "134638.482500", "134638.942500", "134639.402500", "134639.862500", "134640.322500", "134640.782500", "134641.242500", "134641.702500", "134642.162500", "134642.622500", "134643.082500", "134643.542500", "134644.002500", "134644.462500", "134644.922500", "134645.382500", "134645.842500", "134646.302500", "134646.762500", "134647.222500", "134647.682500", "134648.142500", "134648.602500", "134649.062500", "134649.522500", "134649.982500", "134650.442500", "134650.902500", "134651.362500", "134651.822500", "134652.282500", "134652.742500", "134653.202500", "134653.662500", "134654.122500", "134654.582500", "134655.042500", "134655.502500", "134655.962500", "134656.422500", "134656.882500", "134657.342500", "134657.802500", "134658.262500", "134658.722500", "134659.182500", "134659.642500", "134700.102500", "134700.562500", "134701.022500", "134701.482500", "134701.942500", "134702.402500", "134702.862500", "134703.322500", "134703.782500", "134704.242500", "134704.702500", "134705.162500", "134705.622500", "134706.082500", "134706.542500", "134707.002500", "134707.462500", "134707.922500", "134708.382500", "134708.842500", "134709.302500", "134709.762500", "134710.222500", "134710.682500", "134711.142500", "134711.602500", "134712.062500", "134712.522500", "134712.982500", "134713.442500", "134713.902500", "134714.362500", "134714.822500", "134715.282500", "134715.742500", "134716.202500", "134716.662500", "134717.122500", "134717.582500", "134718.042500", "134718.502500", "134718.962500", "134719.422500", "134719.882500", "134720.342500", "134720.802500", "134721.262500", "134721.722500", "134722.182500", "134722.642500", "134723.102500", "134723.562500", "134724.022500", "134724.482500", "134724.942500", "134725.402500", "134725.862500", "134726.322500", "134726.782500", "134727.242500", "134727.702500", "134728.162500", "134728.622500", "134729.082500", "134729.542500", "134730.002500", "134730.462500", "134730.922500", "134731.382500", "134731.842500", "134732.302500", "134732.762500", "134733.222500", "134733.682500", "134734.142500", "134734.602500", "134735.062500", "134735.522500", "134735.982500", "134736.442500", "134736.902500", "134737.362500", "134737.822500", "134738.282500", "134738.742500", "134739.202500", "134739.662500", "134740.122500", "134740.582500", "134741.042500", "134741.502500", "134741.962500", "134742.422500", "134742.882500", "134743.342500", "134743.802500"],
