{
  "AcquisitionMatrixPE": 82,
  "AcquisitionNumber": 1,
  "AcquisitionTime": "13:26:37.410000",
  "BandwidthPerPixelPhaseEncode": 24.888,
  "BaseResolution": 82,
  "BodyPartExamined": "BRAIN",
  "ConsistencyInfo": "N4_VE11E_LATEST_20181129",
  "ConversionSoftware": "dcm2niix",
  "ConversionSoftwareVersion": "v1.0.20201102",
  "DerivedVendorReportedEchoSpacing": 0.00049,
  "DeviceSerialNumber": "66112",
  "DwellTime": 2e-06,
  "EchoTime": 0.0272,
  "EchoTrainLength": 82,
  "EffectiveEchoSpacing": 0.00049,
  "FlipAngle": 44,
  "ImageComments": "Unaliased MB8/PE3",
  "ImageOrientationPatientDICOM": [0.999891, -0.00637204, -0.013351, 0.00680616, 0.999441, 0.0327266],
  "ImageType": [
    "ORIGINAL",
    "PRIMARY",
    "M",
    "MB",
    "ND",
    "NORM",
    "MOSAIC"
],
  "ImagingFrequency": 123.259,
  "InPlanePhaseEncodingDirectionDICOM": "COL",
  "InstitutionAddress": "Maynard 3,Hanover,NH,US,03755",
  "InstitutionName": "Dartmouth College - PBS",
  "InstitutionalDepartmentName": "Department",
  "MRAcquisitionType": "2D",
  "MagneticFieldStrength": 3,
  "Manufacturer": "Siemens",
  "ManufacturersModelName": "Prisma",
  "Modality": "MR",
  "MultibandAccelerationFactor": 8,
  "PartialFourier": 1,
  "PatientPosition": "HFS",
  "PercentPhaseFOV": 100,
  "PercentSampling": 100,
  "PhaseEncodingDirection": "j-",
  "PhaseEncodingSteps": 82,
  "PhaseResolution": 1,
  "PixelBandwidth": 3050,
  "ProcedureStepDescription": "Wager_Wager^1076_spacetop",
  "ProtocolName": "func_run-01_task-social_acq-ap-mb8",
  "PulseSequenceDetails": "%CustomerSeq%\\cmrr_mbep2d_bold",
  "ReceiveCoilActiveElements": "HEA;HEP",
  "ReceiveCoilName": "Head_32",
  "ReconMatrixPE": 82,
  "RepetitionTime": 0.46,
  "SAR": 0.100319,
  "ScanOptions": "FS",
  "ScanningSequence": "EP",
  "SequenceName": "epfid2d1_82",
  "SequenceVariant": "SK\\SS",
  "SeriesDescription": "func_run-01_task-social_acq-ap-mb8",
  "SeriesNumber": 8,
  "ShimSetting": [4220, -7766, -7198, 283, -105, -46, 14, 96],
  "SliceThickness": 2.7,
  "SliceTiming": [0, 0.25, 0.0625, 0.315, 0.125, 0.3775, 0.1875, 0, 0.25, 0.0625, 0.315, 0.125, 0.3775, 0.1875, 0, 0.25, 0.0625, 0.315, 0.125, 0.3775, 0.1875, 0, 0.25, 0.0625, 0.315, 0.125, 0.3775, 0.1875, 0, 0.25, 0.0625, 0.315, 0.125, 0.3775, 0.1875, 0, 0.25, 0.0625, 0.315, 0.125, 0.3775, 0.1875, 0, 0.25, 0.0625, 0.315, 0.125, 0.3775, 0.1875, 0, 0.25, 0.0625, 0.315, 0.125, 0.3775, 0.1875],
  "SoftwareVersions": "syngo MR E11",
  "SpacingBetweenSlices": 2.7,
  "StationName": "AWP66112",
  "TaskName": "social",
  "TotalReadoutTime": 0.03969,
  "TxRefAmp": 251.09,
  "WipMemBlock": "994b2a21-2f05-4ef9-8dcf-597474da49e5||Sequence: R016 ve11e/master r/434b28f1; Aug  7 2019 18:53:46 by eja",
  "dcmmeta_affine": [
    [-2.682633399963379, 0.018260426819324493, -0.035464536398649216, 114.69422149658203],
    [0.017095722258090973, 2.681427478790283, 0.08859754353761673, -94.36073303222656],
    [-0.03581978380680084, -0.08780312538146973, 2.698312997817993, -46.87079620361328],
    [0.0, 0.0, 0.0, 1.0]
],
  "dcmmeta_reorient_transform": [
    [0.0, -1.0, 0.0, 81.0],
    [1.0, 0.0, 0.0, 0.0],
    [0.0, 0.0, 1.0, 0.0],
    [0.0, 0.0, 0.0, 1.0]
],
  "dcmmeta_shape": [82, 82, 56, 872],
  "dcmmeta_slice_dim": 2,
  "dcmmeta_version": 0.6,
  "global": {
    "const": {
      "AccessionNumber": "A004412",
      "AcquisitionMatrix": [82, 0, 0, 82],
      "AngioFlag": "N",
      "BitsAllocated": 16,
      "BitsStored": 16,
      "BodyPartExamined": "BRAIN",
      "Columns": 656,
      "EchoNumbers": 1,
      "EchoTime": 27.2,
      "EchoTrainLength": 82,
      "FlipAngle": 44.0,
      "HighBit": 15,
      "ImageOrientationPatient": [0.99989056782151, -0.0063720415668, -0.0133510099935, 0.00680615886966, 0.99944116619422, 0.03272661787873],
      "ImagePositionPatient": [-891.32981711179, -887.49814340768, -68.902067327964],
      "ImageType": [
        "ORIGINAL",
        "PRIMARY",
        "M",
        "MB",
        "ND",
        "NORM",
        "MOSAIC"
],
      "ImagedNucleus": "1H",
      "ImagingFrequency": 123.259042,
      "InPlanePhaseEncodingDirection": "COL",
      "MRAcquisitionType": "2D",
      "MagneticFieldStrength": 3.0,
      "Manufacturer": "SIEMENS",
      "ManufacturerModelName": "Prisma",
      "Modality": "MR",
      "NumberOfAverages": 1.0,
      "NumberOfPhaseEncodingSteps": 82,
      "PercentPhaseFieldOfView": 100.0,
      "PercentSampling": 100.0,
      "PerformedProcedureStepStartTime": "131231.253000",
      "PhotometricInterpretation": "MONOCHROME2",
      "PixelBandwidth": 3050.0,
      "PixelRepresentation": 0,
      "PixelSpacing": [2.6829268932343, 2.6829268932343],
      "ProtocolName": "func_run-01_task-social_acq-ap-mb8",
      "RepetitionTime": 460.0,
      "Rows": 656,
      "SAR": 0.10031918919234,
      "SamplesPerPixel": 1,
      "ScanOptions": "FS",
      "ScanningSequence": "EP",
      "SequenceName": "epfid2d1_82",
      "SequenceVariant": [
        "SK",
        "SS"
],
      "SeriesDescription": "func_run-01_task-social_acq-ap-mb8",
      "SeriesNumber": 8,
      "SeriesTime": "132657.988000",
      "SliceLocation": -51.444363827922,
      "SliceThickness": 2.7000000476837,
      "SmallestImagePixelValue": 0,
      "SoftwareVersions": "syngo MR E11",
      "SpacingBetweenSlices": 2.6999999890038,
      "SpecificCharacterSet": "ISO_IR 100",
      "StudyID": "4",
      "StudyTime": "131231.213000",
      "TransmitCoilName": "Body",
      "VariableFlipAngleFlag": "N",
      "WindowCenterWidthExplanation": "Algo1"
    },
    "slices": {}
  },
  "time": {
    "samples": {
      "AcquisitionNumber": [1, 2, 3, 4, 5, 6, 7, 8, 9, 10, 11, 12, 13, 14, 15, 16, 17, 18, 19, 20, 21, 22, 23, 24, 25, 26, 27, 28, 29, 30, 31, 32, 33, 34, 35, 36, 37, 38, 39, 40, 41, 42, 43, 44, 45, 46, 47, 48, 49, 50, 51, 52, 53, 54, 55, 56, 57, 58, 59, 60, 61, 62, 63, 64, 65, 66, 67, 68, 69, 70, 71, 72, 73, 74, 75, 76, 77, 78, 79, 80, 81, 82, 83, 84, 85, 86, 87, 88, 89, 90, 91, 92, 93, 94, 95, 96, 97, 98, 99, 100, 101, 102, 103, 104, 105, 106, 107, 108, 109, 110, 111, 112, 113, 114, 115, 116, 117, 118, 119, 120, 121, 122, 123, 124, 125, 126, 127, 128, 129, 130, 131, 132, 133, 134, 135, 136, 137, 138, 139, 140, 141, 142, 143, 144, 145, 146, 147, 148, 149, 150, 151, 152, 153, 154, 155, 156, 157, 158, 159, 160, 161, 162, 163, 164, 165, 166, 167, 168, 169, 170, 171, 172, 173, 174, 175, 176, 177, 178, 179, 180, 181, 182, 183, 184, 185, 186, 187, 188, 189, 190, 191, 192, 193, 194, 195, 196, 197, 198, 199, 200, 201, 202, 203, 204, 205, 206, 207, 208, 209, 210, 211, 212, 213, 214, 215, 216, 217, 218, 219, 220, 221, 222, 223, 224, 225, 226, 227, 228, 229, 230, 231, 232, 233, 234, 235, 236, 237, 238, 239, 240, 241, 242, 243, 244, 245, 246, 247, 248, 249, 250, 251, 252, 253, 254, 255, 256, 257, 258, 259, 260, 261, 262, 263, 264, 265, 266, 267, 268, 269, 270, 271, 272, 273, 274, 275, 276, 277, 278, 279, 280, 281, 282, 283, 284, 285, 286, 287, 288, 289, 290, 291, 292, 293, 294, 295, 296, 297, 298, 299, 300, 301, 302, 303, 304, 305, 306, 307, 308, 309, 310, 311, 312, 313, 314, 315, 316, 317, 318, 319, 320, 321, 322, 323, 324, 325, 326, 327, 328, 329, 330, 331, 332, 333, 334, 335, 336, 337, 338, 339, 340, 341, 342, 343, 344, 345, 346, 347, 348, 349, 350, 351, 352, 353, 354, 355, 356, 357, 358, 359, 360, 361, 362, 363, 364, 365, 366, 367, 368, 369, 370, 371, 372, 373, 374, 375, 376, 377, 378, 379, 380, 381, 382, 383, 384, 385, 386, 387, 388, 389, 390, 391, 392, 393, 394, 395, 396, 397, 398, 399, 400, 401, 402, 403, 404, 405, 406, 407, 408, 409, 410, 411, 412, 413, 414, 415, 416, 417, 418, 419, 420, 421, 422, 423, 424, 425, 426, 427, 428, 429, 430, 431, 432, 433, 434, 435, 436, 437, 438, 439, 440, 441, 442, 443, 444, 445, 446, 447, 448, 449, 450, 451, 452, 453, 454, 455, 456, 457, 458, 459, 460, 461, 462, 463, 464, 465, 466, 467, 468, 469, 470, 471, 472, 473, 474, 475, 476, 477, 478, 479, 480, 481, 482, 483, 484, 485, 486, 487, 488, 489, 490, 491, 492, 493, 494, 495, 496, 497, 498, 499, 500, 501, 502, 503, 504, 505, 506, 507, 508, 509, 510, 511, 512, 513, 514, 515, 516, 517, 518, 519, 520, 521, 522, 523, 524, 525, 526, 527, 528, 529, 530, 531, 532, 533, 534, 535, 536, 537, 538, 539, 540, 541, 542, 543, 544, 545, 546, 547, 548, 549, 550, 551, 552, 553, 554, 555, 556, 557, 558, 559, 560, 561, 562, 563, 564, 565, 566, 567, 568, 569, 570, 571, 572, 573, 574, 575, 576, 577, 578, 579, 580, 581, 582, 583, 584, 585, 586, 587, 588, 589, 590, 591, 592, 593, 594, 595, 596, 597, 598, 599, 600, 601, 602, 603, 604, 605, 606, 607, 608, 609, 610, 611, 612, 613, 614, 615, 616, 617, 618, 619, 620, 621, 622, 623, 624, 625, 626, 627, 628, 629, 630, 631, 632, 633, 634, 635, 636, 637, 638, 639, 640, 641, 642, 643, 644, 645, 646, 647, 648, 649, 650, 651, 652, 653, 654, 655, 656, 657, 658, 659, 660, 661, 662, 663, 664, 665, 666, 667, 668, 669, 670, 671, 672, 673, 674, 675, 676, 677, 678, 679, 680, 681, 682, 683, 684, 685, 686, 687, 688, 689, 690, 691, 692, 693, 694, 695, 696, 697, 698, 699, 700, 701, 702, 703, 704, 705, 706, 707, 708, 709, 710, 711, 712, 713, 714, 715, 716, 717, 718, 719, 720, 721, 722, 723, 724, 725, 726, 727, 728, 729, 730, 731, 732, 733, 734, 735, 736, 737, 738, 739, 740, 741, 742, 743, 744, 745, 746, 747, 748, 749, 750, 751, 752, 753, 754, 755, 756, 757, 758, 759, 760, 761, 762, 763, 764, 765, 766, 767, 768, 769, 770, 771, 772, 773, 774, 775, 776, 777, 778, 779, 780, 781, 782, 783, 784, 785, 786, 787, 788, 789, 790, 791, 792, 793, 794, 795, 796, 797, 798, 799, 800, 801, 802, 803, 804, 805, 806, 807, 808, 809, 810, 811, 812, 813, 814, 815, 816, 817, 818, 819, 820, 821, 822, 823, 824, 825, 826, 827, 828, 829, 830, 831, 832, 833, 834, 835, 836, 837, 838, 839, 840, 841, 842, 843, 844, 845, 846, 847, 848, 849, 850, 851, 852, 853, 854, 855, 856, 857, 858, 859, 860, 861, 862, 863, 864, 865, 866, 867, 868, 869, 870, 871, 872],
      "AcquisitionTime": ["132637.410000", "132637.870000", "132638.330000", "132638.790000", "132639.250000", "132639.710000", "132640.170000", "132640.630000", "132641.090000", "132641.550000", "132642.010000", "132642.470000", "132642.930000", "132643.390000", "132643.850000", "132644.310000", "132644.770000", "132645.230000", "132645.690000", "132646.150000", "132646.610000", "132647.070000", "132647.530000", "132647.990000", "132648.450000", "132648.910000", "132649.370000", "132649.830000", "132650.290000", "132650.750000", "132651.210000", "132651.670000", "132652.130000", "132652.590000", "132653.050000", "132653.510000", "132653.970000", "132654.430000", "132654.890000", "132655.350000", "132655.810000", "132656.270000", "132656.730000", "132657.190000", "132657.650000", "132658.110000", "132658.570000", "132659.030000", "132659.490000", "132659.950000", "132700.410000", "132700.870000", "132701.330000", "132701.790000", "132702.250000", "132702.710000", "132703.170000", "132703.630000", "132704.090000", "132704.550000", "132705.010000", "132705.470000", "132705.930000", "132706.390000", "132706.850000", "132707.310000", "132707.770000", "132708.230000", "132708.690000", "132709.150000", "132709.610000", "132710.070000", "132710.530000", "132710.990000", "132711.450000", "132711.910000", "132712.370000", "132712.830000", "132713.290000", "132713.750000", "132714.210000", "132714.670000", "132715.130000", "132715.590000", "132716.050000", "132716.510000", "132716.970000", "132717.430000", "132717.890000", "132718.350000", "132718.810000", "132719.270000", "132719.730000", "132720.190000", "132720.650000", "132721.110000", "132721.570000", "132722.030000", "132722.490000", "132722.950000", "132723.410000", "132723.870000", "132724.330000", "132724.790000", "132725.250000", "132725.710000", "132726.170000", "132726.630000", "132727.090000", "132727.550000", "132728.010000", "132728.470000", "132728.930000", "132729.390000", "132729.850000", "132730.310000", "132730.770000", "132731.230000", "132731.690000", "132732.150000", "132732.610000", "132733.070000", "132733.530000", "132733.990000", "132734.450000", "132734.910000", "132735.370000", "132735.830000", "132736.290000", "132736.750000", "132737.210000", "132737.670000", "132738.130000", "132738.590000", "132739.050000", "132739.510000", "132739.970000", "132740.430000", "132740.890000", "132741.350000", "132741.810000", "132742.270000", "132742.730000", "132743.190000", "132743.650000", "132744.110000", "132744.570000", "132745.030000", "132745.490000", "132745.950000", "132746.410000", "132746.870000", "132747.330000", "132747.790000", "132748.250000", "132748.710000", "132749.170000", "132749.630000", "132750.090000", "132750.550000", "132751.010000", "132751.470000", "132751.930000", "132752.390000", "132752.850000", "132753.310000", "132753.770000", "132754.230000", "132754.690000", "132755.150000", "132755.610000", "132756.070000", "132756.530000", "132756.990000", "132757.450000", "132757.910000", "132758.370000", "132758.830000", "132759.290000", "132759.750000", "132800.210000", "132800.670000", "132801.130000", "132801.590000", "132802.050000", "132802.510000", "132802.970000", "132803.430000", "132803.890000", "132804.350000", "132804.810000", "132805.270000", "132805.730000", "132806.190000", "132806.650000", "132807.110000", "132807.570000", "132808.030000", "132808.490000", "132808.950000", "132809.410000", "132809.870000", "132810.330000", "132810.790000", "132811.250000", "132811.710000", "132812.170000", "132812.630000", "132813.090000", "132813.550000", "132814.010000", "132814.470000", "132814.930000", "132815.390000", "132815.850000", "132816.310000", "132816.770000", "132817.230000", "132817.690000", "132818.150000", "132818.610000", "132819.070000", "132819.530000", "132819.990000", "132820.450000", "132820.910000", "132821.370000", "132821.830000", "132822.290000", "132822.750000", "132823.210000", "132823.670000", "132824.130000", "132824.590000", "132825.050000", "132825.510000", "132825.970000", "132826.430000", "132826.890000", "132827.350000", "132827.810000", "132828.270000", "132828.730000", "132829.190000", "132829.650000", "132830.110000", "132830.570000", "132831.030000", "132831.490000", "132831.950000", "132832.410000", "132832.870000", "132833.330000", "132833.790000", "132834.250000", "132834.710000", "132835.170000", "132835.630000", "132836.090000", "132836.550000", "132837.010000", "132837.470000", "132837.930000", "132838.390000", "132838.850000", "132839.310000", "132839.770000", "132840.230000", "132840.690000", "132841.150000", "132841.610000", "132842.070000", "132842.530000", "132842.990000", "132843.450000", "132843.910000", "132844.370000", "132844.830000", "132845.290000", "132845.750000", "132846.210000", "132846.670000", "132847.130000", "132847.590000", "132848.050000", "132848.510000", "132848.970000", "132849.430000", "132849.890000", "132850.350000", "132850.810000", "132851.270000", "132851.730000", "132852.190000", "132852.650000", "132853.110000", "132853.570000", "132854.030000", "132854.490000", "132854.950000", "132855.410000", "132855.870000", "132856.330000", "132856.790000", "132857.250000", "132857.710000", "132858.170000", "132858.630000", "132859.090000", "132859.550000", "132900.010000", "132900.470000", "132900.930000", "132901.390000", "132901.850000", "132902.310000", "132902.770000", "132903.230000", "132903.690000", "132904.150000", "132904.610000", "132905.070000", "132905.530000", "132905.990000", "132906.450000", "132906.910000", "132907.370000", "132907.830000", "132908.290000", "132908.750000", "132909.210000", "132909.670000", "132910.130000", "132910.590000", "132911.050000", "132911.510000", "132911.970000", "132912.430000", "132912.890000", "132913.350000", "132913.810000", "132914.270000", "132914.730000", "132915.190000", "132915.650000", "132916.110000", "132916.570000", "132917.030000", "132917.490000", "132917.950000", "132918.410000", "132918.870000", "132919.330000", "132919.790000", "132920.250000", "132920.710000", "132921.170000", "132921.630000", "132922.090000", "132922.550000", "132923.010000", "132923.470000", "132923.930000", "132924.390000", "132924.850000", "132925.310000", "132925.770000", "132926.230000", "132926.690000", "132927.150000", "132927.610000", "132928.070000", "132928.530000", "132928.990000", "132929.450000", "132929.910000", "132930.370000", "132930.830000", "132931.290000", "132931.750000", "132932.210000", "132932.670000", "132933.130000", "132933.590000", "132934.050000", "132934.510000", "132934.970000", "132935.430000", "132935.890000", "132936.350000", "132936.810000", "132937.270000", "132937.730000", "132938.190000", "132938.650000", "132939.110000", "132939.570000", "132940.030000", "132940.490000", "132940.950000", "132941.410000", "132941.870000", "132942.330000", "132942.790000", "132943.250000", "132943.710000", "132944.170000", "132944.630000", "132945.090000", "132945.550000", "132946.010000", "132946.470000", "132946.930000", "132947.390000", "132947.850000", "132948.310000", "132948.770000", "132949.230000", "132949.690000", "132950.150000", "132950.610000", "132951.070000", "132951.530000", "132951.990000", "132952.450000", "132952.910000", "132953.370000", "132953.830000", "132954.290000", "132954.750000", "132955.210000", "132955.670000", "132956.130000", "132956.590000", "132957.050000", "132957.510000", "132957.970000", "132958.430000", "132958.890000", "132959.350000", "132959.810000", "133000.270000", "133000.730000", "133001.190000", "133001.650000", "133002.110000", "133002.570000", "133003.030000", "133003.490000", "133003.950000", "133004.410000", "133004.870000", "133005.330000", "133005.790000", "133006.250000", "133006.710000", "133007.170000", "133007.630000", "133008.090000", "133008.550000", "133009.010000", "133009.470000", "133009.930000", "133010.390000", "133010.850000", "133011.310000", "133011.770000", "133012.230000", "133012.690000", "133013.150000", "133013.610000", "133014.070000", "133014.530000", "133014.990000", "133015.450000", "133015.910000", "133016.370000", "133016.830000", "133017.290000", "133017.750000", "133018.210000", "133018.670000", "133019.130000", "133019.590000", "133020.050000", "133020.510000", "133020.970000", "133021.430000", "133021.890000", "133022.350000", "133022.810000", "133023.270000", "133023.730000", "133024.190000", "133024.650000", "133025.110000", "133025.570000", "133026.030000", "133026.490000", "133026.950000", "133027.410000", "133027.870000", "133028.330000", "133028.790000", "133029.250000", "133029.710000", "133030.170000", "133030.630000", "133031.090000", "133031.550000", "133032.010000", "133032.470000", "133032.930000", "133033.390000", "133033.850000", "133034.310000", "133034.770000", "133035.230000", "133035.690000", "133036.150000", "133036.610000", "133037.070000", "133037.530000", "133037.990000", "133038.450000", "133038.910000", "133039.370000", "133039.830000", "133040.290000", "133040.750000", "133041.210000", "133041.670000", "133042.130000", "133042.590000", "133043.050000", "133043.510000", "133043.970000", "133044.430000", "133044.890000", "133045.350000", "133045.810000", "133046.270000", "133046.730000", "133047.190000", "133047.650000", "133048.110000", "133048.570000", "133049.030000", "133049.490000", "133049.950000", "133050.410000", "133050.870000", "133051.330000", "133051.790000", "133052.250000", "133052.710000", "133053.170000", "133053.630000", "133054.090000", "133054.550000", "133055.010000", "133055.470000", "133055.930000", "133056.390000", "133056.850000", "133057.310000", "133057.770000", "133058.230000", "133058.690000", "133059.150000", "133059.610000", "133100.070000", "133100.530000", "133100.990000", "133101.450000", "133101.910000", "133102.370000", "133102.830000", "133103.290000", "133103.750000", "133104.210000", "133104.670000", "133105.130000", "133105.590000", "133106.050000", "133106.510000", "133106.970000", "133107.430000", "133107.890000", "133108.350000", "133108.810000", "133109.270000", "133109.730000", "133110.190000", "133110.650000", "133111.110000", "133111.570000", "133112.030000", "133112.490000", "133112.950000", "133113.410000", "133113.870000", "133114.330000", "133114.790000", "133115.250000", "133115.710000", "133116.170000", "133116.630000", "133117.090000", "133117.550000", "133118.010000", "133118.470000", "133118.930000", "133119.390000", "133119.850000", "133120.310000", "133120.770000", "133121.230000", "133121.690000", "133122.150000", "133122.610000", "133123.070000", "133123.530000", "133123.990000", "133124.450000", "133124.910000", "133125.370000", "133125.830000", "133126.290000", "133126.750000", "133127.210000", "133127.670000", "133128.130000", "133128.590000", "133129.050000", "133129.510000", "133129.970000", "133130.430000", "133130.890000", "133131.350000", "133131.810000", "133132.270000", "133132.730000", "133133.190000", "133133.650000", "133134.110000", "133134.570000", "133135.030000", "133135.490000", "133135.950000", "133136.410000", "133136.870000", "133137.330000", "133137.790000", "133138.250000", "133138.710000", "133139.170000", "133139.630000", "133140.090000", "133140.550000", "133141.010000", "133141.470000", "133141.930000", "133142.390000", "133142.850000", "133143.310000", "133143.770000", "133144.230000", "133144.690000", "133145.150000", "133145.610000", "133146.070000", "133146.530000", "133146.990000", "133147.450000", "133147.910000", "133148.370000", "133148.830000", "133149.290000", "133149.750000", "133150.210000", "133150.670000", "133151.130000", "133151.590000", "133152.050000", "133152.510000", "133152.970000", "133153.430000", "133153.890000", "133154.350000", "133154.810000", "133155.270000", "133155.730000", "133156.190000", "133156.650000", "133157.110000", "133157.570000", "133158.030000", "133158.490000", "133158.950000", "133159.410000", "133159.870000", "133200.330000", "133200.790000", "133201.250000", "133201.710000", "133202.170000", "133202.630000", "133203.090000", "133203.550000", "133204.010000", "133204.470000", "133204.930000", "133205.390000", "133205.850000", "133206.310000", "133206.770000", "133207.230000", "133207.690000", "133208.150000", "133208.610000", "133209.070000", "133209.530000", "133209.990000", "133210.450000", "133210.910000", "133211.370000", "133211.830000", "133212.290000", "133212.750000", "133213.210000", "133213.670000", "133214.130000", "133214.590000", "133215.050000", "133215.510000", "133215.970000", "133216.430000", "133216.890000", "133217.350000", "133217.810000", "133218.270000", "133218.730000", "133219.190000", "133219.650000", "133220.110000", "133220.570000", "133221.030000", "133221.490000", "133221.950000", "133222.410000", "133222.870000", "133223.330000", "133223.790000", "133224.250000", "133224.710000", "133225.170000", "133225.630000", "133226.090000", "133226.550000", "133227.010000", "133227.470000", "133227.930000", "133228.390000", "133228.850000", "133229.310000", "133229.770000", "133230.230000", "133230.690000", "133231.150000", "133231.610000", "133232.070000", "133232.530000", "133232.990000", "133233.450000", "133233.910000", "133234.370000", "133234.830000", "133235.290000", "133235.750000", "133236.210000", "133236.670000", "133237.130000", "133237.590000", "133238.050000", "133238.510000", "133238.970000", "133239.430000", "133239.890000", "133240.350000", "133240.810000", "133241.270000", "133241.730000", "133242.190000", "133242.650000", "133243.110000", "133243.570000", "133244.030000", "133244.490000", "133244.950000", "133245.410000", "133245.870000", "133246.330000", "133246.790000", "133247.250000", "133247.710000", "133248.170000", "133248.630000", "133249.090000", "133249.550000", "133250.010000", "133250.470000", "133250.930000", "133251.390000", "133251.850000", "133252.310000", "133252.770000", "133253.230000", "133253.690000", "133254.150000", "133254.610000", "133255.070000", "133255.530000", "133255.990000", "133256.450000", "133256.910000", "133257.370000", "133257.830000", "133258.290000", "133258.750000", "133259.210000", "133259.670000", "133300.130000", "133300.590000", "133301.050000", "133301.510000", "133301.970000", "133302.430000", "133302.890000", "133303.350000", "133303.810000", "133304.270000", "133304.730000", "133305.190000", "133305.650000", "133306.110000", "133306.570000", "133307.030000", "133307.490000", "133307.950000", "133308.410000", "133308.870000", "133309.330000", "133309.790000", "133310.250000", "133310.710000", "133311.170000", "133311.630000", "133312.090000", "133312.550000", "133313.010000", "133313.470000", "133313.930000", "133314.390000", "133314.850000", "133315.310000", "133315.770000", "133316.230000", "133316.690000", "133317.150000", "133317.610000", "133318.070000"],
