{
  "AcquisitionMatrixPE": 82,
  "AcquisitionNumber": 1,
  "AcquisitionTime": "14:11:8.727500",
  "BandwidthPerPixelPhaseEncode": 24.888,
  "BaseResolution": 82,
  "BodyPartExamined": "BRAIN",
  "ConsistencyInfo": "N4_VE11E_LATEST_20181129",
  "ConversionSoftware": "dcm2niix",
  "ConversionSoftwareVersion": "v1.0.20201102",
  "DerivedVendorReportedEchoSpacing": 0.00049,
  "DeviceSerialNumber": "66112",
  "DwellTime": 2e-06,
  "EchoTime": 0.0272,
  "EchoTrainLength": 82,
  "EffectiveEchoSpacing": 0.00049,
  "FlipAngle": 44,
  "ImageComments": "Unaliased MB8/PE3",
  "ImageOrientationPatientDICOM": [0.999891, -0.00637204, -0.013351, 0.00680616, 0.999441, 0.0327266],
  "ImageType": [
    "ORIGINAL",
    "PRIMARY",
    "M",
    "MB",
    "ND",
    "NORM",
    "MOSAIC"
],
  "ImagingFrequency": 123.259,
  "InPlanePhaseEncodingDirectionDICOM": "COL",
  "InstitutionAddress": "Maynard 3,Hanover,NH,US,03755",
  "InstitutionName": "Dartmouth College - PBS",
  "InstitutionalDepartmentName": "Department",
  "MRAcquisitionType": "2D",
  "MagneticFieldStrength": 3,
  "Manufacturer": "Siemens",
  "ManufacturersModelName": "Prisma",
  "Modality": "MR",
  "MultibandAccelerationFactor": 8,
  "PartialFourier": 1,
  "PatientPosition": "HFS",
  "PercentPhaseFOV": 100,
  "PercentSampling": 100,
  "PhaseEncodingDirection": "j-",
  "PhaseEncodingSteps": 82,
  "PhaseResolution": 1,
  "PixelBandwidth": 3050,
  "ProcedureStepDescription": "Wager_Wager^1076_spacetop",
  "ProtocolName": "func_run-06_task-social_acq-ap-mb8",
  "PulseSequenceDetails": "%CustomerSeq%\\cmrr_mbep2d_bold",
  "ReceiveCoilActiveElements": "HEA;HEP",
  "ReceiveCoilName": "Head_32",
  "ReconMatrixPE": 82,
  "RepetitionTime": 0.46,
  "SAR": 0.100319,
  "ScanOptions": "FS",
  "ScanningSequence": "EP",
  "SequenceName": "epfid2d1_82",
  "SequenceVariant": "SK\\SS",
  "SeriesDescription": "func_run-06_task-social_acq-ap-mb8",
  "SeriesNumber": 20,
  "ShimSetting": [4220, -7766, -7198, 283, -105, -46, 14, 96],
  "SliceThickness": 2.7,
  "SliceTiming": [0, 0.2525, 0.0625, 0.315, 0.125, 0.3775, 0.19, 0, 0.2525, 0.0625, 0.315, 0.125, 0.3775, 0.19, 0, 0.2525, 0.0625, 0.315, 0.125, 0.3775, 0.19, 0, 0.2525, 0.0625, 0.315, 0.125, 0.3775, 0.19, 0, 0.2525, 0.0625, 0.315, 0.125, 0.3775, 0.19, 0, 0.2525, 0.0625, 0.315, 0.125, 0.3775, 0.19, 0, 0.2525, 0.0625, 0.315, 0.125, 0.3775, 0.19, 0, 0.2525, 0.0625, 0.315, 0.125, 0.3775, 0.19],
  "SoftwareVersions": "syngo MR E11",
  "SpacingBetweenSlices": 2.7,
  "StationName": "AWP66112",
  "TaskName": "social",
  "TotalReadoutTime": 0.03969,
  "TxRefAmp": 251.09,
  "WipMemBlock": "79502d60-53a8-4761-a03d-2e48cc93604d||Sequence: R016 ve11e/master r/434b28f1; Aug  7 2019 18:53:46 by eja",
  "dcmmeta_affine": [
    [-2.682633399963379, 0.018260426819324493, -0.035464536398649216, 114.69422149658203],
    [0.017095722258090973, 2.681427478790283, 0.08859754353761673, -94.36073303222656],
    [-0.03581978380680084, -0.08780312538146973, 2.698312997817993, -46.87079620361328],
    [0.0, 0.0, 0.0, 1.0]
],
  "dcmmeta_reorient_transform": [
    [0.0, -1.0, 0.0, 81.0],
    [1.0, 0.0, 0.0, 0.0],
    [0.0, 0.0, 1.0, 0.0],
    [0.0, 0.0, 0.0, 1.0]
],
  "dcmmeta_shape": [82, 82, 56, 872],
  "dcmmeta_slice_dim": 2,
  "dcmmeta_version": 0.6,
  "global": {
    "const": {
      "AccessionNumber": "A004412",
      "AcquisitionMatrix": [82, 0, 0, 82],
      "AngioFlag": "N",
      "BitsAllocated": 16,
      "BitsStored": 16,
      "BodyPartExamined": "BRAIN",
      "Columns": 656,
      "EchoNumbers": 1,
      "EchoTime": 27.2,
      "EchoTrainLength": 82,
      "FlipAngle": 44.0,
      "HighBit": 15,
      "ImageOrientationPatient": [0.99989056782151, -0.0063720415668, -0.0133510099935, 0.00680615886966, 0.99944116619422, 0.03272661787873],
      "ImagePositionPatient": [-891.32981711179, -887.49814340768, -68.902067327964],
      "ImageType": [
        "ORIGINAL",
        "PRIMARY",
        "M",
        "MB",
        "ND",
        "NORM",
        "MOSAIC"
],
      "ImagedNucleus": "1H",
      "ImagingFrequency": 123.259059,
      "InPlanePhaseEncodingDirection": "COL",
      "MRAcquisitionType": "2D",
      "MagneticFieldStrength": 3.0,
      "Manufacturer": "SIEMENS",
      "ManufacturerModelName": "Prisma",
      "Modality": "MR",
      "NumberOfAverages": 1.0,
      "NumberOfPhaseEncodingSteps": 82,
      "PercentPhaseFieldOfView": 100.0,
      "PercentSampling": 100.0,
      "PerformedProcedureStepStartTime": "131231.253000",
      "PhotometricInterpretation": "MONOCHROME2",
      "PixelBandwidth": 3050.0,
      "PixelRepresentation": 0,
      "PixelSpacing": [2.6829268932343, 2.6829268932343],
      "ProtocolName": "func_run-06_task-social_acq-ap-mb8",
      "RepetitionTime": 460.0,
      "Rows": 656,
      "SAR": 0.10031918919234,
      "SamplesPerPixel": 1,
      "ScanOptions": "FS",
      "ScanningSequence": "EP",
      "SequenceName": "epfid2d1_82",
      "SequenceVariant": [
        "SK",
        "SS"
],
      "SeriesDescription": "func_run-06_task-social_acq-ap-mb8",
      "SeriesNumber": 20,
      "SeriesTime": "141137.987000",
      "SliceLocation": -51.444363827922,
      "SliceThickness": 2.7000000476837,
      "SmallestImagePixelValue": 0,
      "SoftwareVersions": "syngo MR E11",
      "SpacingBetweenSlices": 2.6999999890038,
      "SpecificCharacterSet": "ISO_IR 100",
      "StudyID": "4",
      "StudyTime": "131231.213000",
      "TransmitCoilName": "Body",
      "VariableFlipAngleFlag": "N",
      "WindowCenterWidthExplanation": "Algo1"
    },
    "slices": {}
  },
  "time": {
    "samples": {
      "AcquisitionNumber": [1, 2, 3, 4, 5, 6, 7, 8, 9, 10, 11, 12, 13, 14, 15, 16, 17, 18, 19, 20, 21, 22, 23, 24, 25, 26, 27, 28, 29, 30, 31, 32, 33, 34, 35, 36, 37, 38, 39, 40, 41, 42, 43, 44, 45, 46, 47, 48, 49, 50, 51, 52, 53, 54, 55, 56, 57, 58, 59, 60, 61, 62, 63, 64, 65, 66, 67, 68, 69, 70, 71, 72, 73, 74, 75, 76, 77, 78, 79, 80, 81, 82, 83, 84, 85, 86, 87, 88, 89, 90, 91, 92, 93, 94, 95, 96, 97, 98, 99, 100, 101, 102, 103, 104, 105, 106, 107, 108, 109, 110, 111, 112, 113, 114, 115, 116, 117, 118, 119, 120, 121, 122, 123, 124, 125, 126, 127, 128, 129, 130, 131, 132, 133, 134, 135, 136, 137, 138, 139, 140, 141, 142, 143, 144, 145, 146, 147, 148, 149, 150, 151, 152, 153, 154, 155, 156, 157, 158, 159, 160, 161, 162, 163, 164, 165, 166, 167, 168, 169, 170, 171, 172, 173, 174, 175, 176, 177, 178, 179, 180, 181, 182, 183, 184, 185, 186, 187, 188, 189, 190, 191, 192, 193, 194, 195, 196, 197, 198, 199, 200, 201, 202, 203, 204, 205, 206, 207, 208, 209, 210, 211, 212, 213, 214, 215, 216, 217, 218, 219, 220, 221, 222, 223, 224, 225, 226, 227, 228, 229, 230, 231, 232, 233, 234, 235, 236, 237, 238, 239, 240, 241, 242, 243, 244, 245, 246, 247, 248, 249, 250, 251, 252, 253, 254, 255, 256, 257, 258, 259, 260, 261, 262, 263, 264, 265, 266, 267, 268, 269, 270, 271, 272, 273, 274, 275, 276, 277, 278, 279, 280, 281, 282, 283, 284, 285, 286, 287, 288, 289, 290, 291, 292, 293, 294, 295, 296, 297, 298, 299, 300, 301, 302, 303, 304, 305, 306, 307, 308, 309, 310, 311, 312, 313, 314, 315, 316, 317, 318, 319, 320, 321, 322, 323, 324, 325, 326, 327, 328, 329, 330, 331, 332, 333, 334, 335, 336, 337, 338, 339, 340, 341, 342, 343, 344, 345, 346, 347, 348, 349, 350, 351, 352, 353, 354, 355, 356, 357, 358, 359, 360, 361, 362, 363, 364, 365, 366, 367, 368, 369, 370, 371, 372, 373, 374, 375, 376, 377, 378, 379, 380, 381, 382, 383, 384, 385, 386, 387, 388, 389, 390, 391, 392, 393, 394, 395, 396, 397, 398, 399, 400, 401, 402, 403, 404, 405, 406, 407, 408, 409, 410, 411, 412, 413, 414, 415, 416, 417, 418, 419, 420, 421, 422, 423, 424, 425, 426, 427, 428, 429, 430, 431, 432, 433, 434, 435, 436, 437, 438, 439, 440, 441, 442, 443, 444, 445, 446, 447, 448, 449, 450, 451, 452, 453, 454, 455, 456, 457, 458, 459, 460, 461, 462, 463, 464, 465, 466, 467, 468, 469, 470, 471, 472, 473, 474, 475, 476, 477, 478, 479, 480, 481, 482, 483, 484, 485, 486, 487, 488, 489, 490, 491, 492, 493, 494, 495, 496, 497, 498, 499, 500, 501, 502, 503, 504, 505, 506, 507, 508, 509, 510, 511, 512, 513, 514, 515, 516, 517, 518, 519, 520, 521, 522, 523, 524, 525, 526, 527, 528, 529, 530, 531, 532, 533, 534, 535, 536, 537, 538, 539, 540, 541, 542, 543, 544, 545, 546, 547, 548, 549, 550, 551, 552, 553, 554, 555, 556, 557, 558, 559, 560, 561, 562, 563, 564, 565, 566, 567, 568, 569, 570, 571, 572, 573, 574, 575, 576, 577, 578, 579, 580, 581, 582, 583, 584, 585, 586, 587, 588, 589, 590, 591, 592, 593, 594, 595, 596, 597, 598, 599, 600, 601, 602, 603, 604, 605, 606, 607, 608, 609, 610, 611, 612, 613, 614, 615, 616, 617, 618, 619, 620, 621, 622, 623, 624, 625, 626, 627, 628, 629, 630, 631, 632, 633, 634, 635, 636, 637, 638, 639, 640, 641, 642, 643, 644, 645, 646, 647, 648, 649, 650, 651, 652, 653, 654, 655, 656, 657, 658, 659, 660, 661, 662, 663, 664, 665, 666, 667, 668, 669, 670, 671, 672, 673, 674, 675, 676, 677, 678, 679, 680, 681, 682, 683, 684, 685, 686, 687, 688, 689, 690, 691, 692, 693, 694, 695, 696, 697, 698, 699, 700, 701, 702, 703, 704, 705, 706, 707, 708, 709, 710, 711, 712, 713, 714, 715, 716, 717, 718, 719, 720, 721, 722, 723, 724, 725, 726, 727, 728, 729, 730, 731, 732, 733, 734, 735, 736, 737, 738, 739, 740, 741, 742, 743, 744, 745, 746, 747, 748, 749, 750, 751, 752, 753, 754, 755, 756, 757, 758, 759, 760, 761, 762, 763, 764, 765, 766, 767, 768, 769, 770, 771, 772, 773, 774, 775, 776, 777, 778, 779, 780, 781, 782, 783, 784, 785, 786, 787, 788, 789, 790, 791, 792, 793, 794, 795, 796, 797, 798, 799, 800, 801, 802, 803, 804, 805, 806, 807, 808, 809, 810, 811, 812, 813, 814, 815, 816, 817, 818, 819, 820, 821, 822, 823, 824, 825, 826, 827, 828, 829, 830, 831, 832, 833, 834, 835, 836, 837, 838, 839, 840, 841, 842, 843, 844, 845, 846, 847, 848, 849, 850, 851, 852, 853, 854, 855, 856, 857, 858, 859, 860, 861, 862, 863, 864, 865, 866, 867, 868, 869, 870, 871, 872],
      "AcquisitionTime": ["141108.727500", "141109.187500", "141109.647500", "141110.107500", "141110.567500", "141111.027500", "141111.487500", "141111.947500", "141112.407500", "141112.867500", "141113.327500", "141113.787500", "141114.247500", "141114.707500", "141115.167500", "141115.627500", "141116.087500", "141116.547500", "141117.007500", "141117.467500", "141117.927500", "141118.387500", "141118.847500", "141119.307500", "141119.767500", "141120.227500", "141120.687500", "141121.147500", "141121.607500", "141122.067500", "141122.527500", "141122.987500", "141123.447500", "141123.907500", "141124.367500", "141124.827500", "141125.287500", "141125.747500", "141126.207500", "141126.667500", "141127.127500", "141127.587500", "141128.047500", "141128.507500", "141128.967500", "141129.427500", "141129.887500", "141130.347500", "141130.807500", "141131.267500", "141131.727500", "141132.187500", "141132.647500", "141133.107500", "141133.567500", "141134.027500", "141134.487500", "141134.947500", "141135.407500", "141135.867500", "141136.327500", "141136.787500", "141137.247500", "141137.707500", "141138.167500", "141138.627500", "141139.087500", "141139.547500", "141140.007500", "141140.467500", "141140.927500", "141141.387500", "141141.847500", "141142.307500", "141142.767500", "141143.227500", "141143.687500", "141144.147500", "141144.607500", "141145.067500", "141145.527500", "141145.987500", "141146.447500", "141146.907500", "141147.367500", "141147.827500", "141148.287500", "141148.747500", "141149.207500", "141149.667500", "141150.127500", "141150.587500", "141151.047500", "141151.507500", "141151.967500", "141152.427500", "141152.887500", "141153.347500", "141153.807500", "141154.267500", "141154.727500", "141155.187500", "141155.647500", "141156.107500", "141156.567500", "141157.027500", "141157.487500", "141157.947500", "141158.407500", "141158.867500", "141159.327500", "141159.787500", "141200.247500", "141200.707500", "141201.167500", "141201.627500", "141202.087500", "141202.547500", "141203.007500", "141203.467500", "141203.927500", "141204.387500", "141204.847500", "141205.307500", "141205.767500", "141206.227500", "141206.687500", "141207.147500", "141207.607500", "141208.067500", "141208.527500", "141208.987500", "141209.447500", "141209.907500", "141210.367500", "141210.827500", "141211.287500", "141211.747500", "141212.207500", "141212.667500", "141213.127500", "141213.587500", "141214.047500", "141214.507500", "141214.967500", "141215.427500", "141215.887500", "141216.347500", "141216.807500", "141217.267500", "141217.727500", "141218.187500", "141218.647500", "141219.107500", "141219.567500", "141220.027500", "141220.487500", "141220.947500", "141221.407500", "141221.867500", "141222.327500", "141222.787500", "141223.247500", "141223.707500", "141224.167500", "141224.627500", "141225.087500", "141225.547500", "141226.007500", "141226.467500", "141226.927500", "141227.387500", "141227.847500", "141228.307500", "141228.767500", "141229.227500", "141229.687500", "141230.147500", "141230.607500", "141231.067500", "141231.527500", "141231.987500", "141232.447500", "141232.907500", "141233.367500", "141233.827500", "141234.287500", "141234.747500", "141235.207500", "141235.667500", "141236.127500", "141236.587500", "141237.047500", "141237.507500", "141237.967500", "141238.427500", "141238.887500", "141239.347500", "141239.807500", "141240.267500", "141240.727500", "141241.187500", "141241.647500", "141242.107500", "141242.567500", "141243.027500", "141243.487500", "141243.947500", "141244.407500", "141244.867500", "141245.327500", "141245.787500", "141246.247500", "141246.707500", "141247.167500", "141247.627500", "141248.087500", "141248.547500", "141249.007500", "141249.467500", "141249.927500", "141250.387500", "141250.847500", "141251.307500", "141251.767500", "141252.227500", "141252.687500", "141253.147500", "141253.607500", "141254.067500", "141254.527500", "141254.987500", "141255.447500", "141255.907500", "141256.367500", "141256.827500", "141257.287500", "141257.747500", "141258.207500", "141258.667500", "141259.127500", "141259.587500", "141300.047500", "141300.507500", "141300.967500", "141301.427500", "141301.887500", "141302.347500", "141302.807500", "141303.267500", "141303.727500", "141304.187500", "141304.647500", "141305.107500", "141305.567500", "141306.027500", "141306.487500", "141306.947500", "141307.407500", "141307.867500", "141308.327500", "141308.787500", "141309.247500", "141309.707500", "141310.167500", "141310.627500", "141311.087500", "141311.547500", "141312.007500", "141312.467500", "141312.927500", "141313.387500", "141313.847500", "141314.307500", "141314.767500", "141315.227500", "141315.687500", "141316.147500", "141316.607500", "141317.067500", "141317.527500", "141317.987500", "141318.447500", "141318.907500", "141319.367500", "141319.827500", "141320.287500", "141320.747500", "141321.207500", "141321.667500", "141322.127500", "141322.587500", "141323.047500", "141323.507500", "141323.967500", "141324.427500", "141324.887500", "141325.347500", "141325.807500", "141326.267500", "141326.727500", "141327.187500", "141327.647500", "141328.107500", "141328.567500", "141329.027500", "141329.487500", "141329.947500", "141330.407500", "141330.867500", "141331.327500", "141331.787500", "141332.247500", "141332.707500", "141333.167500", "141333.627500", "141334.087500", "141334.547500", "141335.007500", "141335.467500", "141335.927500", "141336.387500", "141336.847500", "141337.307500", "141337.767500", "141338.227500", "141338.687500", "141339.147500", "141339.607500", "141340.067500", "141340.527500", "141340.987500", "141341.447500", "141341.907500", "141342.367500", "141342.827500", "141343.287500", "141343.747500", "141344.207500", "141344.667500", "141345.127500", "141345.587500", "141346.047500", "141346.507500", "141346.967500", "141347.427500", "141347.887500", "141348.347500", "141348.807500", "141349.267500", "141349.727500", "141350.187500", "141350.647500", "141351.107500", "141351.567500", "141352.027500", "141352.487500", "141352.947500", "141353.407500", "141353.867500", "141354.327500", "141354.787500", "141355.247500", "141355.707500", "141356.167500", "141356.627500", "141357.087500", "141357.547500", "141358.007500", "141358.467500", "141358.927500", "141359.387500", "141359.847500", "141400.307500", "141400.767500", "141401.227500", "141401.687500", "141402.147500", "141402.607500", "141403.067500", "141403.527500", "141403.987500", "141404.447500", "141404.907500", "141405.367500", "141405.827500", "141406.287500", "141406.747500", "141407.207500", "141407.667500", "141408.127500", "141408.587500", "141409.047500", "141409.507500", "141409.967500", "141410.427500", "141410.887500", "141411.347500", "141411.807500", "141412.267500", "141412.727500", "141413.187500", "141413.647500", "141414.107500", "141414.567500", "141415.027500", "141415.487500", "141415.947500", "141416.407500", "141416.867500", "141417.327500", "141417.787500", "141418.247500", "141418.707500", "141419.167500", "141419.627500", "141420.087500", "141420.547500", "141421.007500", "141421.467500", "141421.927500", "141422.387500", "141422.847500", "141423.307500", "141423.767500", "141424.227500", "141424.687500", "141425.147500", "141425.607500", "141426.067500", "141426.527500", "141426.987500", "141427.447500", "141427.907500", "141428.367500", "141428.827500", "141429.287500", "141429.747500", "141430.207500", "141430.667500", "141431.127500", "141431.587500", "141432.047500", "141432.507500", "141432.967500", "141433.427500", "141433.887500", "141434.347500", "141434.807500", "141435.267500", "141435.727500", "141436.187500", "141436.647500", "141437.107500", "141437.567500", "141438.027500", "141438.487500", "141438.947500", "141439.407500", "141439.867500", "141440.327500", "141440.787500", "141441.247500", "141441.707500", "141442.167500", "141442.627500", "141443.087500", "141443.547500", "141444.007500", "141444.467500", "141444.927500", "141445.387500", "141445.847500", "141446.307500", "141446.767500", "141447.227500", "141447.687500", "141448.147500", "141448.607500", "141449.067500", "141449.527500", "141449.987500", "141450.447500", "141450.907500", "141451.367500", "141451.827500", "141452.287500", "141452.747500", "141453.207500", "141453.667500", "141454.127500", "141454.587500", "141455.047500", "141455.507500", "141455.967500", "141456.427500", "141456.887500", "141457.347500", "141457.807500", "141458.267500", "141458.727500", "141459.187500", "141459.647500", "141500.107500", "141500.567500", "141501.027500", "141501.487500", "141501.947500", "141502.407500", "141502.867500", "141503.327500", "141503.787500", "141504.247500", "141504.707500", "141505.167500", "141505.627500", "141506.087500", "141506.547500", "141507.007500", "141507.467500", "141507.927500", "141508.387500", "141508.847500", "141509.307500", "141509.767500", "141510.227500", "141510.687500", "141511.147500", "141511.607500", "141512.067500", "141512.527500", "141512.987500", "141513.447500", "141513.907500", "141514.367500", "141514.827500", "141515.287500", "141515.747500", "141516.207500", "141516.667500", "141517.127500", "141517.587500", "141518.047500", "141518.507500", "141518.967500", "141519.427500", "141519.887500", "141520.347500", "141520.807500", "141521.267500", "141521.727500", "141522.187500", "141522.647500", "141523.107500", "141523.567500", "141524.027500", "141524.487500", "141524.947500", "141525.407500", "141525.867500", "141526.327500", "141526.787500", "141527.247500", "141527.707500", "141528.167500", "141528.627500", "141529.087500", "141529.547500", "141530.007500", "141530.467500", "141530.927500", "141531.387500", "141531.847500", "141532.307500", "141532.767500", "141533.227500", "141533.687500", "141534.147500", "141534.607500", "141535.067500", "141535.527500", "141535.987500", "141536.447500", "141536.907500", "141537.367500", "141537.827500", "141538.287500", "141538.747500", "141539.207500", "141539.667500", "141540.127500", "141540.587500", "141541.047500", "141541.507500", "141541.967500", "141542.427500", "141542.887500", "141543.347500", "141543.807500", "141544.267500", "141544.727500", "141545.187500", "141545.647500", "141546.107500", "141546.567500", "141547.027500", "141547.487500", "141547.947500", "141548.407500", "141548.867500", "141549.327500", "141549.787500", "141550.247500", "141550.707500", "141551.167500", "141551.627500", "141552.087500", "141552.547500", "141553.007500", "141553.467500", "141553.927500", "141554.387500", "141554.847500", "141555.307500", "141555.767500", "141556.227500", "141556.687500", "141557.147500", "141557.607500", "141558.067500", "141558.527500", "141558.987500", "141559.447500", "141559.907500", "141600.367500", "141600.827500", "141601.287500", "141601.747500", "141602.207500", "141602.667500", "141603.127500", "141603.587500", "141604.047500", "141604.507500", "141604.967500", "141605.427500", "141605.887500", "141606.347500", "141606.807500", "141607.267500", "141607.727500", "141608.187500", "141608.647500", "141609.107500", "141609.567500", "141610.027500", "141610.487500", "141610.947500", "141611.407500", "141611.867500", "141612.327500", "141612.787500", "141613.247500", "141613.707500", "141614.167500", "141614.627500", "141615.087500", "141615.547500", "141616.007500", "141616.467500", "141616.927500", "141617.387500", "141617.847500", "141618.307500", "141618.767500", "141619.227500", "141619.687500", "141620.147500", "141620.607500", "141621.067500", "141621.527500", "141621.987500", "141622.447500", "141622.907500", "141623.367500", "141623.827500", "141624.287500", "141624.747500", "141625.207500", "141625.667500", "141626.127500", "141626.587500", "141627.047500", "141627.507500", "141627.967500", "141628.427500", "141628.887500", "141629.347500", "141629.807500", "141630.267500", "141630.727500", "141631.187500", "141631.647500", "141632.107500", "141632.567500", "141633.027500", "141633.487500", "141633.947500", "141634.407500", "141634.867500", "141635.327500", "141635.787500", "141636.247500", "141636.707500", "141637.167500", "141637.627500", "141638.087500", "141638.547500", "141639.007500", "141639.467500", "141639.927500", "141640.387500", "141640.847500", "141641.307500", "141641.767500", "141642.227500", "141642.687500", "141643.147500", "141643.607500", "141644.067500", "141644.527500", "141644.987500", "141645.447500", "141645.907500", "141646.367500", "141646.827500", "141647.287500", "141647.747500", "141648.207500", "141648.667500", "141649.127500", "141649.587500", "141650.047500", "141650.507500", "141650.967500", "141651.427500", "141651.887500", "141652.347500", "141652.807500", "141653.267500", "141653.727500", "141654.187500", "141654.647500", "141655.107500", "141655.567500", "141656.027500", "141656.487500", "141656.947500", "141657.407500", "141657.867500", "141658.327500", "141658.787500", "141659.247500", "141659.707500", "141700.167500", "141700.627500", "141701.087500", "141701.547500", "141702.007500", "141702.467500", "141702.927500", "141703.387500", "141703.847500", "141704.307500", "141704.767500", "141705.227500", "141705.687500", "141706.147500", "141706.607500", "141707.067500", "141707.527500", "141707.987500", "141708.447500", "141708.907500", "141709.367500", "141709.827500", "141710.287500", "141710.747500", "141711.207500", "141711.667500", "141712.127500", "141712.587500", "141713.047500", "141713.507500", "141713.967500", "141714.427500", "141714.887500", "141715.347500", "141715.807500", "141716.267500", "141716.727500", "141717.187500", "141717.647500", "141718.107500", "141718.567500", "141719.027500", "141719.487500", "141719.947500", "141720.407500", "141720.867500", "141721.327500", "141721.787500", "141722.247500", "141722.707500", "141723.167500", "141723.627500", "141724.087500", "141724.547500", "141725.007500", "141725.467500", "141725.927500", "141726.387500", "141726.847500", "141727.307500", "141727.767500", "141728.227500", "141728.687500", "141729.147500", "141729.607500", "141730.067500", "141730.527500", "141730.987500", "141731.447500", "141731.907500", "141732.367500", "141732.827500", "141733.287500", "141733.747500", "141734.207500", "141734.667500", "141735.127500", "141735.587500", "141736.047500", "141736.507500", "141736.967500", "141737.427500", "141737.887500", "141738.347500", "141738.807500", "141739.267500", "141739.727500", "141740.187500", "141740.647500", "141741.107500", "141741.567500", "141742.027500", "141742.487500", "141742.947500", "141743.407500", "141743.867500", "141744.327500", "141744.787500", "141745.247500", "141745.707500", "141746.167500", "141746.627500", "141747.087500", "141747.547500", "141748.007500", "141748.467500", "141748.927500", "141749.387500"],
