{
  "AcquisitionMatrixPE": 82,
  "AcquisitionNumber": 1,
  "AcquisitionTime": "19:32:8.830000",
  "BandwidthPerPixelPhaseEncode": 24.888,
  "BaseResolution": 82,
  "BodyPartExamined": "BRAIN",
  "ConsistencyInfo": "N4_VE11C_LATEST_20160120",
  "ConversionSoftware": "dcm2niix",
  "ConversionSoftwareVersion": "v1.0.20201102",
  "DerivedVendorReportedEchoSpacing": 0.00049,
  "DeviceSerialNumber": "66112",
  "DwellTime": 2e-06,
  "EchoTime": 0.0272,
  "EchoTrainLength": 82,
  "EffectiveEchoSpacing": 0.00049,
  "FlipAngle": 44,
  "ImageComments": "Unaliased MB8/PE3",
  "ImageOrientationPatientDICOM": [0.999286, 0.0377412, -0.00169904, -0.0376901, 0.999005, 0.0238521],
  "ImageType": [
    "ORIGINAL",
    "PRIMARY",
    "M",
    "MB",
    "ND",
    "NORM",
    "MOSAIC"
],
  "ImagingFrequency": 123.252,
  "InPlanePhaseEncodingDirectionDICOM": "COL",
  "InstitutionAddress": "Maynard 3,Hanover,NH,US,03755",
  "InstitutionName": "dartmouth_brain_imaging_center",
  "InstitutionalDepartmentName": "Department",
  "MRAcquisitionType": "2D",
  "MagneticFieldStrength": 3,
  "Manufacturer": "Siemens",
  "ManufacturersModelName": "Prisma",
  "Modality": "MR",
  "MultibandAccelerationFactor": 8,
  "PartialFourier": 1,
  "PatientPosition": "HFS",
  "PercentPhaseFOV": 100,
  "PercentSampling": 100,
  "PhaseEncodingDirection": "j-",
  "PhaseEncodingSteps": 82,
  "PhaseResolution": 1,
  "PixelBandwidth": 3050,
  "ProcedureStepDescription": "Wager_Wager^1076_spacetop",
  "ProtocolName": "func_run-01_task-alignvideo_acq-ap-mb8",
  "PulseSequenceDetails": "%CustomerSeq%\\cmrr_mbep2d_bold",
  "ReceiveCoilActiveElements": "HEA;HEP",
  "ReceiveCoilName": "Head_32",
  "ReconMatrixPE": 82,
  "RepetitionTime": 0.46,
  "SAR": 0.0973191,
  "ScanOptions": "FS",
  "ScanningSequence": "EP",
  "SequenceName": "epfid2d1_82",
  "SequenceVariant": "SK\\SS",
  "SeriesDescription": "func_run-01_task-alignvideo_acq-ap-mb8",
  "SeriesNumber": 30,
  "ShimSetting": [4140, -7744, -7222, 505, -74, -93, -45, 21],
  "SliceThickness": 2.7,
  "SliceTiming": [0, 0.2525, 0.0625, 0.315, 0.1275, 0.3775, 0.19, 0, 0.2525, 0.0625, 0.315, 0.1275, 0.3775, 0.19, 0, 0.2525, 0.0625, 0.315, 0.1275, 0.3775, 0.19, 0, 0.2525, 0.0625, 0.315, 0.1275, 0.3775, 0.19, 0, 0.2525, 0.0625, 0.315, 0.1275, 0.3775, 0.19, 0, 0.2525, 0.0625, 0.315, 0.1275, 0.3775, 0.19, 0, 0.2525, 0.0625, 0.315, 0.1275, 0.3775, 0.19, 0, 0.2525, 0.0625, 0.315, 0.1275, 0.3775, 0.19],
  "SoftwareVersions": "syngo MR E11",
  "SpacingBetweenSlices": 2.7,
  "StationName": "AWP66112",
  "TaskName": "alignvideo",
  "TotalReadoutTime": 0.03969,
  "TxRefAmp": 292.166,
  "WipMemBlock": "c8f99702-381c-4bf1-b17c-498f7f3be566||Sequence: R016 ve11c/master r/e634e98; Dec 19 2017 11:00:25 by eja",
  "dcmmeta_affine": [
    [-2.681011438369751, -0.10111965984106064, -0.007013398688286543, 117.17122650146484],
    [-0.10125697404146194, 2.6802568435668945, 0.06418189406394958, -83.83970642089844],
    [-0.004558391869068146, -0.06399354338645935, 2.699227809906006, -59.632713317871094],
    [0.0, 0.0, 0.0, 1.0]
],
  "dcmmeta_reorient_transform": [
    [0.0, -1.0, 0.0, 81.0],
    [1.0, 0.0, 0.0, 0.0],
    [0.0, 0.0, 1.0, 0.0],
    [0.0, 0.0, 0.0, 1.0]
],
  "dcmmeta_shape": [82, 82, 56, 1073],
  "dcmmeta_slice_dim": 2,
  "dcmmeta_version": 0.6,
  "global": {
    "const": {
      "AccessionNumber": "A003619",
      "AcquisitionMatrix": [82, 0, 0, 82],
      "AngioFlag": "N",
      "BitsAllocated": 16,
      "BitsStored": 16,
      "BodyPartExamined": "BRAIN",
      "Columns": 656,
      "EchoNumbers": 1,
      "EchoTime": 27.2,
      "EchoTrainLength": 82,
      "FlipAngle": 44.0,
      "HighBit": 15,
      "ImageOrientationPatient": [0.99928610143068, 0.03774123422541, -0.0016990369658, -0.0376900543202, 0.99900477242309, 0.02385213787541],
      "ImagePositionPatient": [-849.40950984633, -931.55553607538, -81.874078020165],
      "ImageType": [
        "ORIGINAL",
        "PRIMARY",
        "M",
        "MB",
        "ND",
        "NORM",
        "MOSAIC"
],
      "ImagedNucleus": "1H",
      "ImagingFrequency": 123.252124,
      "InPlanePhaseEncodingDirection": "COL",
      "MRAcquisitionType": "2D",
      "MagneticFieldStrength": 3.0,
      "Manufacturer": "SIEMENS",
      "ManufacturerModelName": "Prisma",
      "Modality": "MR",
      "NumberOfAverages": 1.0,
      "NumberOfPhaseEncodingSteps": 82,
      "PercentPhaseFieldOfView": 100.0,
      "PercentSampling": 100.0,
      "PerformedProcedureStepStartTime": "173223.829000",
      "PhotometricInterpretation": "MONOCHROME2",
      "PixelBandwidth": 3050.0,
      "PixelRepresentation": 0,
      "PixelSpacing": [2.6829268932343, 2.6829268932343],
      "ProtocolName": "func_run-01_task-alignvideo_acq-ap-mb8",
      "RepetitionTime": 460.0,
      "Rows": 656,
      "SAR": 0.09731910994397,
      "SamplesPerPixel": 1,
      "ScanOptions": "FS",
      "ScanningSequence": "EP",
      "SequenceName": "epfid2d1_82",
      "SequenceVariant": [
        "SK",
        "SS"
],
      "SeriesDescription": "func_run-01_task-alignvideo_acq-ap-mb8",
      "SeriesNumber": 30,
      "SeriesTime": "193229.212000",
      "SliceLocation": -61.912979750773,
      "SliceThickness": 2.7000000476837,
      "SmallestImagePixelValue": 0,
      "SoftwareVersions": "syngo MR E11",
      "SpacingBetweenSlices": 2.6999999608634,
      "SpecificCharacterSet": "ISO_IR 100",
      "StudyID": "1",
      "StudyTime": "173223.756000",
      "TransmitCoilName": "Body",
      "VariableFlipAngleFlag": "N",
      "WindowCenterWidthExplanation": "Algo1",
      "dBdt": 0.0},
    "slices": {}
  },
  "time": {
    "samples": {
      "AcquisitionNumber": [1, 2, 3, 4, 5, 6, 7, 8, 9, 10, 11, 12, 13, 14, 15, 16, 17, 18, 19, 20, 21, 22, 23, 24, 25, 26, 27, 28, 29, 30, 31, 32, 33, 34, 35, 36, 37, 38, 39, 40, 41, 42, 43, 44, 45, 46, 47, 48, 49, 50, 51, 52, 53, 54, 55, 56, 57, 58, 59, 60, 61, 62, 63, 64, 65, 66, 67, 68, 69, 70, 71, 72, 73, 74, 75, 76, 77, 78, 79, 80, 81, 82, 83, 84, 85, 86, 87, 88, 89, 90, 91, 92, 93, 94, 95, 96, 97, 98, 99, 100, 101, 102, 103, 104, 105, 106, 107, 108, 109, 110, 111, 112, 113, 114, 115, 116, 117, 118, 119, 120, 121, 122, 123, 124, 125, 126, 127, 128, 129, 130, 131, 132, 133, 134, 135, 136, 137, 138, 139, 140, 141, 142, 143, 144, 145, 146, 147, 148, 149, 150, 151, 152, 153, 154, 155, 156, 157, 158, 159, 160, 161, 162, 163, 164, 165, 166, 167, 168, 169, 170, 171, 172, 173, 174, 175, 176, 177, 178, 179, 180, 181, 182, 183, 184, 185, 186, 187, 188, 189, 190, 191, 192, 193, 194, 195, 196, 197, 198, 199, 200, 201, 202, 203, 204, 205, 206, 207, 208, 209, 210, 211, 212, 213, 214, 215, 216, 217, 218, 219, 220, 221, 222, 223, 224, 225, 226, 227, 228, 229, 230, 231, 232, 233, 234, 235, 236, 237, 238, 239, 240, 241, 242, 243, 244, 245, 246, 247, 248, 249, 250, 251, 252, 253, 254, 255, 256, 257, 258, 259, 260, 261, 262, 263, 264, 265, 266, 267, 268, 269, 270, 271, 272, 273, 274, 275, 276, 277, 278, 279, 280, 281, 282, 283, 284, 285, 286, 287, 288, 289, 290, 291, 292, 293, 294, 295, 296, 297, 298, 299, 300, 301, 302, 303, 304, 305, 306, 307, 308, 309, 310, 311, 312, 313, 314, 315, 316, 317, 318, 319, 320, 321, 322, 323, 324, 325, 326, 327, 328, 329, 330, 331, 332, 333, 334, 335, 336, 337, 338, 339, 340, 341, 342, 343, 344, 345, 346, 347, 348, 349, 350, 351, 352, 353, 354, 355, 356, 357, 358, 359, 360, 361, 362, 363, 364, 365, 366, 367, 368, 369, 370, 371, 372, 373, 374, 375, 376, 377, 378, 379, 380, 381, 382, 383, 384, 385, 386, 387, 388, 389, 390, 391, 392, 393, 394, 395, 396, 397, 398, 399, 400, 401, 402, 403, 404, 405, 406, 407, 408, 409, 410, 411, 412, 413, 414, 415, 416, 417, 418, 419, 420, 421, 422, 423, 424, 425, 426, 427, 428, 429, 430, 431, 432, 433, 434, 435, 436, 437, 438, 439, 440, 441, 442, 443, 444, 445, 446, 447, 448, 449, 450, 451, 452, 453, 454, 455, 456, 457, 458, 459, 460, 461, 462, 463, 464, 465, 466, 467, 468, 469, 470, 471, 472, 473, 474, 475, 476, 477, 478, 479, 480, 481, 482, 483, 484, 485, 486, 487, 488, 489, 490, 491, 492, 493, 494, 495, 496, 497, 498, 499, 500, 501, 502, 503, 504, 505, 506, 507, 508, 509, 510, 511, 512, 513, 514, 515, 516, 517, 518, 519, 520, 521, 522, 523, 524, 525, 526, 527, 528, 529, 530, 531, 532, 533, 534, 535, 536, 537, 538, 539, 540, 541, 542, 543, 544, 545, 546, 547, 548, 549, 550, 551, 552, 553, 554, 555, 556, 557, 558, 559, 560, 561, 562, 563, 564, 565, 566, 567, 568, 569, 570, 571, 572, 573, 574, 575, 576, 577, 578, 579, 580, 581, 582, 583, 584, 585, 586, 587, 588, 589, 590, 591, 592, 593, 594, 595, 596, 597, 598, 599, 600, 601, 602, 603, 604, 605, 606, 607, 608, 609, 610, 611, 612, 613, 614, 615, 616, 617, 618, 619, 620, 621, 622, 623, 624, 625, 626, 627, 628, 629, 630, 631, 632, 633, 634, 635, 636, 637, 638, 639, 640, 641, 642, 643, 644, 645, 646, 647, 648, 649, 650, 651, 652, 653, 654, 655, 656, 657, 658, 659, 660, 661, 662, 663, 664, 665, 666, 667, 668, 669, 670, 671, 672, 673, 674, 675, 676, 677, 678, 679, 680, 681, 682, 683, 684, 685, 686, 687, 688, 689, 690, 691, 692, 693, 694, 695, 696, 697, 698, 699, 700, 701, 702, 703, 704, 705, 706, 707, 708, 709, 710, 711, 712, 713, 714, 715, 716, 717, 718, 719, 720, 721, 722, 723, 724, 725, 726, 727, 728, 729, 730, 731, 732, 733, 734, 735, 736, 737, 738, 739, 740, 741, 742, 743, 744, 745, 746, 747, 748, 749, 750, 751, 752, 753, 754, 755, 756, 757, 758, 759, 760, 761, 762, 763, 764, 765, 766, 767, 768, 769, 770, 771, 772, 773, 774, 775, 776, 777, 778, 779, 780, 781, 782, 783, 784, 785, 786, 787, 788, 789, 790, 791, 792, 793, 794, 795, 796, 797, 798, 799, 800, 801, 802, 803, 804, 805, 806, 807, 808, 809, 810, 811, 812, 813, 814, 815, 816, 817, 818, 819, 820, 821, 822, 823, 824, 825, 826, 827, 828, 829, 830, 831, 832, 833, 834, 835, 836, 837, 838, 839, 840, 841, 842, 843, 844, 845, 846, 847, 848, 849, 850, 851, 852, 853, 854, 855, 856, 857, 858, 859, 860, 861, 862, 863, 864, 865, 866, 867, 868, 869, 870, 871, 872, 873, 874, 875, 876, 877, 878, 879, 880, 881, 882, 883, 884, 885, 886, 887, 888, 889, 890, 891, 892, 893, 894, 895, 896, 897, 898, 899, 900, 901, 902, 903, 904, 905, 906, 907, 908, 909, 910, 911, 912, 913, 914, 915, 916, 917, 918, 919, 920, 921, 922, 923, 924, 925, 926, 927, 928, 929, 930, 931, 932, 933, 934, 935, 936, 937, 938, 939, 940, 941, 942, 943, 944, 945, 946, 947, 948, 949, 950, 951, 952, 953, 954, 955, 956, 957, 958, 959, 960, 961, 962, 963, 964, 965, 966, 967, 968, 969, 970, 971, 972, 973, 974, 975, 976, 977, 978, 979, 980, 981, 982, 983, 984, 985, 986, 987, 988, 989, 990, 991, 992, 993, 994, 995, 996, 997, 998, 999, 1000, 1001, 1002, 1003, 1004, 1005, 1006, 1007, 1008, 1009, 1010, 1011, 1012, 1013, 1014, 1015, 1016, 1017, 1018, 1019, 1020, 1021, 1022, 1023, 1024, 1025, 1026, 1027, 1028, 1029, 1030, 1031, 1032, 1033, 1034, 1035, 1036, 1037, 1038, 1039, 1040, 1041, 1042, 1043, 1044, 1045, 1046, 1047, 1048, 1049, 1050, 1051, 1052, 1053, 1054, 1055, 1056, 1057, 1058, 1059, 1060, 1061, 1062, 1063, 1064, 1065, 1066, 1067, 1068, 1069, 1070, 1071, 1072, 1073],
      "AcquisitionTime": ["193208.830000", "193209.290000", "193209.750000", "193210.210000", "193210.670000", "193211.130000", "193211.590000", "193212.050000", "193212.510000", "193212.970000", "193213.430000", "193213.890000", "193214.350000", "193214.810000", "193215.270000", "193215.730000", "193216.190000", "193216.650000", "193217.110000", "193217.570000", "193218.030000", "193218.490000", "193218.950000", "193219.410000", "193219.870000", "193220.330000", "193220.790000", "193221.250000", "193221.710000", "193222.170000", "193222.630000", "193223.090000", "193223.550000", "193224.010000", "193224.470000", "193224.930000", "193225.390000", "193225.850000", "193226.310000", "193226.770000", "193227.230000", "193227.690000", "193228.150000", "193228.610000", "193229.070000", "193229.530000", "193229.990000", "193230.450000", "193230.910000", "193231.370000", "193231.830000", "193232.290000", "193232.750000", "193233.210000", "193233.670000", "193234.130000", "193234.590000", "193235.050000", "193235.510000", "193235.970000", "193236.430000", "193236.890000", "193237.350000", "193237.810000", "193238.270000", "193238.730000", "193239.190000", "193239.650000", "193240.110000", "193240.570000", "193241.030000", "193241.490000", "193241.950000", "193242.410000", "193242.870000", "193243.330000", "193243.790000", "193244.250000", "193244.710000", "193245.170000", "193245.630000", "193246.090000", "193246.550000", "193247.010000", "193247.470000", "193247.930000", "193248.390000", "193248.850000", "193249.310000", "193249.770000", "193250.230000", "193250.690000", "193251.150000", "193251.610000", "193252.070000", "193252.530000", "193252.990000", "193253.450000", "193253.910000", "193254.370000", "193254.830000", "193255.290000", "193255.750000", "193256.210000", "193256.670000", "193257.130000", "193257.590000", "193258.050000", "193258.510000", "193258.970000", "193259.430000", "193259.890000", "193300.350000", "193300.810000", "193301.270000", "193301.730000", "193302.190000", "193302.650000", "193303.110000", "193303.570000", "193304.030000", "193304.490000", "193304.950000", "193305.410000", "193305.870000", "193306.330000", "193306.790000", "193307.250000", "193307.710000", "193308.170000", "193308.630000", "193309.090000", "193309.550000", "193310.010000", "193310.470000", "193310.930000", "193311.390000", "193311.850000", "193312.310000", "193312.770000", "193313.230000", "193313.690000", "193314.150000", "193314.610000", "193315.070000", "193315.530000", "193315.990000", "193316.450000", "193316.910000", "193317.370000", "193317.830000", "193318.290000", "193318.750000", "193319.210000", "193319.670000", "193320.130000", "193320.590000", "193321.050000", "193321.510000", "193321.970000", "193322.430000", "193322.890000", "193323.350000", "193323.810000", "193324.270000", "193324.730000", "193325.190000", "193325.650000", "193326.110000", "193326.570000", "193327.030000", "193327.490000", "193327.950000", "193328.410000", "193328.870000", "193329.330000", "193329.790000", "193330.250000", "193330.710000", "193331.170000", "193331.630000", "193332.090000", "193332.550000", "193333.010000", "193333.470000", "193333.930000", "193334.390000", "193334.850000", "193335.310000", "193335.770000", "193336.230000", "193336.690000", "193337.150000", "193337.610000", "193338.070000", "193338.530000", "193338.990000", "193339.450000", "193339.910000", "193340.370000", "193340.830000", "193341.290000", "193341.750000", "193342.210000", "193342.670000", "193343.130000", "193343.590000", "193344.050000", "193344.510000", "193344.970000", "193345.430000", "193345.890000", "193346.350000", "193346.810000", "193347.270000", "193347.730000", "193348.190000", "193348.650000", "193349.110000", "193349.570000", "193350.030000", "193350.490000", "193350.950000", "193351.410000", "193351.870000", "193352.330000", "193352.790000", "193353.250000", "193353.710000", "193354.170000", "193354.630000", "193355.090000", "193355.550000", "193356.010000", "193356.470000", "193356.930000", "193357.390000", "193357.850000", "193358.310000", "193358.770000", "193359.230000", "193359.690000", "193400.150000", "193400.610000", "193401.070000", "193401.530000", "193401.990000", "193402.450000", "193402.910000", "193403.370000", "193403.830000", "193404.290000", "193404.750000", "193405.210000", "193405.670000", "193406.130000", "193406.590000", "193407.050000", "193407.510000", "193407.970000", "193408.430000", "193408.890000", "193409.350000", "193409.810000", "193410.270000", "193410.730000", "193411.190000", "193411.650000", "193412.110000", "193412.570000", "193413.030000", "193413.490000", "193413.950000", "193414.410000", "193414.870000", "193415.330000", "193415.790000", "193416.250000", "193416.710000", "193417.170000", "193417.630000", "193418.090000", "193418.550000", "193419.010000", "193419.470000", "193419.930000", "193420.390000", "193420.850000", "193421.310000", "193421.770000", "193422.230000", "193422.690000", "193423.150000", "193423.610000", "193424.070000", "193424.530000", "193424.990000", "193425.450000", "193425.910000", "193426.370000", "193426.830000", "193427.290000", "193427.750000", "193428.210000", "193428.670000", "193429.130000", "193429.590000", "193430.050000", "193430.510000", "193430.970000", "193431.430000", "193431.890000", "193432.350000", "193432.810000", "193433.270000", "193433.730000", "193434.190000", "193434.650000", "193435.110000", "193435.570000", "193436.030000", "193436.490000", "193436.950000", "193437.410000", "193437.870000", "193438.330000", "193438.790000", "193439.250000", "193439.710000", "193440.170000", "193440.630000", "193441.090000", "193441.550000", "193442.010000", "193442.470000", "193442.930000", "193443.390000", "193443.850000", "193444.310000", "193444.770000", "193445.230000", "193445.690000", "193446.150000", "193446.610000", "193447.070000", "193447.530000", "193447.990000", "193448.450000", "193448.910000", "193449.370000", "193449.830000", "193450.290000", "193450.750000", "193451.210000", "193451.670000", "193452.130000", "193452.590000", "193453.050000", "193453.510000", "193453.970000", "193454.430000", "193454.890000", "193455.350000", "193455.810000", "193456.270000", "193456.730000", "193457.190000", "193457.650000", "193458.110000", "193458.570000", "193459.030000", "193459.490000", "193459.950000", "193500.410000", "193500.870000", "193501.330000", "193501.790000", "193502.250000", "193502.710000", "193503.170000", "193503.630000", "193504.090000", "193504.550000", "193505.010000", "193505.470000", "193505.930000", "193506.390000", "193506.850000", "193507.310000", "193507.770000", "193508.230000", "193508.690000", "193509.150000", "193509.610000", "193510.070000", "193510.530000", "193510.990000", "193511.450000", "193511.910000", "193512.370000", "193512.830000", "193513.290000", "193513.750000", "193514.210000", "193514.670000", "193515.130000", "193515.590000", "193516.050000", "193516.510000", "193516.970000", "193517.430000", "193517.890000", "193518.350000", "193518.810000", "193519.270000", "193519.730000", "193520.190000", "193520.650000", "193521.110000", "193521.570000", "193522.030000", "193522.490000", "193522.950000", "193523.410000", "193523.870000", "193524.330000", "193524.790000", "193525.250000", "193525.710000", "193526.170000", "193526.630000", "193527.090000", "193527.550000", "193528.010000", "193528.470000", "193528.930000", "193529.390000", "193529.850000", "193530.310000", "193530.770000", "193531.230000", "193531.690000", "193532.150000", "193532.610000", "193533.070000", "193533.530000", "193533.990000", "193534.450000", "193534.910000", "193535.370000", "193535.830000", "193536.290000", "193536.750000", "193537.210000", "193537.670000", "193538.130000", "193538.590000", "193539.050000", "193539.510000", "193539.970000", "193540.430000", "193540.890000", "193541.350000", "193541.810000", "193542.270000", "193542.730000", "193543.190000", "193543.650000", "193544.110000", "193544.570000", "193545.030000", "193545.490000", "193545.950000", "193546.410000", "193546.870000", "193547.330000", "193547.790000", "193548.250000", "193548.710000", "193549.170000", "193549.630000", "193550.090000", "193550.550000", "193551.010000", "193551.470000", "193551.930000", "193552.390000", "193552.850000", "193553.310000", "193553.770000", "193554.230000", "193554.690000", "193555.150000", "193555.610000", "193556.070000", "193556.530000", "193556.990000", "193557.450000", "193557.910000", "193558.370000", "193558.830000", "193559.290000", "193559.750000", "193600.210000", "193600.670000", "193601.130000", "193601.590000", "193602.050000", "193602.510000", "193602.970000", "193603.430000", "193603.890000", "193604.350000", "193604.810000", "193605.270000", "193605.730000", "193606.190000", "193606.650000", "193607.110000", "193607.570000", "193608.030000", "193608.490000", "193608.950000", "193609.410000", "193609.870000", "193610.330000", "193610.790000", "193611.250000", "193611.710000", "193612.170000", "193612.630000", "193613.090000", "193613.550000", "193614.010000", "193614.470000", "193614.930000", "193615.390000", "193615.850000", "193616.310000", "193616.770000", "193617.230000", "193617.690000", "193618.150000", "193618.610000", "193619.070000", "193619.530000", "193619.990000", "193620.450000", "193620.910000", "193621.370000", "193621.830000", "193622.290000", "193622.750000", "193623.210000", "193623.670000", "193624.130000", "193624.590000", "193625.050000", "193625.510000", "193625.970000", "193626.430000", "193626.890000", "193627.350000", "193627.810000", "193628.270000", "193628.730000", "193629.190000", "193629.650000", "193630.110000", "193630.570000", "193631.030000", "193631.490000", "193631.950000", "193632.410000", "193632.870000", "193633.330000", "193633.790000", "193634.250000", "193634.710000", "193635.170000", "193635.630000", "193636.090000", "193636.550000", "193637.010000", "193637.470000", "193637.930000", "193638.390000", "193638.850000", "193639.310000", "193639.770000", "193640.230000", "193640.690000", "193641.150000", "193641.610000", "193642.070000", "193642.530000", "193642.990000", "193643.450000", "193643.910000", "193644.370000", "193644.830000", "193645.290000", "193645.750000", "193646.210000", "193646.670000", "193647.130000", "193647.590000", "193648.050000", "193648.510000", "193648.970000", "193649.430000", "193649.890000", "193650.350000", "193650.810000", "193651.270000", "193651.730000", "193652.190000", "193652.650000", "193653.110000", "193653.570000", "193654.030000", "193654.490000", "193654.950000", "193655.410000", "193655.870000", "193656.330000", "193656.790000", "193657.250000", "193657.710000", "193658.170000", "193658.630000", "193659.090000", "193659.550000", "193700.010000", "193700.470000", "193700.930000", "193701.390000", "193701.850000", "193702.310000", "193702.770000", "193703.230000", "193703.690000", "193704.150000", "193704.610000", "193705.070000", "193705.530000", "193705.990000", "193706.450000", "193706.910000", "193707.370000", "193707.830000", "193708.290000", "193708.750000", "193709.210000", "193709.670000", "193710.130000", "193710.590000", "193711.050000", "193711.510000", "193711.970000", "193712.430000", "193712.890000", "193713.350000", "193713.810000", "193714.270000", "193714.730000", "193715.190000", "193715.650000", "193716.110000", "193716.570000", "193717.030000", "193717.490000", "193717.950000", "193718.410000", "193718.870000", "193719.330000", "193719.790000", "193720.250000", "193720.710000", "193721.170000", "193721.630000", "193722.090000", "193722.550000", "193723.010000", "193723.470000", "193723.930000", "193724.390000", "193724.850000", "193725.310000", "193725.770000", "193726.230000", "193726.690000", "193727.150000", "193727.610000", "193728.070000", "193728.530000", "193728.990000", "193729.450000", "193729.910000", "193730.370000", "193730.830000", "193731.290000", "193731.750000", "193732.210000", "193732.670000", "193733.130000", "193733.590000", "193734.050000", "193734.510000", "193734.970000", "193735.430000", "193735.890000", "193736.350000", "193736.810000", "193737.270000", "193737.730000", "193738.190000", "193738.650000", "193739.110000", "193739.570000", "193740.030000", "193740.490000", "193740.950000", "193741.410000", "193741.870000", "193742.330000", "193742.790000", "193743.250000", "193743.710000", "193744.170000", "193744.630000", "193745.090000", "193745.550000", "193746.010000", "193746.470000", "193746.930000", "193747.390000", "193747.850000", "193748.310000", "193748.770000", "193749.230000", "193749.690000", "193750.150000", "193750.610000", "193751.070000", "193751.530000", "193751.990000", "193752.450000", "193752.910000", "193753.370000", "193753.830000", "193754.290000", "193754.750000", "193755.210000", "193755.670000", "193756.130000", "193756.590000", "193757.050000", "193757.510000", "193757.970000", "193758.430000", "193758.890000", "193759.350000", "193759.810000", "193800.270000", "193800.730000", "193801.190000", "193801.650000", "193802.110000", "193802.570000", "193803.030000", "193803.490000", "193803.950000", "193804.410000", "193804.870000", "193805.330000", "193805.790000", "193806.250000", "193806.710000", "193807.170000", "193807.630000", "193808.090000", "193808.550000", "193809.010000", "193809.470000", "193809.930000", "193810.390000", "193810.850000", "193811.310000", "193811.770000", "193812.230000", "193812.690000", "193813.150000", "193813.610000", "193814.070000", "193814.530000", "193814.990000", "193815.450000", "193815.910000", "193816.370000", "193816.830000", "193817.290000", "193817.750000", "193818.210000", "193818.670000", "193819.130000", "193819.590000", "193820.050000", "193820.510000", "193820.970000", "193821.430000", "193821.890000", "193822.350000", "193822.810000", "193823.270000", "193823.730000", "193824.190000", "193824.650000", "193825.110000", "193825.570000", "193826.030000", "193826.490000", "193826.950000", "193827.410000", "193827.870000", "193828.330000", "193828.790000", "193829.250000", "193829.710000", "193830.170000", "193830.630000", "193831.090000", "193831.550000", "193832.010000", "193832.470000", "193832.930000", "193833.390000", "193833.850000", "193834.310000", "193834.770000", "193835.230000", "193835.690000", "193836.150000", "193836.610000", "193837.070000", "193837.530000", "193837.990000", "193838.450000", "193838.910000", "193839.370000", "193839.830000", "193840.290000", "193840.750000", "193841.210000", "193841.670000", "193842.130000", "193842.590000", "193843.050000", "193843.510000", "193843.970000", "193844.430000", "193844.890000", "193845.350000", "193845.810000", "193846.270000", "193846.730000", "193847.190000", "193847.650000", "193848.110000", "193848.570000", "193849.030000", "193849.490000", "193849.950000", "193850.410000", "193850.870000", "193851.330000", "193851.790000", "193852.250000", "193852.710000", "193853.170000", "193853.630000", "193854.090000", "193854.550000", "193855.010000", "193855.470000", "193855.930000", "193856.390000", "193856.850000", "193857.310000", "193857.770000", "193858.230000", "193858.690000", "193859.150000", "193859.610000", "193900.070000", "193900.530000", "193900.990000", "193901.450000", "193901.910000", "193902.370000", "193902.830000", "193903.290000", "193903.750000", "193904.210000", "193904.670000", "193905.130000", "193905.590000", "193906.050000", "193906.510000", "193906.970000", "193907.430000", "193907.890000", "193908.350000", "193908.810000", "193909.270000", "193909.730000", "193910.190000", "193910.650000", "193911.110000", "193911.570000", "193912.030000", "193912.490000", "193912.950000", "193913.410000", "193913.870000", "193914.330000", "193914.790000", "193915.250000", "193915.710000", "193916.170000", "193916.630000", "193917.090000", "193917.550000", "193918.010000", "193918.470000", "193918.930000", "193919.390000", "193919.850000", "193920.310000", "193920.770000", "193921.230000", "193921.690000", "193922.150000", "193922.610000", "193923.070000", "193923.530000", "193923.990000", "193924.450000", "193924.910000", "193925.370000", "193925.830000", "193926.290000", "193926.750000", "193927.210000", "193927.670000", "193928.130000", "193928.590000", "193929.050000", "193929.510000", "193929.970000", "193930.430000", "193930.890000", "193931.350000", "193931.810000", "193932.270000", "193932.730000", "193933.190000", "193933.650000", "193934.110000", "193934.570000", "193935.030000", "193935.490000", "193935.950000", "193936.410000", "193936.870000", "193937.330000", "193937.790000", "193938.250000", "193938.710000", "193939.170000", "193939.630000", "193940.090000", "193940.550000", "193941.010000", "193941.470000", "193941.930000", "193942.390000", "193942.850000", "193943.310000", "193943.770000", "193944.230000", "193944.690000", "193945.150000", "193945.610000", "193946.070000", "193946.530000", "193946.990000", "193947.450000", "193947.910000", "193948.370000", "193948.830000", "193949.290000", "193949.750000", "193950.210000", "193950.670000", "193951.130000", "193951.590000", "193952.050000", "193952.510000", "193952.970000", "193953.430000", "193953.890000", "193954.350000", "193954.810000", "193955.270000", "193955.730000", "193956.190000", "193956.650000", "193957.110000", "193957.570000", "193958.030000", "193958.490000", "193958.950000", "193959.410000", "193959.870000", "194000.330000", "194000.790000", "194001.250000", "194001.710000", "194002.170000", "194002.630000", "194003.090000", "194003.550000", "194004.010000", "194004.470000", "194004.930000", "194005.390000", "194005.850000", "194006.310000", "194006.770000", "194007.230000", "194007.690000", "194008.150000", "194008.610000", "194009.070000", "194009.530000", "194009.990000", "194010.450000", "194010.910000", "194011.370000", "194011.830000", "194012.290000", "194012.750000", "194013.210000", "194013.670000", "194014.130000", "194014.590000", "194015.050000", "194015.510000", "194015.970000", "194016.430000", "194016.890000", "194017.350000", "194017.810000", "194018.270000", "194018.730000", "194019.190000", "194019.650000", "194020.110000", "194020.570000", "194021.030000", "194021.490000", "194021.950000"],
