{
  "AcquisitionMatrixPE": 82,
  "AcquisitionNumber": 1,
  "AcquisitionTime": "09:18:36.155000",
  "BandwidthPerPixelPhaseEncode": 24.888,
  "BaseResolution": 82,
  "BodyPartExamined": "BRAIN",
  "ConsistencyInfo": "N4_VE11E_LATEST_20181129",
  "ConversionSoftware": "dcm2niix",
  "ConversionSoftwareVersion": "v1.0.20201102",
  "DerivedVendorReportedEchoSpacing": 0.00049,
  "DeviceSerialNumber": "66112",
  "DwellTime": 2e-06,
  "EchoTime": 0.0272,
  "EchoTrainLength": 82,
  "EffectiveEchoSpacing": 0.00049,
  "FlipAngle": 44,
  "ImageComments": "Unaliased MB8/PE3",
  "ImageOrientationPatientDICOM": [0.997458, 0.0640278, -0.0312827, -0.0634538, 0.997804, 0.0190092],
  "ImageType": [
    "ORIGINAL",
    "PRIMARY",
    "M",
    "MB",
    "ND",
    "NORM",
    "MOSAIC"
],
  "ImagingFrequency": 123.252,
  "InPlanePhaseEncodingDirectionDICOM": "COL",
  "InstitutionAddress": "Maynard 3,Hanover,NH,US,03755",
  "InstitutionName": "Dartmouth College - PBS",
  "InstitutionalDepartmentName": "Department",
  "MRAcquisitionType": "2D",
  "MagneticFieldStrength": 3,
  "Manufacturer": "Siemens",
  "ManufacturersModelName": "Prisma",
  "Modality": "MR",
  "MultibandAccelerationFactor": 8,
  "PartialFourier": 1,
  "PatientPosition": "HFS",
  "PercentPhaseFOV": 100,
  "PercentSampling": 100,
  "PhaseEncodingDirection": "j-",
  "PhaseEncodingSteps": 82,
  "PhaseResolution": 1,
  "PixelBandwidth": 3050,
  "ProcedureStepDescription": "Wager_Wager^1076_spacetop",
  "ProtocolName": "func_run-01_task-social_acq-ap-mb8",
  "PulseSequenceDetails": "%CustomerSeq%\\cmrr_mbep2d_bold",
  "ReceiveCoilActiveElements": "HEA;HEP",
  "ReceiveCoilName": "Head_32",
  "ReconMatrixPE": 82,
  "RepetitionTime": 0.46,
  "SAR": 0.0923881,
  "ScanOptions": "FS",
  "ScanningSequence": "EP",
  "SequenceName": "epfid2d1_82",
  "SequenceVariant": "SK\\SS",
  "SeriesDescription": "func_run-01_task-social_acq-ap-mb8",
  "SeriesNumber": 14,
  "ShimSetting": [4146, -7730, -7303, 507, -14, -111, 8, 59],
  "SliceThickness": 2.7,
  "SliceTiming": [0, 0.2525, 0.0625, 0.315, 0.125, 0.3775, 0.1875, 0, 0.2525, 0.0625, 0.315, 0.125, 0.3775, 0.1875, 0, 0.2525, 0.0625, 0.315, 0.125, 0.3775, 0.1875, 0, 0.2525, 0.0625, 0.315, 0.125, 0.3775, 0.1875, 0, 0.2525, 0.0625, 0.315, 0.125, 0.3775, 0.1875, 0, 0.2525, 0.0625, 0.315, 0.125, 0.3775, 0.1875, 0, 0.2525, 0.0625, 0.315, 0.125, 0.3775, 0.1875, 0, 0.2525, 0.0625, 0.315, 0.125, 0.3775, 0.1875],
  "SoftwareVersions": "syngo MR E11",
  "SpacingBetweenSlices": 2.7,
  "StationName": "AWP66112",
  "TaskName": "social",
  "TotalReadoutTime": 0.03969,
  "TxRefAmp": 257.392,
  "WipMemBlock": "76b7c2fa-6dd7-4bf1-bb9b-d8715a2a3c99||Sequence: R016 ve11e/master r/434b28f1; Aug  7 2019 18:53:46 by eja",
  "dcmmeta_affine": [
    [-2.6761059761047363, -0.17024198174476624, -0.0875638872385025, 118.6890640258789],
    [-0.17178186774253845, 2.677034378051758, 0.045834723860025406, -86.10443878173828],
    [-0.08392909914255142, -0.05100017413496971, 2.698190450668335, -59.25601577758789],
    [0.0, 0.0, 0.0, 1.0]
],
  "dcmmeta_reorient_transform": [
    [0.0, -1.0, 0.0, 81.0],
    [1.0, 0.0, 0.0, 0.0],
    [0.0, 0.0, 1.0, 0.0],
    [0.0, 0.0, 0.0, 1.0]
],
  "dcmmeta_shape": [82, 82, 56, 872],
  "dcmmeta_slice_dim": 2,
  "dcmmeta_version": 0.6,
  "global": {
    "const": {
      "AccessionNumber": "A003930",
      "AcquisitionMatrix": [82, 0, 0, 82],
      "AngioFlag": "N",
      "BitsAllocated": 16,
      "BitsStored": 16,
      "BodyPartExamined": "BRAIN",
      "Columns": 656,
      "EchoNumbers": 1,
      "EchoTime": 27.2,
      "EchoTrainLength": 82,
      "FlipAngle": 44.0,
      "HighBit": 15,
      "ImageOrientationPatient": [0.99745768707285, 0.06402778732787, -0.0312826621179, -0.0634538268871, 0.99780372011072, 0.01900915533619],
      "ImagePositionPatient": [-824.08245128869, -948.34563439841, -53.936427727205],
      "ImageType": [
        "ORIGINAL",
        "PRIMARY",
        "M",
        "MB",
        "ND",
        "NORM",
        "MOSAIC"
],
      "ImagedNucleus": "1H",
      "ImagingFrequency": 123.252177,
      "InPlanePhaseEncodingDirection": "COL",
      "MRAcquisitionType": "2D",
      "MagneticFieldStrength": 3.0,
      "Manufacturer": "SIEMENS",
      "ManufacturerModelName": "Prisma",
      "Modality": "MR",
      "NumberOfAverages": 1.0,
      "NumberOfPhaseEncodingSteps": 82,
      "PercentPhaseFieldOfView": 100.0,
      "PercentSampling": 100.0,
      "PerformedProcedureStepStartTime": "084529.773000",
      "PhotometricInterpretation": "MONOCHROME2",
      "PixelBandwidth": 3050.0,
      "PixelRepresentation": 0,
      "PixelSpacing": [2.6829268932343, 2.6829268932343],
      "ProtocolName": "func_run-01_task-social_acq-ap-mb8",
      "RepetitionTime": 460.0,
      "Rows": 656,
      "SAR": 0.09238811516265,
      "SamplesPerPixel": 1,
      "ScanOptions": "FS",
      "ScanningSequence": "EP",
      "SequenceName": "epfid2d1_82",
      "SequenceVariant": [
        "SK",
        "SS"
],
      "SeriesDescription": "func_run-01_task-social_acq-ap-mb8",
      "SeriesNumber": 14,
      "SeriesTime": "091856.810000",
      "SliceLocation": -64.527207696844,
      "SliceThickness": 2.7000000476837,
      "SmallestImagePixelValue": 0,
      "SoftwareVersions": "syngo MR E11",
      "SpacingBetweenSlices": 2.6999999892118,
      "SpecificCharacterSet": "ISO_IR 100",
      "StudyID": "1",
      "StudyTime": "084529.622000",
      "TransmitCoilName": "Body",
      "VariableFlipAngleFlag": "N",
      "WindowCenterWidthExplanation": "Algo1"
    },
    "slices": {}
  },
  "time": {
    "samples": {
      "AcquisitionNumber": [1, 2, 3, 4, 5, 6, 7, 8, 9, 10, 11, 12, 13, 14, 15, 16, 17, 18, 19, 20, 21, 22, 23, 24, 25, 26, 27, 28, 29, 30, 31, 32, 33, 34, 35, 36, 37, 38, 39, 40, 41, 42, 43, 44, 45, 46, 47, 48, 49, 50, 51, 52, 53, 54, 55, 56, 57, 58, 59, 60, 61, 62, 63, 64, 65, 66, 67, 68, 69, 70, 71, 72, 73, 74, 75, 76, 77, 78, 79, 80, 81, 82, 83, 84, 85, 86, 87, 88, 89, 90, 91, 92, 93, 94, 95, 96, 97, 98, 99, 100, 101, 102, 103, 104, 105, 106, 107, 108, 109, 110, 111, 112, 113, 114, 115, 116, 117, 118, 119, 120, 121, 122, 123, 124, 125, 126, 127, 128, 129, 130, 131, 132, 133, 134, 135, 136, 137, 138, 139, 140, 141, 142, 143, 144, 145, 146, 147, 148, 149, 150, 151, 152, 153, 154, 155, 156, 157, 158, 159, 160, 161, 162, 163, 164, 165, 166, 167, 168, 169, 170, 171, 172, 173, 174, 175, 176, 177, 178, 179, 180, 181, 182, 183, 184, 185, 186, 187, 188, 189, 190, 191, 192, 193, 194, 195, 196, 197, 198, 199, 200, 201, 202, 203, 204, 205, 206, 207, 208, 209, 210, 211, 212, 213, 214, 215, 216, 217, 218, 219, 220, 221, 222, 223, 224, 225, 226, 227, 228, 229, 230, 231, 232, 233, 234, 235, 236, 237, 238, 239, 240, 241, 242, 243, 244, 245, 246, 247, 248, 249, 250, 251, 252, 253, 254, 255, 256, 257, 258, 259, 260, 261, 262, 263, 264, 265, 266, 267, 268, 269, 270, 271, 272, 273, 274, 275, 276, 277, 278, 279, 280, 281, 282, 283, 284, 285, 286, 287, 288, 289, 290, 291, 292, 293, 294, 295, 296, 297, 298, 299, 300, 301, 302, 303, 304, 305, 306, 307, 308, 309, 310, 311, 312, 313, 314, 315, 316, 317, 318, 319, 320, 321, 322, 323, 324, 325, 326, 327, 328, 329, 330, 331, 332, 333, 334, 335, 336, 337, 338, 339, 340, 341, 342, 343, 344, 345, 346, 347, 348, 349, 350, 351, 352, 353, 354, 355, 356, 357, 358, 359, 360, 361, 362, 363, 364, 365, 366, 367, 368, 369, 370, 371, 372, 373, 374, 375, 376, 377, 378, 379, 380, 381, 382, 383, 384, 385, 386, 387, 388, 389, 390, 391, 392, 393, 394, 395, 396, 397, 398, 399, 400, 401, 402, 403, 404, 405, 406, 407, 408, 409, 410, 411, 412, 413, 414, 415, 416, 417, 418, 419, 420, 421, 422, 423, 424, 425, 426, 427, 428, 429, 430, 431, 432, 433, 434, 435, 436, 437, 438, 439, 440, 441, 442, 443, 444, 445, 446, 447, 448, 449, 450, 451, 452, 453, 454, 455, 456, 457, 458, 459, 460, 461, 462, 463, 464, 465, 466, 467, 468, 469, 470, 471, 472, 473, 474, 475, 476, 477, 478, 479, 480, 481, 482, 483, 484, 485, 486, 487, 488, 489, 490, 491, 492, 493, 494, 495, 496, 497, 498, 499, 500, 501, 502, 503, 504, 505, 506, 507, 508, 509, 510, 511, 512, 513, 514, 515, 516, 517, 518, 519, 520, 521, 522, 523, 524, 525, 526, 527, 528, 529, 530, 531, 532, 533, 534, 535, 536, 537, 538, 539, 540, 541, 542, 543, 544, 545, 546, 547, 548, 549, 550, 551, 552, 553, 554, 555, 556, 557, 558, 559, 560, 561, 562, 563, 564, 565, 566, 567, 568, 569, 570, 571, 572, 573, 574, 575, 576, 577, 578, 579, 580, 581, 582, 583, 584, 585, 586, 587, 588, 589, 590, 591, 592, 593, 594, 595, 596, 597, 598, 599, 600, 601, 602, 603, 604, 605, 606, 607, 608, 609, 610, 611, 612, 613, 614, 615, 616, 617, 618, 619, 620, 621, 622, 623, 624, 625, 626, 627, 628, 629, 630, 631, 632, 633, 634, 635, 636, 637, 638, 639, 640, 641, 642, 643, 644, 645, 646, 647, 648, 649, 650, 651, 652, 653, 654, 655, 656, 657, 658, 659, 660, 661, 662, 663, 664, 665, 666, 667, 668, 669, 670, 671, 672, 673, 674, 675, 676, 677, 678, 679, 680, 681, 682, 683, 684, 685, 686, 687, 688, 689, 690, 691, 692, 693, 694, 695, 696, 697, 698, 699, 700, 701, 702, 703, 704, 705, 706, 707, 708, 709, 710, 711, 712, 713, 714, 715, 716, 717, 718, 719, 720, 721, 722, 723, 724, 725, 726, 727, 728, 729, 730, 731, 732, 733, 734, 735, 736, 737, 738, 739, 740, 741, 742, 743, 744, 745, 746, 747, 748, 749, 750, 751, 752, 753, 754, 755, 756, 757, 758, 759, 760, 761, 762, 763, 764, 765, 766, 767, 768, 769, 770, 771, 772, 773, 774, 775, 776, 777, 778, 779, 780, 781, 782, 783, 784, 785, 786, 787, 788, 789, 790, 791, 792, 793, 794, 795, 796, 797, 798, 799, 800, 801, 802, 803, 804, 805, 806, 807, 808, 809, 810, 811, 812, 813, 814, 815, 816, 817, 818, 819, 820, 821, 822, 823, 824, 825, 826, 827, 828, 829, 830, 831, 832, 833, 834, 835, 836, 837, 838, 839, 840, 841, 842, 843, 844, 845, 846, 847, 848, 849, 850, 851, 852, 853, 854, 855, 856, 857, 858, 859, 860, 861, 862, 863, 864, 865, 866, 867, 868, 869, 870, 871, 872],
      "AcquisitionTime": ["091836.155000", "091836.615000", "091837.075000", "091837.535000", "091837.995000", "091838.455000", "091838.915000", "091839.375000", "091839.835000", "091840.295000", "091840.755000", "091841.215000", "091841.675000", "091842.135000", "091842.595000", "091843.055000", "091843.515000", "091843.975000", "091844.435000", "091844.895000", "091845.355000", "091845.815000", "091846.275000", "091846.735000", "091847.195000", "091847.655000", "091848.115000", "091848.575000", "091849.035000", "091849.495000", "091849.955000", "091850.415000", "091850.875000", "091851.335000", "091851.795000", "091852.255000", "091852.715000", "091853.175000", "091853.635000", "091854.095000", "091854.555000", "091855.015000", "091855.475000", "091855.935000", "091856.395000", "091856.855000", "091857.315000", "091857.775000", "091858.235000", "091858.695000", "091859.155000", "091859.615000", "091900.075000", "091900.535000", "091900.995000", "091901.455000", "091901.915000", "091902.375000", "091902.835000", "091903.295000", "091903.755000", "091904.215000", "091904.675000", "091905.135000", "091905.595000", "091906.055000", "091906.515000", "091906.975000", "091907.435000", "091907.895000", "091908.355000", "091908.815000", "091909.275000", "091909.735000", "091910.195000", "091910.655000", "091911.115000", "091911.575000", "091912.035000", "091912.495000", "091912.955000", "091913.415000", "091913.875000", "091914.335000", "091914.795000", "091915.255000", "091915.715000", "091916.175000", "091916.635000", "091917.095000", "091917.555000", "091918.015000", "091918.475000", "091918.935000", "091919.395000", "091919.855000", "091920.315000", "091920.775000", "091921.235000", "091921.695000", "091922.155000", "091922.615000", "091923.075000", "091923.535000", "091923.995000", "091924.455000", "091924.915000", "091925.375000", "091925.835000", "091926.295000", "091926.755000", "091927.215000", "091927.675000", "091928.135000", "091928.595000", "091929.055000", "091929.515000", "091929.975000", "091930.435000", "091930.895000", "091931.355000", "091931.815000", "091932.275000", "091932.735000", "091933.195000", "091933.655000", "091934.115000", "091934.575000", "091935.035000", "091935.495000", "091935.955000", "091936.415000", "091936.875000", "091937.335000", "091937.795000", "091938.255000", "091938.715000", "091939.175000", "091939.635000", "091940.095000", "091940.555000", "091941.015000", "091941.475000", "091941.935000", "091942.395000", "091942.855000", "091943.315000", "091943.775000", "091944.235000", "091944.695000", "091945.155000", "091945.615000", "091946.075000", "091946.535000", "091946.995000", "091947.455000", "091947.915000", "091948.375000", "091948.835000", "091949.295000", "091949.755000", "091950.215000", "091950.675000", "091951.135000", "091951.595000", "091952.055000", "091952.515000", "091952.975000", "091953.435000", "091953.895000", "091954.355000", "091954.815000", "091955.275000", "091955.735000", "091956.195000", "091956.655000", "091957.115000", "091957.575000", "091958.035000", "091958.495000", "091958.955000", "091959.415000", "091959.875000", "092000.335000", "092000.795000", "092001.255000", "092001.715000", "092002.175000", "092002.635000", "092003.095000", "092003.555000", "092004.015000", "092004.475000", "092004.935000", "092005.395000", "092005.855000", "092006.315000", "092006.775000", "092007.235000", "092007.695000", "092008.155000", "092008.615000", "092009.075000", "092009.535000", "092009.995000", "092010.455000", "092010.915000", "092011.375000", "092011.835000", "092012.295000", "092012.755000", "092013.215000", "092013.675000", "092014.135000", "092014.595000", "092015.055000", "092015.515000", "092015.975000", "092016.435000", "092016.895000", "092017.355000", "092017.815000", "092018.275000", "092018.735000", "092019.195000", "092019.655000", "092020.115000", "092020.575000", "092021.035000", "092021.495000", "092021.955000", "092022.415000", "092022.875000", "092023.335000", "092023.795000", "092024.255000", "092024.715000", "092025.175000", "092025.635000", "092026.095000", "092026.555000", "092027.015000", "092027.475000", "092027.935000", "092028.395000", "092028.855000", "092029.315000", "092029.775000", "092030.235000", "092030.695000", "092031.155000", "092031.615000", "092032.075000", "092032.535000", "092032.995000", "092033.455000", "092033.915000", "092034.375000", "092034.835000", "092035.295000", "092035.755000", "092036.215000", "092036.675000", "092037.135000", "092037.595000", "092038.055000", "092038.515000", "092038.975000", "092039.435000", "092039.895000", "092040.355000", "092040.815000", "092041.275000", "092041.735000", "092042.195000", "092042.655000", "092043.115000", "092043.575000", "092044.035000", "092044.495000", "092044.955000", "092045.415000", "092045.875000", "092046.335000", "092046.795000", "092047.255000", "092047.715000", "092048.175000", "092048.635000", "092049.095000", "092049.555000", "092050.015000", "092050.475000", "092050.935000", "092051.395000", "092051.855000", "092052.315000", "092052.775000", "092053.235000", "092053.695000", "092054.155000", "092054.615000", "092055.075000", "092055.535000", "092055.995000", "092056.455000", "092056.915000", "092057.375000", "092057.835000", "092058.295000", "092058.755000", "092059.215000", "092059.675000", "092100.135000", "092100.595000", "092101.055000", "092101.515000", "092101.975000", "092102.435000", "092102.895000", "092103.355000", "092103.815000", "092104.275000", "092104.735000", "092105.195000", "092105.655000", "092106.115000", "092106.575000", "092107.035000", "092107.495000", "092107.955000", "092108.415000", "092108.875000", "092109.335000", "092109.795000", "092110.255000", "092110.715000", "092111.175000", "092111.635000", "092112.095000", "092112.555000", "092113.015000", "092113.475000", "092113.935000", "092114.395000", "092114.855000", "092115.315000", "092115.775000", "092116.235000", "092116.695000", "092117.155000", "092117.615000", "092118.075000", "092118.535000", "092118.995000", "092119.455000", "092119.915000", "092120.375000", "092120.835000", "092121.295000", "092121.755000", "092122.215000", "092122.675000", "092123.135000", "092123.595000", "092124.055000", "092124.515000", "092124.975000", "092125.435000", "092125.895000", "092126.355000", "092126.815000", "092127.275000", "092127.735000", "092128.195000", "092128.655000", "092129.115000", "092129.575000", "092130.035000", "092130.495000", "092130.955000", "092131.415000", "092131.875000", "092132.335000", "092132.795000", "092133.255000", "092133.715000", "092134.175000", "092134.635000", "092135.095000", "092135.555000", "092136.015000", "092136.475000", "092136.935000", "092137.395000", "092137.855000", "092138.315000", "092138.775000", "092139.235000", "092139.695000", "092140.155000", "092140.615000", "092141.075000", "092141.535000", "092141.995000", "092142.455000", "092142.915000", "092143.375000", "092143.835000", "092144.295000", "092144.755000", "092145.215000", "092145.675000", "092146.135000", "092146.595000", "092147.055000", "092147.515000", "092147.975000", "092148.435000", "092148.895000", "092149.355000", "092149.815000", "092150.275000", "092150.735000", "092151.195000", "092151.655000", "092152.115000", "092152.575000", "092153.035000", "092153.495000", "092153.955000", "092154.415000", "092154.875000", "092155.335000", "092155.795000", "092156.255000", "092156.715000", "092157.175000", "092157.635000", "092158.095000", "092158.555000", "092159.015000", "092159.475000", "092159.935000", "092200.395000", "092200.855000", "092201.315000", "092201.775000", "092202.235000", "092202.695000", "092203.155000", "092203.615000", "092204.075000", "092204.535000", "092204.995000", "092205.455000", "092205.915000", "092206.375000", "092206.835000", "092207.295000", "092207.755000", "092208.215000", "092208.675000", "092209.135000", "092209.595000", "092210.055000", "092210.515000", "092210.975000", "092211.435000", "092211.895000", "092212.355000", "092212.815000", "092213.275000", "092213.735000", "092214.195000", "092214.655000", "092215.115000", "092215.575000", "092216.035000", "092216.495000", "092216.955000", "092217.415000", "092217.875000", "092218.335000", "092218.795000", "092219.255000", "092219.715000", "092220.175000", "092220.635000", "092221.095000", "092221.555000", "092222.015000", "092222.475000", "092222.935000", "092223.395000", "092223.855000", "092224.315000", "092224.775000", "092225.235000", "092225.695000", "092226.155000", "092226.615000", "092227.075000", "092227.535000", "092227.995000", "092228.455000", "092228.915000", "092229.375000", "092229.835000", "092230.295000", "092230.755000", "092231.215000", "092231.675000", "092232.135000", "092232.595000", "092233.055000", "092233.515000", "092233.975000", "092234.435000", "092234.895000", "092235.355000", "092235.815000", "092236.275000", "092236.735000", "092237.195000", "092237.655000", "092238.115000", "092238.575000", "092239.035000", "092239.495000", "092239.955000", "092240.415000", "092240.875000", "092241.335000", "092241.795000", "092242.255000", "092242.715000", "092243.175000", "092243.635000", "092244.095000", "092244.555000", "092245.015000", "092245.475000", "092245.935000", "092246.395000", "092246.855000", "092247.315000", "092247.775000", "092248.235000", "092248.695000", "092249.155000", "092249.615000", "092250.075000", "092250.535000", "092250.995000", "092251.455000", "092251.915000", "092252.375000", "092252.835000", "092253.295000", "092253.755000", "092254.215000", "092254.675000", "092255.135000", "092255.595000", "092256.055000", "092256.515000", "092256.975000", "092257.435000", "092257.895000", "092258.355000", "092258.815000", "092259.275000", "092259.735000", "092300.195000", "092300.655000", "092301.115000", "092301.575000", "092302.035000", "092302.495000", "092302.955000", "092303.415000", "092303.875000", "092304.335000", "092304.795000", "092305.255000", "092305.715000", "092306.175000", "092306.635000", "092307.095000", "092307.555000", "092308.015000", "092308.475000", "092308.935000", "092309.395000", "092309.855000", "092310.315000", "092310.775000", "092311.235000", "092311.695000", "092312.155000", "092312.615000", "092313.075000", "092313.535000", "092313.995000", "092314.455000", "092314.915000", "092315.375000", "092315.835000", "092316.295000", "092316.755000", "092317.215000", "092317.675000", "092318.135000", "092318.595000", "092319.055000", "092319.515000", "092319.975000", "092320.435000", "092320.895000", "092321.355000", "092321.815000", "092322.275000", "092322.735000", "092323.195000", "092323.655000", "092324.115000", "092324.575000", "092325.035000", "092325.495000", "092325.955000", "092326.415000", "092326.875000", "092327.335000", "092327.795000", "092328.255000", "092328.715000", "092329.175000", "092329.635000", "092330.095000", "092330.555000", "092331.015000", "092331.475000", "092331.935000", "092332.395000", "092332.855000", "092333.315000", "092333.775000", "092334.235000", "092334.695000", "092335.155000", "092335.615000", "092336.075000", "092336.535000", "092336.995000", "092337.455000", "092337.915000", "092338.375000", "092338.835000", "092339.295000", "092339.755000", "092340.215000", "092340.675000", "092341.135000", "092341.595000", "092342.055000", "092342.515000", "092342.975000", "092343.435000", "092343.895000", "092344.355000", "092344.815000", "092345.275000", "092345.735000", "092346.195000", "092346.655000", "092347.115000", "092347.575000", "092348.035000", "092348.495000", "092348.955000", "092349.415000", "092349.875000", "092350.335000", "092350.795000", "092351.255000", "092351.715000", "092352.175000", "092352.635000", "092353.095000", "092353.555000", "092354.015000", "092354.475000", "092354.935000", "092355.395000", "092355.855000", "092356.315000", "092356.775000", "092357.235000", "092357.695000", "092358.155000", "092358.615000", "092359.075000", "092359.535000", "092359.995000", "092400.455000", "092400.915000", "092401.375000", "092401.835000", "092402.295000", "092402.755000", "092403.215000", "092403.675000", "092404.135000", "092404.595000", "092405.055000", "092405.515000", "092405.975000", "092406.435000", "092406.895000", "092407.355000", "092407.815000", "092408.275000", "092408.735000", "092409.195000", "092409.655000", "092410.115000", "092410.575000", "092411.035000", "092411.495000", "092411.955000", "092412.415000", "092412.875000", "092413.335000", "092413.795000", "092414.255000", "092414.715000", "092415.175000", "092415.635000", "092416.095000", "092416.555000", "092417.015000", "092417.475000", "092417.935000", "092418.395000", "092418.855000", "092419.315000", "092419.775000", "092420.235000", "092420.695000", "092421.155000", "092421.615000", "092422.075000", "092422.535000", "092422.995000", "092423.455000", "092423.915000", "092424.375000", "092424.835000", "092425.295000", "092425.755000", "092426.215000", "092426.675000", "092427.135000", "092427.595000", "092428.055000", "092428.515000", "092428.975000", "092429.435000", "092429.895000", "092430.355000", "092430.815000", "092431.275000", "092431.735000", "092432.195000", "092432.655000", "092433.115000", "092433.575000", "092434.035000", "092434.495000", "092434.955000", "092435.415000", "092435.875000", "092436.335000", "092436.795000", "092437.255000", "092437.715000", "092438.175000", "092438.635000", "092439.095000", "092439.555000", "092440.015000", "092440.475000", "092440.935000", "092441.395000", "092441.855000", "092442.315000", "092442.775000", "092443.235000", "092443.695000", "092444.155000", "092444.615000", "092445.075000", "092445.535000", "092445.995000", "092446.455000", "092446.915000", "092447.375000", "092447.835000", "092448.295000", "092448.755000", "092449.215000", "092449.675000", "092450.135000", "092450.595000", "092451.055000", "092451.515000", "092451.975000", "092452.435000", "092452.895000", "092453.355000", "092453.815000", "092454.275000", "092454.735000", "092455.195000", "092455.655000", "092456.115000", "092456.575000", "092457.035000", "092457.495000", "092457.955000", "092458.415000", "092458.875000", "092459.335000", "092459.795000", "092500.255000", "092500.715000", "092501.175000", "092501.635000", "092502.095000", "092502.555000", "092503.015000", "092503.475000", "092503.935000", "092504.395000", "092504.855000", "092505.315000", "092505.775000", "092506.235000", "092506.695000", "092507.155000", "092507.615000", "092508.075000", "092508.535000", "092508.995000", "092509.455000", "092509.915000", "092510.375000", "092510.835000", "092511.295000", "092511.755000", "092512.215000", "092512.675000", "092513.135000", "092513.595000", "092514.055000", "092514.515000", "092514.975000", "092515.435000", "092515.895000", "092516.355000", "092516.815000"],
