{
  "AcquisitionMatrixPE": 82,
  "AcquisitionNumber": 1,
  "AcquisitionTime": "09:40:28.610000",
  "BandwidthPerPixelPhaseEncode": 24.888,
  "BaseResolution": 82,
  "BodyPartExamined": "BRAIN",
  "ConsistencyInfo": "N4_VE11E_LATEST_20181129",
  "ConversionSoftware": "dcm2niix",
  "ConversionSoftwareVersion": "v1.0.20201102",
  "DerivedVendorReportedEchoSpacing": 0.00049,
  "DeviceSerialNumber": "66112",
  "DwellTime": 2e-06,
  "EchoTime": 0.0272,
  "EchoTrainLength": 82,
  "EffectiveEchoSpacing": 0.00049,
  "FlipAngle": 44,
  "ImageComments": "Unaliased MB8/PE3",
  "ImageOrientationPatientDICOM": [0.997458, 0.0640278, -0.0312827, -0.0634538, 0.997804, 0.0190092],
  "ImageType": [
    "ORIGINAL",
    "PRIMARY",
    "M",
    "MB",
    "ND",
    "NORM",
    "MOSAIC"
],
  "ImagingFrequency": 123.252,
  "InPlanePhaseEncodingDirectionDICOM": "COL",
  "InstitutionAddress": "Maynard 3,Hanover,NH,US,03755",
  "InstitutionName": "Dartmouth College - PBS",
  "InstitutionalDepartmentName": "Department",
  "MRAcquisitionType": "2D",
  "MagneticFieldStrength": 3,
  "Manufacturer": "Siemens",
  "ManufacturersModelName": "Prisma",
  "Modality": "MR",
  "MultibandAccelerationFactor": 8,
  "PartialFourier": 1,
  "PatientPosition": "HFS",
  "PercentPhaseFOV": 100,
  "PercentSampling": 100,
  "PhaseEncodingDirection": "j-",
  "PhaseEncodingSteps": 82,
  "PhaseResolution": 1,
  "PixelBandwidth": 3050,
  "ProcedureStepDescription": "Wager_Wager^1076_spacetop",
  "ProtocolName": "func_run-04_task-social_acq-ap-mb8",
  "PulseSequenceDetails": "%CustomerSeq%\\cmrr_mbep2d_bold",
  "ReceiveCoilActiveElements": "HEA;HEP",
  "ReceiveCoilName": "Head_32",
  "ReconMatrixPE": 82,
  "RepetitionTime": 0.46,
  "SAR": 0.0923881,
  "ScanOptions": "FS",
  "ScanningSequence": "EP",
  "SequenceName": "epfid2d1_82",
  "SequenceVariant": "SK\\SS",
  "SeriesDescription": "func_run-04_task-social_acq-ap-mb8",
  "SeriesNumber": 20,
  "ShimSetting": [4146, -7730, -7303, 507, -14, -111, 8, 59],
  "SliceThickness": 2.7,
  "SliceTiming": [0, 0.25, 0.0625, 0.3125, 0.125, 0.3775, 0.1875, 0, 0.25, 0.0625, 0.3125, 0.125, 0.3775, 0.1875, 0, 0.25, 0.0625, 0.3125, 0.125, 0.3775, 0.1875, 0, 0.25, 0.0625, 0.3125, 0.125, 0.3775, 0.1875, 0, 0.25, 0.0625, 0.3125, 0.125, 0.3775, 0.1875, 0, 0.25, 0.0625, 0.3125, 0.125, 0.3775, 0.1875, 0, 0.25, 0.0625, 0.3125, 0.125, 0.3775, 0.1875, 0, 0.25, 0.0625, 0.3125, 0.125, 0.3775, 0.1875],
  "SoftwareVersions": "syngo MR E11",
  "SpacingBetweenSlices": 2.7,
  "StationName": "AWP66112",
  "TaskName": "social",
  "TotalReadoutTime": 0.03969,
  "TxRefAmp": 257.392,
  "WipMemBlock": "b07bf572-4491-402e-922c-8263df50b806||Sequence: R016 ve11e/master r/434b28f1; Aug  7 2019 18:53:46 by eja",
  "dcmmeta_affine": [
    [-2.6761059761047363, -0.17024198174476624, -0.0875638872385025, 118.6890640258789],
    [-0.17178186774253845, 2.677034378051758, 0.045834723860025406, -86.10443878173828],
    [-0.08392909914255142, -0.05100017413496971, 2.698190450668335, -59.25601577758789],
    [0.0, 0.0, 0.0, 1.0]
],
  "dcmmeta_reorient_transform": [
    [0.0, -1.0, 0.0, 81.0],
    [1.0, 0.0, 0.0, 0.0],
    [0.0, 0.0, 1.0, 0.0],
    [0.0, 0.0, 0.0, 1.0]
],
  "dcmmeta_shape": [82, 82, 56, 872],
  "dcmmeta_slice_dim": 2,
  "dcmmeta_version": 0.6,
  "global": {
    "const": {
      "AccessionNumber": "A003930",
      "AcquisitionMatrix": [82, 0, 0, 82],
      "AngioFlag": "N",
      "BitsAllocated": 16,
      "BitsStored": 16,
      "BodyPartExamined": "BRAIN",
      "Columns": 656,
      "EchoNumbers": 1,
      "EchoTime": 27.2,
      "EchoTrainLength": 82,
      "FlipAngle": 44.0,
      "HighBit": 15,
      "ImageOrientationPatient": [0.99745768707285, 0.06402778732787, -0.0312826621179, -0.0634538268871, 0.99780372011072, 0.01900915533619],
      "ImagePositionPatient": [-824.08245128869, -948.34563439841, -53.936427727205],
      "ImageType": [
        "ORIGINAL",
        "PRIMARY",
        "M",
        "MB",
        "ND",
        "NORM",
        "MOSAIC"
],
      "ImagedNucleus": "1H",
      "ImagingFrequency": 123.252189,
      "InPlanePhaseEncodingDirection": "COL",
      "MRAcquisitionType": "2D",
      "MagneticFieldStrength": 3.0,
      "Manufacturer": "SIEMENS",
      "ManufacturerModelName": "Prisma",
      "Modality": "MR",
      "NumberOfAverages": 1.0,
      "NumberOfPhaseEncodingSteps": 82,
      "PercentPhaseFieldOfView": 100.0,
      "PercentSampling": 100.0,
      "PerformedProcedureStepStartTime": "084529.773000",
      "PhotometricInterpretation": "MONOCHROME2",
      "PixelBandwidth": 3050.0,
      "PixelRepresentation": 0,
      "PixelSpacing": [2.6829268932343, 2.6829268932343],
      "ProtocolName": "func_run-04_task-social_acq-ap-mb8",
      "RepetitionTime": 460.0,
      "Rows": 656,
      "SAR": 0.09238811516265,
      "SamplesPerPixel": 1,
      "ScanOptions": "FS",
      "ScanningSequence": "EP",
      "SequenceName": "epfid2d1_82",
      "SequenceVariant": [
        "SK",
        "SS"
],
      "SeriesDescription": "func_run-04_task-social_acq-ap-mb8",
      "SeriesNumber": 20,
      "SeriesTime": "094056.807000",
      "SliceLocation": -64.527207696844,
      "SliceThickness": 2.7000000476837,
      "SmallestImagePixelValue": 0,
      "SoftwareVersions": "syngo MR E11",
      "SpacingBetweenSlices": 2.6999999892118,
      "SpecificCharacterSet": "ISO_IR 100",
      "StudyID": "1",
      "StudyTime": "084529.622000",
      "TransmitCoilName": "Body",
      "VariableFlipAngleFlag": "N",
      "WindowCenterWidthExplanation": "Algo1"
    },
    "slices": {}
  },
  "time": {
    "samples": {
      "AcquisitionNumber": [1, 2, 3, 4, 5, 6, 7, 8, 9, 10, 11, 12, 13, 14, 15, 16, 17, 18, 19, 20, 21, 22, 23, 24, 25, 26, 27, 28, 29, 30, 31, 32, 33, 34, 35, 36, 37, 38, 39, 40, 41, 42, 43, 44, 45, 46, 47, 48, 49, 50, 51, 52, 53, 54, 55, 56, 57, 58, 59, 60, 61, 62, 63, 64, 65, 66, 67, 68, 69, 70, 71, 72, 73, 74, 75, 76, 77, 78, 79, 80, 81, 82, 83, 84, 85, 86, 87, 88, 89, 90, 91, 92, 93, 94, 95, 96, 97, 98, 99, 100, 101, 102, 103, 104, 105, 106, 107, 108, 109, 110, 111, 112, 113, 114, 115, 116, 117, 118, 119, 120, 121, 122, 123, 124, 125, 126, 127, 128, 129, 130, 131, 132, 133, 134, 135, 136, 137, 138, 139, 140, 141, 142, 143, 144, 145, 146, 147, 148, 149, 150, 151, 152, 153, 154, 155, 156, 157, 158, 159, 160, 161, 162, 163, 164, 165, 166, 167, 168, 169, 170, 171, 172, 173, 174, 175, 176, 177, 178, 179, 180, 181, 182, 183, 184, 185, 186, 187, 188, 189, 190, 191, 192, 193, 194, 195, 196, 197, 198, 199, 200, 201, 202, 203, 204, 205, 206, 207, 208, 209, 210, 211, 212, 213, 214, 215, 216, 217, 218, 219, 220, 221, 222, 223, 224, 225, 226, 227, 228, 229, 230, 231, 232, 233, 234, 235, 236, 237, 238, 239, 240, 241, 242, 243, 244, 245, 246, 247, 248, 249, 250, 251, 252, 253, 254, 255, 256, 257, 258, 259, 260, 261, 262, 263, 264, 265, 266, 267, 268, 269, 270, 271, 272, 273, 274, 275, 276, 277, 278, 279, 280, 281, 282, 283, 284, 285, 286, 287, 288, 289, 290, 291, 292, 293, 294, 295, 296, 297, 298, 299, 300, 301, 302, 303, 304, 305, 306, 307, 308, 309, 310, 311, 312, 313, 314, 315, 316, 317, 318, 319, 320, 321, 322, 323, 324, 325, 326, 327, 328, 329, 330, 331, 332, 333, 334, 335, 336, 337, 338, 339, 340, 341, 342, 343, 344, 345, 346, 347, 348, 349, 350, 351, 352, 353, 354, 355, 356, 357, 358, 359, 360, 361, 362, 363, 364, 365, 366, 367, 368, 369, 370, 371, 372, 373, 374, 375, 376, 377, 378, 379, 380, 381, 382, 383, 384, 385, 386, 387, 388, 389, 390, 391, 392, 393, 394, 395, 396, 397, 398, 399, 400, 401, 402, 403, 404, 405, 406, 407, 408, 409, 410, 411, 412, 413, 414, 415, 416, 417, 418, 419, 420, 421, 422, 423, 424, 425, 426, 427, 428, 429, 430, 431, 432, 433, 434, 435, 436, 437, 438, 439, 440, 441, 442, 443, 444, 445, 446, 447, 448, 449, 450, 451, 452, 453, 454, 455, 456, 457, 458, 459, 460, 461, 462, 463, 464, 465, 466, 467, 468, 469, 470, 471, 472, 473, 474, 475, 476, 477, 478, 479, 480, 481, 482, 483, 484, 485, 486, 487, 488, 489, 490, 491, 492, 493, 494, 495, 496, 497, 498, 499, 500, 501, 502, 503, 504, 505, 506, 507, 508, 509, 510, 511, 512, 513, 514, 515, 516, 517, 518, 519, 520, 521, 522, 523, 524, 525, 526, 527, 528, 529, 530, 531, 532, 533, 534, 535, 536, 537, 538, 539, 540, 541, 542, 543, 544, 545, 546, 547, 548, 549, 550, 551, 552, 553, 554, 555, 556, 557, 558, 559, 560, 561, 562, 563, 564, 565, 566, 567, 568, 569, 570, 571, 572, 573, 574, 575, 576, 577, 578, 579, 580, 581, 582, 583, 584, 585, 586, 587, 588, 589, 590, 591, 592, 593, 594, 595, 596, 597, 598, 599, 600, 601, 602, 603, 604, 605, 606, 607, 608, 609, 610, 611, 612, 613, 614, 615, 616, 617, 618, 619, 620, 621, 622, 623, 624, 625, 626, 627, 628, 629, 630, 631, 632, 633, 634, 635, 636, 637, 638, 639, 640, 641, 642, 643, 644, 645, 646, 647, 648, 649, 650, 651, 652, 653, 654, 655, 656, 657, 658, 659, 660, 661, 662, 663, 664, 665, 666, 667, 668, 669, 670, 671, 672, 673, 674, 675, 676, 677, 678, 679, 680, 681, 682, 683, 684, 685, 686, 687, 688, 689, 690, 691, 692, 693, 694, 695, 696, 697, 698, 699, 700, 701, 702, 703, 704, 705, 706, 707, 708, 709, 710, 711, 712, 713, 714, 715, 716, 717, 718, 719, 720, 721, 722, 723, 724, 725, 726, 727, 728, 729, 730, 731, 732, 733, 734, 735, 736, 737, 738, 739, 740, 741, 742, 743, 744, 745, 746, 747, 748, 749, 750, 751, 752, 753, 754, 755, 756, 757, 758, 759, 760, 761, 762, 763, 764, 765, 766, 767, 768, 769, 770, 771, 772, 773, 774, 775, 776, 777, 778, 779, 780, 781, 782, 783, 784, 785, 786, 787, 788, 789, 790, 791, 792, 793, 794, 795, 796, 797, 798, 799, 800, 801, 802, 803, 804, 805, 806, 807, 808, 809, 810, 811, 812, 813, 814, 815, 816, 817, 818, 819, 820, 821, 822, 823, 824, 825, 826, 827, 828, 829, 830, 831, 832, 833, 834, 835, 836, 837, 838, 839, 840, 841, 842, 843, 844, 845, 846, 847, 848, 849, 850, 851, 852, 853, 854, 855, 856, 857, 858, 859, 860, 861, 862, 863, 864, 865, 866, 867, 868, 869, 870, 871, 872],
      "AcquisitionTime": ["094028.610000", "094029.070000", "094029.530000", "094029.990000", "094030.450000", "094030.910000", "094031.370000", "094031.830000", "094032.290000", "094032.750000", "094033.210000", "094033.670000", "094034.130000", "094034.590000", "094035.050000", "094035.510000", "094035.970000", "094036.430000", "094036.890000", "094037.350000", "094037.810000", "094038.270000", "094038.730000", "094039.190000", "094039.650000", "094040.110000", "094040.570000", "094041.030000", "094041.490000", "094041.950000", "094042.410000", "094042.870000", "094043.330000", "094043.790000", "094044.250000", "094044.710000", "094045.170000", "094045.630000", "094046.090000", "094046.550000", "094047.010000", "094047.470000", "094047.930000", "094048.390000", "094048.850000", "094049.310000", "094049.770000", "094050.230000", "094050.690000", "094051.150000", "094051.610000", "094052.070000", "094052.530000", "094052.990000", "094053.450000", "094053.910000", "094054.370000", "094054.830000", "094055.290000", "094055.750000", "094056.210000", "094056.670000", "094057.130000", "094057.590000", "094058.050000", "094058.510000", "094058.970000", "094059.430000", "094059.890000", "094100.350000", "094100.810000", "094101.270000", "094101.730000", "094102.190000", "094102.650000", "094103.110000", "094103.570000", "094104.030000", "094104.490000", "094104.950000", "094105.410000", "094105.870000", "094106.330000", "094106.790000", "094107.250000", "094107.710000", "094108.170000", "094108.630000", "094109.090000", "094109.550000", "094110.010000", "094110.470000", "094110.930000", "094111.390000", "094111.850000", "094112.310000", "094112.770000", "094113.230000", "094113.690000", "094114.150000", "094114.610000", "094115.070000", "094115.530000", "094115.990000", "094116.450000", "094116.910000", "094117.370000", "094117.830000", "094118.290000", "094118.750000", "094119.210000", "094119.670000", "094120.130000", "094120.590000", "094121.050000", "094121.510000", "094121.970000", "094122.430000", "094122.890000", "094123.350000", "094123.810000", "094124.270000", "094124.730000", "094125.190000", "094125.650000", "094126.110000", "094126.570000", "094127.030000", "094127.490000", "094127.950000", "094128.410000", "094128.870000", "094129.330000", "094129.790000", "094130.250000", "094130.710000", "094131.170000", "094131.630000", "094132.090000", "094132.550000", "094133.010000", "094133.470000", "094133.930000", "094134.390000", "094134.850000", "094135.310000", "094135.770000", "094136.230000", "094136.690000", "094137.150000", "094137.610000", "094138.070000", "094138.530000", "094138.990000", "094139.450000", "094139.910000", "094140.370000", "094140.830000", "094141.290000", "094141.750000", "094142.210000", "094142.670000", "094143.130000", "094143.590000", "094144.050000", "094144.510000", "094144.970000", "094145.430000", "094145.890000", "094146.350000", "094146.810000", "094147.270000", "094147.730000", "094148.190000", "094148.650000", "094149.110000", "094149.570000", "094150.030000", "094150.490000", "094150.950000", "094151.410000", "094151.870000", "094152.330000", "094152.790000", "094153.250000", "094153.710000", "094154.170000", "094154.630000", "094155.090000", "094155.550000", "094156.010000", "094156.470000", "094156.930000", "094157.390000", "094157.850000", "094158.310000", "094158.770000", "094159.230000", "094159.690000", "094200.150000", "094200.610000", "094201.070000", "094201.530000", "094201.990000", "094202.450000", "094202.910000", "094203.370000", "094203.830000", "094204.290000", "094204.750000", "094205.210000", "094205.670000", "094206.130000", "094206.590000", "094207.050000", "094207.510000", "094207.970000", "094208.430000", "094208.890000", "094209.350000", "094209.810000", "094210.270000", "094210.730000", "094211.190000", "094211.650000", "094212.110000", "094212.570000", "094213.030000", "094213.490000", "094213.950000", "094214.410000", "094214.870000", "094215.330000", "094215.790000", "094216.250000", "094216.710000", "094217.170000", "094217.630000", "094218.090000", "094218.550000", "094219.010000", "094219.470000", "094219.930000", "094220.390000", "094220.850000", "094221.310000", "094221.770000", "094222.230000", "094222.690000", "094223.150000", "094223.610000", "094224.070000", "094224.530000", "094224.990000", "094225.450000", "094225.910000", "094226.370000", "094226.830000", "094227.290000", "094227.750000", "094228.210000", "094228.670000", "094229.130000", "094229.590000", "094230.050000", "094230.510000", "094230.970000", "094231.430000", "094231.890000", "094232.350000", "094232.810000", "094233.270000", "094233.730000", "094234.190000", "094234.650000", "094235.110000", "094235.570000", "094236.030000", "094236.490000", "094236.950000", "094237.410000", "094237.870000", "094238.330000", "094238.790000", "094239.250000", "094239.710000", "094240.170000", "094240.630000", "094241.090000", "094241.550000", "094242.010000", "094242.470000", "094242.930000", "094243.390000", "094243.850000", "094244.310000", "094244.770000", "094245.230000", "094245.690000", "094246.150000", "094246.610000", "094247.070000", "094247.530000", "094247.990000", "094248.450000", "094248.910000", "094249.370000", "094249.830000", "094250.290000", "094250.750000", "094251.210000", "094251.670000", "094252.130000", "094252.590000", "094253.050000", "094253.510000", "094253.970000", "094254.430000", "094254.890000", "094255.350000", "094255.810000", "094256.270000", "094256.730000", "094257.190000", "094257.650000", "094258.110000", "094258.570000", "094259.030000", "094259.490000", "094259.950000", "094300.410000", "094300.870000", "094301.330000", "094301.790000", "094302.250000", "094302.710000", "094303.170000", "094303.630000", "094304.090000", "094304.550000", "094305.010000", "094305.470000", "094305.930000", "094306.390000", "094306.850000", "094307.310000", "094307.770000", "094308.230000", "094308.690000", "094309.150000", "094309.610000", "094310.070000", "094310.530000", "094310.990000", "094311.450000", "094311.910000", "094312.370000", "094312.830000", "094313.290000", "094313.750000", "094314.210000", "094314.670000", "094315.130000", "094315.590000", "094316.050000", "094316.510000", "094316.970000", "094317.430000", "094317.890000", "094318.350000", "094318.810000", "094319.270000", "094319.730000", "094320.190000", "094320.650000", "094321.110000", "094321.570000", "094322.030000", "094322.490000", "094322.950000", "094323.410000", "094323.870000", "094324.330000", "094324.790000", "094325.250000", "094325.710000", "094326.170000", "094326.630000", "094327.090000", "094327.550000", "094328.010000", "094328.470000", "094328.930000", "094329.390000", "094329.850000", "094330.310000", "094330.770000", "094331.230000", "094331.690000", "094332.150000", "094332.610000", "094333.070000", "094333.530000", "094333.990000", "094334.450000", "094334.910000", "094335.370000", "094335.830000", "094336.290000", "094336.750000", "094337.210000", "094337.670000", "094338.130000", "094338.590000", "094339.050000", "094339.510000", "094339.970000", "094340.430000", "094340.890000", "094341.350000", "094341.810000", "094342.270000", "094342.730000", "094343.190000", "094343.650000", "094344.110000", "094344.570000", "094345.030000", "094345.490000", "094345.950000", "094346.410000", "094346.870000", "094347.330000", "094347.790000", "094348.250000", "094348.710000", "094349.170000", "094349.630000", "094350.090000", "094350.550000", "094351.010000", "094351.470000", "094351.930000", "094352.390000", "094352.850000", "094353.310000", "094353.770000", "094354.230000", "094354.690000", "094355.150000", "094355.610000", "094356.070000", "094356.530000", "094356.990000", "094357.450000", "094357.910000", "094358.370000", "094358.830000", "094359.290000", "094359.750000", "094400.210000", "094400.670000", "094401.130000", "094401.590000", "094402.050000", "094402.510000", "094402.970000", "094403.430000", "094403.890000", "094404.350000", "094404.810000", "094405.270000", "094405.730000", "094406.190000", "094406.650000", "094407.110000", "094407.570000", "094408.030000", "094408.490000", "094408.950000", "094409.410000", "094409.870000", "094410.330000", "094410.790000", "094411.250000", "094411.710000", "094412.170000", "094412.630000", "094413.090000", "094413.550000", "094414.010000", "094414.470000", "094414.930000", "094415.390000", "094415.850000", "094416.310000", "094416.770000", "094417.230000", "094417.690000", "094418.150000", "094418.610000", "094419.070000", "094419.530000", "094419.990000", "094420.450000", "094420.910000", "094421.370000", "094421.830000", "094422.290000", "094422.750000", "094423.210000", "094423.670000", "094424.130000", "094424.590000", "094425.050000", "094425.510000", "094425.970000", "094426.430000", "094426.890000", "094427.350000", "094427.810000", "094428.270000", "094428.730000", "094429.190000", "094429.650000", "094430.110000", "094430.570000", "094431.030000", "094431.490000", "094431.950000", "094432.410000", "094432.870000", "094433.330000", "094433.790000", "094434.250000", "094434.710000", "094435.170000", "094435.630000", "094436.090000", "094436.550000", "094437.010000", "094437.470000", "094437.930000", "094438.390000", "094438.850000", "094439.310000", "094439.770000", "094440.230000", "094440.690000", "094441.150000", "094441.610000", "094442.070000", "094442.530000", "094442.990000", "094443.450000", "094443.910000", "094444.370000", "094444.830000", "094445.290000", "094445.750000", "094446.210000", "094446.670000", "094447.130000", "094447.590000", "094448.050000", "094448.510000", "094448.970000", "094449.430000", "094449.890000", "094450.350000", "094450.810000", "094451.270000", "094451.730000", "094452.190000", "094452.650000", "094453.110000", "094453.570000", "094454.030000", "094454.490000", "094454.950000", "094455.410000", "094455.870000", "094456.330000", "094456.790000", "094457.250000", "094457.710000", "094458.170000", "094458.630000", "094459.090000", "094459.550000", "094500.010000", "094500.470000", "094500.930000", "094501.390000", "094501.850000", "094502.310000", "094502.770000", "094503.230000", "094503.690000", "094504.150000", "094504.610000", "094505.070000", "094505.530000", "094505.990000", "094506.450000", "094506.910000", "094507.370000", "094507.830000", "094508.290000", "094508.750000", "094509.210000", "094509.670000", "094510.130000", "094510.590000", "094511.050000", "094511.510000", "094511.970000", "094512.430000", "094512.890000", "094513.350000", "094513.810000", "094514.270000", "094514.730000", "094515.190000", "094515.650000", "094516.110000", "094516.570000", "094517.030000", "094517.490000", "094517.950000", "094518.410000", "094518.870000", "094519.330000", "094519.790000", "094520.250000", "094520.710000", "094521.170000", "094521.630000", "094522.090000", "094522.550000", "094523.010000", "094523.470000", "094523.930000", "094524.390000", "094524.850000", "094525.310000", "094525.770000", "094526.230000", "094526.690000", "094527.150000", "094527.610000", "094528.070000", "094528.530000", "094528.990000", "094529.450000", "094529.910000", "094530.370000", "094530.830000", "094531.290000", "094531.750000", "094532.210000", "094532.670000", "094533.130000", "094533.590000", "094534.050000", "094534.510000", "094534.970000", "094535.430000", "094535.890000", "094536.350000", "094536.810000", "094537.270000", "094537.730000", "094538.190000", "094538.650000", "094539.110000", "094539.570000", "094540.030000", "094540.490000", "094540.950000", "094541.410000", "094541.870000", "094542.330000", "094542.790000", "094543.250000", "094543.710000", "094544.170000", "094544.630000", "094545.090000", "094545.550000", "094546.010000", "094546.470000", "094546.930000", "094547.390000", "094547.850000", "094548.310000", "094548.770000", "094549.230000", "094549.690000", "094550.150000", "094550.610000", "094551.070000", "094551.530000", "094551.990000", "094552.450000", "094552.910000", "094553.370000", "094553.830000", "094554.290000", "094554.750000", "094555.210000", "094555.670000", "094556.130000", "094556.590000", "094557.050000", "094557.510000", "094557.970000", "094558.430000", "094558.890000", "094559.350000", "094559.810000", "094600.270000", "094600.730000", "094601.190000", "094601.650000", "094602.110000", "094602.570000", "094603.030000", "094603.490000", "094603.950000", "094604.410000", "094604.870000", "094605.330000", "094605.790000", "094606.250000", "094606.710000", "094607.170000", "094607.630000", "094608.090000", "094608.550000", "094609.010000", "094609.470000", "094609.930000", "094610.390000", "094610.850000", "094611.310000", "094611.770000", "094612.230000", "094612.690000", "094613.150000", "094613.610000", "094614.070000", "094614.530000", "094614.990000", "094615.450000", "094615.910000", "094616.370000", "094616.830000", "094617.290000", "094617.750000", "094618.210000", "094618.670000", "094619.130000", "094619.590000", "094620.050000", "094620.510000", "094620.970000", "094621.430000", "094621.890000", "094622.350000", "094622.810000", "094623.270000", "094623.730000", "094624.190000", "094624.650000", "094625.110000", "094625.570000", "094626.030000", "094626.490000", "094626.950000", "094627.410000", "094627.870000", "094628.330000", "094628.790000", "094629.250000", "094629.710000", "094630.170000", "094630.630000", "094631.090000", "094631.550000", "094632.010000", "094632.470000", "094632.930000", "094633.390000", "094633.850000", "094634.310000", "094634.770000", "094635.230000", "094635.690000", "094636.150000", "094636.610000", "094637.070000", "094637.530000", "094637.990000", "094638.450000", "094638.910000", "094639.370000", "094639.830000", "094640.290000", "094640.750000", "094641.210000", "094641.670000", "094642.130000", "094642.590000", "094643.050000", "094643.510000", "094643.970000", "094644.430000", "094644.890000", "094645.350000", "094645.810000", "094646.270000", "094646.730000", "094647.190000", "094647.650000", "094648.110000", "094648.570000", "094649.030000", "094649.490000", "094649.950000", "094650.410000", "094650.870000", "094651.330000", "094651.790000", "094652.250000", "094652.710000", "094653.170000", "094653.630000", "094654.090000", "094654.550000", "094655.010000", "094655.470000", "094655.930000", "094656.390000", "094656.850000", "094657.310000", "094657.770000", "094658.230000", "094658.690000", "094659.150000", "094659.610000", "094700.070000", "094700.530000", "094700.990000", "094701.450000", "094701.910000", "094702.370000", "094702.830000", "094703.290000", "094703.750000", "094704.210000", "094704.670000", "094705.130000", "094705.590000", "094706.050000", "094706.510000", "094706.970000", "094707.430000", "094707.890000", "094708.350000", "094708.810000", "094709.270000"],
