{
  "AcquisitionMatrixPE": 82,
  "AcquisitionNumber": 1,
  "AcquisitionTime": "09:49:25.817500",
  "BandwidthPerPixelPhaseEncode": 24.888,
  "BaseResolution": 82,
  "BodyPartExamined": "BRAIN",
  "ConsistencyInfo": "N4_VE11E_LATEST_20181129",
  "ConversionSoftware": "dcm2niix",
  "ConversionSoftwareVersion": "v1.0.20201102",
  "DerivedVendorReportedEchoSpacing": 0.00049,
  "DeviceSerialNumber": "66112",
  "DwellTime": 2e-06,
  "EchoTime": 0.0272,
  "EchoTrainLength": 82,
  "EffectiveEchoSpacing": 0.00049,
  "FlipAngle": 44,
  "ImageComments": "Unaliased MB8/PE3",
  "ImageOrientationPatientDICOM": [0.997458, 0.0640278, -0.0312827, -0.0634538, 0.997804, 0.0190092],
  "ImageType": [
    "ORIGINAL",
    "PRIMARY",
    "M",
    "MB",
    "ND",
    "NORM",
    "MOSAIC"
],
  "ImagingFrequency": 123.252,
  "InPlanePhaseEncodingDirectionDICOM": "COL",
  "InstitutionAddress": "Maynard 3,Hanover,NH,US,03755",
  "InstitutionName": "Dartmouth College - PBS",
  "InstitutionalDepartmentName": "Department",
  "MRAcquisitionType": "2D",
  "MagneticFieldStrength": 3,
  "Manufacturer": "Siemens",
  "ManufacturersModelName": "Prisma",
  "Modality": "MR",
  "MultibandAccelerationFactor": 8,
  "PartialFourier": 1,
  "PatientPosition": "HFS",
  "PercentPhaseFOV": 100,
  "PercentSampling": 100,
  "PhaseEncodingDirection": "j-",
  "PhaseEncodingSteps": 82,
  "PhaseResolution": 1,
  "PixelBandwidth": 3050,
  "ProcedureStepDescription": "Wager_Wager^1076_spacetop",
  "ProtocolName": "func_run-05_task-social_acq-ap-mb8",
  "PulseSequenceDetails": "%CustomerSeq%\\cmrr_mbep2d_bold",
  "ReceiveCoilActiveElements": "HEA;HEP",
  "ReceiveCoilName": "Head_32",
  "ReconMatrixPE": 82,
  "RepetitionTime": 0.46,
  "SAR": 0.0923881,
  "ScanOptions": "FS",
  "ScanningSequence": "EP",
  "SequenceName": "epfid2d1_82",
  "SequenceVariant": "SK\\SS",
  "SeriesDescription": "func_run-05_task-social_acq-ap-mb8",
  "SeriesNumber": 22,
  "ShimSetting": [4146, -7730, -7303, 507, -14, -111, 8, 59],
  "SliceThickness": 2.7,
  "SliceTiming": [0, 0.25, 0.0625, 0.3125, 0.125, 0.3775, 0.1875, 0, 0.25, 0.0625, 0.3125, 0.125, 0.3775, 0.1875, 0, 0.25, 0.0625, 0.3125, 0.125, 0.3775, 0.1875, 0, 0.25, 0.0625, 0.3125, 0.125, 0.3775, 0.1875, 0, 0.25, 0.0625, 0.3125, 0.125, 0.3775, 0.1875, 0, 0.25, 0.0625, 0.3125, 0.125, 0.3775, 0.1875, 0, 0.25, 0.0625, 0.3125, 0.125, 0.3775, 0.1875, 0, 0.25, 0.0625, 0.3125, 0.125, 0.3775, 0.1875],
  "SoftwareVersions": "syngo MR E11",
  "SpacingBetweenSlices": 2.7,
  "StationName": "AWP66112",
  "TaskName": "social",
  "TotalReadoutTime": 0.03969,
  "TxRefAmp": 257.392,
  "WipMemBlock": "5bdea5c7-adc4-4644-8878-676bd747361d||Sequence: R016 ve11e/master r/434b28f1; Aug  7 2019 18:53:46 by eja",
  "dcmmeta_affine": [
    [-2.6761059761047363, -0.17024198174476624, -0.0875638872385025, 118.6890640258789],
    [-0.17178186774253845, 2.677034378051758, 0.045834723860025406, -86.10443878173828],
    [-0.08392909914255142, -0.05100017413496971, 2.698190450668335, -59.25601577758789],
    [0.0, 0.0, 0.0, 1.0]
],
  "dcmmeta_reorient_transform": [
    [0.0, -1.0, 0.0, 81.0],
    [1.0, 0.0, 0.0, 0.0],
    [0.0, 0.0, 1.0, 0.0],
    [0.0, 0.0, 0.0, 1.0]
],
  "dcmmeta_shape": [82, 82, 56, 872],
  "dcmmeta_slice_dim": 2,
  "dcmmeta_version": 0.6,
  "global": {
    "const": {
      "AccessionNumber": "A003930",
      "AcquisitionMatrix": [82, 0, 0, 82],
      "AngioFlag": "N",
      "BitsAllocated": 16,
      "BitsStored": 16,
      "BodyPartExamined": "BRAIN",
      "Columns": 656,
      "EchoNumbers": 1,
      "EchoTime": 27.2,
      "EchoTrainLength": 82,
      "FlipAngle": 44.0,
      "HighBit": 15,
      "ImageOrientationPatient": [0.99745768707285, 0.06402778732787, -0.0312826621179, -0.0634538268871, 0.99780372011072, 0.01900915533619],
      "ImagePositionPatient": [-824.08245128869, -948.34563439841, -53.936427727205],
      "ImageType": [
        "ORIGINAL",
        "PRIMARY",
        "M",
        "MB",
        "ND",
        "NORM",
        "MOSAIC"
],
      "ImagedNucleus": "1H",
      "ImagingFrequency": 123.252191,
      "InPlanePhaseEncodingDirection": "COL",
      "MRAcquisitionType": "2D",
      "MagneticFieldStrength": 3.0,
      "Manufacturer": "SIEMENS",
      "ManufacturerModelName": "Prisma",
      "Modality": "MR",
      "NumberOfAverages": 1.0,
      "NumberOfPhaseEncodingSteps": 82,
      "PercentPhaseFieldOfView": 100.0,
      "PercentSampling": 100.0,
      "PerformedProcedureStepStartTime": "084529.773000",
      "PhotometricInterpretation": "MONOCHROME2",
      "PixelBandwidth": 3050.0,
      "PixelRepresentation": 0,
      "PixelSpacing": [2.6829268932343, 2.6829268932343],
      "ProtocolName": "func_run-05_task-social_acq-ap-mb8",
      "RepetitionTime": 460.0,
      "Rows": 656,
      "SAR": 0.09238811516265,
      "SamplesPerPixel": 1,
      "ScanOptions": "FS",
      "ScanningSequence": "EP",
      "SequenceName": "epfid2d1_82",
      "SequenceVariant": [
        "SK",
        "SS"
],
      "SeriesDescription": "func_run-05_task-social_acq-ap-mb8",
      "SeriesNumber": 22,
      "SeriesTime": "094936.896000",
      "SliceLocation": -64.527207696844,
      "SliceThickness": 2.7000000476837,
      "SmallestImagePixelValue": 0,
      "SoftwareVersions": "syngo MR E11",
      "SpacingBetweenSlices": 2.6999999892118,
      "SpecificCharacterSet": "ISO_IR 100",
      "StudyID": "1",
      "StudyTime": "084529.622000",
      "TransmitCoilName": "Body",
      "VariableFlipAngleFlag": "N",
      "WindowCenterWidthExplanation": "Algo1"
    },
    "slices": {}
  },
  "time": {
    "samples": {
      "AcquisitionNumber": [1, 2, 3, 4, 5, 6, 7, 8, 9, 10, 11, 12, 13, 14, 15, 16, 17, 18, 19, 20, 21, 22, 23, 24, 25, 26, 27, 28, 29, 30, 31, 32, 33, 34, 35, 36, 37, 38, 39, 40, 41, 42, 43, 44, 45, 46, 47, 48, 49, 50, 51, 52, 53, 54, 55, 56, 57, 58, 59, 60, 61, 62, 63, 64, 65, 66, 67, 68, 69, 70, 71, 72, 73, 74, 75, 76, 77, 78, 79, 80, 81, 82, 83, 84, 85, 86, 87, 88, 89, 90, 91, 92, 93, 94, 95, 96, 97, 98, 99, 100, 101, 102, 103, 104, 105, 106, 107, 108, 109, 110, 111, 112, 113, 114, 115, 116, 117, 118, 119, 120, 121, 122, 123, 124, 125, 126, 127, 128, 129, 130, 131, 132, 133, 134, 135, 136, 137, 138, 139, 140, 141, 142, 143, 144, 145, 146, 147, 148, 149, 150, 151, 152, 153, 154, 155, 156, 157, 158, 159, 160, 161, 162, 163, 164, 165, 166, 167, 168, 169, 170, 171, 172, 173, 174, 175, 176, 177, 178, 179, 180, 181, 182, 183, 184, 185, 186, 187, 188, 189, 190, 191, 192, 193, 194, 195, 196, 197, 198, 199, 200, 201, 202, 203, 204, 205, 206, 207, 208, 209, 210, 211, 212, 213, 214, 215, 216, 217, 218, 219, 220, 221, 222, 223, 224, 225, 226, 227, 228, 229, 230, 231, 232, 233, 234, 235, 236, 237, 238, 239, 240, 241, 242, 243, 244, 245, 246, 247, 248, 249, 250, 251, 252, 253, 254, 255, 256, 257, 258, 259, 260, 261, 262, 263, 264, 265, 266, 267, 268, 269, 270, 271, 272, 273, 274, 275, 276, 277, 278, 279, 280, 281, 282, 283, 284, 285, 286, 287, 288, 289, 290, 291, 292, 293, 294, 295, 296, 297, 298, 299, 300, 301, 302, 303, 304, 305, 306, 307, 308, 309, 310, 311, 312, 313, 314, 315, 316, 317, 318, 319, 320, 321, 322, 323, 324, 325, 326, 327, 328, 329, 330, 331, 332, 333, 334, 335, 336, 337, 338, 339, 340, 341, 342, 343, 344, 345, 346, 347, 348, 349, 350, 351, 352, 353, 354, 355, 356, 357, 358, 359, 360, 361, 362, 363, 364, 365, 366, 367, 368, 369, 370, 371, 372, 373, 374, 375, 376, 377, 378, 379, 380, 381, 382, 383, 384, 385, 386, 387, 388, 389, 390, 391, 392, 393, 394, 395, 396, 397, 398, 399, 400, 401, 402, 403, 404, 405, 406, 407, 408, 409, 410, 411, 412, 413, 414, 415, 416, 417, 418, 419, 420, 421, 422, 423, 424, 425, 426, 427, 428, 429, 430, 431, 432, 433, 434, 435, 436, 437, 438, 439, 440, 441, 442, 443, 444, 445, 446, 447, 448, 449, 450, 451, 452, 453, 454, 455, 456, 457, 458, 459, 460, 461, 462, 463, 464, 465, 466, 467, 468, 469, 470, 471, 472, 473, 474, 475, 476, 477, 478, 479, 480, 481, 482, 483, 484, 485, 486, 487, 488, 489, 490, 491, 492, 493, 494, 495, 496, 497, 498, 499, 500, 501, 502, 503, 504, 505, 506, 507, 508, 509, 510, 511, 512, 513, 514, 515, 516, 517, 518, 519, 520, 521, 522, 523, 524, 525, 526, 527, 528, 529, 530, 531, 532, 533, 534, 535, 536, 537, 538, 539, 540, 541, 542, 543, 544, 545, 546, 547, 548, 549, 550, 551, 552, 553, 554, 555, 556, 557, 558, 559, 560, 561, 562, 563, 564, 565, 566, 567, 568, 569, 570, 571, 572, 573, 574, 575, 576, 577, 578, 579, 580, 581, 582, 583, 584, 585, 586, 587, 588, 589, 590, 591, 592, 593, 594, 595, 596, 597, 598, 599, 600, 601, 602, 603, 604, 605, 606, 607, 608, 609, 610, 611, 612, 613, 614, 615, 616, 617, 618, 619, 620, 621, 622, 623, 624, 625, 626, 627, 628, 629, 630, 631, 632, 633, 634, 635, 636, 637, 638, 639, 640, 641, 642, 643, 644, 645, 646, 647, 648, 649, 650, 651, 652, 653, 654, 655, 656, 657, 658, 659, 660, 661, 662, 663, 664, 665, 666, 667, 668, 669, 670, 671, 672, 673, 674, 675, 676, 677, 678, 679, 680, 681, 682, 683, 684, 685, 686, 687, 688, 689, 690, 691, 692, 693, 694, 695, 696, 697, 698, 699, 700, 701, 702, 703, 704, 705, 706, 707, 708, 709, 710, 711, 712, 713, 714, 715, 716, 717, 718, 719, 720, 721, 722, 723, 724, 725, 726, 727, 728, 729, 730, 731, 732, 733, 734, 735, 736, 737, 738, 739, 740, 741, 742, 743, 744, 745, 746, 747, 748, 749, 750, 751, 752, 753, 754, 755, 756, 757, 758, 759, 760, 761, 762, 763, 764, 765, 766, 767, 768, 769, 770, 771, 772, 773, 774, 775, 776, 777, 778, 779, 780, 781, 782, 783, 784, 785, 786, 787, 788, 789, 790, 791, 792, 793, 794, 795, 796, 797, 798, 799, 800, 801, 802, 803, 804, 805, 806, 807, 808, 809, 810, 811, 812, 813, 814, 815, 816, 817, 818, 819, 820, 821, 822, 823, 824, 825, 826, 827, 828, 829, 830, 831, 832, 833, 834, 835, 836, 837, 838, 839, 840, 841, 842, 843, 844, 845, 846, 847, 848, 849, 850, 851, 852, 853, 854, 855, 856, 857, 858, 859, 860, 861, 862, 863, 864, 865, 866, 867, 868, 869, 870, 871, 872],
      "AcquisitionTime": ["094925.817500", "094926.277500", "094926.737500", "094927.197500", "094927.657500", "094928.117500", "094928.577500", "094929.037500", "094929.497500", "094929.957500", "094930.417500", "094930.877500", "094931.337500", "094931.797500", "094932.257500", "094932.717500", "094933.177500", "094933.637500", "094934.097500", "094934.557500", "094935.017500", "094935.477500", "094935.937500", "094936.397500", "094936.857500", "094937.317500", "094937.777500", "094938.237500", "094938.697500", "094939.157500", "094939.617500", "094940.077500", "094940.537500", "094940.997500", "094941.457500", "094941.917500", "094942.377500", "094942.837500", "094943.297500", "094943.757500", "094944.217500", "094944.677500", "094945.137500", "094945.597500", "094946.057500", "094946.517500", "094946.977500", "094947.437500", "094947.897500", "094948.357500", "094948.817500", "094949.277500", "094949.737500", "094950.197500", "094950.657500", "094951.117500", "094951.577500", "094952.037500", "094952.497500", "094952.957500", "094953.417500", "094953.877500", "094954.337500", "094954.797500", "094955.257500", "094955.717500", "094956.177500", "094956.637500", "094957.097500", "094957.557500", "094958.017500", "094958.477500", "094958.937500", "094959.397500", "094959.857500", "095000.317500", "095000.777500", "095001.237500", "095001.697500", "095002.157500", "095002.617500", "095003.077500", "095003.537500", "095003.997500", "095004.457500", "095004.917500", "095005.377500", "095005.837500", "095006.297500", "095006.757500", "095007.217500", "095007.677500", "095008.137500", "095008.597500", "095009.057500", "095009.517500", "095009.977500", "095010.437500", "095010.897500", "095011.357500", "095011.817500", "095012.277500", "095012.737500", "095013.197500", "095013.657500", "095014.117500", "095014.577500", "095015.037500", "095015.497500", "095015.957500", "095016.417500", "095016.877500", "095017.337500", "095017.797500", "095018.257500", "095018.717500", "095019.177500", "095019.637500", "095020.097500", "095020.557500", "095021.017500", "095021.477500", "095021.937500", "095022.397500", "095022.857500", "095023.317500", "095023.777500", "095024.237500", "095024.697500", "095025.157500", "095025.617500", "095026.077500", "095026.537500", "095026.997500", "095027.457500", "095027.917500", "095028.377500", "095028.837500", "095029.297500", "095029.757500", "095030.217500", "095030.677500", "095031.137500", "095031.597500", "095032.057500", "095032.517500", "095032.977500", "095033.437500", "095033.897500", "095034.357500", "095034.817500", "095035.277500", "095035.737500", "095036.197500", "095036.657500", "095037.117500", "095037.577500", "095038.037500", "095038.497500", "095038.957500", "095039.417500", "095039.877500", "095040.337500", "095040.797500", "095041.257500", "095041.717500", "095042.177500", "095042.637500", "095043.097500", "095043.557500", "095044.017500", "095044.477500", "095044.937500", "095045.397500", "095045.857500", "095046.317500", "095046.777500", "095047.237500", "095047.697500", "095048.157500", "095048.617500", "095049.077500", "095049.537500", "095049.997500", "095050.457500", "095050.917500", "095051.377500", "095051.837500", "095052.297500", "095052.757500", "095053.217500", "095053.677500", "095054.137500", "095054.597500", "095055.057500", "095055.517500", "095055.977500", "095056.437500", "095056.897500", "095057.357500", "095057.817500", "095058.277500", "095058.737500", "095059.197500", "095059.657500", "095100.117500", "095100.577500", "095101.037500", "095101.497500", "095101.957500", "095102.417500", "095102.877500", "095103.337500", "095103.797500", "095104.257500", "095104.717500", "095105.177500", "095105.637500", "095106.097500", "095106.557500", "095107.017500", "095107.477500", "095107.937500", "095108.397500", "095108.857500", "095109.317500", "095109.777500", "095110.237500", "095110.697500", "095111.157500", "095111.617500", "095112.077500", "095112.537500", "095112.997500", "095113.457500", "095113.917500", "095114.377500", "095114.837500", "095115.297500", "095115.757500", "095116.217500", "095116.677500", "095117.137500", "095117.597500", "095118.057500", "095118.517500", "095118.977500", "095119.437500", "095119.897500", "095120.357500", "095120.817500", "095121.277500", "095121.737500", "095122.197500", "095122.657500", "095123.117500", "095123.577500", "095124.037500", "095124.497500", "095124.957500", "095125.417500", "095125.877500", "095126.337500", "095126.797500", "095127.257500", "095127.717500", "095128.177500", "095128.637500", "095129.097500", "095129.557500", "095130.017500", "095130.477500", "095130.937500", "095131.397500", "095131.857500", "095132.317500", "095132.777500", "095133.237500", "095133.697500", "095134.157500", "095134.617500", "095135.077500", "095135.537500", "095135.997500", "095136.457500", "095136.917500", "095137.377500", "095137.837500", "095138.297500", "095138.757500", "095139.217500", "095139.677500", "095140.137500", "095140.597500", "095141.057500", "095141.517500", "095141.977500", "095142.437500", "095142.897500", "095143.357500", "095143.817500", "095144.277500", "095144.737500", "095145.197500", "095145.657500", "095146.117500", "095146.577500", "095147.037500", "095147.497500", "095147.957500", "095148.417500", "095148.877500", "095149.337500", "095149.797500", "095150.257500", "095150.717500", "095151.177500", "095151.637500", "095152.097500", "095152.557500", "095153.017500", "095153.477500", "095153.937500", "095154.397500", "095154.857500", "095155.317500", "095155.777500", "095156.237500", "095156.697500", "095157.157500", "095157.617500", "095158.077500", "095158.537500", "095158.997500", "095159.457500", "095159.917500", "095200.377500", "095200.837500", "095201.297500", "095201.757500", "095202.217500", "095202.677500", "095203.137500", "095203.597500", "095204.057500", "095204.517500", "095204.977500", "095205.437500", "095205.897500", "095206.357500", "095206.817500", "095207.277500", "095207.737500", "095208.197500", "095208.657500", "095209.117500", "095209.577500", "095210.037500", "095210.497500", "095210.957500", "095211.417500", "095211.877500", "095212.337500", "095212.797500", "095213.257500", "095213.717500", "095214.177500", "095214.637500", "095215.097500", "095215.557500", "095216.017500", "095216.477500", "095216.937500", "095217.397500", "095217.857500", "095218.317500", "095218.777500", "095219.237500", "095219.697500", "095220.157500", "095220.617500", "095221.077500", "095221.537500", "095221.997500", "095222.457500", "095222.917500", "095223.377500", "095223.837500", "095224.297500", "095224.757500", "095225.217500", "095225.677500", "095226.137500", "095226.597500", "095227.057500", "095227.517500", "095227.977500", "095228.437500", "095228.897500", "095229.357500", "095229.817500", "095230.277500", "095230.737500", "095231.197500", "095231.657500", "095232.117500", "095232.577500", "095233.037500", "095233.497500", "095233.957500", "095234.417500", "095234.877500", "095235.337500", "095235.797500", "095236.257500", "095236.717500", "095237.177500", "095237.637500", "095238.097500", "095238.557500", "095239.017500", "095239.477500", "095239.937500", "095240.397500", "095240.857500", "095241.317500", "095241.777500", "095242.237500", "095242.697500", "095243.157500", "095243.617500", "095244.077500", "095244.537500", "095244.997500", "095245.457500", "095245.917500", "095246.377500", "095246.837500", "095247.297500", "095247.757500", "095248.217500", "095248.677500", "095249.137500", "095249.597500", "095250.057500", "095250.517500", "095250.977500", "095251.437500", "095251.897500", "095252.357500", "095252.817500", "095253.277500", "095253.737500", "095254.197500", "095254.657500", "095255.117500", "095255.577500", "095256.037500", "095256.497500", "095256.957500", "095257.417500", "095257.877500", "095258.337500", "095258.797500", "095259.257500", "095259.717500", "095300.177500", "095300.637500", "095301.097500", "095301.557500", "095302.017500", "095302.477500", "095302.937500", "095303.397500", "095303.857500", "095304.317500", "095304.777500", "095305.237500", "095305.697500", "095306.157500", "095306.617500", "095307.077500", "095307.537500", "095307.997500", "095308.457500", "095308.917500", "095309.377500", "095309.837500", "095310.297500", "095310.757500", "095311.217500", "095311.677500", "095312.137500", "095312.597500", "095313.057500", "095313.517500", "095313.977500", "095314.437500", "095314.897500", "095315.357500", "095315.817500", "095316.277500", "095316.737500", "095317.197500", "095317.657500", "095318.117500", "095318.577500", "095319.037500", "095319.497500", "095319.957500", "095320.417500", "095320.877500", "095321.337500", "095321.797500", "095322.257500", "095322.717500", "095323.177500", "095323.637500", "095324.097500", "095324.557500", "095325.017500", "095325.477500", "095325.937500", "095326.397500", "095326.857500", "095327.317500", "095327.777500", "095328.237500", "095328.697500", "095329.157500", "095329.617500", "095330.077500", "095330.537500", "095330.997500", "095331.457500", "095331.917500", "095332.377500", "095332.837500", "095333.297500", "095333.757500", "095334.217500", "095334.677500", "095335.137500", "095335.597500", "095336.057500", "095336.517500", "095336.977500", "095337.437500", "095337.897500", "095338.357500", "095338.817500", "095339.277500", "095339.737500", "095340.197500", "095340.657500", "095341.117500", "095341.577500", "095342.037500", "095342.497500", "095342.957500", "095343.417500", "095343.877500", "095344.337500", "095344.797500", "095345.257500", "095345.717500", "095346.177500", "095346.637500", "095347.097500", "095347.557500", "095348.017500", "095348.477500", "095348.937500", "095349.397500", "095349.857500", "095350.317500", "095350.777500", "095351.237500", "095351.697500", "095352.157500", "095352.617500", "095353.077500", "095353.537500", "095353.997500", "095354.457500", "095354.917500", "095355.377500", "095355.837500", "095356.297500", "095356.757500", "095357.217500", "095357.677500", "095358.137500", "095358.597500", "095359.057500", "095359.517500", "095359.977500", "095400.437500", "095400.897500", "095401.357500", "095401.817500", "095402.277500", "095402.737500", "095403.197500", "095403.657500", "095404.117500", "095404.577500", "095405.037500", "095405.497500", "095405.957500", "095406.417500", "095406.877500", "095407.337500", "095407.797500", "095408.257500", "095408.717500", "095409.177500", "095409.637500", "095410.097500", "095410.557500", "095411.017500", "095411.477500", "095411.937500", "095412.397500", "095412.857500", "095413.317500", "095413.777500", "095414.237500", "095414.697500", "095415.157500", "095415.617500", "095416.077500", "095416.537500", "095416.997500", "095417.457500", "095417.917500", "095418.377500", "095418.837500", "095419.297500", "095419.757500", "095420.217500", "095420.677500", "095421.137500", "095421.597500", "095422.057500", "095422.517500", "095422.977500", "095423.437500", "095423.897500", "095424.357500", "095424.817500", "095425.277500", "095425.737500", "095426.197500", "095426.657500", "095427.117500", "095427.577500", "095428.037500", "095428.497500", "095428.957500", "095429.417500", "095429.877500", "095430.337500", "095430.797500", "095431.257500", "095431.717500", "095432.177500", "095432.637500", "095433.097500", "095433.557500", "095434.017500", "095434.477500", "095434.937500", "095435.397500", "095435.857500", "095436.317500", "095436.777500", "095437.237500", "095437.697500", "095438.157500", "095438.617500", "095439.077500", "095439.537500", "095439.997500", "095440.457500", "095440.917500", "095441.377500", "095441.837500", "095442.297500", "095442.757500", "095443.217500", "095443.677500", "095444.137500", "095444.597500", "095445.057500", "095445.517500", "095445.977500", "095446.437500", "095446.897500", "095447.357500", "095447.817500", "095448.277500", "095448.737500", "095449.197500", "095449.657500", "095450.117500", "095450.577500", "095451.037500", "095451.497500", "095451.957500", "095452.417500", "095452.877500", "095453.337500", "095453.797500", "095454.257500", "095454.717500", "095455.177500", "095455.637500", "095456.097500", "095456.557500", "095457.017500", "095457.477500", "095457.937500", "095458.397500", "095458.857500", "095459.317500", "095459.777500", "095500.237500", "095500.697500", "095501.157500", "095501.617500", "095502.077500", "095502.537500", "095502.997500", "095503.457500", "095503.917500", "095504.377500", "095504.837500", "095505.297500", "095505.757500", "095506.217500", "095506.677500", "095507.137500", "095507.597500", "095508.057500", "095508.517500", "095508.977500", "095509.437500", "095509.897500", "095510.357500", "095510.817500", "095511.277500", "095511.737500", "095512.197500", "095512.657500", "095513.117500", "095513.577500", "095514.037500", "095514.497500", "095514.957500", "095515.417500", "095515.877500", "095516.337500", "095516.797500", "095517.257500", "095517.717500", "095518.177500", "095518.637500", "095519.097500", "095519.557500", "095520.017500", "095520.477500", "095520.937500", "095521.397500", "095521.857500", "095522.317500", "095522.777500", "095523.237500", "095523.697500", "095524.157500", "095524.617500", "095525.077500", "095525.537500", "095525.997500", "095526.457500", "095526.917500", "095527.377500", "095527.837500", "095528.297500", "095528.757500", "095529.217500", "095529.677500", "095530.137500", "095530.597500", "095531.057500", "095531.517500", "095531.977500", "095532.437500", "095532.897500", "095533.357500", "095533.817500", "095534.277500", "095534.737500", "095535.197500", "095535.657500", "095536.117500", "095536.577500", "095537.037500", "095537.497500", "095537.957500", "095538.417500", "095538.877500", "095539.337500", "095539.797500", "095540.257500", "095540.717500", "095541.177500", "095541.637500", "095542.097500", "095542.557500", "095543.017500", "095543.477500", "095543.937500", "095544.397500", "095544.857500", "095545.317500", "095545.777500", "095546.237500", "095546.697500", "095547.157500", "095547.617500", "095548.077500", "095548.537500", "095548.997500", "095549.457500", "095549.917500", "095550.377500", "095550.837500", "095551.297500", "095551.757500", "095552.217500", "095552.677500", "095553.137500", "095553.597500", "095554.057500", "095554.517500", "095554.977500", "095555.437500", "095555.897500", "095556.357500", "095556.817500", "095557.277500", "095557.737500", "095558.197500", "095558.657500", "095559.117500", "095559.577500", "095600.037500", "095600.497500", "095600.957500", "095601.417500", "095601.877500", "095602.337500", "095602.797500", "095603.257500", "095603.717500", "095604.177500", "095604.637500", "095605.097500", "095605.557500", "095606.017500", "095606.477500"],
