{
  "AcquisitionMatrixPE": 82,
  "AcquisitionNumber": 1,
  "AcquisitionTime": "09:56:33.567500",
  "BandwidthPerPixelPhaseEncode": 24.888,
  "BaseResolution": 82,
  "BodyPartExamined": "BRAIN",
  "ConsistencyInfo": "N4_VE11E_LATEST_20181129",
  "ConversionSoftware": "dcm2niix",
  "ConversionSoftwareVersion": "v1.0.20201102",
  "DerivedVendorReportedEchoSpacing": 0.00049,
  "DeviceSerialNumber": "66112",
  "DwellTime": 2e-06,
  "EchoTime": 0.0272,
  "EchoTrainLength": 82,
  "EffectiveEchoSpacing": 0.00049,
  "FlipAngle": 44,
  "ImageComments": "Unaliased MB8/PE3",
  "ImageOrientationPatientDICOM": [0.997458, 0.0640278, -0.0312827, -0.0634538, 0.997804, 0.0190092],
  "ImageType": [
    "ORIGINAL",
    "PRIMARY",
    "M",
    "MB",
    "ND",
    "NORM",
    "MOSAIC"
],
  "ImagingFrequency": 123.252,
  "InPlanePhaseEncodingDirectionDICOM": "COL",
  "InstitutionAddress": "Maynard 3,Hanover,NH,US,03755",
  "InstitutionName": "Dartmouth College - PBS",
  "InstitutionalDepartmentName": "Department",
  "MRAcquisitionType": "2D",
  "MagneticFieldStrength": 3,
  "Manufacturer": "Siemens",
  "ManufacturersModelName": "Prisma",
  "Modality": "MR",
  "MultibandAccelerationFactor": 8,
  "PartialFourier": 1,
  "PatientPosition": "HFS",
  "PercentPhaseFOV": 100,
  "PercentSampling": 100,
  "PhaseEncodingDirection": "j-",
  "PhaseEncodingSteps": 82,
  "PhaseResolution": 1,
  "PixelBandwidth": 3050,
  "ProcedureStepDescription": "Wager_Wager^1076_spacetop",
  "ProtocolName": "func_run-06_task-social_acq-ap-mb8",
  "PulseSequenceDetails": "%CustomerSeq%\\cmrr_mbep2d_bold",
  "ReceiveCoilActiveElements": "HEA;HEP",
  "ReceiveCoilName": "Head_32",
  "ReconMatrixPE": 82,
  "RepetitionTime": 0.46,
  "SAR": 0.0923881,
  "ScanOptions": "FS",
  "ScanningSequence": "EP",
  "SequenceName": "epfid2d1_82",
  "SequenceVariant": "SK\\SS",
  "SeriesDescription": "func_run-06_task-social_acq-ap-mb8",
  "SeriesNumber": 24,
  "ShimSetting": [4146, -7730, -7303, 507, -14, -111, 8, 59],
  "SliceThickness": 2.7,
  "SliceTiming": [0, 0.2525, 0.0625, 0.315, 0.125, 0.3775, 0.1875, 0, 0.2525, 0.0625, 0.315, 0.125, 0.3775, 0.1875, 0, 0.2525, 0.0625, 0.315, 0.125, 0.3775, 0.1875, 0, 0.2525, 0.0625, 0.315, 0.125, 0.3775, 0.1875, 0, 0.2525, 0.0625, 0.315, 0.125, 0.3775, 0.1875, 0, 0.2525, 0.0625, 0.315, 0.125, 0.3775, 0.1875, 0, 0.2525, 0.0625, 0.315, 0.125, 0.3775, 0.1875, 0, 0.2525, 0.0625, 0.315, 0.125, 0.3775, 0.1875],
  "SoftwareVersions": "syngo MR E11",
  "SpacingBetweenSlices": 2.7,
  "StationName": "AWP66112",
  "TaskName": "social",
  "TotalReadoutTime": 0.03969,
  "TxRefAmp": 257.392,
  "WipMemBlock": "3f311a66-76f4-4e68-8aa0-da12f61b4f13||Sequence: R016 ve11e/master r/434b28f1; Aug  7 2019 18:53:46 by eja",
  "dcmmeta_affine": [
    [-2.6761059761047363, -0.17024198174476624, -0.0875638872385025, 118.6890640258789],
    [-0.17178186774253845, 2.677034378051758, 0.045834723860025406, -86.10443878173828],
    [-0.08392909914255142, -0.05100017413496971, 2.698190450668335, -59.25601577758789],
    [0.0, 0.0, 0.0, 1.0]
],
  "dcmmeta_reorient_transform": [
    [0.0, -1.0, 0.0, 81.0],
    [1.0, 0.0, 0.0, 0.0],
    [0.0, 0.0, 1.0, 0.0],
    [0.0, 0.0, 0.0, 1.0]
],
  "dcmmeta_shape": [82, 82, 56, 872],
  "dcmmeta_slice_dim": 2,
  "dcmmeta_version": 0.6,
  "global": {
    "const": {
      "AccessionNumber": "A003930",
      "AcquisitionMatrix": [82, 0, 0, 82],
      "AngioFlag": "N",
      "BitsAllocated": 16,
      "BitsStored": 16,
      "BodyPartExamined": "BRAIN",
      "Columns": 656,
      "EchoNumbers": 1,
      "EchoTime": 27.2,
      "EchoTrainLength": 82,
      "FlipAngle": 44.0,
      "HighBit": 15,
      "ImageOrientationPatient": [0.99745768707285, 0.06402778732787, -0.0312826621179, -0.0634538268871, 0.99780372011072, 0.01900915533619],
      "ImagePositionPatient": [-824.08245128869, -948.34563439841, -53.936427727205],
      "ImageType": [
        "ORIGINAL",
        "PRIMARY",
        "M",
        "MB",
        "ND",
        "NORM",
        "MOSAIC"
],
      "ImagedNucleus": "1H",
      "ImagingFrequency": 123.25219,
      "InPlanePhaseEncodingDirection": "COL",
      "MRAcquisitionType": "2D",
      "MagneticFieldStrength": 3.0,
      "Manufacturer": "SIEMENS",
      "ManufacturerModelName": "Prisma",
      "Modality": "MR",
      "NumberOfAverages": 1.0,
      "NumberOfPhaseEncodingSteps": 82,
      "PercentPhaseFieldOfView": 100.0,
      "PercentSampling": 100.0,
      "PerformedProcedureStepStartTime": "084529.773000",
      "PhotometricInterpretation": "MONOCHROME2",
      "PixelBandwidth": 3050.0,
      "PixelRepresentation": 0,
      "PixelSpacing": [2.6829268932343, 2.6829268932343],
      "ProtocolName": "func_run-06_task-social_acq-ap-mb8",
      "RepetitionTime": 460.0,
      "Rows": 656,
      "SAR": 0.09238811516265,
      "SamplesPerPixel": 1,
      "ScanOptions": "FS",
      "ScanningSequence": "EP",
      "SequenceName": "epfid2d1_82",
      "SequenceVariant": [
        "SK",
        "SS"
],
      "SeriesDescription": "func_run-06_task-social_acq-ap-mb8",
      "SeriesNumber": 24,
      "SeriesTime": "095656.998000",
      "SliceLocation": -64.527207696844,
      "SliceThickness": 2.7000000476837,
      "SmallestImagePixelValue": 0,
      "SoftwareVersions": "syngo MR E11",
      "SpacingBetweenSlices": 2.6999999892118,
      "SpecificCharacterSet": "ISO_IR 100",
      "StudyID": "1",
      "StudyTime": "084529.622000",
      "TransmitCoilName": "Body",
      "VariableFlipAngleFlag": "N",
      "WindowCenterWidthExplanation": "Algo1"
    },
    "slices": {}
  },
  "time": {
    "samples": {
      "AcquisitionNumber": [1, 2, 3, 4, 5, 6, 7, 8, 9, 10, 11, 12, 13, 14, 15, 16, 17, 18, 19, 20, 21, 22, 23, 24, 25, 26, 27, 28, 29, 30, 31, 32, 33, 34, 35, 36, 37, 38, 39, 40, 41, 42, 43, 44, 45, 46, 47, 48, 49, 50, 51, 52, 53, 54, 55, 56, 57, 58, 59, 60, 61, 62, 63, 64, 65, 66, 67, 68, 69, 70, 71, 72, 73, 74, 75, 76, 77, 78, 79, 80, 81, 82, 83, 84, 85, 86, 87, 88, 89, 90, 91, 92, 93, 94, 95, 96, 97, 98, 99, 100, 101, 102, 103, 104, 105, 106, 107, 108, 109, 110, 111, 112, 113, 114, 115, 116, 117, 118, 119, 120, 121, 122, 123, 124, 125, 126, 127, 128, 129, 130, 131, 132, 133, 134, 135, 136, 137, 138, 139, 140, 141, 142, 143, 144, 145, 146, 147, 148, 149, 150, 151, 152, 153, 154, 155, 156, 157, 158, 159, 160, 161, 162, 163, 164, 165, 166, 167, 168, 169, 170, 171, 172, 173, 174, 175, 176, 177, 178, 179, 180, 181, 182, 183, 184, 185, 186, 187, 188, 189, 190, 191, 192, 193, 194, 195, 196, 197, 198, 199, 200, 201, 202, 203, 204, 205, 206, 207, 208, 209, 210, 211, 212, 213, 214, 215, 216, 217, 218, 219, 220, 221, 222, 223, 224, 225, 226, 227, 228, 229, 230, 231, 232, 233, 234, 235, 236, 237, 238, 239, 240, 241, 242, 243, 244, 245, 246, 247, 248, 249, 250, 251, 252, 253, 254, 255, 256, 257, 258, 259, 260, 261, 262, 263, 264, 265, 266, 267, 268, 269, 270, 271, 272, 273, 274, 275, 276, 277, 278, 279, 280, 281, 282, 283, 284, 285, 286, 287, 288, 289, 290, 291, 292, 293, 294, 295, 296, 297, 298, 299, 300, 301, 302, 303, 304, 305, 306, 307, 308, 309, 310, 311, 312, 313, 314, 315, 316, 317, 318, 319, 320, 321, 322, 323, 324, 325, 326, 327, 328, 329, 330, 331, 332, 333, 334, 335, 336, 337, 338, 339, 340, 341, 342, 343, 344, 345, 346, 347, 348, 349, 350, 351, 352, 353, 354, 355, 356, 357, 358, 359, 360, 361, 362, 363, 364, 365, 366, 367, 368, 369, 370, 371, 372, 373, 374, 375, 376, 377, 378, 379, 380, 381, 382, 383, 384, 385, 386, 387, 388, 389, 390, 391, 392, 393, 394, 395, 396, 397, 398, 399, 400, 401, 402, 403, 404, 405, 406, 407, 408, 409, 410, 411, 412, 413, 414, 415, 416, 417, 418, 419, 420, 421, 422, 423, 424, 425, 426, 427, 428, 429, 430, 431, 432, 433, 434, 435, 436, 437, 438, 439, 440, 441, 442, 443, 444, 445, 446, 447, 448, 449, 450, 451, 452, 453, 454, 455, 456, 457, 458, 459, 460, 461, 462, 463, 464, 465, 466, 467, 468, 469, 470, 471, 472, 473, 474, 475, 476, 477, 478, 479, 480, 481, 482, 483, 484, 485, 486, 487, 488, 489, 490, 491, 492, 493, 494, 495, 496, 497, 498, 499, 500, 501, 502, 503, 504, 505, 506, 507, 508, 509, 510, 511, 512, 513, 514, 515, 516, 517, 518, 519, 520, 521, 522, 523, 524, 525, 526, 527, 528, 529, 530, 531, 532, 533, 534, 535, 536, 537, 538, 539, 540, 541, 542, 543, 544, 545, 546, 547, 548, 549, 550, 551, 552, 553, 554, 555, 556, 557, 558, 559, 560, 561, 562, 563, 564, 565, 566, 567, 568, 569, 570, 571, 572, 573, 574, 575, 576, 577, 578, 579, 580, 581, 582, 583, 584, 585, 586, 587, 588, 589, 590, 591, 592, 593, 594, 595, 596, 597, 598, 599, 600, 601, 602, 603, 604, 605, 606, 607, 608, 609, 610, 611, 612, 613, 614, 615, 616, 617, 618, 619, 620, 621, 622, 623, 624, 625, 626, 627, 628, 629, 630, 631, 632, 633, 634, 635, 636, 637, 638, 639, 640, 641, 642, 643, 644, 645, 646, 647, 648, 649, 650, 651, 652, 653, 654, 655, 656, 657, 658, 659, 660, 661, 662, 663, 664, 665, 666, 667, 668, 669, 670, 671, 672, 673, 674, 675, 676, 677, 678, 679, 680, 681, 682, 683, 684, 685, 686, 687, 688, 689, 690, 691, 692, 693, 694, 695, 696, 697, 698, 699, 700, 701, 702, 703, 704, 705, 706, 707, 708, 709, 710, 711, 712, 713, 714, 715, 716, 717, 718, 719, 720, 721, 722, 723, 724, 725, 726, 727, 728, 729, 730, 731, 732, 733, 734, 735, 736, 737, 738, 739, 740, 741, 742, 743, 744, 745, 746, 747, 748, 749, 750, 751, 752, 753, 754, 755, 756, 757, 758, 759, 760, 761, 762, 763, 764, 765, 766, 767, 768, 769, 770, 771, 772, 773, 774, 775, 776, 777, 778, 779, 780, 781, 782, 783, 784, 785, 786, 787, 788, 789, 790, 791, 792, 793, 794, 795, 796, 797, 798, 799, 800, 801, 802, 803, 804, 805, 806, 807, 808, 809, 810, 811, 812, 813, 814, 815, 816, 817, 818, 819, 820, 821, 822, 823, 824, 825, 826, 827, 828, 829, 830, 831, 832, 833, 834, 835, 836, 837, 838, 839, 840, 841, 842, 843, 844, 845, 846, 847, 848, 849, 850, 851, 852, 853, 854, 855, 856, 857, 858, 859, 860, 861, 862, 863, 864, 865, 866, 867, 868, 869, 870, 871, 872],
      "AcquisitionTime": ["095633.567500", "095634.027500", "095634.487500", "095634.947500", "095635.407500", "095635.867500", "095636.327500", "095636.787500", "095637.247500", "095637.707500", "095638.167500", "095638.627500", "095639.087500", "095639.547500", "095640.007500", "095640.467500", "095640.927500", "095641.387500", "095641.847500", "095642.307500", "095642.767500", "095643.227500", "095643.687500", "095644.147500", "095644.607500", "095645.067500", "095645.527500", "095645.987500", "095646.447500", "095646.907500", "095647.367500", "095647.827500", "095648.287500", "095648.747500", "095649.207500", "095649.667500", "095650.127500", "095650.587500", "095651.047500", "095651.507500", "095651.967500", "095652.427500", "095652.887500", "095653.347500", "095653.807500", "095654.267500", "095654.727500", "095655.187500", "095655.647500", "095656.107500", "095656.567500", "095657.027500", "095657.487500", "095657.947500", "095658.407500", "095658.867500", "095659.327500", "095659.787500", "095700.247500", "095700.707500", "095701.167500", "095701.627500", "095702.087500", "095702.547500", "095703.007500", "095703.467500", "095703.927500", "095704.387500", "095704.847500", "095705.307500", "095705.767500", "095706.227500", "095706.687500", "095707.147500", "095707.607500", "095708.067500", "095708.527500", "095708.987500", "095709.447500", "095709.907500", "095710.367500", "095710.827500", "095711.287500", "095711.747500", "095712.207500", "095712.667500", "095713.127500", "095713.587500", "095714.047500", "095714.507500", "095714.967500", "095715.427500", "095715.887500", "095716.347500", "095716.807500", "095717.267500", "095717.727500", "095718.187500", "095718.647500", "095719.107500", "095719.567500", "095720.027500", "095720.487500", "095720.947500", "095721.407500", "095721.867500", "095722.327500", "095722.787500", "095723.247500", "095723.707500", "095724.167500", "095724.627500", "095725.087500", "095725.547500", "095726.007500", "095726.467500", "095726.927500", "095727.387500", "095727.847500", "095728.307500", "095728.767500", "095729.227500", "095729.687500", "095730.147500", "095730.607500", "095731.067500", "095731.527500", "095731.987500", "095732.447500", "095732.907500", "095733.367500", "095733.827500", "095734.287500", "095734.747500", "095735.207500", "095735.667500", "095736.127500", "095736.587500", "095737.047500", "095737.507500", "095737.967500", "095738.427500", "095738.887500", "095739.347500", "095739.807500", "095740.267500", "095740.727500", "095741.187500", "095741.647500", "095742.107500", "095742.567500", "095743.027500", "095743.487500", "095743.947500", "095744.407500", "095744.867500", "095745.327500", "095745.787500", "095746.247500", "095746.707500", "095747.167500", "095747.627500", "095748.087500", "095748.547500", "095749.007500", "095749.467500", "095749.927500", "095750.387500", "095750.847500", "095751.307500", "095751.767500", "095752.227500", "095752.687500", "095753.147500", "095753.607500", "095754.067500", "095754.527500", "095754.987500", "095755.447500", "095755.907500", "095756.367500", "095756.827500", "095757.287500", "095757.747500", "095758.207500", "095758.667500", "095759.127500", "095759.587500", "095800.047500", "095800.507500", "095800.967500", "095801.427500", "095801.887500", "095802.347500", "095802.807500", "095803.267500", "095803.727500", "095804.187500", "095804.647500", "095805.107500", "095805.567500", "095806.027500", "095806.487500", "095806.947500", "095807.407500", "095807.867500", "095808.327500", "095808.787500", "095809.247500", "095809.707500", "095810.167500", "095810.627500", "095811.087500", "095811.547500", "095812.007500", "095812.467500", "095812.927500", "095813.387500", "095813.847500", "095814.307500", "095814.767500", "095815.227500", "095815.687500", "095816.147500", "095816.607500", "095817.067500", "095817.527500", "095817.987500", "095818.447500", "095818.907500", "095819.367500", "095819.827500", "095820.287500", "095820.747500", "095821.207500", "095821.667500", "095822.127500", "095822.587500", "095823.047500", "095823.507500", "095823.967500", "095824.427500", "095824.887500", "095825.347500", "095825.807500", "095826.267500", "095826.727500", "095827.187500", "095827.647500", "095828.107500", "095828.567500", "095829.027500", "095829.487500", "095829.947500", "095830.407500", "095830.867500", "095831.327500", "095831.787500", "095832.247500", "095832.707500", "095833.167500", "095833.627500", "095834.087500", "095834.547500", "095835.007500", "095835.467500", "095835.927500", "095836.387500", "095836.847500", "095837.307500", "095837.767500", "095838.227500", "095838.687500", "095839.147500", "095839.607500", "095840.067500", "095840.527500", "095840.987500", "095841.447500", "095841.907500", "095842.367500", "095842.827500", "095843.287500", "095843.747500", "095844.207500", "095844.667500", "095845.127500", "095845.587500", "095846.047500", "095846.507500", "095846.967500", "095847.427500", "095847.887500", "095848.347500", "095848.807500", "095849.267500", "095849.727500", "095850.187500", "095850.647500", "095851.107500", "095851.567500", "095852.027500", "095852.487500", "095852.947500", "095853.407500", "095853.867500", "095854.327500", "095854.787500", "095855.247500", "095855.707500", "095856.167500", "095856.627500", "095857.087500", "095857.547500", "095858.007500", "095858.467500", "095858.927500", "095859.387500", "095859.847500", "095900.307500", "095900.767500", "095901.227500", "095901.687500", "095902.147500", "095902.607500", "095903.067500", "095903.527500", "095903.987500", "095904.447500", "095904.907500", "095905.367500", "095905.827500", "095906.287500", "095906.747500", "095907.207500", "095907.667500", "095908.127500", "095908.587500", "095909.047500", "095909.507500", "095909.967500", "095910.427500", "095910.887500", "095911.347500", "095911.807500", "095912.267500", "095912.727500", "095913.187500", "095913.647500", "095914.107500", "095914.567500", "095915.027500", "095915.487500", "095915.947500", "095916.407500", "095916.867500", "095917.327500", "095917.787500", "095918.247500", "095918.707500", "095919.167500", "095919.627500", "095920.087500", "095920.547500", "095921.007500", "095921.467500", "095921.927500", "095922.387500", "095922.847500", "095923.307500", "095923.767500", "095924.227500", "095924.687500", "095925.147500", "095925.607500", "095926.067500", "095926.527500", "095926.987500", "095927.447500", "095927.907500", "095928.367500", "095928.827500", "095929.287500", "095929.747500", "095930.207500", "095930.667500", "095931.127500", "095931.587500", "095932.047500", "095932.507500", "095932.967500", "095933.427500", "095933.887500", "095934.347500", "095934.807500", "095935.267500", "095935.727500", "095936.187500", "095936.647500", "095937.107500", "095937.567500", "095938.027500", "095938.487500", "095938.947500", "095939.407500", "095939.867500", "095940.327500", "095940.787500", "095941.247500", "095941.707500", "095942.167500", "095942.627500", "095943.087500", "095943.547500", "095944.007500", "095944.467500", "095944.927500", "095945.387500", "095945.847500", "095946.307500", "095946.767500", "095947.227500", "095947.687500", "095948.147500", "095948.607500", "095949.067500", "095949.527500", "095949.987500", "095950.447500", "095950.907500", "095951.367500", "095951.827500", "095952.287500", "095952.747500", "095953.207500", "095953.667500", "095954.127500", "095954.587500", "095955.047500", "095955.507500", "095955.967500", "095956.427500", "095956.887500", "095957.347500", "095957.807500", "095958.267500", "095958.727500", "095959.187500", "095959.647500", "100000.107500", "100000.567500", "100001.027500", "100001.487500", "100001.947500", "100002.407500", "100002.867500", "100003.327500", "100003.787500", "100004.247500", "100004.707500", "100005.167500", "100005.627500", "100006.087500", "100006.547500", "100007.007500", "100007.467500", "100007.927500", "100008.387500", "100008.847500", "100009.307500", "100009.767500", "100010.227500", "100010.687500", "100011.147500", "100011.607500", "100012.067500", "100012.527500", "100012.987500", "100013.447500", "100013.907500", "100014.367500", "100014.827500", "100015.287500", "100015.747500", "100016.207500", "100016.667500", "100017.127500", "100017.587500", "100018.047500", "100018.507500", "100018.967500", "100019.427500", "100019.887500", "100020.347500", "100020.807500", "100021.267500", "100021.727500", "100022.187500", "100022.647500", "100023.107500", "100023.567500", "100024.027500", "100024.487500", "100024.947500", "100025.407500", "100025.867500", "100026.327500", "100026.787500", "100027.247500", "100027.707500", "100028.167500", "100028.627500", "100029.087500", "100029.547500", "100030.007500", "100030.467500", "100030.927500", "100031.387500", "100031.847500", "100032.307500", "100032.767500", "100033.227500", "100033.687500", "100034.147500", "100034.607500", "100035.067500", "100035.527500", "100035.987500", "100036.447500", "100036.907500", "100037.367500", "100037.827500", "100038.287500", "100038.747500", "100039.207500", "100039.667500", "100040.127500", "100040.587500", "100041.047500", "100041.507500", "100041.967500", "100042.427500", "100042.887500", "100043.347500", "100043.807500", "100044.267500", "100044.727500", "100045.187500", "100045.647500", "100046.107500", "100046.567500", "100047.027500", "100047.487500", "100047.947500", "100048.407500", "100048.867500", "100049.327500", "100049.787500", "100050.247500", "100050.707500", "100051.167500", "100051.627500", "100052.087500", "100052.547500", "100053.007500", "100053.467500", "100053.927500", "100054.387500", "100054.847500", "100055.307500", "100055.767500", "100056.227500", "100056.687500", "100057.147500", "100057.607500", "100058.067500", "100058.527500", "100058.987500", "100059.447500", "100059.907500", "100100.367500", "100100.827500", "100101.287500", "100101.747500", "100102.207500", "100102.667500", "100103.127500", "100103.587500", "100104.047500", "100104.507500", "100104.967500", "100105.427500", "100105.887500", "100106.347500", "100106.807500", "100107.267500", "100107.727500", "100108.187500", "100108.647500", "100109.107500", "100109.567500", "100110.027500", "100110.487500", "100110.947500", "100111.407500", "100111.867500", "100112.327500", "100112.787500", "100113.247500", "100113.707500", "100114.167500", "100114.627500", "100115.087500", "100115.547500", "100116.007500", "100116.467500", "100116.927500", "100117.387500", "100117.847500", "100118.307500", "100118.767500", "100119.227500", "100119.687500", "100120.147500", "100120.607500", "100121.067500", "100121.527500", "100121.987500", "100122.447500", "100122.907500", "100123.367500", "100123.827500", "100124.287500", "100124.747500", "100125.207500", "100125.667500", "100126.127500", "100126.587500", "100127.047500", "100127.507500", "100127.967500", "100128.427500", "100128.887500", "100129.347500", "100129.807500", "100130.267500", "100130.727500", "100131.187500", "100131.647500", "100132.107500", "100132.567500", "100133.027500", "100133.487500", "100133.947500", "100134.407500", "100134.867500", "100135.327500", "100135.787500", "100136.247500", "100136.707500", "100137.167500", "100137.627500", "100138.087500", "100138.547500", "100139.007500", "100139.467500", "100139.927500", "100140.387500", "100140.847500", "100141.307500", "100141.767500", "100142.227500", "100142.687500", "100143.147500", "100143.607500", "100144.067500", "100144.527500", "100144.987500", "100145.447500", "100145.907500", "100146.367500", "100146.827500", "100147.287500", "100147.747500", "100148.207500", "100148.667500", "100149.127500", "100149.587500", "100150.047500", "100150.507500", "100150.967500", "100151.427500", "100151.887500", "100152.347500", "100152.807500", "100153.267500", "100153.727500", "100154.187500", "100154.647500", "100155.107500", "100155.567500", "100156.027500", "100156.487500", "100156.947500", "100157.407500", "100157.867500", "100158.327500", "100158.787500", "100159.247500", "100159.707500", "100200.167500", "100200.627500", "100201.087500", "100201.547500", "100202.007500", "100202.467500", "100202.927500", "100203.387500", "100203.847500", "100204.307500", "100204.767500", "100205.227500", "100205.687500", "100206.147500", "100206.607500", "100207.067500", "100207.527500", "100207.987500", "100208.447500", "100208.907500", "100209.367500", "100209.827500", "100210.287500", "100210.747500", "100211.207500", "100211.667500", "100212.127500", "100212.587500", "100213.047500", "100213.507500", "100213.967500", "100214.427500", "100214.887500", "100215.347500", "100215.807500", "100216.267500", "100216.727500", "100217.187500", "100217.647500", "100218.107500", "100218.567500", "100219.027500", "100219.487500", "100219.947500", "100220.407500", "100220.867500", "100221.327500", "100221.787500", "100222.247500", "100222.707500", "100223.167500", "100223.627500", "100224.087500", "100224.547500", "100225.007500", "100225.467500", "100225.927500", "100226.387500", "100226.847500", "100227.307500", "100227.767500", "100228.227500", "100228.687500", "100229.147500", "100229.607500", "100230.067500", "100230.527500", "100230.987500", "100231.447500", "100231.907500", "100232.367500", "100232.827500", "100233.287500", "100233.747500", "100234.207500", "100234.667500", "100235.127500", "100235.587500", "100236.047500", "100236.507500", "100236.967500", "100237.427500", "100237.887500", "100238.347500", "100238.807500", "100239.267500", "100239.727500", "100240.187500", "100240.647500", "100241.107500", "100241.567500", "100242.027500", "100242.487500", "100242.947500", "100243.407500", "100243.867500", "100244.327500", "100244.787500", "100245.247500", "100245.707500", "100246.167500", "100246.627500", "100247.087500", "100247.547500", "100248.007500", "100248.467500", "100248.927500", "100249.387500", "100249.847500", "100250.307500", "100250.767500", "100251.227500", "100251.687500", "100252.147500", "100252.607500", "100253.067500", "100253.527500", "100253.987500", "100254.447500", "100254.907500", "100255.367500", "100255.827500", "100256.287500", "100256.747500", "100257.207500", "100257.667500", "100258.127500", "100258.587500", "100259.047500", "100259.507500", "100259.967500", "100300.427500", "100300.887500", "100301.347500", "100301.807500", "100302.267500", "100302.727500", "100303.187500", "100303.647500", "100304.107500", "100304.567500", "100305.027500", "100305.487500", "100305.947500", "100306.407500", "100306.867500", "100307.327500", "100307.787500", "100308.247500", "100308.707500", "100309.167500", "100309.627500", "100310.087500", "100310.547500", "100311.007500", "100311.467500", "100311.927500", "100312.387500", "100312.847500", "100313.307500", "100313.767500", "100314.227500"],
