{
  "AcquisitionMatrixPE": 82,
  "AcquisitionNumber": 1,
  "AcquisitionTime": "10:29:29.287500",
  "BandwidthPerPixelPhaseEncode": 24.888,
  "BaseResolution": 82,
  "BodyPartExamined": "BRAIN",
  "ConsistencyInfo": "N4_VE11E_LATEST_20181129",
  "ConversionSoftware": "dcm2niix",
  "ConversionSoftwareVersion": "v1.0.20201102",
  "DerivedVendorReportedEchoSpacing": 0.00049,
  "DeviceSerialNumber": "66112",
  "DwellTime": 2e-06,
  "EchoTime": 0.0272,
  "EchoTrainLength": 82,
  "EffectiveEchoSpacing": 0.00049,
  "FlipAngle": 44,
  "ImageComments": "Unaliased MB8/PE3",
  "ImageOrientationPatientDICOM": [0.998003, 0.0530608, -0.0342663, -0.0528272, 0.998574, 0.00768901],
  "ImageType": [
    "ORIGINAL",
    "PRIMARY",
    "M",
    "MB",
    "ND",
    "NORM",
    "MOSAIC"
],
  "ImagingFrequency": 123.252,
  "InPlanePhaseEncodingDirectionDICOM": "COL",
  "InstitutionAddress": "Maynard 3,Hanover,NH,US,03755",
  "InstitutionName": "Dartmouth College - PBS",
  "InstitutionalDepartmentName": "Department",
  "MRAcquisitionType": "2D",
  "MagneticFieldStrength": 3,
  "Manufacturer": "Siemens",
  "ManufacturersModelName": "Prisma",
  "Modality": "MR",
  "MultibandAccelerationFactor": 8,
  "PartialFourier": 1,
  "PatientPosition": "HFS",
  "PercentPhaseFOV": 100,
  "PercentSampling": 100,
  "PhaseEncodingDirection": "j-",
  "PhaseEncodingSteps": 82,
  "PhaseResolution": 1,
  "PixelBandwidth": 3050,
  "ProcedureStepDescription": "Wager_Wager^1076_spacetop",
  "ProtocolName": "func_run-03_task-alignvideo_acq-ap-mb8",
  "PulseSequenceDetails": "%CustomerSeq%\\cmrr_mbep2d_bold",
  "ReceiveCoilActiveElements": "HEA;HEP",
  "ReceiveCoilName": "Head_32",
  "ReconMatrixPE": 82,
  "RepetitionTime": 0.46,
  "SAR": 0.0924696,
  "ScanOptions": "FS",
  "ScanningSequence": "EP",
  "SequenceName": "epfid2d1_82",
  "SequenceVariant": "SK\\SS",
  "SeriesDescription": "func_run-03_task-alignvideo_acq-ap-mb8",
  "SeriesNumber": 36,
  "ShimSetting": [4147, -7730, -7301, 513, -15, -101, 9, 65],
  "SliceThickness": 2.7,
  "SliceTiming": [0, 0.2525, 0.0625, 0.315, 0.125, 0.3775, 0.1875, 0, 0.2525, 0.0625, 0.315, 0.125, 0.3775, 0.1875, 0, 0.2525, 0.0625, 0.315, 0.125, 0.3775, 0.1875, 0, 0.2525, 0.0625, 0.315, 0.125, 0.3775, 0.1875, 0, 0.2525, 0.0625, 0.315, 0.125, 0.3775, 0.1875, 0, 0.2525, 0.0625, 0.315, 0.125, 0.3775, 0.1875, 0, 0.2525, 0.0625, 0.315, 0.125, 0.3775, 0.1875, 0, 0.2525, 0.0625, 0.315, 0.125, 0.3775, 0.1875],
  "SoftwareVersions": "syngo MR E11",
  "SpacingBetweenSlices": 2.7,
  "StationName": "AWP66112",
  "TaskName": "alignvideo",
  "TotalReadoutTime": 0.03969,
  "TxRefAmp": 257.392,
  "WipMemBlock": "b756d3d4-f8f2-417a-8c64-7f5b182b894d||Sequence: R016 ve11e/master r/434b28f1; Aug  7 2019 18:53:46 by eja",
  "dcmmeta_affine": [
    [-2.677569627761841, -0.14173144102096558, -0.09348876029253006, 118.23787689208984],
    [-0.14235830307006836, 2.6791012287139893, 0.015831358730793, -86.86625671386719],
    [-0.09193409979343414, -0.02062906138598919, 2.6983344554901123, -58.8945198059082],
    [0.0, 0.0, 0.0, 1.0]
],
  "dcmmeta_reorient_transform": [
    [0.0, -1.0, 0.0, 81.0],
    [1.0, 0.0, 0.0, 0.0],
    [0.0, 0.0, 1.0, 0.0],
    [0.0, 0.0, 0.0, 1.0]
],
  "dcmmeta_shape": [82, 82, 56, 1016],
  "dcmmeta_slice_dim": 2,
  "dcmmeta_version": 0.6,
  "global": {
    "const": {
      "AccessionNumber": "A003930",
      "AcquisitionMatrix": [82, 0, 0, 82],
      "AngioFlag": "N",
      "BitsAllocated": 16,
      "BitsStored": 16,
      "BodyPartExamined": "BRAIN",
      "Columns": 656,
      "EchoNumbers": 1,
      "EchoTime": 27.2,
      "EchoTrainLength": 82,
      "FlipAngle": 44.0,
      "HighBit": 15,
      "ImageOrientationPatient": [0.99800318992718, 0.05306081920419, -0.0342663444294, -0.0528271695132, 0.99857406797326, 0.00768901375702],
      "ImagePositionPatient": [-834.54318588418, -939.89982240497, -40.100927790255],
      "ImageType": [
        "ORIGINAL",
        "PRIMARY",
        "M",
        "MB",
        "ND",
        "NORM",
        "MOSAIC"
],
      "ImagedNucleus": "1H",
      "ImagingFrequency": 123.252192,
      "InPlanePhaseEncodingDirection": "COL",
      "MRAcquisitionType": "2D",
      "MagneticFieldStrength": 3.0,
      "Manufacturer": "SIEMENS",
      "ManufacturerModelName": "Prisma",
      "Modality": "MR",
      "NumberOfAverages": 1.0,
      "NumberOfPhaseEncodingSteps": 82,
      "PercentPhaseFieldOfView": 100.0,
      "PercentSampling": 100.0,
      "PerformedProcedureStepStartTime": "084529.773000",
      "PhotometricInterpretation": "MONOCHROME2",
      "PixelBandwidth": 3050.0,
      "PixelRepresentation": 0,
      "PixelSpacing": [2.6829268932343, 2.6829268932343],
      "ProtocolName": "func_run-03_task-alignvideo_acq-ap-mb8",
      "RepetitionTime": 460.0,
      "Rows": 656,
      "SAR": 0.09246957764918,
      "SamplesPerPixel": 1,
      "ScanOptions": "FS",
      "ScanningSequence": "EP",
      "SequenceName": "epfid2d1_82",
      "SequenceVariant": [
        "SK",
        "SS"
],
      "SeriesDescription": "func_run-03_task-alignvideo_acq-ap-mb8",
      "SeriesNumber": 36,
      "SeriesTime": "102956.814000",
      "SliceLocation": -63.461569595868,
      "SliceThickness": 2.7000000476837,
      "SmallestImagePixelValue": 0,
      "SoftwareVersions": "syngo MR E11",
      "SpacingBetweenSlices": 2.6999999763796,
      "SpecificCharacterSet": "ISO_IR 100",
      "StudyID": "1",
      "StudyTime": "084529.622000",
      "TransmitCoilName": "Body",
      "VariableFlipAngleFlag": "N",
      "WindowCenterWidthExplanation": "Algo1"
    },
    "slices": {}
  },
  "time": {
    "samples": {
      "AcquisitionNumber": [1, 2, 3, 4, 5, 6, 7, 8, 9, 10, 11, 12, 13, 14, 15, 16, 17, 18, 19, 20, 21, 22, 23, 24, 25, 26, 27, 28, 29, 30, 31, 32, 33, 34, 35, 36, 37, 38, 39, 40, 41, 42, 43, 44, 45, 46, 47, 48, 49, 50, 51, 52, 53, 54, 55, 56, 57, 58, 59, 60, 61, 62, 63, 64, 65, 66, 67, 68, 69, 70, 71, 72, 73, 74, 75, 76, 77, 78, 79, 80, 81, 82, 83, 84, 85, 86, 87, 88, 89, 90, 91, 92, 93, 94, 95, 96, 97, 98, 99, 100, 101, 102, 103, 104, 105, 106, 107, 108, 109, 110, 111, 112, 113, 114, 115, 116, 117, 118, 119, 120, 121, 122, 123, 124, 125, 126, 127, 128, 129, 130, 131, 132, 133, 134, 135, 136, 137, 138, 139, 140, 141, 142, 143, 144, 145, 146, 147, 148, 149, 150, 151, 152, 153, 154, 155, 156, 157, 158, 159, 160, 161, 162, 163, 164, 165, 166, 167, 168, 169, 170, 171, 172, 173, 174, 175, 176, 177, 178, 179, 180, 181, 182, 183, 184, 185, 186, 187, 188, 189, 190, 191, 192, 193, 194, 195, 196, 197, 198, 199, 200, 201, 202, 203, 204, 205, 206, 207, 208, 209, 210, 211, 212, 213, 214, 215, 216, 217, 218, 219, 220, 221, 222, 223, 224, 225, 226, 227, 228, 229, 230, 231, 232, 233, 234, 235, 236, 237, 238, 239, 240, 241, 242, 243, 244, 245, 246, 247, 248, 249, 250, 251, 252, 253, 254, 255, 256, 257, 258, 259, 260, 261, 262, 263, 264, 265, 266, 267, 268, 269, 270, 271, 272, 273, 274, 275, 276, 277, 278, 279, 280, 281, 282, 283, 284, 285, 286, 287, 288, 289, 290, 291, 292, 293, 294, 295, 296, 297, 298, 299, 300, 301, 302, 303, 304, 305, 306, 307, 308, 309, 310, 311, 312, 313, 314, 315, 316, 317, 318, 319, 320, 321, 322, 323, 324, 325, 326, 327, 328, 329, 330, 331, 332, 333, 334, 335, 336, 337, 338, 339, 340, 341, 342, 343, 344, 345, 346, 347, 348, 349, 350, 351, 352, 353, 354, 355, 356, 357, 358, 359, 360, 361, 362, 363, 364, 365, 366, 367, 368, 369, 370, 371, 372, 373, 374, 375, 376, 377, 378, 379, 380, 381, 382, 383, 384, 385, 386, 387, 388, 389, 390, 391, 392, 393, 394, 395, 396, 397, 398, 399, 400, 401, 402, 403, 404, 405, 406, 407, 408, 409, 410, 411, 412, 413, 414, 415, 416, 417, 418, 419, 420, 421, 422, 423, 424, 425, 426, 427, 428, 429, 430, 431, 432, 433, 434, 435, 436, 437, 438, 439, 440, 441, 442, 443, 444, 445, 446, 447, 448, 449, 450, 451, 452, 453, 454, 455, 456, 457, 458, 459, 460, 461, 462, 463, 464, 465, 466, 467, 468, 469, 470, 471, 472, 473, 474, 475, 476, 477, 478, 479, 480, 481, 482, 483, 484, 485, 486, 487, 488, 489, 490, 491, 492, 493, 494, 495, 496, 497, 498, 499, 500, 501, 502, 503, 504, 505, 506, 507, 508, 509, 510, 511, 512, 513, 514, 515, 516, 517, 518, 519, 520, 521, 522, 523, 524, 525, 526, 527, 528, 529, 530, 531, 532, 533, 534, 535, 536, 537, 538, 539, 540, 541, 542, 543, 544, 545, 546, 547, 548, 549, 550, 551, 552, 553, 554, 555, 556, 557, 558, 559, 560, 561, 562, 563, 564, 565, 566, 567, 568, 569, 570, 571, 572, 573, 574, 575, 576, 577, 578, 579, 580, 581, 582, 583, 584, 585, 586, 587, 588, 589, 590, 591, 592, 593, 594, 595, 596, 597, 598, 599, 600, 601, 602, 603, 604, 605, 606, 607, 608, 609, 610, 611, 612, 613, 614, 615, 616, 617, 618, 619, 620, 621, 622, 623, 624, 625, 626, 627, 628, 629, 630, 631, 632, 633, 634, 635, 636, 637, 638, 639, 640, 641, 642, 643, 644, 645, 646, 647, 648, 649, 650, 651, 652, 653, 654, 655, 656, 657, 658, 659, 660, 661, 662, 663, 664, 665, 666, 667, 668, 669, 670, 671, 672, 673, 674, 675, 676, 677, 678, 679, 680, 681, 682, 683, 684, 685, 686, 687, 688, 689, 690, 691, 692, 693, 694, 695, 696, 697, 698, 699, 700, 701, 702, 703, 704, 705, 706, 707, 708, 709, 710, 711, 712, 713, 714, 715, 716, 717, 718, 719, 720, 721, 722, 723, 724, 725, 726, 727, 728, 729, 730, 731, 732, 733, 734, 735, 736, 737, 738, 739, 740, 741, 742, 743, 744, 745, 746, 747, 748, 749, 750, 751, 752, 753, 754, 755, 756, 757, 758, 759, 760, 761, 762, 763, 764, 765, 766, 767, 768, 769, 770, 771, 772, 773, 774, 775, 776, 777, 778, 779, 780, 781, 782, 783, 784, 785, 786, 787, 788, 789, 790, 791, 792, 793, 794, 795, 796, 797, 798, 799, 800, 801, 802, 803, 804, 805, 806, 807, 808, 809, 810, 811, 812, 813, 814, 815, 816, 817, 818, 819, 820, 821, 822, 823, 824, 825, 826, 827, 828, 829, 830, 831, 832, 833, 834, 835, 836, 837, 838, 839, 840, 841, 842, 843, 844, 845, 846, 847, 848, 849, 850, 851, 852, 853, 854, 855, 856, 857, 858, 859, 860, 861, 862, 863, 864, 865, 866, 867, 868, 869, 870, 871, 872, 873, 874, 875, 876, 877, 878, 879, 880, 881, 882, 883, 884, 885, 886, 887, 888, 889, 890, 891, 892, 893, 894, 895, 896, 897, 898, 899, 900, 901, 902, 903, 904, 905, 906, 907, 908, 909, 910, 911, 912, 913, 914, 915, 916, 917, 918, 919, 920, 921, 922, 923, 924, 925, 926, 927, 928, 929, 930, 931, 932, 933, 934, 935, 936, 937, 938, 939, 940, 941, 942, 943, 944, 945, 946, 947, 948, 949, 950, 951, 952, 953, 954, 955, 956, 957, 958, 959, 960, 961, 962, 963, 964, 965, 966, 967, 968, 969, 970, 971, 972, 973, 974, 975, 976, 977, 978, 979, 980, 981, 982, 983, 984, 985, 986, 987, 988, 989, 990, 991, 992, 993, 994, 995, 996, 997, 998, 999, 1000, 1001, 1002, 1003, 1004, 1005, 1006, 1007, 1008, 1009, 1010, 1011, 1012, 1013, 1014, 1015, 1016],
      "AcquisitionTime": ["102929.287500", "102929.747500", "102930.207500", "102930.667500", "102931.127500", "102931.587500", "102932.047500", "102932.507500", "102932.967500", "102933.427500", "102933.887500", "102934.347500", "102934.807500", "102935.267500", "102935.727500", "102936.187500", "102936.647500", "102937.107500", "102937.567500", "102938.027500", "102938.487500", "102938.947500", "102939.407500", "102939.867500", "102940.327500", "102940.787500", "102941.247500", "102941.707500", "102942.167500", "102942.627500", "102943.087500", "102943.547500", "102944.007500", "102944.467500", "102944.927500", "102945.387500", "102945.847500", "102946.307500", "102946.767500", "102947.227500", "102947.687500", "102948.147500", "102948.607500", "102949.067500", "102949.527500", "102949.987500", "102950.447500", "102950.907500", "102951.367500", "102951.827500", "102952.287500", "102952.747500", "102953.207500", "102953.667500", "102954.127500", "102954.587500", "102955.047500", "102955.507500", "102955.967500", "102956.427500", "102956.887500", "102957.347500", "102957.807500", "102958.267500", "102958.727500", "102959.187500", "102959.647500", "103000.107500", "103000.567500", "103001.027500", "103001.487500", "103001.947500", "103002.407500", "103002.867500", "103003.327500", "103003.787500", "103004.247500", "103004.707500", "103005.167500", "103005.627500", "103006.087500", "103006.547500", "103007.007500", "103007.467500", "103007.927500", "103008.387500", "103008.847500", "103009.307500", "103009.767500", "103010.227500", "103010.687500", "103011.147500", "103011.607500", "103012.067500", "103012.527500", "103012.987500", "103013.447500", "103013.907500", "103014.367500", "103014.827500", "103015.287500", "103015.747500", "103016.207500", "103016.667500", "103017.127500", "103017.587500", "103018.047500", "103018.507500", "103018.967500", "103019.427500", "103019.887500", "103020.347500", "103020.807500", "103021.267500", "103021.727500", "103022.187500", "103022.647500", "103023.107500", "103023.567500", "103024.027500", "103024.487500", "103024.947500", "103025.407500", "103025.867500", "103026.327500", "103026.787500", "103027.247500", "103027.707500", "103028.167500", "103028.627500", "103029.087500", "103029.547500", "103030.007500", "103030.467500", "103030.927500", "103031.387500", "103031.847500", "103032.307500", "103032.767500", "103033.227500", "103033.687500", "103034.147500", "103034.607500", "103035.067500", "103035.527500", "103035.987500", "103036.447500", "103036.907500", "103037.367500", "103037.827500", "103038.287500", "103038.747500", "103039.207500", "103039.667500", "103040.127500", "103040.587500", "103041.047500", "103041.507500", "103041.967500", "103042.427500", "103042.887500", "103043.347500", "103043.807500", "103044.267500", "103044.727500", "103045.187500", "103045.647500", "103046.107500", "103046.567500", "103047.027500", "103047.487500", "103047.947500", "103048.407500", "103048.867500", "103049.327500", "103049.787500", "103050.247500", "103050.707500", "103051.167500", "103051.627500", "103052.087500", "103052.547500", "103053.007500", "103053.467500", "103053.927500", "103054.387500", "103054.847500", "103055.307500", "103055.767500", "103056.227500", "103056.687500", "103057.147500", "103057.607500", "103058.067500", "103058.527500", "103058.987500", "103059.447500", "103059.907500", "103100.367500", "103100.827500", "103101.287500", "103101.747500", "103102.207500", "103102.667500", "103103.127500", "103103.587500", "103104.047500", "103104.507500", "103104.967500", "103105.427500", "103105.887500", "103106.347500", "103106.807500", "103107.267500", "103107.727500", "103108.187500", "103108.647500", "103109.107500", "103109.567500", "103110.027500", "103110.487500", "103110.947500", "103111.407500", "103111.867500", "103112.327500", "103112.787500", "103113.247500", "103113.707500", "103114.167500", "103114.627500", "103115.087500", "103115.547500", "103116.007500", "103116.467500", "103116.927500", "103117.387500", "103117.847500", "103118.307500", "103118.767500", "103119.227500", "103119.687500", "103120.147500", "103120.607500", "103121.067500", "103121.527500", "103121.987500", "103122.447500", "103122.907500", "103123.367500", "103123.827500", "103124.287500", "103124.747500", "103125.207500", "103125.667500", "103126.127500", "103126.587500", "103127.047500", "103127.507500", "103127.967500", "103128.427500", "103128.887500", "103129.347500", "103129.807500", "103130.267500", "103130.727500", "103131.187500", "103131.647500", "103132.107500", "103132.567500", "103133.027500", "103133.487500", "103133.947500", "103134.407500", "103134.867500", "103135.327500", "103135.787500", "103136.247500", "103136.707500", "103137.167500", "103137.627500", "103138.087500", "103138.547500", "103139.007500", "103139.467500", "103139.927500", "103140.387500", "103140.847500", "103141.307500", "103141.767500", "103142.227500", "103142.687500", "103143.147500", "103143.607500", "103144.067500", "103144.527500", "103144.987500", "103145.447500", "103145.907500", "103146.367500", "103146.827500", "103147.287500", "103147.747500", "103148.207500", "103148.667500", "103149.127500", "103149.587500", "103150.047500", "103150.507500", "103150.967500", "103151.427500", "103151.887500", "103152.347500", "103152.807500", "103153.267500", "103153.727500", "103154.187500", "103154.647500", "103155.107500", "103155.567500", "103156.027500", "103156.487500", "103156.947500", "103157.407500", "103157.867500", "103158.327500", "103158.787500", "103159.247500", "103159.707500", "103200.167500", "103200.627500", "103201.087500", "103201.547500", "103202.007500", "103202.467500", "103202.927500", "103203.387500", "103203.847500", "103204.307500", "103204.767500", "103205.227500", "103205.687500", "103206.147500", "103206.607500", "103207.067500", "103207.527500", "103207.987500", "103208.447500", "103208.907500", "103209.367500", "103209.827500", "103210.287500", "103210.747500", "103211.207500", "103211.667500", "103212.127500", "103212.587500", "103213.047500", "103213.507500", "103213.967500", "103214.427500", "103214.887500", "103215.347500", "103215.807500", "103216.267500", "103216.727500", "103217.187500", "103217.647500", "103218.107500", "103218.567500", "103219.027500", "103219.487500", "103219.947500", "103220.407500", "103220.867500", "103221.327500", "103221.787500", "103222.247500", "103222.707500", "103223.167500", "103223.627500", "103224.087500", "103224.547500", "103225.007500", "103225.467500", "103225.927500", "103226.387500", "103226.847500", "103227.307500", "103227.767500", "103228.227500", "103228.687500", "103229.147500", "103229.607500", "103230.067500", "103230.527500", "103230.987500", "103231.447500", "103231.907500", "103232.367500", "103232.827500", "103233.287500", "103233.747500", "103234.207500", "103234.667500", "103235.127500", "103235.587500", "103236.047500", "103236.507500", "103236.967500", "103237.427500", "103237.887500", "103238.347500", "103238.807500", "103239.267500", "103239.727500", "103240.187500", "103240.647500", "103241.107500", "103241.567500", "103242.027500", "103242.487500", "103242.947500", "103243.407500", "103243.867500", "103244.327500", "103244.787500", "103245.247500", "103245.707500", "103246.167500", "103246.627500", "103247.087500", "103247.547500", "103248.007500", "103248.467500", "103248.927500", "103249.387500", "103249.847500", "103250.307500", "103250.767500", "103251.227500", "103251.687500", "103252.147500", "103252.607500", "103253.067500", "103253.527500", "103253.987500", "103254.447500", "103254.907500", "103255.367500", "103255.827500", "103256.287500", "103256.747500", "103257.207500", "103257.667500", "103258.127500", "103258.587500", "103259.047500", "103259.507500", "103259.967500", "103300.427500", "103300.887500", "103301.347500", "103301.807500", "103302.267500", "103302.727500", "103303.187500", "103303.647500", "103304.107500", "103304.567500", "103305.027500", "103305.487500", "103305.947500", "103306.407500", "103306.867500", "103307.327500", "103307.787500", "103308.247500", "103308.707500", "103309.167500", "103309.627500", "103310.087500", "103310.547500", "103311.007500", "103311.467500", "103311.927500", "103312.387500", "103312.847500", "103313.307500", "103313.767500", "103314.227500", "103314.687500", "103315.147500", "103315.607500", "103316.067500", "103316.527500", "103316.987500", "103317.447500", "103317.907500", "103318.367500", "103318.827500", "103319.287500", "103319.747500", "103320.207500", "103320.667500", "103321.127500", "103321.587500", "103322.047500", "103322.507500", "103322.967500", "103323.427500", "103323.887500", "103324.347500", "103324.807500", "103325.267500", "103325.727500", "103326.187500", "103326.647500", "103327.107500", "103327.567500", "103328.027500", "103328.487500", "103328.947500", "103329.407500", "103329.867500", "103330.327500", "103330.787500", "103331.247500", "103331.707500", "103332.167500", "103332.627500", "103333.087500", "103333.547500", "103334.007500", "103334.467500", "103334.927500", "103335.387500", "103335.847500", "103336.307500", "103336.767500", "103337.227500", "103337.687500", "103338.147500", "103338.607500", "103339.067500", "103339.527500", "103339.987500", "103340.447500", "103340.907500", "103341.367500", "103341.827500", "103342.287500", "103342.747500", "103343.207500", "103343.667500", "103344.127500", "103344.587500", "103345.047500", "103345.507500", "103345.967500", "103346.427500", "103346.887500", "103347.347500", "103347.807500", "103348.267500", "103348.727500", "103349.187500", "103349.647500", "103350.107500", "103350.567500", "103351.027500", "103351.487500", "103351.947500", "103352.407500", "103352.867500", "103353.327500", "103353.787500", "103354.247500", "103354.707500", "103355.167500", "103355.627500", "103356.087500", "103356.547500", "103357.007500", "103357.467500", "103357.927500", "103358.387500", "103358.847500", "103359.307500", "103359.767500", "103400.227500", "103400.687500", "103401.147500", "103401.607500", "103402.067500", "103402.527500", "103402.987500", "103403.447500", "103403.907500", "103404.367500", "103404.827500", "103405.287500", "103405.747500", "103406.207500", "103406.667500", "103407.127500", "103407.587500", "103408.047500", "103408.507500", "103408.967500", "103409.427500", "103409.887500", "103410.347500", "103410.807500", "103411.267500", "103411.727500", "103412.187500", "103412.647500", "103413.107500", "103413.567500", "103414.027500", "103414.487500", "103414.947500", "103415.407500", "103415.867500", "103416.327500", "103416.787500", "103417.247500", "103417.707500", "103418.167500", "103418.627500", "103419.087500", "103419.547500", "103420.007500", "103420.467500", "103420.927500", "103421.387500", "103421.847500", "103422.307500", "103422.767500", "103423.227500", "103423.687500", "103424.147500", "103424.607500", "103425.067500", "103425.527500", "103425.987500", "103426.447500", "103426.907500", "103427.367500", "103427.827500", "103428.287500", "103428.747500", "103429.207500", "103429.667500", "103430.127500", "103430.587500", "103431.047500", "103431.507500", "103431.967500", "103432.427500", "103432.887500", "103433.347500", "103433.807500", "103434.267500", "103434.727500", "103435.187500", "103435.647500", "103436.107500", "103436.567500", "103437.027500", "103437.487500", "103437.947500", "103438.407500", "103438.867500", "103439.327500", "103439.787500", "103440.247500", "103440.707500", "103441.167500", "103441.627500", "103442.087500", "103442.547500", "103443.007500", "103443.467500", "103443.927500", "103444.387500", "103444.847500", "103445.307500", "103445.767500", "103446.227500", "103446.687500", "103447.147500", "103447.607500", "103448.067500", "103448.527500", "103448.987500", "103449.447500", "103449.907500", "103450.367500", "103450.827500", "103451.287500", "103451.747500", "103452.207500", "103452.667500", "103453.127500", "103453.587500", "103454.047500", "103454.507500", "103454.967500", "103455.427500", "103455.887500", "103456.347500", "103456.807500", "103457.267500", "103457.727500", "103458.187500", "103458.647500", "103459.107500", "103459.567500", "103500.027500", "103500.487500", "103500.947500", "103501.407500", "103501.867500", "103502.327500", "103502.787500", "103503.247500", "103503.707500", "103504.167500", "103504.627500", "103505.087500", "103505.547500", "103506.007500", "103506.467500", "103506.927500", "103507.387500", "103507.847500", "103508.307500", "103508.767500", "103509.227500", "103509.687500", "103510.147500", "103510.607500", "103511.067500", "103511.527500", "103511.987500", "103512.447500", "103512.907500", "103513.367500", "103513.827500", "103514.287500", "103514.747500", "103515.207500", "103515.667500", "103516.127500", "103516.587500", "103517.047500", "103517.507500", "103517.967500", "103518.427500", "103518.887500", "103519.347500", "103519.807500", "103520.267500", "103520.727500", "103521.187500", "103521.647500", "103522.107500", "103522.567500", "103523.027500", "103523.487500", "103523.947500", "103524.407500", "103524.867500", "103525.327500", "103525.787500", "103526.247500", "103526.707500", "103527.167500", "103527.627500", "103528.087500", "103528.547500", "103529.007500", "103529.467500", "103529.927500", "103530.387500", "103530.847500", "103531.307500", "103531.767500", "103532.227500", "103532.687500", "103533.147500", "103533.607500", "103534.067500", "103534.527500", "103534.987500", "103535.447500", "103535.907500", "103536.367500", "103536.827500", "103537.287500", "103537.747500", "103538.207500", "103538.667500", "103539.127500", "103539.587500", "103540.047500", "103540.507500", "103540.967500", "103541.427500", "103541.887500", "103542.347500", "103542.807500", "103543.267500", "103543.727500", "103544.187500", "103544.647500", "103545.107500", "103545.567500", "103546.027500", "103546.487500", "103546.947500", "103547.407500", "103547.867500", "103548.327500", "103548.787500", "103549.247500", "103549.707500", "103550.167500", "103550.627500", "103551.087500", "103551.547500", "103552.007500", "103552.467500", "103552.927500", "103553.387500", "103553.847500", "103554.307500", "103554.767500", "103555.227500", "103555.687500", "103556.147500", "103556.607500", "103557.067500", "103557.527500", "103557.987500", "103558.447500", "103558.907500", "103559.367500", "103559.827500", "103600.287500", "103600.747500", "103601.207500", "103601.667500", "103602.127500", "103602.587500", "103603.047500", "103603.507500", "103603.967500", "103604.427500", "103604.887500", "103605.347500", "103605.807500", "103606.267500", "103606.727500", "103607.187500", "103607.647500", "103608.107500", "103608.567500", "103609.027500", "103609.487500", "103609.947500", "103610.407500", "103610.867500", "103611.327500", "103611.787500", "103612.247500", "103612.707500", "103613.167500", "103613.627500", "103614.087500", "103614.547500", "103615.007500", "103615.467500", "103615.927500", "103616.387500", "103616.847500", "103617.307500", "103617.767500", "103618.227500", "103618.687500", "103619.147500", "103619.607500", "103620.067500", "103620.527500", "103620.987500", "103621.447500", "103621.907500", "103622.367500", "103622.827500", "103623.287500", "103623.747500", "103624.207500", "103624.667500", "103625.127500", "103625.587500", "103626.047500", "103626.507500", "103626.967500", "103627.427500", "103627.887500", "103628.347500", "103628.807500", "103629.267500", "103629.727500", "103630.187500", "103630.647500", "103631.107500", "103631.567500", "103632.027500", "103632.487500", "103632.947500", "103633.407500", "103633.867500", "103634.327500", "103634.787500", "103635.247500", "103635.707500", "103636.167500", "103636.627500", "103637.087500", "103637.547500", "103638.007500", "103638.467500", "103638.927500", "103639.387500", "103639.847500", "103640.307500", "103640.767500", "103641.227500", "103641.687500", "103642.147500", "103642.607500", "103643.067500", "103643.527500", "103643.987500", "103644.447500", "103644.907500", "103645.367500", "103645.827500", "103646.287500", "103646.747500", "103647.207500", "103647.667500", "103648.127500", "103648.587500", "103649.047500", "103649.507500", "103649.967500", "103650.427500", "103650.887500", "103651.347500", "103651.807500", "103652.267500", "103652.727500", "103653.187500", "103653.647500", "103654.107500", "103654.567500", "103655.027500", "103655.487500", "103655.947500", "103656.407500", "103656.867500", "103657.327500", "103657.787500", "103658.247500", "103658.707500", "103659.167500", "103659.627500", "103700.087500", "103700.547500", "103701.007500", "103701.467500", "103701.927500", "103702.387500", "103702.847500", "103703.307500", "103703.767500", "103704.227500", "103704.687500", "103705.147500", "103705.607500", "103706.067500", "103706.527500", "103706.987500", "103707.447500", "103707.907500", "103708.367500", "103708.827500", "103709.287500", "103709.747500", "103710.207500", "103710.667500", "103711.127500", "103711.587500", "103712.047500", "103712.507500", "103712.967500", "103713.427500", "103713.887500", "103714.347500", "103714.807500", "103715.267500", "103715.727500", "103716.187500"],
