{
  "AcquisitionMatrixPE": 82,
  "AcquisitionNumber": 1,
  "AcquisitionTime": "09:33:19.350000",
  "BandwidthPerPixelPhaseEncode": 24.888,
  "BaseResolution": 82,
  "BodyPartExamined": "BRAIN",
  "ConsistencyInfo": "N4_VE11E_LATEST_20181129",
  "ConversionSoftware": "dcm2niix",
  "ConversionSoftwareVersion": "v1.0.20201102",
  "DerivedVendorReportedEchoSpacing": 0.00049,
  "DeviceSerialNumber": "66112",
  "DwellTime": 2e-06,
  "EchoTime": 0.0272,
  "EchoTrainLength": 82,
  "EffectiveEchoSpacing": 0.00049,
  "FlipAngle": 44,
  "ImageComments": "Unaliased MB8/PE3",
  "ImageOrientationPatientDICOM": [0.997458, 0.0640278, -0.0312827, -0.0634538, 0.997804, 0.0190092],
  "ImageType": [
    "ORIGINAL",
    "PRIMARY",
    "M",
    "MB",
    "ND",
    "NORM",
    "MOSAIC"
],
  "ImagingFrequency": 123.252,
  "InPlanePhaseEncodingDirectionDICOM": "COL",
  "InstitutionAddress": "Maynard 3,Hanover,NH,US,03755",
  "InstitutionName": "Dartmouth College - PBS",
  "InstitutionalDepartmentName": "Department",
  "MRAcquisitionType": "2D",
  "MagneticFieldStrength": 3,
  "Manufacturer": "Siemens",
  "ManufacturersModelName": "Prisma",
  "Modality": "MR",
  "MultibandAccelerationFactor": 8,
  "PartialFourier": 1,
  "PatientPosition": "HFS",
  "PercentPhaseFOV": 100,
  "PercentSampling": 100,
  "PhaseEncodingDirection": "j-",
  "PhaseEncodingSteps": 82,
  "PhaseResolution": 1,
  "PixelBandwidth": 3050,
  "ProcedureStepDescription": "Wager_Wager^1076_spacetop",
  "ProtocolName": "func_run-03_task-social_acq-ap-mb8",
  "PulseSequenceDetails": "%CustomerSeq%\\cmrr_mbep2d_bold",
  "ReceiveCoilActiveElements": "HEA;HEP",
  "ReceiveCoilName": "Head_32",
  "ReconMatrixPE": 82,
  "RepetitionTime": 0.46,
  "SAR": 0.0923881,
  "ScanOptions": "FS",
  "ScanningSequence": "EP",
  "SequenceName": "epfid2d1_82",
  "SequenceVariant": "SK\\SS",
  "SeriesDescription": "func_run-03_task-social_acq-ap-mb8",
  "SeriesNumber": 18,
  "ShimSetting": [4146, -7730, -7303, 507, -14, -111, 8, 59],
  "SliceThickness": 2.7,
  "SliceTiming": [0, 0.2525, 0.065, 0.315, 0.1275, 0.3775, 0.19, 0, 0.2525, 0.065, 0.315, 0.1275, 0.3775, 0.19, 0, 0.2525, 0.065, 0.315, 0.1275, 0.3775, 0.19, 0, 0.2525, 0.065, 0.315, 0.1275, 0.3775, 0.19, 0, 0.2525, 0.065, 0.315, 0.1275, 0.3775, 0.19, 0, 0.2525, 0.065, 0.315, 0.1275, 0.3775, 0.19, 0, 0.2525, 0.065, 0.315, 0.1275, 0.3775, 0.19, 0, 0.2525, 0.065, 0.315, 0.1275, 0.3775, 0.19],
  "SoftwareVersions": "syngo MR E11",
  "SpacingBetweenSlices": 2.7,
  "StationName": "AWP66112",
  "TaskName": "social",
  "TotalReadoutTime": 0.03969,
  "TxRefAmp": 257.392,
  "WipMemBlock": "4a8d3468-ac2c-4f50-9ac2-36c7d550a5d0||Sequence: R016 ve11e/master r/434b28f1; Aug  7 2019 18:53:46 by eja",
  "dcmmeta_affine": [
    [-2.6761059761047363, -0.17024198174476624, -0.0875638872385025, 118.6890640258789],
    [-0.17178186774253845, 2.677034378051758, 0.045834723860025406, -86.10443878173828],
    [-0.08392909914255142, -0.05100017413496971, 2.698190450668335, -59.25601577758789],
    [0.0, 0.0, 0.0, 1.0]
],
  "dcmmeta_reorient_transform": [
    [0.0, -1.0, 0.0, 81.0],
    [1.0, 0.0, 0.0, 0.0],
    [0.0, 0.0, 1.0, 0.0],
    [0.0, 0.0, 0.0, 1.0]
],
  "dcmmeta_shape": [82, 82, 56, 872],
  "dcmmeta_slice_dim": 2,
  "dcmmeta_version": 0.6,
  "global": {
    "const": {
      "AccessionNumber": "A003930",
      "AcquisitionMatrix": [82, 0, 0, 82],
      "AngioFlag": "N",
      "BitsAllocated": 16,
      "BitsStored": 16,
      "BodyPartExamined": "BRAIN",
      "Columns": 656,
      "EchoNumbers": 1,
      "EchoTime": 27.2,
      "EchoTrainLength": 82,
      "FlipAngle": 44.0,
      "HighBit": 15,
      "ImageOrientationPatient": [0.99745768707285, 0.06402778732787, -0.0312826621179, -0.0634538268871, 0.99780372011072, 0.01900915533619],
      "ImagePositionPatient": [-824.08245128869, -948.34563439841, -53.936427727205],
      "ImageType": [
        "ORIGINAL",
        "PRIMARY",
        "M",
        "MB",
        "ND",
        "NORM",
        "MOSAIC"
],
      "ImagedNucleus": "1H",
      "ImagingFrequency": 123.252187,
      "InPlanePhaseEncodingDirection": "COL",
      "MRAcquisitionType": "2D",
      "MagneticFieldStrength": 3.0,
      "Manufacturer": "SIEMENS",
      "ManufacturerModelName": "Prisma",
      "Modality": "MR",
      "NumberOfAverages": 1.0,
      "NumberOfPhaseEncodingSteps": 82,
      "PercentPhaseFieldOfView": 100.0,
      "PercentSampling": 100.0,
      "PerformedProcedureStepStartTime": "084529.773000",
      "PhotometricInterpretation": "MONOCHROME2",
      "PixelBandwidth": 3050.0,
      "PixelRepresentation": 0,
      "PixelSpacing": [2.6829268932343, 2.6829268932343],
      "ProtocolName": "func_run-03_task-social_acq-ap-mb8",
      "RepetitionTime": 460.0,
      "Rows": 656,
      "SAR": 0.09238811516265,
      "SamplesPerPixel": 1,
      "ScanOptions": "FS",
      "ScanningSequence": "EP",
      "SequenceName": "epfid2d1_82",
      "SequenceVariant": [
        "SK",
        "SS"
],
      "SeriesDescription": "func_run-03_task-social_acq-ap-mb8",
      "SeriesNumber": 18,
      "SeriesTime": "093336.983000",
      "SliceLocation": -64.527207696844,
      "SliceThickness": 2.7000000476837,
      "SmallestImagePixelValue": 0,
      "SoftwareVersions": "syngo MR E11",
      "SpacingBetweenSlices": 2.6999999892118,
      "SpecificCharacterSet": "ISO_IR 100",
      "StudyID": "1",
      "StudyTime": "084529.622000",
      "TransmitCoilName": "Body",
      "VariableFlipAngleFlag": "N",
      "WindowCenterWidthExplanation": "Algo1"
    },
    "slices": {}
  },
  "time": {
    "samples": {
      "AcquisitionNumber": [1, 2, 3, 4, 5, 6, 7, 8, 9, 10, 11, 12, 13, 14, 15, 16, 17, 18, 19, 20, 21, 22, 23, 24, 25, 26, 27, 28, 29, 30, 31, 32, 33, 34, 35, 36, 37, 38, 39, 40, 41, 42, 43, 44, 45, 46, 47, 48, 49, 50, 51, 52, 53, 54, 55, 56, 57, 58, 59, 60, 61, 62, 63, 64, 65, 66, 67, 68, 69, 70, 71, 72, 73, 74, 75, 76, 77, 78, 79, 80, 81, 82, 83, 84, 85, 86, 87, 88, 89, 90, 91, 92, 93, 94, 95, 96, 97, 98, 99, 100, 101, 102, 103, 104, 105, 106, 107, 108, 109, 110, 111, 112, 113, 114, 115, 116, 117, 118, 119, 120, 121, 122, 123, 124, 125, 126, 127, 128, 129, 130, 131, 132, 133, 134, 135, 136, 137, 138, 139, 140, 141, 142, 143, 144, 145, 146, 147, 148, 149, 150, 151, 152, 153, 154, 155, 156, 157, 158, 159, 160, 161, 162, 163, 164, 165, 166, 167, 168, 169, 170, 171, 172, 173, 174, 175, 176, 177, 178, 179, 180, 181, 182, 183, 184, 185, 186, 187, 188, 189, 190, 191, 192, 193, 194, 195, 196, 197, 198, 199, 200, 201, 202, 203, 204, 205, 206, 207, 208, 209, 210, 211, 212, 213, 214, 215, 216, 217, 218, 219, 220, 221, 222, 223, 224, 225, 226, 227, 228, 229, 230, 231, 232, 233, 234, 235, 236, 237, 238, 239, 240, 241, 242, 243, 244, 245, 246, 247, 248, 249, 250, 251, 252, 253, 254, 255, 256, 257, 258, 259, 260, 261, 262, 263, 264, 265, 266, 267, 268, 269, 270, 271, 272, 273, 274, 275, 276, 277, 278, 279, 280, 281, 282, 283, 284, 285, 286, 287, 288, 289, 290, 291, 292, 293, 294, 295, 296, 297, 298, 299, 300, 301, 302, 303, 304, 305, 306, 307, 308, 309, 310, 311, 312, 313, 314, 315, 316, 317, 318, 319, 320, 321, 322, 323, 324, 325, 326, 327, 328, 329, 330, 331, 332, 333, 334, 335, 336, 337, 338, 339, 340, 341, 342, 343, 344, 345, 346, 347, 348, 349, 350, 351, 352, 353, 354, 355, 356, 357, 358, 359, 360, 361, 362, 363, 364, 365, 366, 367, 368, 369, 370, 371, 372, 373, 374, 375, 376, 377, 378, 379, 380, 381, 382, 383, 384, 385, 386, 387, 388, 389, 390, 391, 392, 393, 394, 395, 396, 397, 398, 399, 400, 401, 402, 403, 404, 405, 406, 407, 408, 409, 410, 411, 412, 413, 414, 415, 416, 417, 418, 419, 420, 421, 422, 423, 424, 425, 426, 427, 428, 429, 430, 431, 432, 433, 434, 435, 436, 437, 438, 439, 440, 441, 442, 443, 444, 445, 446, 447, 448, 449, 450, 451, 452, 453, 454, 455, 456, 457, 458, 459, 460, 461, 462, 463, 464, 465, 466, 467, 468, 469, 470, 471, 472, 473, 474, 475, 476, 477, 478, 479, 480, 481, 482, 483, 484, 485, 486, 487, 488, 489, 490, 491, 492, 493, 494, 495, 496, 497, 498, 499, 500, 501, 502, 503, 504, 505, 506, 507, 508, 509, 510, 511, 512, 513, 514, 515, 516, 517, 518, 519, 520, 521, 522, 523, 524, 525, 526, 527, 528, 529, 530, 531, 532, 533, 534, 535, 536, 537, 538, 539, 540, 541, 542, 543, 544, 545, 546, 547, 548, 549, 550, 551, 552, 553, 554, 555, 556, 557, 558, 559, 560, 561, 562, 563, 564, 565, 566, 567, 568, 569, 570, 571, 572, 573, 574, 575, 576, 577, 578, 579, 580, 581, 582, 583, 584, 585, 586, 587, 588, 589, 590, 591, 592, 593, 594, 595, 596, 597, 598, 599, 600, 601, 602, 603, 604, 605, 606, 607, 608, 609, 610, 611, 612, 613, 614, 615, 616, 617, 618, 619, 620, 621, 622, 623, 624, 625, 626, 627, 628, 629, 630, 631, 632, 633, 634, 635, 636, 637, 638, 639, 640, 641, 642, 643, 644, 645, 646, 647, 648, 649, 650, 651, 652, 653, 654, 655, 656, 657, 658, 659, 660, 661, 662, 663, 664, 665, 666, 667, 668, 669, 670, 671, 672, 673, 674, 675, 676, 677, 678, 679, 680, 681, 682, 683, 684, 685, 686, 687, 688, 689, 690, 691, 692, 693, 694, 695, 696, 697, 698, 699, 700, 701, 702, 703, 704, 705, 706, 707, 708, 709, 710, 711, 712, 713, 714, 715, 716, 717, 718, 719, 720, 721, 722, 723, 724, 725, 726, 727, 728, 729, 730, 731, 732, 733, 734, 735, 736, 737, 738, 739, 740, 741, 742, 743, 744, 745, 746, 747, 748, 749, 750, 751, 752, 753, 754, 755, 756, 757, 758, 759, 760, 761, 762, 763, 764, 765, 766, 767, 768, 769, 770, 771, 772, 773, 774, 775, 776, 777, 778, 779, 780, 781, 782, 783, 784, 785, 786, 787, 788, 789, 790, 791, 792, 793, 794, 795, 796, 797, 798, 799, 800, 801, 802, 803, 804, 805, 806, 807, 808, 809, 810, 811, 812, 813, 814, 815, 816, 817, 818, 819, 820, 821, 822, 823, 824, 825, 826, 827, 828, 829, 830, 831, 832, 833, 834, 835, 836, 837, 838, 839, 840, 841, 842, 843, 844, 845, 846, 847, 848, 849, 850, 851, 852, 853, 854, 855, 856, 857, 858, 859, 860, 861, 862, 863, 864, 865, 866, 867, 868, 869, 870, 871, 872],
      "AcquisitionTime": ["093319.350000", "093319.810000", "093320.270000", "093320.730000", "093321.190000", "093321.650000", "093322.110000", "093322.570000", "093323.030000", "093323.490000", "093323.950000", "093324.410000", "093324.870000", "093325.330000", "093325.790000", "093326.250000", "093326.710000", "093327.170000", "093327.630000", "093328.090000", "093328.550000", "093329.010000", "093329.470000", "093329.930000", "093330.390000", "093330.850000", "093331.310000", "093331.770000", "093332.230000", "093332.690000", "093333.150000", "093333.610000", "093334.070000", "093334.530000", "093334.990000", "093335.450000", "093335.910000", "093336.370000", "093336.830000", "093337.290000", "093337.750000", "093338.210000", "093338.670000", "093339.130000", "093339.590000", "093340.050000", "093340.510000", "093340.970000", "093341.430000", "093341.890000", "093342.350000", "093342.810000", "093343.270000", "093343.730000", "093344.190000", "093344.650000", "093345.110000", "093345.570000", "093346.030000", "093346.490000", "093346.950000", "093347.410000", "093347.870000", "093348.330000", "093348.790000", "093349.250000", "093349.710000", "093350.170000", "093350.630000", "093351.090000", "093351.550000", "093352.010000", "093352.470000", "093352.930000", "093353.390000", "093353.850000", "093354.310000", "093354.770000", "093355.230000", "093355.690000", "093356.150000", "093356.610000", "093357.070000", "093357.530000", "093357.990000", "093358.450000", "093358.910000", "093359.370000", "093359.830000", "093400.290000", "093400.750000", "093401.210000", "093401.670000", "093402.130000", "093402.590000", "093403.050000", "093403.510000", "093403.970000", "093404.430000", "093404.890000", "093405.350000", "093405.810000", "093406.270000", "093406.730000", "093407.190000", "093407.650000", "093408.110000", "093408.570000", "093409.030000", "093409.490000", "093409.950000", "093410.410000", "093410.870000", "093411.330000", "093411.790000", "093412.250000", "093412.710000", "093413.170000", "093413.630000", "093414.090000", "093414.550000", "093415.010000", "093415.470000", "093415.930000", "093416.390000", "093416.850000", "093417.310000", "093417.770000", "093418.230000", "093418.690000", "093419.150000", "093419.610000", "093420.070000", "093420.530000", "093420.990000", "093421.450000", "093421.910000", "093422.370000", "093422.830000", "093423.290000", "093423.750000", "093424.210000", "093424.670000", "093425.130000", "093425.590000", "093426.050000", "093426.510000", "093426.970000", "093427.430000", "093427.890000", "093428.350000", "093428.810000", "093429.270000", "093429.730000", "093430.190000", "093430.650000", "093431.110000", "093431.570000", "093432.030000", "093432.490000", "093432.950000", "093433.410000", "093433.870000", "093434.330000", "093434.790000", "093435.250000", "093435.710000", "093436.170000", "093436.630000", "093437.090000", "093437.550000", "093438.010000", "093438.470000", "093438.930000", "093439.390000", "093439.850000", "093440.310000", "093440.770000", "093441.230000", "093441.690000", "093442.150000", "093442.610000", "093443.070000", "093443.530000", "093443.990000", "093444.450000", "093444.910000", "093445.370000", "093445.830000", "093446.290000", "093446.750000", "093447.210000", "093447.670000", "093448.130000", "093448.590000", "093449.050000", "093449.510000", "093449.970000", "093450.430000", "093450.890000", "093451.350000", "093451.810000", "093452.270000", "093452.730000", "093453.190000", "093453.650000", "093454.110000", "093454.570000", "093455.030000", "093455.490000", "093455.950000", "093456.410000", "093456.870000", "093457.330000", "093457.790000", "093458.250000", "093458.710000", "093459.170000", "093459.630000", "093500.090000", "093500.550000", "093501.010000", "093501.470000", "093501.930000", "093502.390000", "093502.850000", "093503.310000", "093503.770000", "093504.230000", "093504.690000", "093505.150000", "093505.610000", "093506.070000", "093506.530000", "093506.990000", "093507.450000", "093507.910000", "093508.370000", "093508.830000", "093509.290000", "093509.750000", "093510.210000", "093510.670000", "093511.130000", "093511.590000", "093512.050000", "093512.510000", "093512.970000", "093513.430000", "093513.890000", "093514.350000", "093514.810000", "093515.270000", "093515.730000", "093516.190000", "093516.650000", "093517.110000", "093517.570000", "093518.030000", "093518.490000", "093518.950000", "093519.410000", "093519.870000", "093520.330000", "093520.790000", "093521.250000", "093521.710000", "093522.170000", "093522.630000", "093523.090000", "093523.550000", "093524.010000", "093524.470000", "093524.930000", "093525.390000", "093525.850000", "093526.310000", "093526.770000", "093527.230000", "093527.690000", "093528.150000", "093528.610000", "093529.070000", "093529.530000", "093529.990000", "093530.450000", "093530.910000", "093531.370000", "093531.830000", "093532.290000", "093532.750000", "093533.210000", "093533.670000", "093534.130000", "093534.590000", "093535.050000", "093535.510000", "093535.970000", "093536.430000", "093536.890000", "093537.350000", "093537.810000", "093538.270000", "093538.730000", "093539.190000", "093539.650000", "093540.110000", "093540.570000", "093541.030000", "093541.490000", "093541.950000", "093542.410000", "093542.870000", "093543.330000", "093543.790000", "093544.250000", "093544.710000", "093545.170000", "093545.630000", "093546.090000", "093546.550000", "093547.010000", "093547.470000", "093547.930000", "093548.390000", "093548.850000", "093549.310000", "093549.770000", "093550.230000", "093550.690000", "093551.150000", "093551.610000", "093552.070000", "093552.530000", "093552.990000", "093553.450000", "093553.910000", "093554.370000", "093554.830000", "093555.290000", "093555.750000", "093556.210000", "093556.670000", "093557.130000", "093557.590000", "093558.050000", "093558.510000", "093558.970000", "093559.430000", "093559.890000", "093600.350000", "093600.810000", "093601.270000", "093601.730000", "093602.190000", "093602.650000", "093603.110000", "093603.570000", "093604.030000", "093604.490000", "093604.950000", "093605.410000", "093605.870000", "093606.330000", "093606.790000", "093607.250000", "093607.710000", "093608.170000", "093608.630000", "093609.090000", "093609.550000", "093610.010000", "093610.470000", "093610.930000", "093611.390000", "093611.850000", "093612.310000", "093612.770000", "093613.230000", "093613.690000", "093614.150000", "093614.610000", "093615.070000", "093615.530000", "093615.990000", "093616.450000", "093616.910000", "093617.370000", "093617.830000", "093618.290000", "093618.750000", "093619.210000", "093619.670000", "093620.130000", "093620.590000", "093621.050000", "093621.510000", "093621.970000", "093622.430000", "093622.890000", "093623.350000", "093623.810000", "093624.270000", "093624.730000", "093625.190000", "093625.650000", "093626.110000", "093626.570000", "093627.030000", "093627.490000", "093627.950000", "093628.410000", "093628.870000", "093629.330000", "093629.790000", "093630.250000", "093630.710000", "093631.170000", "093631.630000", "093632.090000", "093632.550000", "093633.010000", "093633.470000", "093633.930000", "093634.390000", "093634.850000", "093635.310000", "093635.770000", "093636.230000", "093636.690000", "093637.150000", "093637.610000", "093638.070000", "093638.530000", "093638.990000", "093639.450000", "093639.910000", "093640.370000", "093640.830000", "093641.290000", "093641.750000", "093642.210000", "093642.670000", "093643.130000", "093643.590000", "093644.050000", "093644.510000", "093644.970000", "093645.430000", "093645.890000", "093646.350000", "093646.810000", "093647.270000", "093647.730000", "093648.190000", "093648.650000", "093649.110000", "093649.570000", "093650.030000", "093650.490000", "093650.950000", "093651.410000", "093651.870000", "093652.330000", "093652.790000", "093653.250000", "093653.710000", "093654.170000", "093654.630000", "093655.090000", "093655.550000", "093656.010000", "093656.470000", "093656.930000", "093657.390000", "093657.850000", "093658.310000", "093658.770000", "093659.230000", "093659.690000", "093700.150000", "093700.610000", "093701.070000", "093701.530000", "093701.990000", "093702.450000", "093702.910000", "093703.370000", "093703.830000", "093704.290000", "093704.750000", "093705.210000", "093705.670000", "093706.130000", "093706.590000", "093707.050000", "093707.510000", "093707.970000", "093708.430000", "093708.890000", "093709.350000", "093709.810000", "093710.270000", "093710.730000", "093711.190000", "093711.650000", "093712.110000", "093712.570000", "093713.030000", "093713.490000", "093713.950000", "093714.410000", "093714.870000", "093715.330000", "093715.790000", "093716.250000", "093716.710000", "093717.170000", "093717.630000", "093718.090000", "093718.550000", "093719.010000", "093719.470000", "093719.930000", "093720.390000", "093720.850000", "093721.310000", "093721.770000", "093722.230000", "093722.690000", "093723.150000", "093723.610000", "093724.070000", "093724.530000", "093724.990000", "093725.450000", "093725.910000", "093726.370000", "093726.830000", "093727.290000", "093727.750000", "093728.210000", "093728.670000", "093729.130000", "093729.590000", "093730.050000", "093730.510000", "093730.970000", "093731.430000", "093731.890000", "093732.350000", "093732.810000", "093733.270000", "093733.730000", "093734.190000", "093734.650000", "093735.110000", "093735.570000", "093736.030000", "093736.490000", "093736.950000", "093737.410000", "093737.870000", "093738.330000", "093738.790000", "093739.250000", "093739.710000", "093740.170000", "093740.630000", "093741.090000", "093741.550000", "093742.010000", "093742.470000", "093742.930000", "093743.390000", "093743.850000", "093744.310000", "093744.770000", "093745.230000", "093745.690000", "093746.150000", "093746.610000", "093747.070000", "093747.530000", "093747.990000", "093748.450000", "093748.910000", "093749.370000", "093749.830000", "093750.290000", "093750.750000", "093751.210000", "093751.670000", "093752.130000", "093752.590000", "093753.050000", "093753.510000", "093753.970000", "093754.430000", "093754.890000", "093755.350000", "093755.810000", "093756.270000", "093756.730000", "093757.190000", "093757.650000", "093758.110000", "093758.570000", "093759.030000", "093759.490000", "093759.950000", "093800.410000", "093800.870000", "093801.330000", "093801.790000", "093802.250000", "093802.710000", "093803.170000", "093803.630000", "093804.090000", "093804.550000", "093805.010000", "093805.470000", "093805.930000", "093806.390000", "093806.850000", "093807.310000", "093807.770000", "093808.230000", "093808.690000", "093809.150000", "093809.610000", "093810.070000", "093810.530000", "093810.990000", "093811.450000", "093811.910000", "093812.370000", "093812.830000", "093813.290000", "093813.750000", "093814.210000", "093814.670000", "093815.130000", "093815.590000", "093816.050000", "093816.510000", "093816.970000", "093817.430000", "093817.890000", "093818.350000", "093818.810000", "093819.270000", "093819.730000", "093820.190000", "093820.650000", "093821.110000", "093821.570000", "093822.030000", "093822.490000", "093822.950000", "093823.410000", "093823.870000", "093824.330000", "093824.790000", "093825.250000", "093825.710000", "093826.170000", "093826.630000", "093827.090000", "093827.550000", "093828.010000", "093828.470000", "093828.930000", "093829.390000", "093829.850000", "093830.310000", "093830.770000", "093831.230000", "093831.690000", "093832.150000", "093832.610000", "093833.070000", "093833.530000", "093833.990000", "093834.450000", "093834.910000", "093835.370000", "093835.830000", "093836.290000", "093836.750000", "093837.210000", "093837.670000", "093838.130000", "093838.590000", "093839.050000", "093839.510000", "093839.970000", "093840.430000", "093840.890000", "093841.350000", "093841.810000", "093842.270000", "093842.730000", "093843.190000", "093843.650000", "093844.110000", "093844.570000", "093845.030000", "093845.490000", "093845.950000", "093846.410000", "093846.870000", "093847.330000", "093847.790000", "093848.250000", "093848.710000", "093849.170000", "093849.630000", "093850.090000", "093850.550000", "093851.010000", "093851.470000", "093851.930000", "093852.390000", "093852.850000", "093853.310000", "093853.770000", "093854.230000", "093854.690000", "093855.150000", "093855.610000", "093856.070000", "093856.530000", "093856.990000", "093857.450000", "093857.910000", "093858.370000", "093858.830000", "093859.290000", "093859.750000", "093900.210000", "093900.670000", "093901.130000", "093901.590000", "093902.050000", "093902.510000", "093902.970000", "093903.430000", "093903.890000", "093904.350000", "093904.810000", "093905.270000", "093905.730000", "093906.190000", "093906.650000", "093907.110000", "093907.570000", "093908.030000", "093908.490000", "093908.950000", "093909.410000", "093909.870000", "093910.330000", "093910.790000", "093911.250000", "093911.710000", "093912.170000", "093912.630000", "093913.090000", "093913.550000", "093914.010000", "093914.470000", "093914.930000", "093915.390000", "093915.850000", "093916.310000", "093916.770000", "093917.230000", "093917.690000", "093918.150000", "093918.610000", "093919.070000", "093919.530000", "093919.990000", "093920.450000", "093920.910000", "093921.370000", "093921.830000", "093922.290000", "093922.750000", "093923.210000", "093923.670000", "093924.130000", "093924.590000", "093925.050000", "093925.510000", "093925.970000", "093926.430000", "093926.890000", "093927.350000", "093927.810000", "093928.270000", "093928.730000", "093929.190000", "093929.650000", "093930.110000", "093930.570000", "093931.030000", "093931.490000", "093931.950000", "093932.410000", "093932.870000", "093933.330000", "093933.790000", "093934.250000", "093934.710000", "093935.170000", "093935.630000", "093936.090000", "093936.550000", "093937.010000", "093937.470000", "093937.930000", "093938.390000", "093938.850000", "093939.310000", "093939.770000", "093940.230000", "093940.690000", "093941.150000", "093941.610000", "093942.070000", "093942.530000", "093942.990000", "093943.450000", "093943.910000", "093944.370000", "093944.830000", "093945.290000", "093945.750000", "093946.210000", "093946.670000", "093947.130000", "093947.590000", "093948.050000", "093948.510000", "093948.970000", "093949.430000", "093949.890000", "093950.350000", "093950.810000", "093951.270000", "093951.730000", "093952.190000", "093952.650000", "093953.110000", "093953.570000", "093954.030000", "093954.490000", "093954.950000", "093955.410000", "093955.870000", "093956.330000", "093956.790000", "093957.250000", "093957.710000", "093958.170000", "093958.630000", "093959.090000", "093959.550000", "094000.010000"],
