{
  "AcquisitionMatrixPE": 82,
  "AcquisitionNumber": 1,
  "AcquisitionTime": "10:09:52.330000",
  "BandwidthPerPixelPhaseEncode": 24.888,
  "BaseResolution": 82,
  "BodyPartExamined": "BRAIN",
  "ConsistencyInfo": "N4_VE11E_LATEST_20181129",
  "ConversionSoftware": "dcm2niix",
  "ConversionSoftwareVersion": "v1.0.20201102",
  "DerivedVendorReportedEchoSpacing": 0.00049,
  "DeviceSerialNumber": "66112",
  "DwellTime": 2e-06,
  "EchoTime": 0.0272,
  "EchoTrainLength": 82,
  "EffectiveEchoSpacing": 0.00049,
  "FlipAngle": 44,
  "ImageComments": "Unaliased MB8/PE3",
  "ImageOrientationPatientDICOM": [0.998003, 0.0530608, -0.0342663, -0.0528272, 0.998574, 0.00768901],
  "ImageType": [
    "ORIGINAL",
    "PRIMARY",
    "M",
    "MB",
    "ND",
    "NORM",
    "MOSAIC"
],
  "ImagingFrequency": 123.252,
  "InPlanePhaseEncodingDirectionDICOM": "COL",
  "InstitutionAddress": "Maynard 3,Hanover,NH,US,03755",
  "InstitutionName": "Dartmouth College - PBS",
  "InstitutionalDepartmentName": "Department",
  "MRAcquisitionType": "2D",
  "MagneticFieldStrength": 3,
  "Manufacturer": "Siemens",
  "ManufacturersModelName": "Prisma",
  "Modality": "MR",
  "MultibandAccelerationFactor": 8,
  "PartialFourier": 1,
  "PatientPosition": "HFS",
  "PercentPhaseFOV": 100,
  "PercentSampling": 100,
  "PhaseEncodingDirection": "j-",
  "PhaseEncodingSteps": 82,
  "PhaseResolution": 1,
  "PixelBandwidth": 3050,
  "ProcedureStepDescription": "Wager_Wager^1076_spacetop",
  "ProtocolName": "func_run-01_task-alignvideo_acq-ap-mb8",
  "PulseSequenceDetails": "%CustomerSeq%\\cmrr_mbep2d_bold",
  "ReceiveCoilActiveElements": "HEA;HEP",
  "ReceiveCoilName": "Head_32",
  "ReconMatrixPE": 82,
  "RepetitionTime": 0.46,
  "SAR": 0.0924959,
  "ScanOptions": "FS",
  "ScanningSequence": "EP",
  "SequenceName": "epfid2d1_82",
  "SequenceVariant": "SK\\SS",
  "SeriesDescription": "func_run-01_task-alignvideo_acq-ap-mb8",
  "SeriesNumber": 32,
  "ShimSetting": [4147, -7730, -7301, 513, -15, -101, 9, 65],
  "SliceThickness": 2.7,
  "SliceTiming": [0, 0.25, 0.0625, 0.3125, 0.125, 0.3775, 0.1875, 0, 0.25, 0.0625, 0.3125, 0.125, 0.3775, 0.1875, 0, 0.25, 0.0625, 0.3125, 0.125, 0.3775, 0.1875, 0, 0.25, 0.0625, 0.3125, 0.125, 0.3775, 0.1875, 0, 0.25, 0.0625, 0.3125, 0.125, 0.3775, 0.1875, 0, 0.25, 0.0625, 0.3125, 0.125, 0.3775, 0.1875, 0, 0.25, 0.0625, 0.3125, 0.125, 0.3775, 0.1875, 0, 0.25, 0.0625, 0.3125, 0.125, 0.3775, 0.1875],
  "SoftwareVersions": "syngo MR E11",
  "SpacingBetweenSlices": 2.7,
  "StationName": "AWP66112",
  "TaskName": "alignvideo",
  "TotalReadoutTime": 0.03969,
  "TxRefAmp": 257.392,
  "WipMemBlock": "9a54fc1e-f3ba-4d3d-8082-8df377dfdc52||Sequence: R016 ve11e/master r/434b28f1; Aug  7 2019 18:53:46 by eja",
  "dcmmeta_affine": [
    [-2.677569627761841, -0.14173144102096558, -0.09348876029253006, 118.23787689208984],
    [-0.14235830307006836, 2.6791012287139893, 0.015831358730793, -86.86625671386719],
    [-0.09193409979343414, -0.02062906138598919, 2.6983344554901123, -58.8945198059082],
    [0.0, 0.0, 0.0, 1.0]
],
  "dcmmeta_reorient_transform": [
    [0.0, -1.0, 0.0, 81.0],
    [1.0, 0.0, 0.0, 0.0],
    [0.0, 0.0, 1.0, 0.0],
    [0.0, 0.0, 0.0, 1.0]
],
  "dcmmeta_shape": [82, 82, 56, 1073],
  "dcmmeta_slice_dim": 2,
  "dcmmeta_version": 0.6,
  "global": {
    "const": {
      "AccessionNumber": "A003930",
      "AcquisitionMatrix": [82, 0, 0, 82],
      "AngioFlag": "N",
      "BitsAllocated": 16,
      "BitsStored": 16,
      "BodyPartExamined": "BRAIN",
      "Columns": 656,
      "EchoNumbers": 1,
      "EchoTime": 27.2,
      "EchoTrainLength": 82,
      "FlipAngle": 44.0,
      "HighBit": 15,
      "ImageOrientationPatient": [0.99800318992718, 0.05306081920419, -0.0342663444294, -0.0528271695132, 0.99857406797326, 0.00768901375702],
      "ImagePositionPatient": [-834.54318588418, -939.89982240497, -40.100927790255],
      "ImageType": [
        "ORIGINAL",
        "PRIMARY",
        "M",
        "MB",
        "ND",
        "NORM",
        "MOSAIC"
],
      "ImagedNucleus": "1H",
      "ImagingFrequency": 123.252185,
      "InPlanePhaseEncodingDirection": "COL",
      "MRAcquisitionType": "2D",
      "MagneticFieldStrength": 3.0,
      "Manufacturer": "SIEMENS",
      "ManufacturerModelName": "Prisma",
      "Modality": "MR",
      "NumberOfAverages": 1.0,
      "NumberOfPhaseEncodingSteps": 82,
      "PercentPhaseFieldOfView": 100.0,
      "PercentSampling": 100.0,
      "PerformedProcedureStepStartTime": "084529.773000",
      "PhotometricInterpretation": "MONOCHROME2",
      "PixelBandwidth": 3050.0,
      "PixelRepresentation": 0,
      "PixelSpacing": [2.6829268932343, 2.6829268932343],
      "ProtocolName": "func_run-01_task-alignvideo_acq-ap-mb8",
      "RepetitionTime": 460.0,
      "Rows": 656,
      "SAR": 0.09249585695105,
      "SamplesPerPixel": 1,
      "ScanOptions": "FS",
      "ScanningSequence": "EP",
      "SequenceName": "epfid2d1_82",
      "SequenceVariant": [
        "SK",
        "SS"
],
      "SeriesDescription": "func_run-01_task-alignvideo_acq-ap-mb8",
      "SeriesNumber": 32,
      "SeriesTime": "101016.898000",
      "SliceLocation": -63.461569595868,
      "SliceThickness": 2.7000000476837,
      "SmallestImagePixelValue": 0,
      "SoftwareVersions": "syngo MR E11",
      "SpacingBetweenSlices": 2.6999999763796,
      "SpecificCharacterSet": "ISO_IR 100",
      "StudyID": "1",
      "StudyTime": "084529.622000",
      "TransmitCoilName": "Body",
      "VariableFlipAngleFlag": "N",
      "WindowCenterWidthExplanation": "Algo1"
    },
    "slices": {}
  },
  "time": {
    "samples": {
      "AcquisitionNumber": [1, 2, 3, 4, 5, 6, 7, 8, 9, 10, 11, 12, 13, 14, 15, 16, 17, 18, 19, 20, 21, 22, 23, 24, 25, 26, 27, 28, 29, 30, 31, 32, 33, 34, 35, 36, 37, 38, 39, 40, 41, 42, 43, 44, 45, 46, 47, 48, 49, 50, 51, 52, 53, 54, 55, 56, 57, 58, 59, 60, 61, 62, 63, 64, 65, 66, 67, 68, 69, 70, 71, 72, 73, 74, 75, 76, 77, 78, 79, 80, 81, 82, 83, 84, 85, 86, 87, 88, 89, 90, 91, 92, 93, 94, 95, 96, 97, 98, 99, 100, 101, 102, 103, 104, 105, 106, 107, 108, 109, 110, 111, 112, 113, 114, 115, 116, 117, 118, 119, 120, 121, 122, 123, 124, 125, 126, 127, 128, 129, 130, 131, 132, 133, 134, 135, 136, 137, 138, 139, 140, 141, 142, 143, 144, 145, 146, 147, 148, 149, 150, 151, 152, 153, 154, 155, 156, 157, 158, 159, 160, 161, 162, 163, 164, 165, 166, 167, 168, 169, 170, 171, 172, 173, 174, 175, 176, 177, 178, 179, 180, 181, 182, 183, 184, 185, 186, 187, 188, 189, 190, 191, 192, 193, 194, 195, 196, 197, 198, 199, 200, 201, 202, 203, 204, 205, 206, 207, 208, 209, 210, 211, 212, 213, 214, 215, 216, 217, 218, 219, 220, 221, 222, 223, 224, 225, 226, 227, 228, 229, 230, 231, 232, 233, 234, 235, 236, 237, 238, 239, 240, 241, 242, 243, 244, 245, 246, 247, 248, 249, 250, 251, 252, 253, 254, 255, 256, 257, 258, 259, 260, 261, 262, 263, 264, 265, 266, 267, 268, 269, 270, 271, 272, 273, 274, 275, 276, 277, 278, 279, 280, 281, 282, 283, 284, 285, 286, 287, 288, 289, 290, 291, 292, 293, 294, 295, 296, 297, 298, 299, 300, 301, 302, 303, 304, 305, 306, 307, 308, 309, 310, 311, 312, 313, 314, 315, 316, 317, 318, 319, 320, 321, 322, 323, 324, 325, 326, 327, 328, 329, 330, 331, 332, 333, 334, 335, 336, 337, 338, 339, 340, 341, 342, 343, 344, 345, 346, 347, 348, 349, 350, 351, 352, 353, 354, 355, 356, 357, 358, 359, 360, 361, 362, 363, 364, 365, 366, 367, 368, 369, 370, 371, 372, 373, 374, 375, 376, 377, 378, 379, 380, 381, 382, 383, 384, 385, 386, 387, 388, 389, 390, 391, 392, 393, 394, 395, 396, 397, 398, 399, 400, 401, 402, 403, 404, 405, 406, 407, 408, 409, 410, 411, 412, 413, 414, 415, 416, 417, 418, 419, 420, 421, 422, 423, 424, 425, 426, 427, 428, 429, 430, 431, 432, 433, 434, 435, 436, 437, 438, 439, 440, 441, 442, 443, 444, 445, 446, 447, 448, 449, 450, 451, 452, 453, 454, 455, 456, 457, 458, 459, 460, 461, 462, 463, 464, 465, 466, 467, 468, 469, 470, 471, 472, 473, 474, 475, 476, 477, 478, 479, 480, 481, 482, 483, 484, 485, 486, 487, 488, 489, 490, 491, 492, 493, 494, 495, 496, 497, 498, 499, 500, 501, 502, 503, 504, 505, 506, 507, 508, 509, 510, 511, 512, 513, 514, 515, 516, 517, 518, 519, 520, 521, 522, 523, 524, 525, 526, 527, 528, 529, 530, 531, 532, 533, 534, 535, 536, 537, 538, 539, 540, 541, 542, 543, 544, 545, 546, 547, 548, 549, 550, 551, 552, 553, 554, 555, 556, 557, 558, 559, 560, 561, 562, 563, 564, 565, 566, 567, 568, 569, 570, 571, 572, 573, 574, 575, 576, 577, 578, 579, 580, 581, 582, 583, 584, 585, 586, 587, 588, 589, 590, 591, 592, 593, 594, 595, 596, 597, 598, 599, 600, 601, 602, 603, 604, 605, 606, 607, 608, 609, 610, 611, 612, 613, 614, 615, 616, 617, 618, 619, 620, 621, 622, 623, 624, 625, 626, 627, 628, 629, 630, 631, 632, 633, 634, 635, 636, 637, 638, 639, 640, 641, 642, 643, 644, 645, 646, 647, 648, 649, 650, 651, 652, 653, 654, 655, 656, 657, 658, 659, 660, 661, 662, 663, 664, 665, 666, 667, 668, 669, 670, 671, 672, 673, 674, 675, 676, 677, 678, 679, 680, 681, 682, 683, 684, 685, 686, 687, 688, 689, 690, 691, 692, 693, 694, 695, 696, 697, 698, 699, 700, 701, 702, 703, 704, 705, 706, 707, 708, 709, 710, 711, 712, 713, 714, 715, 716, 717, 718, 719, 720, 721, 722, 723, 724, 725, 726, 727, 728, 729, 730, 731, 732, 733, 734, 735, 736, 737, 738, 739, 740, 741, 742, 743, 744, 745, 746, 747, 748, 749, 750, 751, 752, 753, 754, 755, 756, 757, 758, 759, 760, 761, 762, 763, 764, 765, 766, 767, 768, 769, 770, 771, 772, 773, 774, 775, 776, 777, 778, 779, 780, 781, 782, 783, 784, 785, 786, 787, 788, 789, 790, 791, 792, 793, 794, 795, 796, 797, 798, 799, 800, 801, 802, 803, 804, 805, 806, 807, 808, 809, 810, 811, 812, 813, 814, 815, 816, 817, 818, 819, 820, 821, 822, 823, 824, 825, 826, 827, 828, 829, 830, 831, 832, 833, 834, 835, 836, 837, 838, 839, 840, 841, 842, 843, 844, 845, 846, 847, 848, 849, 850, 851, 852, 853, 854, 855, 856, 857, 858, 859, 860, 861, 862, 863, 864, 865, 866, 867, 868, 869, 870, 871, 872, 873, 874, 875, 876, 877, 878, 879, 880, 881, 882, 883, 884, 885, 886, 887, 888, 889, 890, 891, 892, 893, 894, 895, 896, 897, 898, 899, 900, 901, 902, 903, 904, 905, 906, 907, 908, 909, 910, 911, 912, 913, 914, 915, 916, 917, 918, 919, 920, 921, 922, 923, 924, 925, 926, 927, 928, 929, 930, 931, 932, 933, 934, 935, 936, 937, 938, 939, 940, 941, 942, 943, 944, 945, 946, 947, 948, 949, 950, 951, 952, 953, 954, 955, 956, 957, 958, 959, 960, 961, 962, 963, 964, 965, 966, 967, 968, 969, 970, 971, 972, 973, 974, 975, 976, 977, 978, 979, 980, 981, 982, 983, 984, 985, 986, 987, 988, 989, 990, 991, 992, 993, 994, 995, 996, 997, 998, 999, 1000, 1001, 1002, 1003, 1004, 1005, 1006, 1007, 1008, 1009, 1010, 1011, 1012, 1013, 1014, 1015, 1016, 1017, 1018, 1019, 1020, 1021, 1022, 1023, 1024, 1025, 1026, 1027, 1028, 1029, 1030, 1031, 1032, 1033, 1034, 1035, 1036, 1037, 1038, 1039, 1040, 1041, 1042, 1043, 1044, 1045, 1046, 1047, 1048, 1049, 1050, 1051, 1052, 1053, 1054, 1055, 1056, 1057, 1058, 1059, 1060, 1061, 1062, 1063, 1064, 1065, 1066, 1067, 1068, 1069, 1070, 1071, 1072, 1073],
      "AcquisitionTime": ["100952.330000", "100952.790000", "100953.250000", "100953.710000", "100954.170000", "100954.630000", "100955.090000", "100955.550000", "100956.010000", "100956.470000", "100956.930000", "100957.390000", "100957.850000", "100958.310000", "100958.770000", "100959.230000", "100959.690000", "101000.150000", "101000.610000", "101001.070000", "101001.530000", "101001.990000", "101002.450000", "101002.910000", "101003.370000", "101003.830000", "101004.290000", "101004.750000", "101005.210000", "101005.670000", "101006.130000", "101006.590000", "101007.050000", "101007.510000", "101007.970000", "101008.430000", "101008.890000", "101009.350000", "101009.810000", "101010.270000", "101010.730000", "101011.190000", "101011.650000", "101012.110000", "101012.570000", "101013.030000", "101013.490000", "101013.950000", "101014.410000", "101014.870000", "101015.330000", "101015.790000", "101016.250000", "101016.710000", "101017.170000", "101017.630000", "101018.090000", "101018.550000", "101019.010000", "101019.470000", "101019.930000", "101020.390000", "101020.850000", "101021.310000", "101021.770000", "101022.230000", "101022.690000", "101023.150000", "101023.610000", "101024.070000", "101024.530000", "101024.990000", "101025.450000", "101025.910000", "101026.370000", "101026.830000", "101027.290000", "101027.750000", "101028.210000", "101028.670000", "101029.130000", "101029.590000", "101030.050000", "101030.510000", "101030.970000", "101031.430000", "101031.890000", "101032.350000", "101032.810000", "101033.270000", "101033.730000", "101034.190000", "101034.650000", "101035.110000", "101035.570000", "101036.030000", "101036.490000", "101036.950000", "101037.410000", "101037.870000", "101038.330000", "101038.790000", "101039.250000", "101039.710000", "101040.170000", "101040.630000", "101041.090000", "101041.550000", "101042.010000", "101042.470000", "101042.930000", "101043.390000", "101043.850000", "101044.310000", "101044.770000", "101045.230000", "101045.690000", "101046.150000", "101046.610000", "101047.070000", "101047.530000", "101047.990000", "101048.450000", "101048.910000", "101049.370000", "101049.830000", "101050.290000", "101050.750000", "101051.210000", "101051.670000", "101052.130000", "101052.590000", "101053.050000", "101053.510000", "101053.970000", "101054.430000", "101054.890000", "101055.350000", "101055.810000", "101056.270000", "101056.730000", "101057.190000", "101057.650000", "101058.110000", "101058.570000", "101059.030000", "101059.490000", "101059.950000", "101100.410000", "101100.870000", "101101.330000", "101101.790000", "101102.250000", "101102.710000", "101103.170000", "101103.630000", "101104.090000", "101104.550000", "101105.010000", "101105.470000", "101105.930000", "101106.390000", "101106.850000", "101107.310000", "101107.770000", "101108.230000", "101108.690000", "101109.150000", "101109.610000", "101110.070000", "101110.530000", "101110.990000", "101111.450000", "101111.910000", "101112.370000", "101112.830000", "101113.290000", "101113.750000", "101114.210000", "101114.670000", "101115.130000", "101115.590000", "101116.050000", "101116.510000", "101116.970000", "101117.430000", "101117.890000", "101118.350000", "101118.810000", "101119.270000", "101119.730000", "101120.190000", "101120.650000", "101121.110000", "101121.570000", "101122.030000", "101122.490000", "101122.950000", "101123.410000", "101123.870000", "101124.330000", "101124.790000", "101125.250000", "101125.710000", "101126.170000", "101126.630000", "101127.090000", "101127.550000", "101128.010000", "101128.470000", "101128.930000", "101129.390000", "101129.850000", "101130.310000", "101130.770000", "101131.230000", "101131.690000", "101132.150000", "101132.610000", "101133.070000", "101133.530000", "101133.990000", "101134.450000", "101134.910000", "101135.370000", "101135.830000", "101136.290000", "101136.750000", "101137.210000", "101137.670000", "101138.130000", "101138.590000", "101139.050000", "101139.510000", "101139.970000", "101140.430000", "101140.890000", "101141.350000", "101141.810000", "101142.270000", "101142.730000", "101143.190000", "101143.650000", "101144.110000", "101144.570000", "101145.030000", "101145.490000", "101145.950000", "101146.410000", "101146.870000", "101147.330000", "101147.790000", "101148.250000", "101148.710000", "101149.170000", "101149.630000", "101150.090000", "101150.550000", "101151.010000", "101151.470000", "101151.930000", "101152.390000", "101152.850000", "101153.310000", "101153.770000", "101154.230000", "101154.690000", "101155.150000", "101155.610000", "101156.070000", "101156.530000", "101156.990000", "101157.450000", "101157.910000", "101158.370000", "101158.830000", "101159.290000", "101159.750000", "101200.210000", "101200.670000", "101201.130000", "101201.590000", "101202.050000", "101202.510000", "101202.970000", "101203.430000", "101203.890000", "101204.350000", "101204.810000", "101205.270000", "101205.730000", "101206.190000", "101206.650000", "101207.110000", "101207.570000", "101208.030000", "101208.490000", "101208.950000", "101209.410000", "101209.870000", "101210.330000", "101210.790000", "101211.250000", "101211.710000", "101212.170000", "101212.630000", "101213.090000", "101213.550000", "101214.010000", "101214.470000", "101214.930000", "101215.390000", "101215.850000", "101216.310000", "101216.770000", "101217.230000", "101217.690000", "101218.150000", "101218.610000", "101219.070000", "101219.530000", "101219.990000", "101220.450000", "101220.910000", "101221.370000", "101221.830000", "101222.290000", "101222.750000", "101223.210000", "101223.670000", "101224.130000", "101224.590000", "101225.050000", "101225.510000", "101225.970000", "101226.430000", "101226.890000", "101227.350000", "101227.810000", "101228.270000", "101228.730000", "101229.190000", "101229.650000", "101230.110000", "101230.570000", "101231.030000", "101231.490000", "101231.950000", "101232.410000", "101232.870000", "101233.330000", "101233.790000", "101234.250000", "101234.710000", "101235.170000", "101235.630000", "101236.090000", "101236.550000", "101237.010000", "101237.470000", "101237.930000", "101238.390000", "101238.850000", "101239.310000", "101239.770000", "101240.230000", "101240.690000", "101241.150000", "101241.610000", "101242.070000", "101242.530000", "101242.990000", "101243.450000", "101243.910000", "101244.370000", "101244.830000", "101245.290000", "101245.750000", "101246.210000", "101246.670000", "101247.130000", "101247.590000", "101248.050000", "101248.510000", "101248.970000", "101249.430000", "101249.890000", "101250.350000", "101250.810000", "101251.270000", "101251.730000", "101252.190000", "101252.650000", "101253.110000", "101253.570000", "101254.030000", "101254.490000", "101254.950000", "101255.410000", "101255.870000", "101256.330000", "101256.790000", "101257.250000", "101257.710000", "101258.170000", "101258.630000", "101259.090000", "101259.550000", "101300.010000", "101300.470000", "101300.930000", "101301.390000", "101301.850000", "101302.310000", "101302.770000", "101303.230000", "101303.690000", "101304.150000", "101304.610000", "101305.070000", "101305.530000", "101305.990000", "101306.450000", "101306.910000", "101307.370000", "101307.830000", "101308.290000", "101308.750000", "101309.210000", "101309.670000", "101310.130000", "101310.590000", "101311.050000", "101311.510000", "101311.970000", "101312.430000", "101312.890000", "101313.350000", "101313.810000", "101314.270000", "101314.730000", "101315.190000", "101315.650000", "101316.110000", "101316.570000", "101317.030000", "101317.490000", "101317.950000", "101318.410000", "101318.870000", "101319.330000", "101319.790000", "101320.250000", "101320.710000", "101321.170000", "101321.630000", "101322.090000", "101322.550000", "101323.010000", "101323.470000", "101323.930000", "101324.390000", "101324.850000", "101325.310000", "101325.770000", "101326.230000", "101326.690000", "101327.150000", "101327.610000", "101328.070000", "101328.530000", "101328.990000", "101329.450000", "101329.910000", "101330.370000", "101330.830000", "101331.290000", "101331.750000", "101332.210000", "101332.670000", "101333.130000", "101333.590000", "101334.050000", "101334.510000", "101334.970000", "101335.430000", "101335.890000", "101336.350000", "101336.810000", "101337.270000", "101337.730000", "101338.190000", "101338.650000", "101339.110000", "101339.570000", "101340.030000", "101340.490000", "101340.950000", "101341.410000", "101341.870000", "101342.330000", "101342.790000", "101343.250000", "101343.710000", "101344.170000", "101344.630000", "101345.090000", "101345.550000", "101346.010000", "101346.470000", "101346.930000", "101347.390000", "101347.850000", "101348.310000", "101348.770000", "101349.230000", "101349.690000", "101350.150000", "101350.610000", "101351.070000", "101351.530000", "101351.990000", "101352.450000", "101352.910000", "101353.370000", "101353.830000", "101354.290000", "101354.750000", "101355.210000", "101355.670000", "101356.130000", "101356.590000", "101357.050000", "101357.510000", "101357.970000", "101358.430000", "101358.890000", "101359.350000", "101359.810000", "101400.270000", "101400.730000", "101401.190000", "101401.650000", "101402.110000", "101402.570000", "101403.030000", "101403.490000", "101403.950000", "101404.410000", "101404.870000", "101405.330000", "101405.790000", "101406.250000", "101406.710000", "101407.170000", "101407.630000", "101408.090000", "101408.550000", "101409.010000", "101409.470000", "101409.930000", "101410.390000", "101410.850000", "101411.310000", "101411.770000", "101412.230000", "101412.690000", "101413.150000", "101413.610000", "101414.070000", "101414.530000", "101414.990000", "101415.450000", "101415.910000", "101416.370000", "101416.830000", "101417.290000", "101417.750000", "101418.210000", "101418.670000", "101419.130000", "101419.590000", "101420.050000", "101420.510000", "101420.970000", "101421.430000", "101421.890000", "101422.350000", "101422.810000", "101423.270000", "101423.730000", "101424.190000", "101424.650000", "101425.110000", "101425.570000", "101426.030000", "101426.490000", "101426.950000", "101427.410000", "101427.870000", "101428.330000", "101428.790000", "101429.250000", "101429.710000", "101430.170000", "101430.630000", "101431.090000", "101431.550000", "101432.010000", "101432.470000", "101432.930000", "101433.390000", "101433.850000", "101434.310000", "101434.770000", "101435.230000", "101435.690000", "101436.150000", "101436.610000", "101437.070000", "101437.530000", "101437.990000", "101438.450000", "101438.910000", "101439.370000", "101439.830000", "101440.290000", "101440.750000", "101441.210000", "101441.670000", "101442.130000", "101442.590000", "101443.050000", "101443.510000", "101443.970000", "101444.430000", "101444.890000", "101445.350000", "101445.810000", "101446.270000", "101446.730000", "101447.190000", "101447.650000", "101448.110000", "101448.570000", "101449.030000", "101449.490000", "101449.950000", "101450.410000", "101450.870000", "101451.330000", "101451.790000", "101452.250000", "101452.710000", "101453.170000", "101453.630000", "101454.090000", "101454.550000", "101455.010000", "101455.470000", "101455.930000", "101456.390000", "101456.850000", "101457.310000", "101457.770000", "101458.230000", "101458.690000", "101459.150000", "101459.610000", "101500.070000", "101500.530000", "101500.990000", "101501.450000", "101501.910000", "101502.370000", "101502.830000", "101503.290000", "101503.750000", "101504.210000", "101504.670000", "101505.130000", "101505.590000", "101506.050000", "101506.510000", "101506.970000", "101507.430000", "101507.890000", "101508.350000", "101508.810000", "101509.270000", "101509.730000", "101510.190000", "101510.650000", "101511.110000", "101511.570000", "101512.030000", "101512.490000", "101512.950000", "101513.410000", "101513.870000", "101514.330000", "101514.790000", "101515.250000", "101515.710000", "101516.170000", "101516.630000", "101517.090000", "101517.550000", "101518.010000", "101518.470000", "101518.930000", "101519.390000", "101519.850000", "101520.310000", "101520.770000", "101521.230000", "101521.690000", "101522.150000", "101522.610000", "101523.070000", "101523.530000", "101523.990000", "101524.450000", "101524.910000", "101525.370000", "101525.830000", "101526.290000", "101526.750000", "101527.210000", "101527.670000", "101528.130000", "101528.590000", "101529.050000", "101529.510000", "101529.970000", "101530.430000", "101530.890000", "101531.350000", "101531.810000", "101532.270000", "101532.730000", "101533.190000", "101533.650000", "101534.110000", "101534.570000", "101535.030000", "101535.490000", "101535.950000", "101536.410000", "101536.870000", "101537.330000", "101537.790000", "101538.250000", "101538.710000", "101539.170000", "101539.630000", "101540.090000", "101540.550000", "101541.010000", "101541.470000", "101541.930000", "101542.390000", "101542.850000", "101543.310000", "101543.770000", "101544.230000", "101544.690000", "101545.150000", "101545.610000", "101546.070000", "101546.530000", "101546.990000", "101547.450000", "101547.910000", "101548.370000", "101548.830000", "101549.290000", "101549.750000", "101550.210000", "101550.670000", "101551.130000", "101551.590000", "101552.050000", "101552.510000", "101552.970000", "101553.430000", "101553.890000", "101554.350000", "101554.810000", "101555.270000", "101555.730000", "101556.190000", "101556.650000", "101557.110000", "101557.570000", "101558.030000", "101558.490000", "101558.950000", "101559.410000", "101559.870000", "101600.330000", "101600.790000", "101601.250000", "101601.710000", "101602.170000", "101602.630000", "101603.090000", "101603.550000", "101604.010000", "101604.470000", "101604.930000", "101605.390000", "101605.850000", "101606.310000", "101606.770000", "101607.230000", "101607.690000", "101608.150000", "101608.610000", "101609.070000", "101609.530000", "101609.990000", "101610.450000", "101610.910000", "101611.370000", "101611.830000", "101612.290000", "101612.750000", "101613.210000", "101613.670000", "101614.130000", "101614.590000", "101615.050000", "101615.510000", "101615.970000", "101616.430000", "101616.890000", "101617.350000", "101617.810000", "101618.270000", "101618.730000", "101619.190000", "101619.650000", "101620.110000", "101620.570000", "101621.030000", "101621.490000", "101621.950000", "101622.410000", "101622.870000", "101623.330000", "101623.790000", "101624.250000", "101624.710000", "101625.170000", "101625.630000", "101626.090000", "101626.550000", "101627.010000", "101627.470000", "101627.930000", "101628.390000", "101628.850000", "101629.310000", "101629.770000", "101630.230000", "101630.690000", "101631.150000", "101631.610000", "101632.070000", "101632.530000", "101632.990000", "101633.450000", "101633.910000", "101634.370000", "101634.830000", "101635.290000", "101635.750000", "101636.210000", "101636.670000", "101637.130000", "101637.590000", "101638.050000", "101638.510000", "101638.970000", "101639.430000", "101639.890000", "101640.350000", "101640.810000", "101641.270000", "101641.730000", "101642.190000", "101642.650000", "101643.110000", "101643.570000", "101644.030000", "101644.490000", "101644.950000", "101645.410000", "101645.870000", "101646.330000", "101646.790000", "101647.250000", "101647.710000", "101648.170000", "101648.630000", "101649.090000", "101649.550000", "101650.010000", "101650.470000", "101650.930000", "101651.390000", "101651.850000", "101652.310000", "101652.770000", "101653.230000", "101653.690000", "101654.150000", "101654.610000", "101655.070000", "101655.530000", "101655.990000", "101656.450000", "101656.910000", "101657.370000", "101657.830000", "101658.290000", "101658.750000", "101659.210000", "101659.670000", "101700.130000", "101700.590000", "101701.050000", "101701.510000", "101701.970000", "101702.430000", "101702.890000", "101703.350000", "101703.810000", "101704.270000", "101704.730000", "101705.190000", "101705.650000", "101706.110000", "101706.570000", "101707.030000", "101707.490000", "101707.950000", "101708.410000", "101708.870000", "101709.330000", "101709.790000", "101710.250000", "101710.710000", "101711.170000", "101711.630000", "101712.090000", "101712.550000", "101713.010000", "101713.470000", "101713.930000", "101714.390000", "101714.850000", "101715.310000", "101715.770000", "101716.230000", "101716.690000", "101717.150000", "101717.610000", "101718.070000", "101718.530000", "101718.990000", "101719.450000", "101719.910000", "101720.370000", "101720.830000", "101721.290000", "101721.750000", "101722.210000", "101722.670000", "101723.130000", "101723.590000", "101724.050000", "101724.510000", "101724.970000", "101725.430000", "101725.890000", "101726.350000", "101726.810000", "101727.270000", "101727.730000", "101728.190000", "101728.650000", "101729.110000", "101729.570000", "101730.030000", "101730.490000", "101730.950000", "101731.410000", "101731.870000", "101732.330000", "101732.790000", "101733.250000", "101733.710000", "101734.170000", "101734.630000", "101735.090000", "101735.550000", "101736.010000", "101736.470000", "101736.930000", "101737.390000", "101737.850000", "101738.310000", "101738.770000", "101739.230000", "101739.690000", "101740.150000", "101740.610000", "101741.070000", "101741.530000", "101741.990000", "101742.450000", "101742.910000", "101743.370000", "101743.830000", "101744.290000", "101744.750000", "101745.210000", "101745.670000", "101746.130000", "101746.590000", "101747.050000", "101747.510000", "101747.970000", "101748.430000", "101748.890000", "101749.350000", "101749.810000", "101750.270000", "101750.730000", "101751.190000", "101751.650000", "101752.110000", "101752.570000", "101753.030000", "101753.490000", "101753.950000", "101754.410000", "101754.870000", "101755.330000", "101755.790000", "101756.250000", "101756.710000", "101757.170000", "101757.630000", "101758.090000", "101758.550000", "101759.010000", "101759.470000", "101759.930000", "101800.390000", "101800.850000", "101801.310000", "101801.770000", "101802.230000", "101802.690000", "101803.150000", "101803.610000", "101804.070000", "101804.530000", "101804.990000", "101805.450000"],
