{
  "AcquisitionMatrixPE": 140,
  "AcquisitionNumber": 1,
  "AcquisitionTime": "17:01:16.055000",
  "BandwidthPerPixelPhaseEncode": 10.352,
  "BaseResolution": 140,
  "BodyPartExamined": "BRAIN",
  "ConsistencyInfo": "N4_VE11C_LATEST_20160120",
  "ConversionSoftware": "dcm2niix",
  "ConversionSoftwareVersion": "v1.0.20201102",
  "DerivedVendorReportedEchoSpacing": 0.000689998,
  "DeviceSerialNumber": "66112",
  "DiffusionScheme": "Monopolar",
  "DwellTime": 2.1e-06,
  "EchoTime": 0.088,
  "EchoTrainLength": 105,
  "EffectiveEchoSpacing": 0.000689998,
  "FlipAngle": 90,
  "ImageComments": "Unaliased MB3/PE3",
  "ImageOrientationPatientDICOM": [0.992537, -0.0377284, 0.115963, 0.00935474, 0.971691, 0.23607],
  "ImageType": [
    "ORIGINAL",
    "PRIMARY",
    "DIFFUSION",
    "NONE",
    "MB",
    "ND"
],
  "ImagingFrequency": 123.252,
  "InPlanePhaseEncodingDirectionDICOM": "COL",
  "InstitutionAddress": "Maynard 3,Hanover,NH,US,03755",
  "InstitutionName": "Dartmouth College - PBS",
  "InstitutionalDepartmentName": "Department",
  "IntendedFor": [
    "ses-01/dwi/sub-0035_ses-01_acq-96dirX6b0Xmb_dwi.nii.gz"
],
  "MRAcquisitionType": "2D",
  "MagneticFieldStrength": 3,
  "Manufacturer": "Siemens",
  "ManufacturersModelName": "Prisma",
  "Modality": "MR",
  "MultibandAccelerationFactor": 3,
  "PartialFourier": 0.75,
  "PatientPosition": "HFS",
  "PercentPhaseFOV": 100,
  "PercentSampling": 100,
  "PhaseEncodingDirection": "j-",
  "PhaseEncodingSteps": 105,
  "PhaseResolution": 1,
  "PixelBandwidth": 1700,
  "ProcedureStepDescription": "Wager_Wager^1076_spacetop",
  "ProtocolName": "dwi_acq-discorr-AP",
  "PulseSequenceDetails": "%CustomerSeq%\\cmrr_mbep2d_diff",
  "ReceiveCoilActiveElements": "HEA;HEP",
  "ReceiveCoilName": "Head_32",
  "ReconMatrixPE": 140,
  "RepetitionTime": 4.1,
  "SAR": 0.190294,
  "ScanOptions": "PFP\\FS",
  "ScanningSequence": "EP",
  "SequenceName": "ep_b0",
  "SequenceVariant": "SK\\SS",
  "SeriesDescription": "dwi_acq-discorr-AP",
  "SeriesNumber": 7,
  "ShimSetting": [4187, -7717, -7175, 543, 0, -65, 50, 23],
  "SliceThickness": 1.7,
  "SliceTiming": [0, 2.10938, 0.14062, 2.25, 0.29688, 2.40625, 0.4375, 2.5625, 0.59375, 2.71875, 0.75, 2.85938, 0.89062, 3.01562, 1.04688, 3.17188, 1.20312, 3.3125, 1.35938, 3.46875, 1.5, 3.625, 1.65625, 3.76562, 1.8125, 3.92188, 1.95312, 0, 2.10938, 0.14062, 2.25, 0.29688, 2.40625, 0.4375, 2.5625, 0.59375, 2.71875, 0.75, 2.85938, 0.89062, 3.01562, 1.04688, 3.17188, 1.20312, 3.3125, 1.35938, 3.46875, 1.5, 3.625, 1.65625, 3.76562, 1.8125, 3.92188, 1.95312, 0, 2.10938, 0.14062, 2.25, 0.29688, 2.40625, 0.4375, 2.5625, 0.59375, 2.71875, 0.75, 2.85938, 0.89062, 3.01562, 1.04688, 3.17188, 1.20312, 3.3125, 1.35938, 3.46875, 1.5, 3.625, 1.65625, 3.76562, 1.8125, 3.92188, 1.95312],
  "SoftwareVersions": "syngo MR E11",
  "SpacingBetweenSlices": 1.7,
  "StationName": "AWP66112",
  "TotalReadoutTime": 0.0959097,
  "TxRefAmp": 267.7,
  "WipMemBlock": "dc4c3627-fa71-49db-aecc-6f48f096b79a||Sequence: R016 ve11c/master r/e634e98; Dec 19 2017 11:11:25 by eja",
  "dcmmeta_affine": [
    [-1.7014914751052856, 0.01603669673204422, 0.2066974639892578, 115.46114349365234],
    [0.06467734277248383, 1.6657558679580688, 0.3964805603027344, -94.80265808105469],
    [0.1987939476966858, -0.4046921730041504, 1.6401519775390625, -7.188097953796387],
    [0.0, 0.0, 0.0, 1.0]
],
  "dcmmeta_reorient_transform": [
    [0.0, -1.0, 0.0, 139.0],
    [1.0, 0.0, 0.0, 0.0],
    [0.0, 0.0, -1.0, 80.0],
    [0.0, 0.0, 0.0, 1.0]
],
  "dcmmeta_shape": [140, 140, 81],
  "dcmmeta_slice_dim": 2,
  "dcmmeta_version": 0.6,
  "global": {
    "const": {
      "AccessionNumber": "A003799",
      "AcquisitionMatrix": [140, 0, 0, 140],
      "AcquisitionNumber": 1,
      "AngioFlag": "N",
      "BitsAllocated": 16,
      "BitsStored": 16,
      "BodyPartExamined": "BRAIN",
      "Columns": 140,
      "EchoNumbers": 1,
      "EchoTime": 88.0,
      "EchoTrainLength": 105,
      "FlipAngle": 90.0,
      "HighBit": 15,
      "ImageOrientationPatient": [0.99253670730638, -0.0377284482163, 0.11596313571393, 0.00935473992339, 0.9716909175867, 0.23607043338902],
      "ImageType": [
        "ORIGINAL",
        "PRIMARY",
        "DIFFUSION",
        "NONE",
        "MB",
        "ND"
],
      "ImagedNucleus": "1H",
      "ImagingFrequency": 123.252131,
      "InPlanePhaseEncodingDirection": "COL",
      "MRAcquisitionType": "2D",
      "MagneticFieldStrength": 3.0,
      "Manufacturer": "SIEMENS",
      "ManufacturerModelName": "Prisma",
      "Modality": "MR",
      "NumberOfAverages": 1.0,
      "NumberOfPhaseEncodingSteps": 105,
      "PercentPhaseFieldOfView": 100.0,
      "PercentSampling": 100.0,
      "PerformedProcedureStepStartTime": "164116.521000",
      "PhotometricInterpretation": "MONOCHROME2",
      "PixelBandwidth": 1700.0,
      "PixelRepresentation": 0,
      "PixelSpacing": [1.7142857313156, 1.7142857313156],
      "ProtocolName": "dwi_acq-discorr-AP",
      "RepetitionTime": 4100.0,
      "Rows": 140,
      "SAR": 0.19029432413183,
      "SamplesPerPixel": 1,
      "ScanOptions": [
        "PFP",
        "FS"
],
      "ScanningSequence": "EP",
      "SequenceName": "ep_b0",
      "SequenceVariant": [
        "SK",
        "SS"
],
      "SeriesDescription": "dwi_acq-discorr-AP",
      "SeriesNumber": 7,
      "SeriesTime": "170120.341000",
      "SliceThickness": 1.7000000476837,
      "SmallestImagePixelValue": 0,
      "SoftwareVersions": "syngo MR E11",
      "SpacingBetweenSlices": 1.7,
      "SpecificCharacterSet": "ISO_IR 100",
      "StudyID": "1",
      "StudyTime": "164116.411000",
      "TransmitCoilName": "Body",
      "VariableFlipAngleFlag": "N",
      "WindowCenterWidthExplanation": "Algo1",
      "dBdt": 0.0},
    "slices": {
      "AcquisitionTime": ["170116.055000", "170118.170000", "170116.205000", "170118.320000", "170116.357500", "170118.472500", "170116.507500", "170118.622500", "170116.657500", "170118.775000", "170116.810000", "170118.925000", "170116.960000", "170119.077500", "170117.112500", "170119.227500", "170117.262500", "170119.377500", "170117.415000", "170119.530000", "170117.565000", "170119.680000", "170117.717500", "170119.832500", "170117.867500", "170119.982500", "170118.017500", "170116.055000", "170118.170000", "170116.205000", "170118.320000", "170116.357500", "170118.472500", "170116.507500", "170118.622500", "170116.657500", "170118.775000", "170116.810000", "170118.925000", "170116.960000", "170119.077500", "170117.112500", "170119.227500", "170117.262500", "170119.377500", "170117.415000", "170119.530000", "170117.565000", "170119.680000", "170117.717500", "170119.832500", "170117.867500", "170119.982500", "170118.017500", "170116.055000", "170118.170000", "170116.205000", "170118.320000", "170116.357500", "170118.472500", "170116.507500", "170118.622500", "170116.657500", "170118.775000", "170116.810000", "170118.925000", "170116.960000", "170119.077500", "170117.112500", "170119.227500", "170117.262500", "170119.377500", "170117.415000", "170119.530000", "170117.565000", "170119.680000", "170117.717500", "170119.832500", "170117.867500", "170119.982500", "170118.017500"],
      "ContentTime": ["170120.349000", "170120.459000", "170120.357000", "170120.466000", "170120.370000", "170120.472000", "170120.377000", "170120.479000", "170120.385000", "170120.486000", "170120.392000", "170120.492000", "170120.400000", "170120.499000", "170120.408000", "170120.505000", "170120.415000", "170120.516000", "170120.422000", "170120.523000", "170120.429000", "170120.529000", "170120.440000", "170120.536000", "170120.446000", "170120.542000", "170120.453000", "170120.352000", "170120.461000", "170120.359000", "170120.468000", "170120.372000", "170120.475000", "170120.380000", "170120.482000", "170120.387000", "170120.488000", "170120.395000", "170120.494000", "170120.402000", "170120.501000", "170120.410000", "170120.507000", "170120.417000", "170120.518000", "170120.425000", "170120.525000", "170120.431000", "170120.532000", "170120.442000", "170120.538000", "170120.448000", "170120.544000", "170120.455000", "170120.355000", "170120.463000", "170120.368000", "170120.470000", "170120.375000", "170120.477000", "170120.382000", "170120.484000", "170120.389000", "170120.490000", "170120.397000", "170120.496000", "170120.405000", "170120.503000", "170120.412000", "170120.514000", "170120.420000", "170120.521000", "170120.427000", "170120.527000", "170120.438000", "170120.534000", "170120.444000", "170120.540000", "170120.451000", "170120.546000", "170120.457000"],
      "CsaImage.ICE_Dims": [
        "X_1_1_1_1_1_1_1_1_1_1_1_146",
        "X_1_1_1_1_1_1_42_1_1_2_1_146",
        "X_1_1_1_1_1_1_2_1_1_3_1_146",
        "X_1_1_1_1_1_1_43_1_1_4_1_146",
        "X_1_1_1_1_1_1_3_1_1_5_1_146",
        "X_1_1_1_1_1_1_44_1_1_6_1_146",
        "X_1_1_1_1_1_1_4_1_1_7_1_146",
        "X_1_1_1_1_1_1_45_1_1_8_1_146",
        "X_1_1_1_1_1_1_5_1_1_9_1_146",
        "X_1_1_1_1_1_1_46_1_1_10_1_146",
        "X_1_1_1_1_1_1_6_1_1_11_1_146",
        "X_1_1_1_1_1_1_47_1_1_12_1_146",
        "X_1_1_1_1_1_1_7_1_1_13_1_146",
        "X_1_1_1_1_1_1_48_1_1_14_1_146",
        "X_1_1_1_1_1_1_8_1_1_15_1_146",
        "X_1_1_1_1_1_1_49_1_1_16_1_146",
        "X_1_1_1_1_1_1_9_1_1_17_1_146",
        "X_1_1_1_1_1_1_50_1_1_18_1_146",
        "X_1_1_1_1_1_1_10_1_1_19_1_146",
        "X_1_1_1_1_1_1_51_1_1_20_1_146",
        "X_1_1_1_1_1_1_11_1_1_21_1_146",
        "X_1_1_1_1_1_1_52_1_1_22_1_146",
        "X_1_1_1_1_1_1_12_1_1_23_1_146",
        "X_1_1_1_1_1_1_53_1_1_24_1_146",
        "X_1_1_1_1_1_1_13_1_1_25_1_146",
        "X_1_1_1_1_1_1_54_1_1_26_1_146",
        "X_1_1_1_1_1_1_14_1_1_27_1_146",
        "X_1_1_1_1_1_1_55_1_1_28_1_146",
        "X_1_1_1_1_1_1_15_1_1_29_1_146",
        "X_1_1_1_1_1_1_56_1_1_30_1_146",
        "X_1_1_1_1_1_1_16_1_1_31_1_146",
        "X_1_1_1_1_1_1_57_1_1_32_1_146",
        "X_1_1_1_1_1_1_17_1_1_33_1_146",
        "X_1_1_1_1_1_1_58_1_1_34_1_146",
        "X_1_1_1_1_1_1_18_1_1_35_1_146",
        "X_1_1_1_1_1_1_59_1_1_36_1_146",
        "X_1_1_1_1_1_1_19_1_1_37_1_146",
        "X_1_1_1_1_1_1_60_1_1_38_1_146",
        "X_1_1_1_1_1_1_20_1_1_39_1_146",
        "X_1_1_1_1_1_1_61_1_1_40_1_146",
        "X_1_1_1_1_1_1_21_1_1_41_1_146",
        "X_1_1_1_1_1_1_62_1_1_42_1_146",
        "X_1_1_1_1_1_1_22_1_1_43_1_146",
        "X_1_1_1_1_1_1_63_1_1_44_1_146",
        "X_1_1_1_1_1_1_23_1_1_45_1_146",
        "X_1_1_1_1_1_1_64_1_1_46_1_146",
        "X_1_1_1_1_1_1_24_1_1_47_1_146",
        "X_1_1_1_1_1_1_65_1_1_48_1_146",
        "X_1_1_1_1_1_1_25_1_1_49_1_146",
        "X_1_1_1_1_1_1_66_1_1_50_1_146",
        "X_1_1_1_1_1_1_26_1_1_51_1_146",
        "X_1_1_1_1_1_1_67_1_1_52_1_146",
        "X_1_1_1_1_1_1_27_1_1_53_1_146",
        "X_1_1_1_1_1_1_68_1_1_54_1_146",
        "X_1_1_1_1_1_1_28_1_1_55_1_146",
        "X_1_1_1_1_1_1_69_1_1_56_1_146",
        "X_1_1_1_1_1_1_29_1_1_57_1_146",
        "X_1_1_1_1_1_1_70_1_1_58_1_146",
        "X_1_1_1_1_1_1_30_1_1_59_1_146",
        "X_1_1_1_1_1_1_71_1_1_60_1_146",
        "X_1_1_1_1_1_1_31_1_1_61_1_146",
        "X_1_1_1_1_1_1_72_1_1_62_1_146",
        "X_1_1_1_1_1_1_32_1_1_63_1_146",
        "X_1_1_1_1_1_1_73_1_1_64_1_146",
        "X_1_1_1_1_1_1_33_1_1_65_1_146",
        "X_1_1_1_1_1_1_74_1_1_66_1_146",
        "X_1_1_1_1_1_1_34_1_1_67_1_146",
        "X_1_1_1_1_1_1_75_1_1_68_1_146",
        "X_1_1_1_1_1_1_35_1_1_69_1_146",
        "X_1_1_1_1_1_1_76_1_1_70_1_146",
        "X_1_1_1_1_1_1_36_1_1_71_1_146",
        "X_1_1_1_1_1_1_77_1_1_72_1_146",
        "X_1_1_1_1_1_1_37_1_1_73_1_146",
        "X_1_1_1_1_1_1_78_1_1_74_1_146",
        "X_1_1_1_1_1_1_38_1_1_75_1_146",
        "X_1_1_1_1_1_1_79_1_1_76_1_146",
        "X_1_1_1_1_1_1_39_1_1_77_1_146",
        "X_1_1_1_1_1_1_80_1_1_78_1_146",
        "X_1_1_1_1_1_1_40_1_1_79_1_146",
        "X_1_1_1_1_1_1_81_1_1_80_1_146",
        "X_1_1_1_1_1_1_41_1_1_81_1_146"
],
      "CsaImage.ProtocolSliceNumber": [0, 1, 2, 3, 4, 5, 6, 7, 8, 9, 10, 11, 12, 13, 14, 15, 16, 17, 18, 19, 20, 21, 22, 23, 24, 25, 26, 27, 28, 29, 30, 31, 32, 33, 34, 35, 36, 37, 38, 39, 40, 41, 42, 43, 44, 45, 46, 47, 48, 49, 50, 51, 52, 53, 54, 55, 56, 57, 58, 59, 60, 61, 62, 63, 64, 65, 66, 67, 68, 69, 70, 71, 72, 73, 74, 75, 76, 77, 78, 79, 80],
      "CsaImage.RFSWDDataType": [
        "predicted",
        "predicted",
        "predicted",
        "predicted",
        "predicted",
        "predicted",
        "predicted",
        "predicted",
        "predicted",
        "predicted",
        "predicted",
        "predicted",
        "predicted",
        "predicted",
        "predicted",
        "predicted",
        "predicted",
        "predicted",
        "predicted",
        "predicted",
        "predicted",
        "predicted",
        "predicted",
        "predicted",
        "predicted",
        "measured",
        "predicted",
        "predicted",
        "predicted",
        "predicted",
        "predicted",
        "predicted",
        "predicted",
        "predicted",
        "predicted",
        "predicted",
        "predicted",
        "predicted",
        "predicted",
        "predicted",
        "predicted",
        "predicted",
        "predicted",
        "predicted",
        "predicted",
        "predicted",
        "predicted",
        "predicted",
        "predicted",
        "predicted",
        "predicted",
        "predicted",
        "measured",
        "predicted",
        "predicted",
        "predicted",
        "predicted",
        "predicted",
        "predicted",
        "predicted",
        "predicted",
        "predicted",
        "predicted",
        "predicted",
        "predicted",
        "predicted",
        "predicted",
        "predicted",
        "predicted",
        "predicted",
        "predicted",
        "predicted",
        "predicted",
        "predicted",
        "predicted",
        "predicted",
        "predicted",
        "predicted",
        "predicted",
        "measured",
        "predicted"
],
      "CsaImage.SlicePosition_PCS": [
        [-117.69022621, -136.7374218, -63.43984475],
        [-117.89692392, -137.13390236, -61.7996985],
        [-118.10362162, -137.53038292, -60.15955224],
        [-118.31031944, -137.92686348, -58.51940599],
        [-118.51701714, -138.32334404, -56.87926068],
        [-118.72371485, -138.7198246, -55.23911443],
        [-118.93041267, -139.11630516, -53.59896817],
        [-119.13711037, -139.51278572, -51.95882287],
        [-119.34380807, -139.90926438, -50.31867662],
        [-119.55050577, -140.30574494, -48.67853036],
        [-119.75720354, -140.7022255, -47.0383841],
        [-119.96390124, -141.09870606, -45.39823785],
        [-120.17059898, -141.49518662, -43.75809171],
        [-120.3772967, -141.89166718, -42.11794562],
        [-120.58399444, -142.28814774, -40.47779944],
        [-120.79069217, -142.6846283, -38.8376533],
        [-120.99738987, -143.08110886, -37.19750705],
        [-121.20408763, -143.47758942, -35.55736127],
        [-121.41078533, -143.87406998, -33.91721501],
        [-121.61748304, -144.27055054, -32.27706876],
        [-121.82418074, -144.6670311, -30.6369225],
        [-122.03087856, -145.06351166, -28.99677625],
        [-122.23757614, -145.45999222, -27.35662999],
        [-122.44427408, -145.85647278, -25.71648469],
        [-122.65097179, -146.25295334, -24.07633843],
        [-122.85766949, -146.6494339, -22.43619218],
        [-123.06436719, -147.04591446, -20.79604592],
        [-123.27106489, -147.44239121, -19.15589967],
        [-123.4777626, -147.83887177, -17.51575341],
        [-123.6844603, -148.23535233, -15.87560716],
        [-123.891158, -148.63183289, -14.2354609],
        [-124.0978557, -149.02831345, -12.59531465],
        [-124.30455341, -149.42479401, -10.95516839],
        [-124.51125135, -149.82127457, -9.31502404],
        [-124.71794881, -150.21775513, -7.67487588],
        [-124.92464675, -150.61423569, -6.03473153],
        [-125.13134422, -151.01071625, -4.39458337],
        [-125.33804216, -151.40719681, -2.75443902],
        [-125.5447401, -151.80367737, -1.11429086],
        [-125.75143756, -152.20015793, 0.52585349],
        [-125.9581355, -152.59663849, 2.16600165],
        [-126.16483297, -152.99311905, 3.806146],
        [-126.37153091, -153.38959961, 5.44629035],
        [-126.57822837, -153.78608017, 7.08643851],
        [-126.78492631, -154.18256073, 8.72658286],
        [-126.99162378, -154.57904129, 10.36673102],
        [-127.19832172, -154.97552185, 12.00687537],
        [-127.40501918, -155.37200241, 13.64702353],
        [-127.61171712, -155.76848297, 15.28716788],
        [-127.81841506, -156.16496353, 16.92731605],
        [-128.02511253, -156.56144409, 18.56746039],
        [-128.23180999, -156.95792465, 20.20760856],
        [-128.43850841, -157.3544014, 21.8477529],
        [-128.64520587, -157.75088196, 23.48789725],
        [-128.85190334, -158.14736252, 25.12804923],
        [-129.0586008, -158.54384308, 26.76819358],
        [-129.26529922, -158.94032364, 28.40833793],
        [-129.47199668, -159.3368042, 30.04848227],
        [-129.67869415, -159.73328476, 31.68862662],
        [-129.88539256, -160.12976532, 33.3287786],
        [-130.09209003, -160.52624588, 34.96892295],
        [-130.29878749, -160.92272644, 36.6090673],
        [-130.50548496, -161.319207, 38.24921164],
        [-130.71218337, -161.71568756, 39.88936362],
        [-130.91888084, -162.11216812, 41.52950797],
        [-131.1255783, -162.50864868, 43.16965232],
        [-131.33227577, -162.90512924, 44.80979667],
        [-131.53897418, -163.3016098, 46.44994864],
        [-131.74567165, -163.69809036, 48.09009299],
        [-131.95236911, -164.09457092, 49.73023734],
        [-132.15906753, -164.49105148, 51.37038169],
        [-132.36576499, -164.88753204, 53.01053367],
        [-132.57246246, -165.28401261, 54.65067801],
        [-132.77915992, -165.68049317, 56.29082236],
        [-132.98585834, -166.07697373, 57.93096671],
        [-133.1925558, -166.47345429, 59.57111106],
        [-133.39925327, -166.86993485, 61.21126304],
        [-133.60595168, -167.26641541, 62.85140738],
        [-133.81264915, -167.66289215, 64.49155173],
        [-134.01934661, -168.05937271, 66.13169608],
        [-134.22604408, -168.45585327, 67.77184806]
],
      "CsaImage.TimeAfterStart": [16.4, 18.5175, 16.5525, 18.6675, 16.7025, 18.82, 16.855, 18.97, 17.005, 19.12, 17.1575, 19.2725, 17.3075, 19.4225, 17.46, 19.575, 17.61, 19.725, 17.76, 19.8775, 17.9125, 20.0275, 18.0625, 20.18, 18.215, 20.33, 18.365, 16.4, 18.5175, 16.5525, 18.6675, 16.7025, 18.82, 16.855, 18.97, 17.005, 19.12, 17.1575, 19.2725, 17.3075, 19.4225, 17.46, 19.575, 17.61, 19.725, 17.76, 19.8775, 17.9125, 20.0275, 18.0625, 20.18, 18.215, 20.33, 18.365, 16.4, 18.5175, 16.5525, 18.6675, 16.7025, 18.82, 16.855, 18.97, 17.005, 19.12, 17.1575, 19.2725, 17.3075, 19.4225, 17.46, 19.575, 17.61, 19.725, 17.76, 19.8775, 17.9125, 20.0275, 18.0625, 20.18, 18.215, 20.33, 18.365],
      "ImagePositionPatient": [
        [-117.69022621423, -136.7374218, -63.43984475205],
        [-117.89692391664, -137.13390236031, -61.799698496557],
        [-118.10362161905, -137.53038292061, -60.159552241063],
        [-118.31031944066, -137.92686348091, -58.51940598557],
        [-118.51701714307, -138.32334404121, -56.879260683751],
        [-118.72371484548, -138.71982460152, -55.239114428258],
        [-118.9304126671, -139.11630516182, -53.598968172765],
        [-119.1371103695, -139.51278572212, -51.958822870946],
        [-119.34380807191, -139.90926437508, -50.318676615453],
        [-119.55050577432, -140.30574493538, -48.67853035996],
        [-119.75720353633, -140.70222549568, -47.038384104467],
        [-119.96390123874, -141.09870605598, -45.398237848974],
        [-120.1705989784, -141.49518661629, -43.75809171269],
        [-120.37729670316, -141.89166717659, -42.117945621109],
        [-120.58399443537, -142.28814773689, -40.477799440122],
        [-120.79069216758, -142.6846282972, -38.837653303838],
        [-120.99738986999, -143.0811088575, -37.197507048345],
        [-121.204087632, -143.4775894178, -35.557361269689],
        [-121.41078533441, -143.8740699781, -33.917215014196],
        [-121.61748303682, -144.27055053841, -32.277068758703],
        [-121.82418073922, -144.66703109871, -30.636922503209],
        [-122.03087856084, -145.06351165901, -28.996776247716],
        [-122.23757614404, -145.45999221931, -27.356629992223],
        [-122.44427408487, -145.85647277962, -25.716484690404],
        [-122.65097178727, -146.25295333992, -24.076338434911],
        [-122.85766948968, -146.64943390022, -22.436192179418],
        [-123.06436719209, -147.04591446053, -20.796045923925],
        [-123.2710648945, -147.44239120613, -19.155899668432],
        [-123.4777625969, -147.83887176643, -17.515753412938],
        [-123.68446029931, -148.23535232674, -15.875607157445],
        [-123.89115800172, -148.63183288704, -14.235460901952],
        [-124.09785570413, -149.02831344734, -12.595314646459],
        [-124.30455340654, -149.42479400764, -10.955168390966],
        [-124.51125134736, -149.82127456795, -9.3150240428213],
        [-124.71794881135, -150.21775512825, -7.6748758799795],
        [-124.92464675218, -150.61423568855, -6.0347315318349],
        [-125.13134421617, -151.01071624886, -4.3945833689931],
        [-125.33804215699, -151.40719680916, -2.7544390208486],
        [-125.54474009782, -151.80367736946, -1.1142908580068],
        [-125.75143756181, -152.20015792976, 0.52585349013772],
        [-125.95813550264, -152.59663849007, 2.1660016529795],
        [-126.16483296663, -152.99311905037, 3.806146001124],
        [-126.37153090745, -153.38959961067, 5.4462903492686],
        [-126.57822837144, -153.78608017097, 7.0864385121104],
        [-126.78492631227, -154.18256073128, 8.7265828602549],
        [-126.99162377626, -154.57904129158, 10.366731023097],
        [-127.19832171708, -154.97552185188, 12.006875371241],
        [-127.40501918107, -155.37200241219, 13.647023534083],
        [-127.6117171219, -155.76848297249, 15.287167882228],
        [-127.81841506273, -156.16496353279, 16.927316045069],
        [-128.02511252671, -156.56144409309, 18.567460393214],
        [-128.2318099907, -156.9579246534, 20.207608556056],
        [-128.43850840837, -157.354401399, 21.8477529042],
        [-128.64520587236, -157.7508819593, 23.487897252345],
        [-128.85190333635, -158.14736251961, 25.128049229884],
        [-129.05860080034, -158.54384307991, 26.768193578028],
        [-129.265299218, -158.94032364021, 28.408337926173],
        [-129.47199668199, -159.33680420052, 30.048482274317],
        [-129.67869414598, -159.73328476082, 31.688626622462],
        [-129.88539256364, -160.12976532112, 33.328778600001],
        [-130.09209002763, -160.52624588142, 34.968922948146],
        [-130.29878749162, -160.92272644173, 36.60906729629],
        [-130.50548495561, -161.31920700203, 38.249211644435],
        [-130.71218337327, -161.71568756233, 39.889363621974],
        [-130.91888083726, -162.11216812263, 41.529507970118],
        [-131.12557830125, -162.50864868294, 43.169652318263],
        [-131.33227576524, -162.90512924324, 44.809796666407],
        [-131.5389741829, -163.30160980354, 46.449948643946],
        [-131.74567164689, -163.69809036385, 48.090092992091],
        [-131.95236911088, -164.09457092415, 49.730237340235],
        [-132.15906752855, -164.49105148445, 51.37038168838],
        [-132.36576499253, -164.88753204475, 53.010533665919],
        [-132.57246245652, -165.28401260506, 54.650678014063],
        [-132.77915992051, -165.68049316536, 56.290822362208],
        [-132.98585833818, -166.07697372566, 57.930966710353],
        [-133.19255580217, -166.47345428596, 59.571111058497],
        [-133.39925326616, -166.86993484627, 61.211263036036],
        [-133.60595168382, -167.26641540657, 62.851407384181],
        [-133.81264914781, -167.66289215218, 64.491551732325],
        [-134.0193466118, -168.05937271248, 66.13169608047],
        [-134.22604407579, -168.45585327278, 67.771848058009]
],
      "InstanceCreationTime": ["170120.349000", "170120.459000", "170120.357000", "170120.466000", "170120.370000", "170120.472000", "170120.377000", "170120.479000", "170120.385000", "170120.486000", "170120.392000", "170120.492000", "170120.400000", "170120.499000", "170120.408000", "170120.505000", "170120.415000", "170120.516000", "170120.422000", "170120.523000", "170120.429000", "170120.529000", "170120.440000", "170120.536000", "170120.446000", "170120.542000", "170120.453000", "170120.352000", "170120.461000", "170120.359000", "170120.468000", "170120.372000", "170120.475000", "170120.380000", "170120.482000", "170120.387000", "170120.488000", "170120.395000", "170120.494000", "170120.402000", "170120.501000", "170120.410000", "170120.507000", "170120.417000", "170120.518000", "170120.425000", "170120.525000", "170120.431000", "170120.532000", "170120.442000", "170120.538000", "170120.448000", "170120.544000", "170120.455000", "170120.355000", "170120.463000", "170120.368000", "170120.470000", "170120.375000", "170120.477000", "170120.382000", "170120.484000", "170120.389000", "170120.490000", "170120.397000", "170120.496000", "170120.405000", "170120.503000", "170120.412000", "170120.514000", "170120.420000", "170120.521000", "170120.427000", "170120.527000", "170120.438000", "170120.534000", "170120.444000", "170120.540000", "170120.451000", "170120.546000", "170120.457000"],
      "InstanceNumber": [1, 2, 3, 4, 5, 6, 7, 8, 9, 10, 11, 12, 13, 14, 15, 16, 17, 18, 19, 20, 21, 22, 23, 24, 25, 26, 27, 28, 29, 30, 31, 32, 33, 34, 35, 36, 37, 38, 39, 40, 41, 42, 43, 44, 45, 46, 47, 48, 49, 50, 51, 52, 53, 54, 55, 56, 57, 58, 59, 60, 61, 62, 63, 64, 65, 66, 67, 68, 69, 70, 71, 72, 73, 74, 75, 76, 77, 78, 79, 80, 81],
      "LargestImagePixelValue": [21719, 19617, 22464, 28091, 26039, 27080, 22778, 30244, 32737, 25462, 24941, 26161, 29688, 38527, 44388, 36372, 39596, 36894, 37542, 42510, 50495, 37132, 43059, 48417, 59500, 58612, 50045, 59789, 65535, 58438, 34864, 49843, 40724, 33926, 33067, 30360, 41143, 40630, 34942, 42126, 45917, 56665, 58964, 64389, 65535, 65535, 54457, 49684, 58324, 53332, 65535, 65535, 65535, 65535, 65535, 65535, 65535, 52088, 48726, 53272, 48193, 50261, 54880, 54024, 56615, 65535, 65535, 65535, 65535, 64692, 65535, 65535, 65535, 65535, 65535, 42482, 24327, 23150, 24101, 26847, 20721],
      "SliceLocation": [-15.006238963329, -13.306238812068, -11.606238660807, -9.906238495052, -8.2062392638884, -6.5062391126276, -4.8062389468724, -3.1062397157088, -1.406240009287, 0.29376014197386, 1.9937603004818, 3.6937604517427, 5.3937604925208, 7.0937604883576, 8.7937605713595, 10.493760611232, 12.193760762493, 13.893760460952, 15.593760612213, 17.293760763474, 18.993760914734, 20.69376108049, 22.393761217256, 24.093760477408, 25.793760628669, 27.49376077993, 29.193760931191, 30.893760192774, 32.593760344035, 34.293760495295, 35.993760646556, 37.693760797817, 39.393760949078, 41.093759289133, 42.7937612516, 44.493759591655, 46.193761554121, 47.893759894176, 49.59376191462, 51.293760196698, 52.993762217142, 54.69376049922, 56.393758839275, 58.093760801741, 59.793759141796, 61.493761104263, 63.193759444318, 64.893761406785, 66.59375974684, 68.293761767283, 69.993760049361, 71.693762011828, 73.393759520182, 75.09375780226, 76.793763445115, 78.493761727193, 80.193760125225, 81.893758407303, 83.593756689381, 85.293762448191, 86.993760730269, 88.693759012347, 90.393757294425, 92.093763053234, 93.793761335312, 95.49375961739, 97.193757899468, 98.893763658278, 100.59376194036, 102.29376022243, 103.99375862047, 105.69376426332, 107.3937625454, 109.09376082748, 110.79375922551, 112.49375750759, 114.19376315044, 115.89376154847, 117.59375894087, 119.29375722295, 120.99376286581],
      "WindowCenter": [5736.0, 5540.0, 5752.0, 5990.0, 5846.0, 5716.0, 5303.0, 6111.0, 6464.0, 6224.0, 6223.0, 6307.0, 6668.0, 7070.0, 7252.0, 7098.0, 7442.0, 7674.0, 7692.0, 8525.0, 8741.0, 8451.0, 8678.0, 8999.0, 9530.0, 9581.0, 9493.0, 9506.0, 9482.0, 9412.0, 8741.0, 8823.0, 8744.0, 8786.0, 8816.0, 9089.0, 9431.0, 9683.0, 9585.0, 9800.0, 9997.0, 10290.0, 10376.0, 10661.0, 10748.0, 10687.0, 10621.0, 10838.0, 11146.0, 11343.0, 11497.0, 11729.0, 11912.0, 11998.0, 11406.0, 11443.0, 11503.0, 11264.0, 11242.0, 11294.0, 11380.0, 11152.0, 11339.0, 11331.0, 11469.0, 11393.0, 11554.0, 11396.0, 11340.0, 11042.0, 10850.0, 10720.0, 10517.0, 9206.0, 8013.0, 6772.0, 5758.0, 5529.0, 6005.0, 7111.0, 5930.0],
      "WindowWidth": [12798.0, 12308.0, 12889.0, 13379.0, 12925.0, 12627.0, 11859.0, 13360.0, 14070.0, 13683.0, 13743.0, 14024.0, 14664.0, 15550.0, 15697.0, 15671.0, 16481.0, 17030.0, 17040.0, 18720.0, 18979.0, 18445.0, 18829.0, 19617.0, 21127.0, 21257.0, 21052.0, 20949.0, 20786.0, 20339.0, 18932.0, 19113.0, 19008.0, 19019.0, 19093.0, 19682.0, 20266.0, 20966.0, 20736.0, 21255.0, 21692.0, 22343.0, 22659.0, 23427.0, 23780.0, 23496.0, 23249.0, 23696.0, 24413.0, 24981.0, 25657.0, 26512.0, 27231.0, 27500.0, 25998.0, 25949.0, 26022.0, 25139.0, 25053.0, 25339.0, 25583.0, 24994.0, 25648.0, 25752.0, 26507.0, 26600.0, 27788.0, 27612.0, 28863.0, 28147.0, 28481.0, 27605.0, 26211.0, 20991.0, 17768.0, 13957.0, 12352.0, 11660.0, 12332.0, 14255.0, 11674.0]
    }
  }
}