{
  "AcquisitionMatrixPE": 82,
  "AcquisitionNumber": 1,
  "AcquisitionTime": "13:05:55.547500",
  "BandwidthPerPixelPhaseEncode": 24.888,
  "BaseResolution": 82,
  "BodyPartExamined": "BRAIN",
  "ConsistencyInfo": "N4_VE11C_LATEST_20160120",
  "ConversionSoftware": "dcm2niix",
  "ConversionSoftwareVersion": "v1.0.20201102",
  "DerivedVendorReportedEchoSpacing": 0.00049,
  "DeviceSerialNumber": "66112",
  "DwellTime": 2e-06,
  "EchoTime": 0.0272,
  "EchoTrainLength": 82,
  "EffectiveEchoSpacing": 0.00049,
  "FlipAngle": 44,
  "ImageComments": "Unaliased MB8/PE3",
  "ImageOrientationPatientDICOM": [0.999195, 0.0345594, 0.0203874, -0.0341943, 0.999253, -0.0179911],
  "ImageType": [
    "ORIGINAL",
    "PRIMARY",
    "M",
    "MB",
    "ND",
    "NORM",
    "MOSAIC"
],
  "ImagingFrequency": 123.252,
  "InPlanePhaseEncodingDirectionDICOM": "COL",
  "InstitutionAddress": "Maynard 3,Hanover,NH,US,03755",
  "InstitutionName": "Dartmouth College - PBS",
  "InstitutionalDepartmentName": "Department",
  "MRAcquisitionType": "2D",
  "MagneticFieldStrength": 3,
  "Manufacturer": "Siemens",
  "ManufacturersModelName": "Prisma",
  "Modality": "MR",
  "MultibandAccelerationFactor": 8,
  "PartialFourier": 1,
  "PatientPosition": "HFS",
  "PercentPhaseFOV": 100,
  "PercentSampling": 100,
  "PhaseEncodingDirection": "j-",
  "PhaseEncodingSteps": 82,
  "PhaseResolution": 1,
  "PixelBandwidth": 3050,
  "ProcedureStepDescription": "Wager_Wager^1076_spacetop",
  "ProtocolName": "func_run-01_task-social_acq-ap-mb8",
  "PulseSequenceDetails": "%CustomerSeq%\\cmrr_mbep2d_bold",
  "ReceiveCoilActiveElements": "HEA;HEP",
  "ReceiveCoilName": "Head_32",
  "ReconMatrixPE": 82,
  "RepetitionTime": 0.46,
  "SAR": 0.0948973,
  "ScanOptions": "FS",
  "ScanningSequence": "EP",
  "SequenceName": "epfid2d1_82",
  "SequenceVariant": "SK\\SS",
  "SeriesDescription": "func_run-01_task-social_acq-ap-mb8",
  "SeriesNumber": 12,
  "ShimSetting": [4157, -7771, -7220, 630, -71, -195, -45, 65],
  "SliceThickness": 2.7,
  "SliceTiming": [0, 0.2525, 0.065, 0.315, 0.1275, 0.3775, 0.19, 0, 0.2525, 0.065, 0.315, 0.1275, 0.3775, 0.19, 0, 0.2525, 0.065, 0.315, 0.1275, 0.3775, 0.19, 0, 0.2525, 0.065, 0.315, 0.1275, 0.3775, 0.19, 0, 0.2525, 0.065, 0.315, 0.1275, 0.3775, 0.19, 0, 0.2525, 0.065, 0.315, 0.1275, 0.3775, 0.19, 0, 0.2525, 0.065, 0.315, 0.1275, 0.3775, 0.19, 0, 0.2525, 0.065, 0.315, 0.1275, 0.3775, 0.19],
  "SoftwareVersions": "syngo MR E11",
  "SpacingBetweenSlices": 2.7,
  "StationName": "AWP66112",
  "TaskName": "social",
  "TotalReadoutTime": 0.03969,
  "TxRefAmp": 234.206,
  "WipMemBlock": "98dc3022-8c76-4110-83ff-22af4ad77e0c||Sequence: R016 ve11c/master r/e634e98; Dec 19 2017 11:00:25 by eja",
  "dcmmeta_affine": [
    [-2.6807663440704346, -0.09174078702926636, 0.0566834956407547, 112.67286682128906],
    [-0.09272021800279617, 2.6809234619140625, -0.04665457829833031, -85.2993392944336],
    [0.05469777435064316, 0.048268791288137436, 2.6990015506744385, -60.25336837768555],
    [0.0, 0.0, 0.0, 1.0]
],
  "dcmmeta_reorient_transform": [
    [0.0, -1.0, 0.0, 81.0],
    [1.0, 0.0, 0.0, 0.0],
    [0.0, 0.0, 1.0, 0.0],
    [0.0, 0.0, 0.0, 1.0]
],
  "dcmmeta_shape": [82, 82, 56, 872],
  "dcmmeta_slice_dim": 2,
  "dcmmeta_version": 0.6,
  "global": {
    "const": {
      "AccessionNumber": "A003491",
      "AcquisitionMatrix": [82, 0, 0, 82],
      "AngioFlag": "N",
      "BitsAllocated": 16,
      "BitsStored": 16,
      "BodyPartExamined": "BRAIN",
      "Columns": 656,
      "EchoNumbers": 1,
      "EchoTime": 27.2,
      "EchoTrainLength": 82,
      "FlipAngle": 44.0,
      "HighBit": 15,
      "ImageOrientationPatient": [0.99919467921139, 0.03455935397337, 0.02038735119137, -0.0341942936236, 0.99925325659386, -0.0179910941897],
      "ImagePositionPatient": [-848.2921736645, -927.89119114823, -58.188715672208],
      "ImageType": [
        "ORIGINAL",
        "PRIMARY",
        "M",
        "MB",
        "ND",
        "NORM",
        "MOSAIC"
],
      "ImagedNucleus": "1H",
      "ImagingFrequency": 123.252104,
      "InPlanePhaseEncodingDirection": "COL",
      "MRAcquisitionType": "2D",
      "MagneticFieldStrength": 3.0,
      "Manufacturer": "SIEMENS",
      "ManufacturerModelName": "Prisma",
      "Modality": "MR",
      "NumberOfAverages": 1.0,
      "NumberOfPhaseEncodingSteps": 82,
      "PercentPhaseFieldOfView": 100.0,
      "PercentSampling": 100.0,
      "PerformedProcedureStepStartTime": "114622.429000",
      "PhotometricInterpretation": "MONOCHROME2",
      "PixelBandwidth": 3050.0,
      "PixelRepresentation": 0,
      "PixelSpacing": [2.6829268932343, 2.6829268932343],
      "ProtocolName": "func_run-01_task-social_acq-ap-mb8",
      "RepetitionTime": 460.0,
      "Rows": 656,
      "SAR": 0.09489729325749,
      "SamplesPerPixel": 1,
      "ScanOptions": "FS",
      "ScanningSequence": "EP",
      "SequenceName": "epfid2d1_82",
      "SequenceVariant": [
        "SK",
        "SS"
],
      "SeriesDescription": "func_run-01_task-social_acq-ap-mb8",
      "SeriesNumber": 12,
      "SeriesTime": "130612.943000",
      "SliceLocation": -56.391723140697,
      "SliceThickness": 2.7000000476837,
      "SmallestImagePixelValue": 0,
      "SoftwareVersions": "syngo MR E11",
      "SpacingBetweenSlices": 2.6999999303826,
      "SpecificCharacterSet": "ISO_IR 100",
      "StudyID": "1",
      "StudyTime": "114622.367000",
      "TransmitCoilName": "Body",
      "VariableFlipAngleFlag": "N",
      "WindowCenterWidthExplanation": "Algo1",
      "dBdt": 0.0},
    "slices": {}
  },
  "time": {
    "samples": {
      "AcquisitionNumber": [1, 2, 3, 4, 5, 6, 7, 8, 9, 10, 11, 12, 13, 14, 15, 16, 17, 18, 19, 20, 21, 22, 23, 24, 25, 26, 27, 28, 29, 30, 31, 32, 33, 34, 35, 36, 37, 38, 39, 40, 41, 42, 43, 44, 45, 46, 47, 48, 49, 50, 51, 52, 53, 54, 55, 56, 57, 58, 59, 60, 61, 62, 63, 64, 65, 66, 67, 68, 69, 70, 71, 72, 73, 74, 75, 76, 77, 78, 79, 80, 81, 82, 83, 84, 85, 86, 87, 88, 89, 90, 91, 92, 93, 94, 95, 96, 97, 98, 99, 100, 101, 102, 103, 104, 105, 106, 107, 108, 109, 110, 111, 112, 113, 114, 115, 116, 117, 118, 119, 120, 121, 122, 123, 124, 125, 126, 127, 128, 129, 130, 131, 132, 133, 134, 135, 136, 137, 138, 139, 140, 141, 142, 143, 144, 145, 146, 147, 148, 149, 150, 151, 152, 153, 154, 155, 156, 157, 158, 159, 160, 161, 162, 163, 164, 165, 166, 167, 168, 169, 170, 171, 172, 173, 174, 175, 176, 177, 178, 179, 180, 181, 182, 183, 184, 185, 186, 187, 188, 189, 190, 191, 192, 193, 194, 195, 196, 197, 198, 199, 200, 201, 202, 203, 204, 205, 206, 207, 208, 209, 210, 211, 212, 213, 214, 215, 216, 217, 218, 219, 220, 221, 222, 223, 224, 225, 226, 227, 228, 229, 230, 231, 232, 233, 234, 235, 236, 237, 238, 239, 240, 241, 242, 243, 244, 245, 246, 247, 248, 249, 250, 251, 252, 253, 254, 255, 256, 257, 258, 259, 260, 261, 262, 263, 264, 265, 266, 267, 268, 269, 270, 271, 272, 273, 274, 275, 276, 277, 278, 279, 280, 281, 282, 283, 284, 285, 286, 287, 288, 289, 290, 291, 292, 293, 294, 295, 296, 297, 298, 299, 300, 301, 302, 303, 304, 305, 306, 307, 308, 309, 310, 311, 312, 313, 314, 315, 316, 317, 318, 319, 320, 321, 322, 323, 324, 325, 326, 327, 328, 329, 330, 331, 332, 333, 334, 335, 336, 337, 338, 339, 340, 341, 342, 343, 344, 345, 346, 347, 348, 349, 350, 351, 352, 353, 354, 355, 356, 357, 358, 359, 360, 361, 362, 363, 364, 365, 366, 367, 368, 369, 370, 371, 372, 373, 374, 375, 376, 377, 378, 379, 380, 381, 382, 383, 384, 385, 386, 387, 388, 389, 390, 391, 392, 393, 394, 395, 396, 397, 398, 399, 400, 401, 402, 403, 404, 405, 406, 407, 408, 409, 410, 411, 412, 413, 414, 415, 416, 417, 418, 419, 420, 421, 422, 423, 424, 425, 426, 427, 428, 429, 430, 431, 432, 433, 434, 435, 436, 437, 438, 439, 440, 441, 442, 443, 444, 445, 446, 447, 448, 449, 450, 451, 452, 453, 454, 455, 456, 457, 458, 459, 460, 461, 462, 463, 464, 465, 466, 467, 468, 469, 470, 471, 472, 473, 474, 475, 476, 477, 478, 479, 480, 481, 482, 483, 484, 485, 486, 487, 488, 489, 490, 491, 492, 493, 494, 495, 496, 497, 498, 499, 500, 501, 502, 503, 504, 505, 506, 507, 508, 509, 510, 511, 512, 513, 514, 515, 516, 517, 518, 519, 520, 521, 522, 523, 524, 525, 526, 527, 528, 529, 530, 531, 532, 533, 534, 535, 536, 537, 538, 539, 540, 541, 542, 543, 544, 545, 546, 547, 548, 549, 550, 551, 552, 553, 554, 555, 556, 557, 558, 559, 560, 561, 562, 563, 564, 565, 566, 567, 568, 569, 570, 571, 572, 573, 574, 575, 576, 577, 578, 579, 580, 581, 582, 583, 584, 585, 586, 587, 588, 589, 590, 591, 592, 593, 594, 595, 596, 597, 598, 599, 600, 601, 602, 603, 604, 605, 606, 607, 608, 609, 610, 611, 612, 613, 614, 615, 616, 617, 618, 619, 620, 621, 622, 623, 624, 625, 626, 627, 628, 629, 630, 631, 632, 633, 634, 635, 636, 637, 638, 639, 640, 641, 642, 643, 644, 645, 646, 647, 648, 649, 650, 651, 652, 653, 654, 655, 656, 657, 658, 659, 660, 661, 662, 663, 664, 665, 666, 667, 668, 669, 670, 671, 672, 673, 674, 675, 676, 677, 678, 679, 680, 681, 682, 683, 684, 685, 686, 687, 688, 689, 690, 691, 692, 693, 694, 695, 696, 697, 698, 699, 700, 701, 702, 703, 704, 705, 706, 707, 708, 709, 710, 711, 712, 713, 714, 715, 716, 717, 718, 719, 720, 721, 722, 723, 724, 725, 726, 727, 728, 729, 730, 731, 732, 733, 734, 735, 736, 737, 738, 739, 740, 741, 742, 743, 744, 745, 746, 747, 748, 749, 750, 751, 752, 753, 754, 755, 756, 757, 758, 759, 760, 761, 762, 763, 764, 765, 766, 767, 768, 769, 770, 771, 772, 773, 774, 775, 776, 777, 778, 779, 780, 781, 782, 783, 784, 785, 786, 787, 788, 789, 790, 791, 792, 793, 794, 795, 796, 797, 798, 799, 800, 801, 802, 803, 804, 805, 806, 807, 808, 809, 810, 811, 812, 813, 814, 815, 816, 817, 818, 819, 820, 821, 822, 823, 824, 825, 826, 827, 828, 829, 830, 831, 832, 833, 834, 835, 836, 837, 838, 839, 840, 841, 842, 843, 844, 845, 846, 847, 848, 849, 850, 851, 852, 853, 854, 855, 856, 857, 858, 859, 860, 861, 862, 863, 864, 865, 866, 867, 868, 869, 870, 871, 872],
      "AcquisitionTime": ["130555.547500", "130556.007500", "130556.467500", "130556.927500", "130557.387500", "130557.847500", "130558.307500", "130558.767500", "130559.227500", "130559.687500", "130600.147500", "130600.607500", "130601.067500", "130601.527500", "130601.987500", "130602.447500", "130602.907500", "130603.367500", "130603.827500", "130604.287500", "130604.747500", "130605.207500", "130605.667500", "130606.127500", "130606.587500", "130607.047500", "130607.507500", "130607.967500", "130608.427500", "130608.887500", "130609.347500", "130609.807500", "130610.267500", "130610.727500", "130611.187500", "130611.647500", "130612.107500", "130612.567500", "130613.027500", "130613.487500", "130613.947500", "130614.407500", "130614.867500", "130615.327500", "130615.787500", "130616.247500", "130616.707500", "130617.167500", "130617.627500", "130618.087500", "130618.547500", "130619.007500", "130619.467500", "130619.927500", "130620.387500", "130620.847500", "130621.307500", "130621.767500", "130622.227500", "130622.687500", "130623.147500", "130623.607500", "130624.067500", "130624.527500", "130624.987500", "130625.447500", "130625.907500", "130626.367500", "130626.827500", "130627.287500", "130627.747500", "130628.207500", "130628.667500", "130629.127500", "130629.587500", "130630.047500", "130630.507500", "130630.967500", "130631.427500", "130631.887500", "130632.347500", "130632.807500", "130633.267500", "130633.727500", "130634.187500", "130634.647500", "130635.107500", "130635.567500", "130636.027500", "130636.487500", "130636.947500", "130637.407500", "130637.867500", "130638.327500", "130638.787500", "130639.247500", "130639.707500", "130640.167500", "130640.627500", "130641.087500", "130641.547500", "130642.007500", "130642.467500", "130642.927500", "130643.387500", "130643.847500", "130644.307500", "130644.767500", "130645.227500", "130645.687500", "130646.147500", "130646.607500", "130647.067500", "130647.527500", "130647.987500", "130648.447500", "130648.907500", "130649.367500", "130649.827500", "130650.287500", "130650.747500", "130651.207500", "130651.667500", "130652.127500", "130652.587500", "130653.047500", "130653.507500", "130653.967500", "130654.427500", "130654.887500", "130655.347500", "130655.807500", "130656.267500", "130656.727500", "130657.187500", "130657.647500", "130658.107500", "130658.567500", "130659.027500", "130659.487500", "130659.947500", "130700.407500", "130700.867500", "130701.327500", "130701.787500", "130702.247500", "130702.707500", "130703.167500", "130703.627500", "130704.087500", "130704.547500", "130705.007500", "130705.467500", "130705.927500", "130706.387500", "130706.847500", "130707.307500", "130707.767500", "130708.227500", "130708.687500", "130709.147500", "130709.607500", "130710.067500", "130710.527500", "130710.987500", "130711.447500", "130711.907500", "130712.367500", "130712.827500", "130713.287500", "130713.747500", "130714.207500", "130714.667500", "130715.127500", "130715.587500", "130716.047500", "130716.507500", "130716.967500", "130717.427500", "130717.887500", "130718.347500", "130718.807500", "130719.267500", "130719.727500", "130720.187500", "130720.647500", "130721.107500", "130721.567500", "130722.027500", "130722.487500", "130722.947500", "130723.407500", "130723.867500", "130724.327500", "130724.787500", "130725.247500", "130725.707500", "130726.167500", "130726.627500", "130727.087500", "130727.547500", "130728.007500", "130728.467500", "130728.927500", "130729.387500", "130729.847500", "130730.307500", "130730.767500", "130731.227500", "130731.687500", "130732.147500", "130732.607500", "130733.067500", "130733.527500", "130733.987500", "130734.447500", "130734.907500", "130735.367500", "130735.827500", "130736.287500", "130736.747500", "130737.207500", "130737.667500", "130738.127500", "130738.587500", "130739.047500", "130739.507500", "130739.967500", "130740.427500", "130740.887500", "130741.347500", "130741.807500", "130742.267500", "130742.727500", "130743.187500", "130743.647500", "130744.107500", "130744.567500", "130745.027500", "130745.487500", "130745.947500", "130746.407500", "130746.867500", "130747.327500", "130747.787500", "130748.247500", "130748.707500", "130749.167500", "130749.627500", "130750.087500", "130750.547500", "130751.007500", "130751.467500", "130751.927500", "130752.387500", "130752.847500", "130753.307500", "130753.767500", "130754.227500", "130754.687500", "130755.147500", "130755.607500", "130756.067500", "130756.527500", "130756.987500", "130757.447500", "130757.907500", "130758.367500", "130758.827500", "130759.287500", "130759.747500", "130800.207500", "130800.667500", "130801.127500", "130801.587500", "130802.047500", "130802.507500", "130802.967500", "130803.427500", "130803.887500", "130804.347500", "130804.807500", "130805.267500", "130805.727500", "130806.187500", "130806.647500", "130807.107500", "130807.567500", "130808.027500", "130808.487500", "130808.947500", "130809.407500", "130809.867500", "130810.327500", "130810.787500", "130811.247500", "130811.707500", "130812.167500", "130812.627500", "130813.087500", "130813.547500", "130814.007500", "130814.467500", "130814.927500", "130815.387500", "130815.847500", "130816.307500", "130816.767500", "130817.227500", "130817.687500", "130818.147500", "130818.607500", "130819.067500", "130819.527500", "130819.987500", "130820.447500", "130820.907500", "130821.367500", "130821.827500", "130822.287500", "130822.747500", "130823.207500", "130823.667500", "130824.127500", "130824.587500", "130825.047500", "130825.507500", "130825.967500", "130826.427500", "130826.887500", "130827.347500", "130827.807500", "130828.267500", "130828.727500", "130829.187500", "130829.647500", "130830.107500", "130830.567500", "130831.027500", "130831.487500", "130831.947500", "130832.407500", "130832.867500", "130833.327500", "130833.787500", "130834.247500", "130834.707500", "130835.167500", "130835.627500", "130836.087500", "130836.547500", "130837.007500", "130837.467500", "130837.927500", "130838.387500", "130838.847500", "130839.307500", "130839.767500", "130840.227500", "130840.687500", "130841.147500", "130841.607500", "130842.067500", "130842.527500", "130842.987500", "130843.447500", "130843.907500", "130844.367500", "130844.827500", "130845.287500", "130845.747500", "130846.207500", "130846.667500", "130847.127500", "130847.587500", "130848.047500", "130848.507500", "130848.967500", "130849.427500", "130849.887500", "130850.347500", "130850.807500", "130851.267500", "130851.727500", "130852.187500", "130852.647500", "130853.107500", "130853.567500", "130854.027500", "130854.487500", "130854.947500", "130855.407500", "130855.867500", "130856.327500", "130856.787500", "130857.247500", "130857.707500", "130858.167500", "130858.627500", "130859.087500", "130859.547500", "130900.007500", "130900.467500", "130900.927500", "130901.387500", "130901.847500", "130902.307500", "130902.767500", "130903.227500", "130903.687500", "130904.147500", "130904.607500", "130905.067500", "130905.527500", "130905.987500", "130906.447500", "130906.907500", "130907.367500", "130907.827500", "130908.287500", "130908.747500", "130909.207500", "130909.667500", "130910.127500", "130910.587500", "130911.047500", "130911.507500", "130911.967500", "130912.427500", "130912.887500", "130913.347500", "130913.807500", "130914.267500", "130914.727500", "130915.187500", "130915.647500", "130916.107500", "130916.567500", "130917.027500", "130917.487500", "130917.947500", "130918.407500", "130918.867500", "130919.327500", "130919.787500", "130920.247500", "130920.707500", "130921.167500", "130921.627500", "130922.087500", "130922.547500", "130923.007500", "130923.467500", "130923.927500", "130924.387500", "130924.847500", "130925.307500", "130925.767500", "130926.227500", "130926.687500", "130927.147500", "130927.607500", "130928.067500", "130928.527500", "130928.987500", "130929.447500", "130929.907500", "130930.367500", "130930.827500", "130931.287500", "130931.747500", "130932.207500", "130932.667500", "130933.127500", "130933.587500", "130934.047500", "130934.507500", "130934.967500", "130935.427500", "130935.887500", "130936.347500", "130936.807500", "130937.267500", "130937.727500", "130938.187500", "130938.647500", "130939.107500", "130939.567500", "130940.027500", "130940.487500", "130940.947500", "130941.407500", "130941.867500", "130942.327500", "130942.787500", "130943.247500", "130943.707500", "130944.167500", "130944.627500", "130945.087500", "130945.547500", "130946.007500", "130946.467500", "130946.927500", "130947.387500", "130947.847500", "130948.307500", "130948.767500", "130949.227500", "130949.687500", "130950.147500", "130950.607500", "130951.067500", "130951.527500", "130951.987500", "130952.447500", "130952.907500", "130953.367500", "130953.827500", "130954.287500", "130954.747500", "130955.207500", "130955.667500", "130956.127500", "130956.587500", "130957.047500", "130957.507500", "130957.967500", "130958.427500", "130958.887500", "130959.347500", "130959.807500", "131000.267500", "131000.727500", "131001.187500", "131001.647500", "131002.107500", "131002.567500", "131003.027500", "131003.487500", "131003.947500", "131004.407500", "131004.867500", "131005.327500", "131005.787500", "131006.247500", "131006.707500", "131007.167500", "131007.627500", "131008.087500", "131008.547500", "131009.007500", "131009.467500", "131009.927500", "131010.387500", "131010.847500", "131011.307500", "131011.767500", "131012.227500", "131012.687500", "131013.147500", "131013.607500", "131014.067500", "131014.527500", "131014.987500", "131015.447500", "131015.907500", "131016.367500", "131016.827500", "131017.287500", "131017.747500", "131018.207500", "131018.667500", "131019.127500", "131019.587500", "131020.047500", "131020.507500", "131020.967500", "131021.427500", "131021.887500", "131022.347500", "131022.807500", "131023.267500", "131023.727500", "131024.187500", "131024.647500", "131025.107500", "131025.567500", "131026.027500", "131026.487500", "131026.947500", "131027.407500", "131027.867500", "131028.327500", "131028.787500", "131029.247500", "131029.707500", "131030.167500", "131030.627500", "131031.087500", "131031.547500", "131032.007500", "131032.467500", "131032.927500", "131033.387500", "131033.847500", "131034.307500", "131034.767500", "131035.227500", "131035.687500", "131036.147500", "131036.607500", "131037.067500", "131037.527500", "131037.987500", "131038.447500", "131038.907500", "131039.367500", "131039.827500", "131040.287500", "131040.747500", "131041.207500", "131041.667500", "131042.127500", "131042.587500", "131043.047500", "131043.507500", "131043.967500", "131044.427500", "131044.887500", "131045.347500", "131045.807500", "131046.267500", "131046.727500", "131047.187500", "131047.647500", "131048.107500", "131048.567500", "131049.027500", "131049.487500", "131049.947500", "131050.407500", "131050.867500", "131051.327500", "131051.787500", "131052.247500", "131052.707500", "131053.167500", "131053.627500", "131054.087500", "131054.547500", "131055.007500", "131055.467500", "131055.927500", "131056.387500", "131056.847500", "131057.307500", "131057.767500", "131058.227500", "131058.687500", "131059.147500", "131059.607500", "131100.067500", "131100.527500", "131100.987500", "131101.447500", "131101.907500", "131102.367500", "131102.827500", "131103.287500", "131103.747500", "131104.207500", "131104.667500", "131105.127500", "131105.587500", "131106.047500", "131106.507500", "131106.967500", "131107.427500", "131107.887500", "131108.347500", "131108.807500", "131109.267500", "131109.727500", "131110.187500", "131110.647500", "131111.107500", "131111.567500", "131112.027500", "131112.487500", "131112.947500", "131113.407500", "131113.867500", "131114.327500", "131114.787500", "131115.247500", "131115.707500", "131116.167500", "131116.627500", "131117.087500", "131117.547500", "131118.007500", "131118.467500", "131118.927500", "131119.387500", "131119.847500", "131120.307500", "131120.767500", "131121.227500", "131121.687500", "131122.147500", "131122.607500", "131123.067500", "131123.527500", "131123.987500", "131124.447500", "131124.907500", "131125.367500", "131125.827500", "131126.287500", "131126.747500", "131127.207500", "131127.667500", "131128.127500", "131128.587500", "131129.047500", "131129.507500", "131129.967500", "131130.427500", "131130.887500", "131131.347500", "131131.807500", "131132.267500", "131132.727500", "131133.187500", "131133.647500", "131134.107500", "131134.567500", "131135.027500", "131135.487500", "131135.947500", "131136.407500", "131136.867500", "131137.327500", "131137.787500", "131138.247500", "131138.707500", "131139.167500", "131139.627500", "131140.087500", "131140.547500", "131141.007500", "131141.467500", "131141.927500", "131142.387500", "131142.847500", "131143.307500", "131143.767500", "131144.227500", "131144.687500", "131145.147500", "131145.607500", "131146.067500", "131146.527500", "131146.987500", "131147.447500", "131147.907500", "131148.367500", "131148.827500", "131149.287500", "131149.747500", "131150.207500", "131150.667500", "131151.127500", "131151.587500", "131152.047500", "131152.507500", "131152.967500", "131153.427500", "131153.887500", "131154.347500", "131154.807500", "131155.267500", "131155.727500", "131156.187500", "131156.647500", "131157.107500", "131157.567500", "131158.027500", "131158.487500", "131158.947500", "131159.407500", "131159.867500", "131200.327500", "131200.787500", "131201.247500", "131201.707500", "131202.167500", "131202.627500", "131203.087500", "131203.547500", "131204.007500", "131204.467500", "131204.927500", "131205.387500", "131205.847500", "131206.307500", "131206.767500", "131207.227500", "131207.687500", "131208.147500", "131208.607500", "131209.067500", "131209.527500", "131209.987500", "131210.447500", "131210.907500", "131211.367500", "131211.827500", "131212.287500", "131212.747500", "131213.207500", "131213.667500", "131214.127500", "131214.587500", "131215.047500", "131215.507500", "131215.967500", "131216.427500", "131216.887500", "131217.347500", "131217.807500", "131218.267500", "131218.727500", "131219.187500", "131219.647500", "131220.107500", "131220.567500", "131221.027500", "131221.487500", "131221.947500", "131222.407500", "131222.867500", "131223.327500", "131223.787500", "131224.247500", "131224.707500", "131225.167500", "131225.627500", "131226.087500", "131226.547500", "131227.007500", "131227.467500", "131227.927500", "131228.387500", "131228.847500", "131229.307500", "131229.767500", "131230.227500", "131230.687500", "131231.147500", "131231.607500", "131232.067500", "131232.527500", "131232.987500", "131233.447500", "131233.907500", "131234.367500", "131234.827500", "131235.287500", "131235.747500", "131236.207500"],
