{
  "AcquisitionMatrixPE": 82,
  "AcquisitionNumber": 1,
  "AcquisitionTime": "13:47:5.082500",
  "BandwidthPerPixelPhaseEncode": 24.888,
  "BaseResolution": 82,
  "BodyPartExamined": "BRAIN",
  "ConsistencyInfo": "N4_VE11C_LATEST_20160120",
  "ConversionSoftware": "dcm2niix",
  "ConversionSoftwareVersion": "v1.0.20201102",
  "DerivedVendorReportedEchoSpacing": 0.00049,
  "DeviceSerialNumber": "66112",
  "DwellTime": 2e-06,
  "EchoTime": 0.0272,
  "EchoTrainLength": 82,
  "EffectiveEchoSpacing": 0.00049,
  "FlipAngle": 44,
  "ImageComments": "Unaliased MB8/PE3",
  "ImageOrientationPatientDICOM": [0.999519, 0.0284863, -0.0122203, -0.0282682, 0.999444, 0.0176618],
  "ImageType": [
    "ORIGINAL",
    "PRIMARY",
    "M",
    "MB",
    "ND",
    "NORM",
    "MOSAIC"
],
  "ImagingFrequency": 123.252,
  "InPlanePhaseEncodingDirectionDICOM": "COL",
  "InstitutionAddress": "Maynard 3,Hanover,NH,US,03755",
  "InstitutionName": "Dartmouth College - PBS",
  "InstitutionalDepartmentName": "Department",
  "MRAcquisitionType": "2D",
  "MagneticFieldStrength": 3,
  "Manufacturer": "Siemens",
  "ManufacturersModelName": "Prisma",
  "Modality": "MR",
  "MultibandAccelerationFactor": 8,
  "PartialFourier": 1,
  "PatientPosition": "HFS",
  "PercentPhaseFOV": 100,
  "PercentSampling": 100,
  "PhaseEncodingDirection": "j-",
  "PhaseEncodingSteps": 82,
  "PhaseResolution": 1,
  "PixelBandwidth": 3050,
  "ProcedureStepDescription": "Wager_Wager^1076_spacetop",
  "ProtocolName": "func_run-04_task-social_acq-ap-mb8",
  "PulseSequenceDetails": "%CustomerSeq%\\cmrr_mbep2d_bold",
  "ReceiveCoilActiveElements": "HEA;HEP",
  "ReceiveCoilName": "Head_32",
  "ReconMatrixPE": 82,
  "RepetitionTime": 0.46,
  "SAR": 0.0964547,
  "ScanOptions": "FS",
  "ScanningSequence": "EP",
  "SequenceName": "epfid2d1_82",
  "SequenceVariant": "SK\\SS",
  "SeriesDescription": "func_run-04_task-social_acq-ap-mb8",
  "SeriesNumber": 24,
  "ShimSetting": [4169, -7773, -7231, 572, -72, -140, -30, 85],
  "SliceThickness": 2.7,
  "SliceTiming": [0, 0.25, 0.0625, 0.3125, 0.125, 0.3775, 0.1875, 0, 0.25, 0.0625, 0.3125, 0.125, 0.3775, 0.1875, 0, 0.25, 0.0625, 0.3125, 0.125, 0.3775, 0.1875, 0, 0.25, 0.0625, 0.3125, 0.125, 0.3775, 0.1875, 0, 0.25, 0.0625, 0.3125, 0.125, 0.3775, 0.1875, 0, 0.25, 0.0625, 0.3125, 0.125, 0.3775, 0.1875, 0, 0.25, 0.0625, 0.3125, 0.125, 0.3775, 0.1875, 0, 0.25, 0.0625, 0.3125, 0.125, 0.3775, 0.1875],
  "SoftwareVersions": "syngo MR E11",
  "SpacingBetweenSlices": 2.7,
  "StationName": "AWP66112",
  "TaskName": "social",
  "TotalReadoutTime": 0.03969,
  "TxRefAmp": 237.131,
  "WipMemBlock": "29dc476c-2cb7-4eac-8890-2cf018ca9eda||Sequence: R016 ve11c/master r/e634e98; Dec 19 2017 11:00:25 by eja",
  "dcmmeta_affine": [
    [-2.681637763977051, -0.07584161311388016, -0.03433496505022049, 115.04578399658203],
    [-0.07642670720815659, 2.681436061859131, 0.04673114791512489, -89.04467010498047],
    [-0.03278624266386032, -0.04738523066043854, 2.6993770599365234, -55.48084259033203],
    [0.0, 0.0, 0.0, 1.0]
],
  "dcmmeta_reorient_transform": [
    [0.0, -1.0, 0.0, 81.0],
    [1.0, 0.0, 0.0, 0.0],
    [0.0, 0.0, 1.0, 0.0],
    [0.0, 0.0, 0.0, 1.0]
],
  "dcmmeta_shape": [82, 82, 56, 872],
  "dcmmeta_slice_dim": 2,
  "dcmmeta_version": 0.6,
  "global": {
    "const": {
      "AccessionNumber": "A003491",
      "AcquisitionMatrix": [82, 0, 0, 82],
      "AngioFlag": "N",
      "BitsAllocated": 16,
      "BitsStored": 16,
      "BodyPartExamined": "BRAIN",
      "Columns": 656,
      "EchoNumbers": 1,
      "EchoTime": 27.2,
      "EchoTrainLength": 82,
      "FlipAngle": 44.0,
      "HighBit": 15,
      "ImageOrientationPatient": [0.99951948125775, 0.02848631617263, -0.0122203263927, -0.0282682380402, 0.99944432996631, 0.01766176707749],
      "ImagePositionPatient": [-856.76608537927, -919.65826434666, -63.508957418698],
      "ImageType": [
        "ORIGINAL",
        "PRIMARY",
        "M",
        "MB",
        "ND",
        "NORM",
        "MOSAIC"
],
      "ImagedNucleus": "1H",
      "ImagingFrequency": 123.25212,
      "InPlanePhaseEncodingDirection": "COL",
      "MRAcquisitionType": "2D",
      "MagneticFieldStrength": 3.0,
      "Manufacturer": "SIEMENS",
      "ManufacturerModelName": "Prisma",
      "Modality": "MR",
      "NumberOfAverages": 1.0,
      "NumberOfPhaseEncodingSteps": 82,
      "PercentPhaseFieldOfView": 100.0,
      "PercentSampling": 100.0,
      "PerformedProcedureStepStartTime": "114622.429000",
      "PhotometricInterpretation": "MONOCHROME2",
      "PixelBandwidth": 3050.0,
      "PixelRepresentation": 0,
      "PixelSpacing": [2.6829268932343, 2.6829268932343],
      "ProtocolName": "func_run-04_task-social_acq-ap-mb8",
      "RepetitionTime": 460.0,
      "Rows": 656,
      "SAR": 0.09645471285181,
      "SamplesPerPixel": 1,
      "ScanOptions": "FS",
      "ScanningSequence": "EP",
      "SequenceName": "epfid2d1_82",
      "SequenceVariant": [
        "SK",
        "SS"
],
      "SeriesDescription": "func_run-04_task-social_acq-ap-mb8",
      "SeriesNumber": 24,
      "SeriesTime": "134732.884000",
      "SliceLocation": -58.472214771506,
      "SliceThickness": 2.7000000476837,
      "SmallestImagePixelValue": 0,
      "SoftwareVersions": "syngo MR E11",
      "SpacingBetweenSlices": 2.699999955974,
      "SpecificCharacterSet": "ISO_IR 100",
      "StudyID": "1",
      "StudyTime": "114622.367000",
      "TransmitCoilName": "Body",
      "VariableFlipAngleFlag": "N",
      "WindowCenterWidthExplanation": "Algo1",
      "dBdt": 0.0},
    "slices": {}
  },
  "time": {
    "samples": {
      "AcquisitionNumber": [1, 2, 3, 4, 5, 6, 7, 8, 9, 10, 11, 12, 13, 14, 15, 16, 17, 18, 19, 20, 21, 22, 23, 24, 25, 26, 27, 28, 29, 30, 31, 32, 33, 34, 35, 36, 37, 38, 39, 40, 41, 42, 43, 44, 45, 46, 47, 48, 49, 50, 51, 52, 53, 54, 55, 56, 57, 58, 59, 60, 61, 62, 63, 64, 65, 66, 67, 68, 69, 70, 71, 72, 73, 74, 75, 76, 77, 78, 79, 80, 81, 82, 83, 84, 85, 86, 87, 88, 89, 90, 91, 92, 93, 94, 95, 96, 97, 98, 99, 100, 101, 102, 103, 104, 105, 106, 107, 108, 109, 110, 111, 112, 113, 114, 115, 116, 117, 118, 119, 120, 121, 122, 123, 124, 125, 126, 127, 128, 129, 130, 131, 132, 133, 134, 135, 136, 137, 138, 139, 140, 141, 142, 143, 144, 145, 146, 147, 148, 149, 150, 151, 152, 153, 154, 155, 156, 157, 158, 159, 160, 161, 162, 163, 164, 165, 166, 167, 168, 169, 170, 171, 172, 173, 174, 175, 176, 177, 178, 179, 180, 181, 182, 183, 184, 185, 186, 187, 188, 189, 190, 191, 192, 193, 194, 195, 196, 197, 198, 199, 200, 201, 202, 203, 204, 205, 206, 207, 208, 209, 210, 211, 212, 213, 214, 215, 216, 217, 218, 219, 220, 221, 222, 223, 224, 225, 226, 227, 228, 229, 230, 231, 232, 233, 234, 235, 236, 237, 238, 239, 240, 241, 242, 243, 244, 245, 246, 247, 248, 249, 250, 251, 252, 253, 254, 255, 256, 257, 258, 259, 260, 261, 262, 263, 264, 265, 266, 267, 268, 269, 270, 271, 272, 273, 274, 275, 276, 277, 278, 279, 280, 281, 282, 283, 284, 285, 286, 287, 288, 289, 290, 291, 292, 293, 294, 295, 296, 297, 298, 299, 300, 301, 302, 303, 304, 305, 306, 307, 308, 309, 310, 311, 312, 313, 314, 315, 316, 317, 318, 319, 320, 321, 322, 323, 324, 325, 326, 327, 328, 329, 330, 331, 332, 333, 334, 335, 336, 337, 338, 339, 340, 341, 342, 343, 344, 345, 346, 347, 348, 349, 350, 351, 352, 353, 354, 355, 356, 357, 358, 359, 360, 361, 362, 363, 364, 365, 366, 367, 368, 369, 370, 371, 372, 373, 374, 375, 376, 377, 378, 379, 380, 381, 382, 383, 384, 385, 386, 387, 388, 389, 390, 391, 392, 393, 394, 395, 396, 397, 398, 399, 400, 401, 402, 403, 404, 405, 406, 407, 408, 409, 410, 411, 412, 413, 414, 415, 416, 417, 418, 419, 420, 421, 422, 423, 424, 425, 426, 427, 428, 429, 430, 431, 432, 433, 434, 435, 436, 437, 438, 439, 440, 441, 442, 443, 444, 445, 446, 447, 448, 449, 450, 451, 452, 453, 454, 455, 456, 457, 458, 459, 460, 461, 462, 463, 464, 465, 466, 467, 468, 469, 470, 471, 472, 473, 474, 475, 476, 477, 478, 479, 480, 481, 482, 483, 484, 485, 486, 487, 488, 489, 490, 491, 492, 493, 494, 495, 496, 497, 498, 499, 500, 501, 502, 503, 504, 505, 506, 507, 508, 509, 510, 511, 512, 513, 514, 515, 516, 517, 518, 519, 520, 521, 522, 523, 524, 525, 526, 527, 528, 529, 530, 531, 532, 533, 534, 535, 536, 537, 538, 539, 540, 541, 542, 543, 544, 545, 546, 547, 548, 549, 550, 551, 552, 553, 554, 555, 556, 557, 558, 559, 560, 561, 562, 563, 564, 565, 566, 567, 568, 569, 570, 571, 572, 573, 574, 575, 576, 577, 578, 579, 580, 581, 582, 583, 584, 585, 586, 587, 588, 589, 590, 591, 592, 593, 594, 595, 596, 597, 598, 599, 600, 601, 602, 603, 604, 605, 606, 607, 608, 609, 610, 611, 612, 613, 614, 615, 616, 617, 618, 619, 620, 621, 622, 623, 624, 625, 626, 627, 628, 629, 630, 631, 632, 633, 634, 635, 636, 637, 638, 639, 640, 641, 642, 643, 644, 645, 646, 647, 648, 649, 650, 651, 652, 653, 654, 655, 656, 657, 658, 659, 660, 661, 662, 663, 664, 665, 666, 667, 668, 669, 670, 671, 672, 673, 674, 675, 676, 677, 678, 679, 680, 681, 682, 683, 684, 685, 686, 687, 688, 689, 690, 691, 692, 693, 694, 695, 696, 697, 698, 699, 700, 701, 702, 703, 704, 705, 706, 707, 708, 709, 710, 711, 712, 713, 714, 715, 716, 717, 718, 719, 720, 721, 722, 723, 724, 725, 726, 727, 728, 729, 730, 731, 732, 733, 734, 735, 736, 737, 738, 739, 740, 741, 742, 743, 744, 745, 746, 747, 748, 749, 750, 751, 752, 753, 754, 755, 756, 757, 758, 759, 760, 761, 762, 763, 764, 765, 766, 767, 768, 769, 770, 771, 772, 773, 774, 775, 776, 777, 778, 779, 780, 781, 782, 783, 784, 785, 786, 787, 788, 789, 790, 791, 792, 793, 794, 795, 796, 797, 798, 799, 800, 801, 802, 803, 804, 805, 806, 807, 808, 809, 810, 811, 812, 813, 814, 815, 816, 817, 818, 819, 820, 821, 822, 823, 824, 825, 826, 827, 828, 829, 830, 831, 832, 833, 834, 835, 836, 837, 838, 839, 840, 841, 842, 843, 844, 845, 846, 847, 848, 849, 850, 851, 852, 853, 854, 855, 856, 857, 858, 859, 860, 861, 862, 863, 864, 865, 866, 867, 868, 869, 870, 871, 872],
      "AcquisitionTime": ["134705.082500", "134705.542500", "134706.002500", "134706.462500", "134706.922500", "134707.382500", "134707.842500", "134708.302500", "134708.762500", "134709.222500", "134709.682500", "134710.142500", "134710.602500", "134711.062500", "134711.522500", "134711.982500", "134712.442500", "134712.902500", "134713.362500", "134713.822500", "134714.282500", "134714.742500", "134715.202500", "134715.662500", "134716.122500", "134716.582500", "134717.042500", "134717.502500", "134717.962500", "134718.422500", "134718.882500", "134719.342500", "134719.802500", "134720.262500", "134720.722500", "134721.182500", "134721.642500", "134722.102500", "134722.562500", "134723.022500", "134723.482500", "134723.942500", "134724.402500", "134724.862500", "134725.322500", "134725.782500", "134726.242500", "134726.702500", "134727.162500", "134727.622500", "134728.082500", "134728.542500", "134729.002500", "134729.462500", "134729.922500", "134730.382500", "134730.842500", "134731.302500", "134731.762500", "134732.222500", "134732.682500", "134733.142500", "134733.602500", "134734.062500", "134734.522500", "134734.982500", "134735.442500", "134735.902500", "134736.362500", "134736.822500", "134737.282500", "134737.742500", "134738.202500", "134738.662500", "134739.122500", "134739.582500", "134740.042500", "134740.502500", "134740.962500", "134741.422500", "134741.882500", "134742.342500", "134742.802500", "134743.262500", "134743.722500", "134744.182500", "134744.642500", "134745.102500", "134745.562500", "134746.022500", "134746.482500", "134746.942500", "134747.402500", "134747.862500", "134748.322500", "134748.782500", "134749.242500", "134749.702500", "134750.162500", "134750.622500", "134751.082500", "134751.542500", "134752.002500", "134752.462500", "134752.922500", "134753.382500", "134753.842500", "134754.302500", "134754.762500", "134755.222500", "134755.682500", "134756.142500", "134756.602500", "134757.062500", "134757.522500", "134757.982500", "134758.442500", "134758.902500", "134759.362500", "134759.822500", "134800.282500", "134800.742500", "134801.202500", "134801.662500", "134802.122500", "134802.582500", "134803.042500", "134803.502500", "134803.962500", "134804.422500", "134804.882500", "134805.342500", "134805.802500", "134806.262500", "134806.722500", "134807.182500", "134807.642500", "134808.102500", "134808.562500", "134809.022500", "134809.482500", "134809.942500", "134810.402500", "134810.862500", "134811.322500", "134811.782500", "134812.242500", "134812.702500", "134813.162500", "134813.622500", "134814.082500", "134814.542500", "134815.002500", "134815.462500", "134815.922500", "134816.382500", "134816.842500", "134817.302500", "134817.762500", "134818.222500", "134818.682500", "134819.142500", "134819.602500", "134820.062500", "134820.522500", "134820.982500", "134821.442500", "134821.902500", "134822.362500", "134822.822500", "134823.282500", "134823.742500", "134824.202500", "134824.662500", "134825.122500", "134825.582500", "134826.042500", "134826.502500", "134826.962500", "134827.422500", "134827.882500", "134828.342500", "134828.802500", "134829.262500", "134829.722500", "134830.182500", "134830.642500", "134831.102500", "134831.562500", "134832.022500", "134832.482500", "134832.942500", "134833.402500", "134833.862500", "134834.322500", "134834.782500", "134835.242500", "134835.702500", "134836.162500", "134836.622500", "134837.082500", "134837.542500", "134838.002500", "134838.462500", "134838.922500", "134839.382500", "134839.842500", "134840.302500", "134840.762500", "134841.222500", "134841.682500", "134842.142500", "134842.602500", "134843.062500", "134843.522500", "134843.982500", "134844.442500", "134844.902500", "134845.362500", "134845.822500", "134846.282500", "134846.742500", "134847.202500", "134847.662500", "134848.122500", "134848.582500", "134849.042500", "134849.502500", "134849.962500", "134850.422500", "134850.882500", "134851.342500", "134851.802500", "134852.262500", "134852.722500", "134853.182500", "134853.642500", "134854.102500", "134854.562500", "134855.022500", "134855.482500", "134855.942500", "134856.402500", "134856.862500", "134857.322500", "134857.782500", "134858.242500", "134858.702500", "134859.162500", "134859.622500", "134900.082500", "134900.542500", "134901.002500", "134901.462500", "134901.922500", "134902.382500", "134902.842500", "134903.302500", "134903.762500", "134904.222500", "134904.682500", "134905.142500", "134905.602500", "134906.062500", "134906.522500", "134906.982500", "134907.442500", "134907.902500", "134908.362500", "134908.822500", "134909.282500", "134909.742500", "134910.202500", "134910.662500", "134911.122500", "134911.582500", "134912.042500", "134912.502500", "134912.962500", "134913.422500", "134913.882500", "134914.342500", "134914.802500", "134915.262500", "134915.722500", "134916.182500", "134916.642500", "134917.102500", "134917.562500", "134918.022500", "134918.482500", "134918.942500", "134919.402500", "134919.862500", "134920.322500", "134920.782500", "134921.242500", "134921.702500", "134922.162500", "134922.622500", "134923.082500", "134923.542500", "134924.002500", "134924.462500", "134924.922500", "134925.382500", "134925.842500", "134926.302500", "134926.762500", "134927.222500", "134927.682500", "134928.142500", "134928.602500", "134929.062500", "134929.522500", "134929.982500", "134930.442500", "134930.902500", "134931.362500", "134931.822500", "134932.282500", "134932.742500", "134933.202500", "134933.662500", "134934.122500", "134934.582500", "134935.042500", "134935.502500", "134935.962500", "134936.422500", "134936.882500", "134937.342500", "134937.802500", "134938.262500", "134938.722500", "134939.182500", "134939.642500", "134940.102500", "134940.562500", "134941.022500", "134941.482500", "134941.942500", "134942.402500", "134942.862500", "134943.322500", "134943.782500", "134944.242500", "134944.702500", "134945.162500", "134945.622500", "134946.082500", "134946.542500", "134947.002500", "134947.462500", "134947.922500", "134948.382500", "134948.842500", "134949.302500", "134949.762500", "134950.222500", "134950.682500", "134951.142500", "134951.602500", "134952.062500", "134952.522500", "134952.982500", "134953.442500", "134953.902500", "134954.362500", "134954.822500", "134955.282500", "134955.742500", "134956.202500", "134956.662500", "134957.122500", "134957.582500", "134958.042500", "134958.502500", "134958.962500", "134959.422500", "134959.882500", "135000.342500", "135000.802500", "135001.262500", "135001.722500", "135002.182500", "135002.642500", "135003.102500", "135003.562500", "135004.022500", "135004.482500", "135004.942500", "135005.402500", "135005.862500", "135006.322500", "135006.782500", "135007.242500", "135007.702500", "135008.162500", "135008.622500", "135009.082500", "135009.542500", "135010.002500", "135010.462500", "135010.922500", "135011.382500", "135011.842500", "135012.302500", "135012.762500", "135013.222500", "135013.682500", "135014.142500", "135014.602500", "135015.062500", "135015.522500", "135015.982500", "135016.442500", "135016.902500", "135017.362500", "135017.822500", "135018.282500", "135018.742500", "135019.202500", "135019.662500", "135020.122500", "135020.582500", "135021.042500", "135021.502500", "135021.962500", "135022.422500", "135022.882500", "135023.342500", "135023.802500", "135024.262500", "135024.722500", "135025.182500", "135025.642500", "135026.102500", "135026.562500", "135027.022500", "135027.482500", "135027.942500", "135028.402500", "135028.862500", "135029.322500", "135029.782500", "135030.242500", "135030.702500", "135031.162500", "135031.622500", "135032.082500", "135032.542500", "135033.002500", "135033.462500", "135033.922500", "135034.382500", "135034.842500", "135035.302500", "135035.762500", "135036.222500", "135036.682500", "135037.142500", "135037.602500", "135038.062500", "135038.522500", "135038.982500", "135039.442500", "135039.902500", "135040.362500", "135040.822500", "135041.282500", "135041.742500", "135042.202500", "135042.662500", "135043.122500", "135043.582500", "135044.042500", "135044.502500", "135044.962500", "135045.422500", "135045.882500", "135046.342500", "135046.802500", "135047.262500", "135047.722500", "135048.182500", "135048.642500", "135049.102500", "135049.562500", "135050.022500", "135050.482500", "135050.942500", "135051.402500", "135051.862500", "135052.322500", "135052.782500", "135053.242500", "135053.702500", "135054.162500", "135054.622500", "135055.082500", "135055.542500", "135056.002500", "135056.462500", "135056.922500", "135057.382500", "135057.842500", "135058.302500", "135058.762500", "135059.222500", "135059.682500", "135100.142500", "135100.602500", "135101.062500", "135101.522500", "135101.982500", "135102.442500", "135102.902500", "135103.362500", "135103.822500", "135104.282500", "135104.742500", "135105.202500", "135105.662500", "135106.122500", "135106.582500", "135107.042500", "135107.502500", "135107.962500", "135108.422500", "135108.882500", "135109.342500", "135109.802500", "135110.262500", "135110.722500", "135111.182500", "135111.642500", "135112.102500", "135112.562500", "135113.022500", "135113.482500", "135113.942500", "135114.402500", "135114.862500", "135115.322500", "135115.782500", "135116.242500", "135116.702500", "135117.162500", "135117.622500", "135118.082500", "135118.542500", "135119.002500", "135119.462500", "135119.922500", "135120.382500", "135120.842500", "135121.302500", "135121.762500", "135122.222500", "135122.682500", "135123.142500", "135123.602500", "135124.062500", "135124.522500", "135124.982500", "135125.442500", "135125.902500", "135126.362500", "135126.822500", "135127.282500", "135127.742500", "135128.202500", "135128.662500", "135129.122500", "135129.582500", "135130.042500", "135130.502500", "135130.962500", "135131.422500", "135131.882500", "135132.342500", "135132.802500", "135133.262500", "135133.722500", "135134.182500", "135134.642500", "135135.102500", "135135.562500", "135136.022500", "135136.482500", "135136.942500", "135137.402500", "135137.862500", "135138.322500", "135138.782500", "135139.242500", "135139.702500", "135140.162500", "135140.622500", "135141.082500", "135141.542500", "135142.002500", "135142.462500", "135142.922500", "135143.382500", "135143.842500", "135144.302500", "135144.762500", "135145.222500", "135145.682500", "135146.142500", "135146.602500", "135147.062500", "135147.522500", "135147.982500", "135148.442500", "135148.902500", "135149.362500", "135149.822500", "135150.282500", "135150.742500", "135151.202500", "135151.662500", "135152.122500", "135152.582500", "135153.042500", "135153.502500", "135153.962500", "135154.422500", "135154.882500", "135155.342500", "135155.802500", "135156.262500", "135156.722500", "135157.182500", "135157.642500", "135158.102500", "135158.562500", "135159.022500", "135159.482500", "135159.942500", "135200.402500", "135200.862500", "135201.322500", "135201.782500", "135202.242500", "135202.702500", "135203.162500", "135203.622500", "135204.082500", "135204.542500", "135205.002500", "135205.462500", "135205.922500", "135206.382500", "135206.842500", "135207.302500", "135207.762500", "135208.222500", "135208.682500", "135209.142500", "135209.602500", "135210.062500", "135210.522500", "135210.982500", "135211.442500", "135211.902500", "135212.362500", "135212.822500", "135213.282500", "135213.742500", "135214.202500", "135214.662500", "135215.122500", "135215.582500", "135216.042500", "135216.502500", "135216.962500", "135217.422500", "135217.882500", "135218.342500", "135218.802500", "135219.262500", "135219.722500", "135220.182500", "135220.642500", "135221.102500", "135221.562500", "135222.022500", "135222.482500", "135222.942500", "135223.402500", "135223.862500", "135224.322500", "135224.782500", "135225.242500", "135225.702500", "135226.162500", "135226.622500", "135227.082500", "135227.542500", "135228.002500", "135228.462500", "135228.922500", "135229.382500", "135229.842500", "135230.302500", "135230.762500", "135231.222500", "135231.682500", "135232.142500", "135232.602500", "135233.062500", "135233.522500", "135233.982500", "135234.442500", "135234.902500", "135235.362500", "135235.822500", "135236.282500", "135236.742500", "135237.202500", "135237.662500", "135238.122500", "135238.582500", "135239.042500", "135239.502500", "135239.962500", "135240.422500", "135240.882500", "135241.342500", "135241.802500", "135242.262500", "135242.722500", "135243.182500", "135243.642500", "135244.102500", "135244.562500", "135245.022500", "135245.482500", "135245.942500", "135246.402500", "135246.862500", "135247.322500", "135247.782500", "135248.242500", "135248.702500", "135249.162500", "135249.622500", "135250.082500", "135250.542500", "135251.002500", "135251.462500", "135251.922500", "135252.382500", "135252.842500", "135253.302500", "135253.762500", "135254.222500", "135254.682500", "135255.142500", "135255.602500", "135256.062500", "135256.522500", "135256.982500", "135257.442500", "135257.902500", "135258.362500", "135258.822500", "135259.282500", "135259.742500", "135300.202500", "135300.662500", "135301.122500", "135301.582500", "135302.042500", "135302.502500", "135302.962500", "135303.422500", "135303.882500", "135304.342500", "135304.802500", "135305.262500", "135305.722500", "135306.182500", "135306.642500", "135307.102500", "135307.562500", "135308.022500", "135308.482500", "135308.942500", "135309.402500", "135309.862500", "135310.322500", "135310.782500", "135311.242500", "135311.702500", "135312.162500", "135312.622500", "135313.082500", "135313.542500", "135314.002500", "135314.462500", "135314.922500", "135315.382500", "135315.842500", "135316.302500", "135316.762500", "135317.222500", "135317.682500", "135318.142500", "135318.602500", "135319.062500", "135319.522500", "135319.982500", "135320.442500", "135320.902500", "135321.362500", "135321.822500", "135322.282500", "135322.742500", "135323.202500", "135323.662500", "135324.122500", "135324.582500", "135325.042500", "135325.502500", "135325.962500", "135326.422500", "135326.882500", "135327.342500", "135327.802500", "135328.262500", "135328.722500", "135329.182500", "135329.642500", "135330.102500", "135330.562500", "135331.022500", "135331.482500", "135331.942500", "135332.402500", "135332.862500", "135333.322500", "135333.782500", "135334.242500", "135334.702500", "135335.162500", "135335.622500", "135336.082500", "135336.542500", "135337.002500", "135337.462500", "135337.922500", "135338.382500", "135338.842500", "135339.302500", "135339.762500", "135340.222500", "135340.682500", "135341.142500", "135341.602500", "135342.062500", "135342.522500", "135342.982500", "135343.442500", "135343.902500", "135344.362500", "135344.822500", "135345.282500", "135345.742500"],
