{
  "AcquisitionMatrixPE": 82,
  "AcquisitionNumber": 1,
  "AcquisitionTime": "14:29:47.785000",
  "BandwidthPerPixelPhaseEncode": 24.888,
  "BaseResolution": 82,
  "BodyPartExamined": "BRAIN",
  "ConsistencyInfo": "N4_VE11C_LATEST_20160120",
  "ConversionSoftware": "dcm2niix",
  "ConversionSoftwareVersion": "v1.0.20201102",
  "DerivedVendorReportedEchoSpacing": 0.00049,
  "DeviceSerialNumber": "66112",
  "DwellTime": 2e-06,
  "EchoTime": 0.0272,
  "EchoTrainLength": 82,
  "EffectiveEchoSpacing": 0.00049,
  "FlipAngle": 44,
  "ImageComments": "Unaliased MB8/PE3",
  "ImageOrientationPatientDICOM": [0.999375, 0.0349079, -0.00563266, -0.034899, 0.999389, 0.001675],
  "ImageType": [
    "ORIGINAL",
    "PRIMARY",
    "M",
    "MB",
    "ND",
    "NORM",
    "MOSAIC"
],
  "ImagingFrequency": 123.252,
  "InPlanePhaseEncodingDirectionDICOM": "COL",
  "InstitutionAddress": "Maynard 3,Hanover,NH,US,03755",
  "InstitutionName": "Dartmouth College - PBS",
  "InstitutionalDepartmentName": "Department",
  "MRAcquisitionType": "2D",
  "MagneticFieldStrength": 3,
  "Manufacturer": "Siemens",
  "ManufacturersModelName": "Prisma",
  "Modality": "MR",
  "MultibandAccelerationFactor": 8,
  "PartialFourier": 1,
  "PatientPosition": "HFS",
  "PercentPhaseFOV": 100,
  "PercentSampling": 100,
  "PhaseEncodingDirection": "j-",
  "PhaseEncodingSteps": 82,
  "PhaseResolution": 1,
  "PixelBandwidth": 3050,
  "ProcedureStepDescription": "Wager_Wager^1076_spacetop",
  "ProtocolName": "func_run-03_task-alignvideo_acq-ap-mb8",
  "PulseSequenceDetails": "%CustomerSeq%\\cmrr_mbep2d_bold",
  "ReceiveCoilActiveElements": "HEA;HEP",
  "ReceiveCoilName": "Head_32",
  "ReconMatrixPE": 82,
  "RepetitionTime": 0.46,
  "SAR": 0.0965398,
  "ScanOptions": "FS",
  "ScanningSequence": "EP",
  "SequenceName": "epfid2d1_82",
  "SequenceVariant": "SK\\SS",
  "SeriesDescription": "func_run-03_task-alignvideo_acq-ap-mb8",
  "SeriesNumber": 40,
  "ShimSetting": [4168, -7772, -7232, 568, -71, -134, -32, 87],
  "SliceThickness": 2.7,
  "SliceTiming": [0, 0.25, 0.0625, 0.315, 0.125, 0.3775, 0.1875, 0, 0.25, 0.0625, 0.315, 0.125, 0.3775, 0.1875, 0, 0.25, 0.0625, 0.315, 0.125, 0.3775, 0.1875, 0, 0.25, 0.0625, 0.315, 0.125, 0.3775, 0.1875, 0, 0.25, 0.0625, 0.315, 0.125, 0.3775, 0.1875, 0, 0.25, 0.0625, 0.315, 0.125, 0.3775, 0.1875, 0, 0.25, 0.0625, 0.315, 0.125, 0.3775, 0.1875, 0, 0.25, 0.0625, 0.315, 0.125, 0.3775, 0.1875],
  "SoftwareVersions": "syngo MR E11",
  "SpacingBetweenSlices": 2.7,
  "StationName": "AWP66112",
  "TaskName": "alignvideo",
  "TotalReadoutTime": 0.03969,
  "TxRefAmp": 237.131,
  "WipMemBlock": "7358c6a0-5e8b-4de6-8610-44446cecb136||Sequence: R016 ve11c/master r/e634e98; Dec 19 2017 11:00:25 by eja",
  "dcmmeta_affine": [
    [-2.6812491416931152, -0.09363134205341339, -0.01535676047205925, 115.08133697509766],
    [-0.0936552882194519, 2.681288719177246, 0.003988921642303467, -89.97476196289062],
    [-0.015112007968127728, -0.004493901506066322, 2.699953317642212, -56.25483703613281],
    [0.0, 0.0, 0.0, 1.0]
],
  "dcmmeta_reorient_transform": [
    [0.0, -1.0, 0.0, 81.0],
    [1.0, 0.0, 0.0, 0.0],
    [0.0, 0.0, 1.0, 0.0],
    [0.0, 0.0, 0.0, 1.0]
],
  "dcmmeta_shape": [82, 82, 56, 1016],
  "dcmmeta_slice_dim": 2,
  "dcmmeta_version": 0.6,
  "global": {
    "const": {
      "AccessionNumber": "A003491",
      "AcquisitionMatrix": [82, 0, 0, 82],
      "AngioFlag": "N",
      "BitsAllocated": 16,
      "BitsStored": 16,
      "BodyPartExamined": "BRAIN",
      "Columns": 656,
      "EchoNumbers": 1,
      "EchoTime": 27.2,
      "EchoTrainLength": 82,
      "FlipAngle": 44.0,
      "HighBit": 15,
      "ImageOrientationPatient": [0.99937466106847, 0.03490787853052, -0.0056326575235, -0.0348989542315, 0.99938944229446, 0.00167499967932],
      "ImagePositionPatient": [-850.14350763614, -923.61858896079, -53.571444974033],
      "ImageType": [
        "ORIGINAL",
        "PRIMARY",
        "M",
        "MB",
        "ND",
        "NORM",
        "MOSAIC"
],
      "ImagedNucleus": "1H",
      "ImagingFrequency": 123.252141,
      "InPlanePhaseEncodingDirection": "COL",
      "MRAcquisitionType": "2D",
      "MagneticFieldStrength": 3.0,
      "Manufacturer": "SIEMENS",
      "ManufacturerModelName": "Prisma",
      "Modality": "MR",
      "NumberOfAverages": 1.0,
      "NumberOfPhaseEncodingSteps": 82,
      "PercentPhaseFieldOfView": 100.0,
      "PercentSampling": 100.0,
      "PerformedProcedureStepStartTime": "114622.429000",
      "PhotometricInterpretation": "MONOCHROME2",
      "PixelBandwidth": 3050.0,
      "PixelRepresentation": 0,
      "PixelSpacing": [2.6829268932343, 2.6829268932343],
      "ProtocolName": "func_run-03_task-alignvideo_acq-ap-mb8",
      "RepetitionTime": 460.0,
      "Rows": 656,
      "SAR": 0.09653976179524,
      "SamplesPerPixel": 1,
      "ScanOptions": "FS",
      "ScanningSequence": "EP",
      "SequenceName": "epfid2d1_82",
      "SequenceVariant": [
        "SK",
        "SS"
],
      "SeriesDescription": "func_run-03_task-alignvideo_acq-ap-mb8",
      "SeriesNumber": 40,
      "SeriesTime": "143013.027000",
      "SliceLocation": -57.041337856154,
      "SliceThickness": 2.7000000476837,
      "SmallestImagePixelValue": 0,
      "SoftwareVersions": "syngo MR E11",
      "SpacingBetweenSlices": 2.7000000105622,
      "SpecificCharacterSet": "ISO_IR 100",
      "StudyID": "1",
      "StudyTime": "114622.367000",
      "TransmitCoilName": "Body",
      "VariableFlipAngleFlag": "N",
      "WindowCenterWidthExplanation": "Algo1",
      "dBdt": 0.0},
    "slices": {}
  },
  "time": {
    "samples": {
      "AcquisitionNumber": [1, 2, 3, 4, 5, 6, 7, 8, 9, 10, 11, 12, 13, 14, 15, 16, 17, 18, 19, 20, 21, 22, 23, 24, 25, 26, 27, 28, 29, 30, 31, 32, 33, 34, 35, 36, 37, 38, 39, 40, 41, 42, 43, 44, 45, 46, 47, 48, 49, 50, 51, 52, 53, 54, 55, 56, 57, 58, 59, 60, 61, 62, 63, 64, 65, 66, 67, 68, 69, 70, 71, 72, 73, 74, 75, 76, 77, 78, 79, 80, 81, 82, 83, 84, 85, 86, 87, 88, 89, 90, 91, 92, 93, 94, 95, 96, 97, 98, 99, 100, 101, 102, 103, 104, 105, 106, 107, 108, 109, 110, 111, 112, 113, 114, 115, 116, 117, 118, 119, 120, 121, 122, 123, 124, 125, 126, 127, 128, 129, 130, 131, 132, 133, 134, 135, 136, 137, 138, 139, 140, 141, 142, 143, 144, 145, 146, 147, 148, 149, 150, 151, 152, 153, 154, 155, 156, 157, 158, 159, 160, 161, 162, 163, 164, 165, 166, 167, 168, 169, 170, 171, 172, 173, 174, 175, 176, 177, 178, 179, 180, 181, 182, 183, 184, 185, 186, 187, 188, 189, 190, 191, 192, 193, 194, 195, 196, 197, 198, 199, 200, 201, 202, 203, 204, 205, 206, 207, 208, 209, 210, 211, 212, 213, 214, 215, 216, 217, 218, 219, 220, 221, 222, 223, 224, 225, 226, 227, 228, 229, 230, 231, 232, 233, 234, 235, 236, 237, 238, 239, 240, 241, 242, 243, 244, 245, 246, 247, 248, 249, 250, 251, 252, 253, 254, 255, 256, 257, 258, 259, 260, 261, 262, 263, 264, 265, 266, 267, 268, 269, 270, 271, 272, 273, 274, 275, 276, 277, 278, 279, 280, 281, 282, 283, 284, 285, 286, 287, 288, 289, 290, 291, 292, 293, 294, 295, 296, 297, 298, 299, 300, 301, 302, 303, 304, 305, 306, 307, 308, 309, 310, 311, 312, 313, 314, 315, 316, 317, 318, 319, 320, 321, 322, 323, 324, 325, 326, 327, 328, 329, 330, 331, 332, 333, 334, 335, 336, 337, 338, 339, 340, 341, 342, 343, 344, 345, 346, 347, 348, 349, 350, 351, 352, 353, 354, 355, 356, 357, 358, 359, 360, 361, 362, 363, 364, 365, 366, 367, 368, 369, 370, 371, 372, 373, 374, 375, 376, 377, 378, 379, 380, 381, 382, 383, 384, 385, 386, 387, 388, 389, 390, 391, 392, 393, 394, 395, 396, 397, 398, 399, 400, 401, 402, 403, 404, 405, 406, 407, 408, 409, 410, 411, 412, 413, 414, 415, 416, 417, 418, 419, 420, 421, 422, 423, 424, 425, 426, 427, 428, 429, 430, 431, 432, 433, 434, 435, 436, 437, 438, 439, 440, 441, 442, 443, 444, 445, 446, 447, 448, 449, 450, 451, 452, 453, 454, 455, 456, 457, 458, 459, 460, 461, 462, 463, 464, 465, 466, 467, 468, 469, 470, 471, 472, 473, 474, 475, 476, 477, 478, 479, 480, 481, 482, 483, 484, 485, 486, 487, 488, 489, 490, 491, 492, 493, 494, 495, 496, 497, 498, 499, 500, 501, 502, 503, 504, 505, 506, 507, 508, 509, 510, 511, 512, 513, 514, 515, 516, 517, 518, 519, 520, 521, 522, 523, 524, 525, 526, 527, 528, 529, 530, 531, 532, 533, 534, 535, 536, 537, 538, 539, 540, 541, 542, 543, 544, 545, 546, 547, 548, 549, 550, 551, 552, 553, 554, 555, 556, 557, 558, 559, 560, 561, 562, 563, 564, 565, 566, 567, 568, 569, 570, 571, 572, 573, 574, 575, 576, 577, 578, 579, 580, 581, 582, 583, 584, 585, 586, 587, 588, 589, 590, 591, 592, 593, 594, 595, 596, 597, 598, 599, 600, 601, 602, 603, 604, 605, 606, 607, 608, 609, 610, 611, 612, 613, 614, 615, 616, 617, 618, 619, 620, 621, 622, 623, 624, 625, 626, 627, 628, 629, 630, 631, 632, 633, 634, 635, 636, 637, 638, 639, 640, 641, 642, 643, 644, 645, 646, 647, 648, 649, 650, 651, 652, 653, 654, 655, 656, 657, 658, 659, 660, 661, 662, 663, 664, 665, 666, 667, 668, 669, 670, 671, 672, 673, 674, 675, 676, 677, 678, 679, 680, 681, 682, 683, 684, 685, 686, 687, 688, 689, 690, 691, 692, 693, 694, 695, 696, 697, 698, 699, 700, 701, 702, 703, 704, 705, 706, 707, 708, 709, 710, 711, 712, 713, 714, 715, 716, 717, 718, 719, 720, 721, 722, 723, 724, 725, 726, 727, 728, 729, 730, 731, 732, 733, 734, 735, 736, 737, 738, 739, 740, 741, 742, 743, 744, 745, 746, 747, 748, 749, 750, 751, 752, 753, 754, 755, 756, 757, 758, 759, 760, 761, 762, 763, 764, 765, 766, 767, 768, 769, 770, 771, 772, 773, 774, 775, 776, 777, 778, 779, 780, 781, 782, 783, 784, 785, 786, 787, 788, 789, 790, 791, 792, 793, 794, 795, 796, 797, 798, 799, 800, 801, 802, 803, 804, 805, 806, 807, 808, 809, 810, 811, 812, 813, 814, 815, 816, 817, 818, 819, 820, 821, 822, 823, 824, 825, 826, 827, 828, 829, 830, 831, 832, 833, 834, 835, 836, 837, 838, 839, 840, 841, 842, 843, 844, 845, 846, 847, 848, 849, 850, 851, 852, 853, 854, 855, 856, 857, 858, 859, 860, 861, 862, 863, 864, 865, 866, 867, 868, 869, 870, 871, 872, 873, 874, 875, 876, 877, 878, 879, 880, 881, 882, 883, 884, 885, 886, 887, 888, 889, 890, 891, 892, 893, 894, 895, 896, 897, 898, 899, 900, 901, 902, 903, 904, 905, 906, 907, 908, 909, 910, 911, 912, 913, 914, 915, 916, 917, 918, 919, 920, 921, 922, 923, 924, 925, 926, 927, 928, 929, 930, 931, 932, 933, 934, 935, 936, 937, 938, 939, 940, 941, 942, 943, 944, 945, 946, 947, 948, 949, 950, 951, 952, 953, 954, 955, 956, 957, 958, 959, 960, 961, 962, 963, 964, 965, 966, 967, 968, 969, 970, 971, 972, 973, 974, 975, 976, 977, 978, 979, 980, 981, 982, 983, 984, 985, 986, 987, 988, 989, 990, 991, 992, 993, 994, 995, 996, 997, 998, 999, 1000, 1001, 1002, 1003, 1004, 1005, 1006, 1007, 1008, 1009, 1010, 1011, 1012, 1013, 1014, 1015, 1016],
      "AcquisitionTime": ["142947.785000", "142948.245000", "142948.705000", "142949.165000", "142949.625000", "142950.085000", "142950.545000", "142951.005000", "142951.465000", "142951.925000", "142952.385000", "142952.845000", "142953.305000", "142953.765000", "142954.225000", "142954.685000", "142955.145000", "142955.605000", "142956.065000", "142956.525000", "142956.985000", "142957.445000", "142957.905000", "142958.365000", "142958.825000", "142959.285000", "142959.745000", "143000.205000", "143000.665000", "143001.125000", "143001.585000", "143002.045000", "143002.505000", "143002.965000", "143003.425000", "143003.885000", "143004.345000", "143004.805000", "143005.265000", "143005.725000", "143006.185000", "143006.645000", "143007.105000", "143007.565000", "143008.025000", "143008.485000", "143008.945000", "143009.405000", "143009.865000", "143010.325000", "143010.785000", "143011.245000", "143011.705000", "143012.165000", "143012.625000", "143013.085000", "143013.545000", "143014.005000", "143014.465000", "143014.925000", "143015.385000", "143015.845000", "143016.305000", "143016.765000", "143017.225000", "143017.685000", "143018.145000", "143018.605000", "143019.065000", "143019.525000", "143019.985000", "143020.445000", "143020.905000", "143021.365000", "143021.825000", "143022.285000", "143022.745000", "143023.205000", "143023.665000", "143024.125000", "143024.585000", "143025.045000", "143025.505000", "143025.965000", "143026.425000", "143026.885000", "143027.345000", "143027.805000", "143028.265000", "143028.725000", "143029.185000", "143029.645000", "143030.105000", "143030.565000", "143031.025000", "143031.485000", "143031.945000", "143032.405000", "143032.865000", "143033.325000", "143033.785000", "143034.245000", "143034.705000", "143035.165000", "143035.625000", "143036.085000", "143036.545000", "143037.005000", "143037.465000", "143037.925000", "143038.385000", "143038.845000", "143039.305000", "143039.765000", "143040.225000", "143040.685000", "143041.145000", "143041.605000", "143042.065000", "143042.525000", "143042.985000", "143043.445000", "143043.905000", "143044.365000", "143044.825000", "143045.285000", "143045.745000", "143046.205000", "143046.665000", "143047.125000", "143047.585000", "143048.045000", "143048.505000", "143048.965000", "143049.425000", "143049.885000", "143050.345000", "143050.805000", "143051.265000", "143051.725000", "143052.185000", "143052.645000", "143053.105000", "143053.565000", "143054.025000", "143054.485000", "143054.945000", "143055.405000", "143055.865000", "143056.325000", "143056.785000", "143057.245000", "143057.705000", "143058.165000", "143058.625000", "143059.085000", "143059.545000", "143100.005000", "143100.465000", "143100.925000", "143101.385000", "143101.845000", "143102.305000", "143102.765000", "143103.225000", "143103.685000", "143104.145000", "143104.605000", "143105.065000", "143105.525000", "143105.985000", "143106.445000", "143106.905000", "143107.365000", "143107.825000", "143108.285000", "143108.745000", "143109.205000", "143109.665000", "143110.125000", "143110.585000", "143111.045000", "143111.505000", "143111.965000", "143112.425000", "143112.885000", "143113.345000", "143113.805000", "143114.265000", "143114.725000", "143115.185000", "143115.645000", "143116.105000", "143116.565000", "143117.025000", "143117.485000", "143117.945000", "143118.405000", "143118.865000", "143119.325000", "143119.785000", "143120.245000", "143120.705000", "143121.165000", "143121.625000", "143122.085000", "143122.545000", "143123.005000", "143123.465000", "143123.925000", "143124.385000", "143124.845000", "143125.305000", "143125.765000", "143126.225000", "143126.685000", "143127.145000", "143127.605000", "143128.065000", "143128.525000", "143128.985000", "143129.445000", "143129.905000", "143130.365000", "143130.825000", "143131.285000", "143131.745000", "143132.205000", "143132.665000", "143133.125000", "143133.585000", "143134.045000", "143134.505000", "143134.965000", "143135.425000", "143135.885000", "143136.345000", "143136.805000", "143137.265000", "143137.725000", "143138.185000", "143138.645000", "143139.105000", "143139.565000", "143140.025000", "143140.485000", "143140.945000", "143141.405000", "143141.865000", "143142.325000", "143142.785000", "143143.245000", "143143.705000", "143144.165000", "143144.625000", "143145.085000", "143145.545000", "143146.005000", "143146.465000", "143146.925000", "143147.385000", "143147.845000", "143148.305000", "143148.765000", "143149.225000", "143149.685000", "143150.145000", "143150.605000", "143151.065000", "143151.525000", "143151.985000", "143152.445000", "143152.905000", "143153.365000", "143153.825000", "143154.285000", "143154.745000", "143155.205000", "143155.665000", "143156.125000", "143156.585000", "143157.045000", "143157.505000", "143157.965000", "143158.425000", "143158.885000", "143159.345000", "143159.805000", "143200.265000", "143200.725000", "143201.185000", "143201.645000", "143202.105000", "143202.565000", "143203.025000", "143203.485000", "143203.945000", "143204.405000", "143204.865000", "143205.325000", "143205.785000", "143206.245000", "143206.705000", "143207.165000", "143207.625000", "143208.085000", "143208.545000", "143209.005000", "143209.465000", "143209.925000", "143210.385000", "143210.845000", "143211.305000", "143211.765000", "143212.225000", "143212.685000", "143213.145000", "143213.605000", "143214.065000", "143214.525000", "143214.985000", "143215.445000", "143215.905000", "143216.365000", "143216.825000", "143217.285000", "143217.745000", "143218.205000", "143218.665000", "143219.125000", "143219.585000", "143220.045000", "143220.505000", "143220.965000", "143221.425000", "143221.885000", "143222.345000", "143222.805000", "143223.265000", "143223.725000", "143224.185000", "143224.645000", "143225.105000", "143225.565000", "143226.025000", "143226.485000", "143226.945000", "143227.405000", "143227.865000", "143228.325000", "143228.785000", "143229.245000", "143229.705000", "143230.165000", "143230.625000", "143231.085000", "143231.545000", "143232.005000", "143232.465000", "143232.925000", "143233.385000", "143233.845000", "143234.305000", "143234.765000", "143235.225000", "143235.685000", "143236.145000", "143236.605000", "143237.065000", "143237.525000", "143237.985000", "143238.445000", "143238.905000", "143239.365000", "143239.825000", "143240.285000", "143240.745000", "143241.205000", "143241.665000", "143242.125000", "143242.585000", "143243.045000", "143243.505000", "143243.965000", "143244.425000", "143244.885000", "143245.345000", "143245.805000", "143246.265000", "143246.725000", "143247.185000", "143247.645000", "143248.105000", "143248.565000", "143249.025000", "143249.485000", "143249.945000", "143250.405000", "143250.865000", "143251.325000", "143251.785000", "143252.245000", "143252.705000", "143253.165000", "143253.625000", "143254.085000", "143254.545000", "143255.005000", "143255.465000", "143255.925000", "143256.385000", "143256.845000", "143257.305000", "143257.765000", "143258.225000", "143258.685000", "143259.145000", "143259.605000", "143300.065000", "143300.525000", "143300.985000", "143301.445000", "143301.905000", "143302.365000", "143302.825000", "143303.285000", "143303.745000", "143304.205000", "143304.665000", "143305.125000", "143305.585000", "143306.045000", "143306.505000", "143306.965000", "143307.425000", "143307.885000", "143308.345000", "143308.805000", "143309.265000", "143309.725000", "143310.185000", "143310.645000", "143311.105000", "143311.565000", "143312.025000", "143312.485000", "143312.945000", "143313.405000", "143313.865000", "143314.325000", "143314.785000", "143315.245000", "143315.705000", "143316.165000", "143316.625000", "143317.085000", "143317.545000", "143318.005000", "143318.465000", "143318.925000", "143319.385000", "143319.845000", "143320.305000", "143320.765000", "143321.225000", "143321.685000", "143322.145000", "143322.605000", "143323.065000", "143323.525000", "143323.985000", "143324.445000", "143324.905000", "143325.365000", "143325.825000", "143326.285000", "143326.745000", "143327.205000", "143327.665000", "143328.125000", "143328.585000", "143329.045000", "143329.505000", "143329.965000", "143330.425000", "143330.885000", "143331.345000", "143331.805000", "143332.265000", "143332.725000", "143333.185000", "143333.645000", "143334.105000", "143334.565000", "143335.025000", "143335.485000", "143335.945000", "143336.405000", "143336.865000", "143337.325000", "143337.785000", "143338.245000", "143338.705000", "143339.165000", "143339.625000", "143340.085000", "143340.545000", "143341.005000", "143341.465000", "143341.925000", "143342.385000", "143342.845000", "143343.305000", "143343.765000", "143344.225000", "143344.685000", "143345.145000", "143345.605000", "143346.065000", "143346.525000", "143346.985000", "143347.445000", "143347.905000", "143348.365000", "143348.825000", "143349.285000", "143349.745000", "143350.205000", "143350.665000", "143351.125000", "143351.585000", "143352.045000", "143352.505000", "143352.965000", "143353.425000", "143353.885000", "143354.345000", "143354.805000", "143355.265000", "143355.725000", "143356.185000", "143356.645000", "143357.105000", "143357.565000", "143358.025000", "143358.485000", "143358.945000", "143359.405000", "143359.865000", "143400.325000", "143400.785000", "143401.245000", "143401.705000", "143402.165000", "143402.625000", "143403.085000", "143403.545000", "143404.005000", "143404.465000", "143404.925000", "143405.385000", "143405.845000", "143406.305000", "143406.765000", "143407.225000", "143407.685000", "143408.145000", "143408.605000", "143409.065000", "143409.525000", "143409.985000", "143410.445000", "143410.905000", "143411.365000", "143411.825000", "143412.285000", "143412.745000", "143413.205000", "143413.665000", "143414.125000", "143414.585000", "143415.045000", "143415.505000", "143415.965000", "143416.425000", "143416.885000", "143417.345000", "143417.805000", "143418.265000", "143418.725000", "143419.185000", "143419.645000", "143420.105000", "143420.565000", "143421.025000", "143421.485000", "143421.945000", "143422.405000", "143422.865000", "143423.325000", "143423.785000", "143424.245000", "143424.705000", "143425.165000", "143425.625000", "143426.085000", "143426.545000", "143427.005000", "143427.465000", "143427.925000", "143428.385000", "143428.845000", "143429.305000", "143429.765000", "143430.225000", "143430.685000", "143431.145000", "143431.605000", "143432.065000", "143432.525000", "143432.985000", "143433.445000", "143433.905000", "143434.365000", "143434.825000", "143435.285000", "143435.745000", "143436.205000", "143436.665000", "143437.125000", "143437.585000", "143438.045000", "143438.505000", "143438.965000", "143439.425000", "143439.885000", "143440.345000", "143440.805000", "143441.265000", "143441.725000", "143442.185000", "143442.645000", "143443.105000", "143443.565000", "143444.025000", "143444.485000", "143444.945000", "143445.405000", "143445.865000", "143446.325000", "143446.785000", "143447.245000", "143447.705000", "143448.165000", "143448.625000", "143449.085000", "143449.545000", "143450.005000", "143450.465000", "143450.925000", "143451.385000", "143451.845000", "143452.305000", "143452.765000", "143453.225000", "143453.685000", "143454.145000", "143454.605000", "143455.065000", "143455.525000", "143455.985000", "143456.445000", "143456.905000", "143457.365000", "143457.825000", "143458.285000", "143458.745000", "143459.205000", "143459.665000", "143500.125000", "143500.585000", "143501.045000", "143501.505000", "143501.965000", "143502.425000", "143502.885000", "143503.345000", "143503.805000", "143504.265000", "143504.725000", "143505.185000", "143505.645000", "143506.105000", "143506.565000", "143507.025000", "143507.485000", "143507.945000", "143508.405000", "143508.865000", "143509.325000", "143509.785000", "143510.245000", "143510.705000", "143511.165000", "143511.625000", "143512.085000", "143512.545000", "143513.005000", "143513.465000", "143513.925000", "143514.385000", "143514.845000", "143515.305000", "143515.765000", "143516.225000", "143516.685000", "143517.145000", "143517.605000", "143518.065000", "143518.525000", "143518.985000", "143519.445000", "143519.905000", "143520.365000", "143520.825000", "143521.285000", "143521.745000", "143522.205000", "143522.665000", "143523.125000", "143523.585000", "143524.045000", "143524.505000", "143524.965000", "143525.425000", "143525.885000", "143526.345000", "143526.805000", "143527.265000", "143527.725000", "143528.185000", "143528.645000", "143529.105000", "143529.565000", "143530.025000", "143530.485000", "143530.945000", "143531.405000", "143531.865000", "143532.325000", "143532.785000", "143533.245000", "143533.705000", "143534.165000", "143534.625000", "143535.085000", "143535.545000", "143536.005000", "143536.465000", "143536.925000", "143537.385000", "143537.845000", "143538.305000", "143538.765000", "143539.225000", "143539.685000", "143540.145000", "143540.605000", "143541.065000", "143541.525000", "143541.985000", "143542.445000", "143542.905000", "143543.365000", "143543.825000", "143544.285000", "143544.745000", "143545.205000", "143545.665000", "143546.125000", "143546.585000", "143547.045000", "143547.505000", "143547.965000", "143548.425000", "143548.885000", "143549.345000", "143549.805000", "143550.265000", "143550.725000", "143551.185000", "143551.645000", "143552.105000", "143552.565000", "143553.025000", "143553.485000", "143553.945000", "143554.405000", "143554.865000", "143555.325000", "143555.785000", "143556.245000", "143556.705000", "143557.165000", "143557.625000", "143558.085000", "143558.545000", "143559.005000", "143559.465000", "143559.925000", "143600.385000", "143600.845000", "143601.305000", "143601.765000", "143602.225000", "143602.685000", "143603.145000", "143603.605000", "143604.065000", "143604.525000", "143604.985000", "143605.445000", "143605.905000", "143606.365000", "143606.825000", "143607.285000", "143607.745000", "143608.205000", "143608.665000", "143609.125000", "143609.585000", "143610.045000", "143610.505000", "143610.965000", "143611.425000", "143611.885000", "143612.345000", "143612.805000", "143613.265000", "143613.725000", "143614.185000", "143614.645000", "143615.105000", "143615.565000", "143616.025000", "143616.485000", "143616.945000", "143617.405000", "143617.865000", "143618.325000", "143618.785000", "143619.245000", "143619.705000", "143620.165000", "143620.625000", "143621.085000", "143621.545000", "143622.005000", "143622.465000", "143622.925000", "143623.385000", "143623.845000", "143624.305000", "143624.765000", "143625.225000", "143625.685000", "143626.145000", "143626.605000", "143627.065000", "143627.525000", "143627.985000", "143628.445000", "143628.905000", "143629.365000", "143629.825000", "143630.285000", "143630.745000", "143631.205000", "143631.665000", "143632.125000", "143632.585000", "143633.045000", "143633.505000", "143633.965000", "143634.425000", "143634.885000", "143635.345000", "143635.805000", "143636.265000", "143636.725000", "143637.185000", "143637.645000", "143638.105000", "143638.565000", "143639.025000", "143639.485000", "143639.945000", "143640.405000", "143640.865000", "143641.325000", "143641.785000", "143642.245000", "143642.705000", "143643.165000", "143643.625000", "143644.085000", "143644.545000", "143645.005000", "143645.465000", "143645.925000", "143646.385000", "143646.845000", "143647.305000", "143647.765000", "143648.225000", "143648.685000", "143649.145000", "143649.605000", "143650.065000", "143650.525000", "143650.985000", "143651.445000", "143651.905000", "143652.365000", "143652.825000", "143653.285000", "143653.745000", "143654.205000", "143654.665000", "143655.125000", "143655.585000", "143656.045000", "143656.505000", "143656.965000", "143657.425000", "143657.885000", "143658.345000", "143658.805000", "143659.265000", "143659.725000", "143700.185000", "143700.645000", "143701.105000", "143701.565000", "143702.025000", "143702.485000", "143702.945000", "143703.405000", "143703.865000", "143704.325000", "143704.785000", "143705.245000", "143705.705000", "143706.165000", "143706.625000", "143707.085000", "143707.545000", "143708.005000", "143708.465000", "143708.925000", "143709.385000", "143709.845000", "143710.305000", "143710.765000", "143711.225000", "143711.685000", "143712.145000", "143712.605000", "143713.065000", "143713.525000", "143713.985000", "143714.445000", "143714.905000", "143715.365000", "143715.825000", "143716.285000", "143716.745000", "143717.205000", "143717.665000", "143718.125000", "143718.585000", "143719.045000", "143719.505000", "143719.965000", "143720.425000", "143720.885000", "143721.345000", "143721.805000", "143722.265000", "143722.725000", "143723.185000", "143723.645000", "143724.105000", "143724.565000", "143725.025000", "143725.485000", "143725.945000", "143726.405000", "143726.865000", "143727.325000", "143727.785000", "143728.245000", "143728.705000", "143729.165000", "143729.625000", "143730.085000", "143730.545000", "143731.005000", "143731.465000", "143731.925000", "143732.385000", "143732.845000", "143733.305000", "143733.765000", "143734.225000", "143734.685000"],
