{
  "AcquisitionMatrixPE": 82,
  "AcquisitionNumber": 1,
  "AcquisitionTime": "14:01:4.655000",
  "BandwidthPerPixelPhaseEncode": 24.888,
  "BaseResolution": 82,
  "BodyPartExamined": "BRAIN",
  "ConsistencyInfo": "N4_VE11C_LATEST_20160120",
  "ConversionSoftware": "dcm2niix",
  "ConversionSoftwareVersion": "v1.0.20201102",
  "DerivedVendorReportedEchoSpacing": 0.00049,
  "DeviceSerialNumber": "66112",
  "DwellTime": 2e-06,
  "EchoTime": 0.0272,
  "EchoTrainLength": 82,
  "EffectiveEchoSpacing": 0.00049,
  "FlipAngle": 44,
  "ImageComments": "Unaliased MB8/PE3",
  "ImageOrientationPatientDICOM": [0.999519, 0.0284863, -0.0122203, -0.0282682, 0.999444, 0.0176618],
  "ImageType": [
    "ORIGINAL",
    "PRIMARY",
    "M",
    "MB",
    "ND",
    "NORM",
    "MOSAIC"
],
  "ImagingFrequency": 123.252,
  "InPlanePhaseEncodingDirectionDICOM": "COL",
  "InstitutionAddress": "Maynard 3,Hanover,NH,US,03755",
  "InstitutionName": "Dartmouth College - PBS",
  "InstitutionalDepartmentName": "Department",
  "MRAcquisitionType": "2D",
  "MagneticFieldStrength": 3,
  "Manufacturer": "Siemens",
  "ManufacturersModelName": "Prisma",
  "Modality": "MR",
  "MultibandAccelerationFactor": 8,
  "PartialFourier": 1,
  "PatientPosition": "HFS",
  "PercentPhaseFOV": 100,
  "PercentSampling": 100,
  "PhaseEncodingDirection": "j-",
  "PhaseEncodingSteps": 82,
  "PhaseResolution": 1,
  "PixelBandwidth": 3050,
  "ProcedureStepDescription": "Wager_Wager^1076_spacetop",
  "ProtocolName": "func_run-06_task-social_acq-ap-mb8",
  "PulseSequenceDetails": "%CustomerSeq%\\cmrr_mbep2d_bold",
  "ReceiveCoilActiveElements": "HEA;HEP",
  "ReceiveCoilName": "Head_32",
  "ReconMatrixPE": 82,
  "RepetitionTime": 0.46,
  "SAR": 0.0964547,
  "ScanOptions": "FS",
  "ScanningSequence": "EP",
  "SequenceName": "epfid2d1_82",
  "SequenceVariant": "SK\\SS",
  "SeriesDescription": "func_run-06_task-social_acq-ap-mb8",
  "SeriesNumber": 28,
  "ShimSetting": [4169, -7773, -7231, 572, -72, -140, -30, 85],
  "SliceThickness": 2.7,
  "SliceTiming": [0, 0.25, 0.0625, 0.3125, 0.125, 0.3775, 0.1875, 0, 0.25, 0.0625, 0.3125, 0.125, 0.3775, 0.1875, 0, 0.25, 0.0625, 0.3125, 0.125, 0.3775, 0.1875, 0, 0.25, 0.0625, 0.3125, 0.125, 0.3775, 0.1875, 0, 0.25, 0.0625, 0.3125, 0.125, 0.3775, 0.1875, 0, 0.25, 0.0625, 0.3125, 0.125, 0.3775, 0.1875, 0, 0.25, 0.0625, 0.3125, 0.125, 0.3775, 0.1875, 0, 0.25, 0.0625, 0.3125, 0.125, 0.3775, 0.1875],
  "SoftwareVersions": "syngo MR E11",
  "SpacingBetweenSlices": 2.7,
  "StationName": "AWP66112",
  "TaskName": "social",
  "TotalReadoutTime": 0.03969,
  "TxRefAmp": 237.131,
  "WipMemBlock": "51625d0b-be42-4cdb-bfd4-22cddda2047e||Sequence: R016 ve11c/master r/e634e98; Dec 19 2017 11:00:25 by eja",
  "dcmmeta_affine": [
    [-2.681637763977051, -0.07584161311388016, -0.03433496505022049, 115.04578399658203],
    [-0.07642670720815659, 2.681436061859131, 0.04673114791512489, -89.04467010498047],
    [-0.03278624266386032, -0.04738523066043854, 2.6993770599365234, -55.48084259033203],
    [0.0, 0.0, 0.0, 1.0]
],
  "dcmmeta_reorient_transform": [
    [0.0, -1.0, 0.0, 81.0],
    [1.0, 0.0, 0.0, 0.0],
    [0.0, 0.0, 1.0, 0.0],
    [0.0, 0.0, 0.0, 1.0]
],
  "dcmmeta_shape": [82, 82, 56, 872],
  "dcmmeta_slice_dim": 2,
  "dcmmeta_version": 0.6,
  "global": {
    "const": {
      "AccessionNumber": "A003491",
      "AcquisitionMatrix": [82, 0, 0, 82],
      "AngioFlag": "N",
      "BitsAllocated": 16,
      "BitsStored": 16,
      "BodyPartExamined": "BRAIN",
      "Columns": 656,
      "EchoNumbers": 1,
      "EchoTime": 27.2,
      "EchoTrainLength": 82,
      "FlipAngle": 44.0,
      "HighBit": 15,
      "ImageOrientationPatient": [0.99951948125775, 0.02848631617263, -0.0122203263927, -0.0282682380402, 0.99944432996631, 0.01766176707749],
      "ImagePositionPatient": [-856.76608537927, -919.65826434666, -63.508957418698],
      "ImageType": [
        "ORIGINAL",
        "PRIMARY",
        "M",
        "MB",
        "ND",
        "NORM",
        "MOSAIC"
],
      "ImagedNucleus": "1H",
      "ImagingFrequency": 123.252132,
      "InPlanePhaseEncodingDirection": "COL",
      "MRAcquisitionType": "2D",
      "MagneticFieldStrength": 3.0,
      "Manufacturer": "SIEMENS",
      "ManufacturerModelName": "Prisma",
      "Modality": "MR",
      "NumberOfAverages": 1.0,
      "NumberOfPhaseEncodingSteps": 82,
      "PercentPhaseFieldOfView": 100.0,
      "PercentSampling": 100.0,
      "PerformedProcedureStepStartTime": "114622.429000",
      "PhotometricInterpretation": "MONOCHROME2",
      "PixelBandwidth": 3050.0,
      "PixelRepresentation": 0,
      "PixelSpacing": [2.6829268932343, 2.6829268932343],
      "ProtocolName": "func_run-06_task-social_acq-ap-mb8",
      "RepetitionTime": 460.0,
      "Rows": 656,
      "SAR": 0.09645471285181,
      "SamplesPerPixel": 1,
      "ScanOptions": "FS",
      "ScanningSequence": "EP",
      "SequenceName": "epfid2d1_82",
      "SequenceVariant": [
        "SK",
        "SS"
],
      "SeriesDescription": "func_run-06_task-social_acq-ap-mb8",
      "SeriesNumber": 28,
      "SeriesTime": "140133.016000",
      "SliceLocation": -58.472214771506,
      "SliceThickness": 2.7000000476837,
      "SmallestImagePixelValue": 0,
      "SoftwareVersions": "syngo MR E11",
      "SpacingBetweenSlices": 2.699999955974,
      "SpecificCharacterSet": "ISO_IR 100",
      "StudyID": "1",
      "StudyTime": "114622.367000",
      "TransmitCoilName": "Body",
      "VariableFlipAngleFlag": "N",
      "WindowCenterWidthExplanation": "Algo1",
      "dBdt": 0.0},
    "slices": {}
  },
  "time": {
    "samples": {
      "AcquisitionNumber": [1, 2, 3, 4, 5, 6, 7, 8, 9, 10, 11, 12, 13, 14, 15, 16, 17, 18, 19, 20, 21, 22, 23, 24, 25, 26, 27, 28, 29, 30, 31, 32, 33, 34, 35, 36, 37, 38, 39, 40, 41, 42, 43, 44, 45, 46, 47, 48, 49, 50, 51, 52, 53, 54, 55, 56, 57, 58, 59, 60, 61, 62, 63, 64, 65, 66, 67, 68, 69, 70, 71, 72, 73, 74, 75, 76, 77, 78, 79, 80, 81, 82, 83, 84, 85, 86, 87, 88, 89, 90, 91, 92, 93, 94, 95, 96, 97, 98, 99, 100, 101, 102, 103, 104, 105, 106, 107, 108, 109, 110, 111, 112, 113, 114, 115, 116, 117, 118, 119, 120, 121, 122, 123, 124, 125, 126, 127, 128, 129, 130, 131, 132, 133, 134, 135, 136, 137, 138, 139, 140, 141, 142, 143, 144, 145, 146, 147, 148, 149, 150, 151, 152, 153, 154, 155, 156, 157, 158, 159, 160, 161, 162, 163, 164, 165, 166, 167, 168, 169, 170, 171, 172, 173, 174, 175, 176, 177, 178, 179, 180, 181, 182, 183, 184, 185, 186, 187, 188, 189, 190, 191, 192, 193, 194, 195, 196, 197, 198, 199, 200, 201, 202, 203, 204, 205, 206, 207, 208, 209, 210, 211, 212, 213, 214, 215, 216, 217, 218, 219, 220, 221, 222, 223, 224, 225, 226, 227, 228, 229, 230, 231, 232, 233, 234, 235, 236, 237, 238, 239, 240, 241, 242, 243, 244, 245, 246, 247, 248, 249, 250, 251, 252, 253, 254, 255, 256, 257, 258, 259, 260, 261, 262, 263, 264, 265, 266, 267, 268, 269, 270, 271, 272, 273, 274, 275, 276, 277, 278, 279, 280, 281, 282, 283, 284, 285, 286, 287, 288, 289, 290, 291, 292, 293, 294, 295, 296, 297, 298, 299, 300, 301, 302, 303, 304, 305, 306, 307, 308, 309, 310, 311, 312, 313, 314, 315, 316, 317, 318, 319, 320, 321, 322, 323, 324, 325, 326, 327, 328, 329, 330, 331, 332, 333, 334, 335, 336, 337, 338, 339, 340, 341, 342, 343, 344, 345, 346, 347, 348, 349, 350, 351, 352, 353, 354, 355, 356, 357, 358, 359, 360, 361, 362, 363, 364, 365, 366, 367, 368, 369, 370, 371, 372, 373, 374, 375, 376, 377, 378, 379, 380, 381, 382, 383, 384, 385, 386, 387, 388, 389, 390, 391, 392, 393, 394, 395, 396, 397, 398, 399, 400, 401, 402, 403, 404, 405, 406, 407, 408, 409, 410, 411, 412, 413, 414, 415, 416, 417, 418, 419, 420, 421, 422, 423, 424, 425, 426, 427, 428, 429, 430, 431, 432, 433, 434, 435, 436, 437, 438, 439, 440, 441, 442, 443, 444, 445, 446, 447, 448, 449, 450, 451, 452, 453, 454, 455, 456, 457, 458, 459, 460, 461, 462, 463, 464, 465, 466, 467, 468, 469, 470, 471, 472, 473, 474, 475, 476, 477, 478, 479, 480, 481, 482, 483, 484, 485, 486, 487, 488, 489, 490, 491, 492, 493, 494, 495, 496, 497, 498, 499, 500, 501, 502, 503, 504, 505, 506, 507, 508, 509, 510, 511, 512, 513, 514, 515, 516, 517, 518, 519, 520, 521, 522, 523, 524, 525, 526, 527, 528, 529, 530, 531, 532, 533, 534, 535, 536, 537, 538, 539, 540, 541, 542, 543, 544, 545, 546, 547, 548, 549, 550, 551, 552, 553, 554, 555, 556, 557, 558, 559, 560, 561, 562, 563, 564, 565, 566, 567, 568, 569, 570, 571, 572, 573, 574, 575, 576, 577, 578, 579, 580, 581, 582, 583, 584, 585, 586, 587, 588, 589, 590, 591, 592, 593, 594, 595, 596, 597, 598, 599, 600, 601, 602, 603, 604, 605, 606, 607, 608, 609, 610, 611, 612, 613, 614, 615, 616, 617, 618, 619, 620, 621, 622, 623, 624, 625, 626, 627, 628, 629, 630, 631, 632, 633, 634, 635, 636, 637, 638, 639, 640, 641, 642, 643, 644, 645, 646, 647, 648, 649, 650, 651, 652, 653, 654, 655, 656, 657, 658, 659, 660, 661, 662, 663, 664, 665, 666, 667, 668, 669, 670, 671, 672, 673, 674, 675, 676, 677, 678, 679, 680, 681, 682, 683, 684, 685, 686, 687, 688, 689, 690, 691, 692, 693, 694, 695, 696, 697, 698, 699, 700, 701, 702, 703, 704, 705, 706, 707, 708, 709, 710, 711, 712, 713, 714, 715, 716, 717, 718, 719, 720, 721, 722, 723, 724, 725, 726, 727, 728, 729, 730, 731, 732, 733, 734, 735, 736, 737, 738, 739, 740, 741, 742, 743, 744, 745, 746, 747, 748, 749, 750, 751, 752, 753, 754, 755, 756, 757, 758, 759, 760, 761, 762, 763, 764, 765, 766, 767, 768, 769, 770, 771, 772, 773, 774, 775, 776, 777, 778, 779, 780, 781, 782, 783, 784, 785, 786, 787, 788, 789, 790, 791, 792, 793, 794, 795, 796, 797, 798, 799, 800, 801, 802, 803, 804, 805, 806, 807, 808, 809, 810, 811, 812, 813, 814, 815, 816, 817, 818, 819, 820, 821, 822, 823, 824, 825, 826, 827, 828, 829, 830, 831, 832, 833, 834, 835, 836, 837, 838, 839, 840, 841, 842, 843, 844, 845, 846, 847, 848, 849, 850, 851, 852, 853, 854, 855, 856, 857, 858, 859, 860, 861, 862, 863, 864, 865, 866, 867, 868, 869, 870, 871, 872],
      "AcquisitionTime": ["140104.655000", "140105.115000", "140105.575000", "140106.035000", "140106.495000", "140106.955000", "140107.415000", "140107.875000", "140108.335000", "140108.795000", "140109.255000", "140109.715000", "140110.175000", "140110.635000", "140111.095000", "140111.555000", "140112.015000", "140112.475000", "140112.935000", "140113.395000", "140113.855000", "140114.315000", "140114.775000", "140115.235000", "140115.695000", "140116.155000", "140116.615000", "140117.075000", "140117.535000", "140117.995000", "140118.455000", "140118.915000", "140119.375000", "140119.835000", "140120.295000", "140120.755000", "140121.215000", "140121.675000", "140122.135000", "140122.595000", "140123.055000", "140123.515000", "140123.975000", "140124.435000", "140124.895000", "140125.355000", "140125.815000", "140126.275000", "140126.735000", "140127.195000", "140127.655000", "140128.115000", "140128.575000", "140129.035000", "140129.495000", "140129.955000", "140130.415000", "140130.875000", "140131.335000", "140131.795000", "140132.255000", "140132.715000", "140133.175000", "140133.635000", "140134.095000", "140134.555000", "140135.015000", "140135.475000", "140135.935000", "140136.395000", "140136.855000", "140137.315000", "140137.775000", "140138.235000", "140138.695000", "140139.155000", "140139.615000", "140140.075000", "140140.535000", "140140.995000", "140141.455000", "140141.915000", "140142.375000", "140142.835000", "140143.295000", "140143.755000", "140144.215000", "140144.675000", "140145.135000", "140145.595000", "140146.055000", "140146.515000", "140146.975000", "140147.435000", "140147.895000", "140148.355000", "140148.815000", "140149.275000", "140149.735000", "140150.195000", "140150.655000", "140151.115000", "140151.575000", "140152.035000", "140152.495000", "140152.955000", "140153.415000", "140153.875000", "140154.335000", "140154.795000", "140155.255000", "140155.715000", "140156.175000", "140156.635000", "140157.095000", "140157.555000", "140158.015000", "140158.475000", "140158.935000", "140159.395000", "140159.855000", "140200.315000", "140200.775000", "140201.235000", "140201.695000", "140202.155000", "140202.615000", "140203.075000", "140203.535000", "140203.995000", "140204.455000", "140204.915000", "140205.375000", "140205.835000", "140206.295000", "140206.755000", "140207.215000", "140207.675000", "140208.135000", "140208.595000", "140209.055000", "140209.515000", "140209.975000", "140210.435000", "140210.895000", "140211.355000", "140211.815000", "140212.275000", "140212.735000", "140213.195000", "140213.655000", "140214.115000", "140214.575000", "140215.035000", "140215.495000", "140215.955000", "140216.415000", "140216.875000", "140217.335000", "140217.795000", "140218.255000", "140218.715000", "140219.175000", "140219.635000", "140220.095000", "140220.555000", "140221.015000", "140221.475000", "140221.935000", "140222.395000", "140222.855000", "140223.315000", "140223.775000", "140224.235000", "140224.695000", "140225.155000", "140225.615000", "140226.075000", "140226.535000", "140226.995000", "140227.455000", "140227.915000", "140228.375000", "140228.835000", "140229.295000", "140229.755000", "140230.215000", "140230.675000", "140231.135000", "140231.595000", "140232.055000", "140232.515000", "140232.975000", "140233.435000", "140233.895000", "140234.355000", "140234.815000", "140235.275000", "140235.735000", "140236.195000", "140236.655000", "140237.115000", "140237.575000", "140238.035000", "140238.495000", "140238.955000", "140239.415000", "140239.875000", "140240.335000", "140240.795000", "140241.255000", "140241.715000", "140242.175000", "140242.635000", "140243.095000", "140243.555000", "140244.015000", "140244.475000", "140244.935000", "140245.395000", "140245.855000", "140246.315000", "140246.775000", "140247.235000", "140247.695000", "140248.155000", "140248.615000", "140249.075000", "140249.535000", "140249.995000", "140250.455000", "140250.915000", "140251.375000", "140251.835000", "140252.295000", "140252.755000", "140253.215000", "140253.675000", "140254.135000", "140254.595000", "140255.055000", "140255.515000", "140255.975000", "140256.435000", "140256.895000", "140257.355000", "140257.815000", "140258.275000", "140258.735000", "140259.195000", "140259.655000", "140300.115000", "140300.575000", "140301.035000", "140301.495000", "140301.955000", "140302.415000", "140302.875000", "140303.335000", "140303.795000", "140304.255000", "140304.715000", "140305.175000", "140305.635000", "140306.095000", "140306.555000", "140307.015000", "140307.475000", "140307.935000", "140308.395000", "140308.855000", "140309.315000", "140309.775000", "140310.235000", "140310.695000", "140311.155000", "140311.615000", "140312.075000", "140312.535000", "140312.995000", "140313.455000", "140313.915000", "140314.375000", "140314.835000", "140315.295000", "140315.755000", "140316.215000", "140316.675000", "140317.135000", "140317.595000", "140318.055000", "140318.515000", "140318.975000", "140319.435000", "140319.895000", "140320.355000", "140320.815000", "140321.275000", "140321.735000", "140322.195000", "140322.655000", "140323.115000", "140323.575000", "140324.035000", "140324.495000", "140324.955000", "140325.415000", "140325.875000", "140326.335000", "140326.795000", "140327.255000", "140327.715000", "140328.175000", "140328.635000", "140329.095000", "140329.555000", "140330.015000", "140330.475000", "140330.935000", "140331.395000", "140331.855000", "140332.315000", "140332.775000", "140333.235000", "140333.695000", "140334.155000", "140334.615000", "140335.075000", "140335.535000", "140335.995000", "140336.455000", "140336.915000", "140337.375000", "140337.835000", "140338.295000", "140338.755000", "140339.215000", "140339.675000", "140340.135000", "140340.595000", "140341.055000", "140341.515000", "140341.975000", "140342.435000", "140342.895000", "140343.355000", "140343.815000", "140344.275000", "140344.735000", "140345.195000", "140345.655000", "140346.115000", "140346.575000", "140347.035000", "140347.495000", "140347.955000", "140348.415000", "140348.875000", "140349.335000", "140349.795000", "140350.255000", "140350.715000", "140351.175000", "140351.635000", "140352.095000", "140352.555000", "140353.015000", "140353.475000", "140353.935000", "140354.395000", "140354.855000", "140355.315000", "140355.775000", "140356.235000", "140356.695000", "140357.155000", "140357.615000", "140358.075000", "140358.535000", "140358.995000", "140359.455000", "140359.915000", "140400.375000", "140400.835000", "140401.295000", "140401.755000", "140402.215000", "140402.675000", "140403.135000", "140403.595000", "140404.055000", "140404.515000", "140404.975000", "140405.435000", "140405.895000", "140406.355000", "140406.815000", "140407.275000", "140407.735000", "140408.195000", "140408.655000", "140409.115000", "140409.575000", "140410.035000", "140410.495000", "140410.955000", "140411.415000", "140411.875000", "140412.335000", "140412.795000", "140413.255000", "140413.715000", "140414.175000", "140414.635000", "140415.095000", "140415.555000", "140416.015000", "140416.475000", "140416.935000", "140417.395000", "140417.855000", "140418.315000", "140418.775000", "140419.235000", "140419.695000", "140420.155000", "140420.615000", "140421.075000", "140421.535000", "140421.995000", "140422.455000", "140422.915000", "140423.375000", "140423.835000", "140424.295000", "140424.755000", "140425.215000", "140425.675000", "140426.135000", "140426.595000", "140427.055000", "140427.515000", "140427.975000", "140428.435000", "140428.895000", "140429.355000", "140429.815000", "140430.275000", "140430.735000", "140431.195000", "140431.655000", "140432.115000", "140432.575000", "140433.035000", "140433.495000", "140433.955000", "140434.415000", "140434.875000", "140435.335000", "140435.795000", "140436.255000", "140436.715000", "140437.175000", "140437.635000", "140438.095000", "140438.555000", "140439.015000", "140439.475000", "140439.935000", "140440.395000", "140440.855000", "140441.315000", "140441.775000", "140442.235000", "140442.695000", "140443.155000", "140443.615000", "140444.075000", "140444.535000", "140444.995000", "140445.455000", "140445.915000", "140446.375000", "140446.835000", "140447.295000", "140447.755000", "140448.215000", "140448.675000", "140449.135000", "140449.595000", "140450.055000", "140450.515000", "140450.975000", "140451.435000", "140451.895000", "140452.355000", "140452.815000", "140453.275000", "140453.735000", "140454.195000", "140454.655000", "140455.115000", "140455.575000", "140456.035000", "140456.495000", "140456.955000", "140457.415000", "140457.875000", "140458.335000", "140458.795000", "140459.255000", "140459.715000", "140500.175000", "140500.635000", "140501.095000", "140501.555000", "140502.015000", "140502.475000", "140502.935000", "140503.395000", "140503.855000", "140504.315000", "140504.775000", "140505.235000", "140505.695000", "140506.155000", "140506.615000", "140507.075000", "140507.535000", "140507.995000", "140508.455000", "140508.915000", "140509.375000", "140509.835000", "140510.295000", "140510.755000", "140511.215000", "140511.675000", "140512.135000", "140512.595000", "140513.055000", "140513.515000", "140513.975000", "140514.435000", "140514.895000", "140515.355000", "140515.815000", "140516.275000", "140516.735000", "140517.195000", "140517.655000", "140518.115000", "140518.575000", "140519.035000", "140519.495000", "140519.955000", "140520.415000", "140520.875000", "140521.335000", "140521.795000", "140522.255000", "140522.715000", "140523.175000", "140523.635000", "140524.095000", "140524.555000", "140525.015000", "140525.475000", "140525.935000", "140526.395000", "140526.855000", "140527.315000", "140527.775000", "140528.235000", "140528.695000", "140529.155000", "140529.615000", "140530.075000", "140530.535000", "140530.995000", "140531.455000", "140531.915000", "140532.375000", "140532.835000", "140533.295000", "140533.755000", "140534.215000", "140534.675000", "140535.135000", "140535.595000", "140536.055000", "140536.515000", "140536.975000", "140537.435000", "140537.895000", "140538.355000", "140538.815000", "140539.275000", "140539.735000", "140540.195000", "140540.655000", "140541.115000", "140541.575000", "140542.035000", "140542.495000", "140542.955000", "140543.415000", "140543.875000", "140544.335000", "140544.795000", "140545.255000", "140545.715000", "140546.175000", "140546.635000", "140547.095000", "140547.555000", "140548.015000", "140548.475000", "140548.935000", "140549.395000", "140549.855000", "140550.315000", "140550.775000", "140551.235000", "140551.695000", "140552.155000", "140552.615000", "140553.075000", "140553.535000", "140553.995000", "140554.455000", "140554.915000", "140555.375000", "140555.835000", "140556.295000", "140556.755000", "140557.215000", "140557.675000", "140558.135000", "140558.595000", "140559.055000", "140559.515000", "140559.975000", "140600.435000", "140600.895000", "140601.355000", "140601.815000", "140602.275000", "140602.735000", "140603.195000", "140603.655000", "140604.115000", "140604.575000", "140605.035000", "140605.495000", "140605.955000", "140606.415000", "140606.875000", "140607.335000", "140607.795000", "140608.255000", "140608.715000", "140609.175000", "140609.635000", "140610.095000", "140610.555000", "140611.015000", "140611.475000", "140611.935000", "140612.395000", "140612.855000", "140613.315000", "140613.775000", "140614.235000", "140614.695000", "140615.155000", "140615.615000", "140616.075000", "140616.535000", "140616.995000", "140617.455000", "140617.915000", "140618.375000", "140618.835000", "140619.295000", "140619.755000", "140620.215000", "140620.675000", "140621.135000", "140621.595000", "140622.055000", "140622.515000", "140622.975000", "140623.435000", "140623.895000", "140624.355000", "140624.815000", "140625.275000", "140625.735000", "140626.195000", "140626.655000", "140627.115000", "140627.575000", "140628.035000", "140628.495000", "140628.955000", "140629.415000", "140629.875000", "140630.335000", "140630.795000", "140631.255000", "140631.715000", "140632.175000", "140632.635000", "140633.095000", "140633.555000", "140634.015000", "140634.475000", "140634.935000", "140635.395000", "140635.855000", "140636.315000", "140636.775000", "140637.235000", "140637.695000", "140638.155000", "140638.615000", "140639.075000", "140639.535000", "140639.995000", "140640.455000", "140640.915000", "140641.375000", "140641.835000", "140642.295000", "140642.755000", "140643.215000", "140643.675000", "140644.135000", "140644.595000", "140645.055000", "140645.515000", "140645.975000", "140646.435000", "140646.895000", "140647.355000", "140647.815000", "140648.275000", "140648.735000", "140649.195000", "140649.655000", "140650.115000", "140650.575000", "140651.035000", "140651.495000", "140651.955000", "140652.415000", "140652.875000", "140653.335000", "140653.795000", "140654.255000", "140654.715000", "140655.175000", "140655.635000", "140656.095000", "140656.555000", "140657.015000", "140657.475000", "140657.935000", "140658.395000", "140658.855000", "140659.315000", "140659.775000", "140700.235000", "140700.695000", "140701.155000", "140701.615000", "140702.075000", "140702.535000", "140702.995000", "140703.455000", "140703.915000", "140704.375000", "140704.835000", "140705.295000", "140705.755000", "140706.215000", "140706.675000", "140707.135000", "140707.595000", "140708.055000", "140708.515000", "140708.975000", "140709.435000", "140709.895000", "140710.355000", "140710.815000", "140711.275000", "140711.735000", "140712.195000", "140712.655000", "140713.115000", "140713.575000", "140714.035000", "140714.495000", "140714.955000", "140715.415000", "140715.875000", "140716.335000", "140716.795000", "140717.255000", "140717.715000", "140718.175000", "140718.635000", "140719.095000", "140719.555000", "140720.015000", "140720.475000", "140720.935000", "140721.395000", "140721.855000", "140722.315000", "140722.775000", "140723.235000", "140723.695000", "140724.155000", "140724.615000", "140725.075000", "140725.535000", "140725.995000", "140726.455000", "140726.915000", "140727.375000", "140727.835000", "140728.295000", "140728.755000", "140729.215000", "140729.675000", "140730.135000", "140730.595000", "140731.055000", "140731.515000", "140731.975000", "140732.435000", "140732.895000", "140733.355000", "140733.815000", "140734.275000", "140734.735000", "140735.195000", "140735.655000", "140736.115000", "140736.575000", "140737.035000", "140737.495000", "140737.955000", "140738.415000", "140738.875000", "140739.335000", "140739.795000", "140740.255000", "140740.715000", "140741.175000", "140741.635000", "140742.095000", "140742.555000", "140743.015000", "140743.475000", "140743.935000", "140744.395000", "140744.855000", "140745.315000"],
