{
  "AcquisitionMatrixPE": 82,
  "AcquisitionNumber": 1,
  "AcquisitionTime": "13:13:2.652500",
  "BandwidthPerPixelPhaseEncode": 24.888,
  "BaseResolution": 82,
  "BodyPartExamined": "BRAIN",
  "ConsistencyInfo": "N4_VE11C_LATEST_20160120",
  "ConversionSoftware": "dcm2niix",
  "ConversionSoftwareVersion": "v1.0.20201102",
  "DerivedVendorReportedEchoSpacing": 0.00049,
  "DeviceSerialNumber": "66112",
  "DwellTime": 2e-06,
  "EchoTime": 0.0272,
  "EchoTrainLength": 82,
  "EffectiveEchoSpacing": 0.00049,
  "FlipAngle": 44,
  "ImageComments": "Unaliased MB8/PE3",
  "ImageOrientationPatientDICOM": [0.999195, 0.0345594, 0.0203874, -0.0341943, 0.999253, -0.0179911],
  "ImageType": [
    "ORIGINAL",
    "PRIMARY",
    "M",
    "MB",
    "ND",
    "NORM",
    "MOSAIC"
],
  "ImagingFrequency": 123.252,
  "InPlanePhaseEncodingDirectionDICOM": "COL",
  "InstitutionAddress": "Maynard 3,Hanover,NH,US,03755",
  "InstitutionName": "Dartmouth College - PBS",
  "InstitutionalDepartmentName": "Department",
  "MRAcquisitionType": "2D",
  "MagneticFieldStrength": 3,
  "Manufacturer": "Siemens",
  "ManufacturersModelName": "Prisma",
  "Modality": "MR",
  "MultibandAccelerationFactor": 8,
  "PartialFourier": 1,
  "PatientPosition": "HFS",
  "PercentPhaseFOV": 100,
  "PercentSampling": 100,
  "PhaseEncodingDirection": "j-",
  "PhaseEncodingSteps": 82,
  "PhaseResolution": 1,
  "PixelBandwidth": 3050,
  "ProcedureStepDescription": "Wager_Wager^1076_spacetop",
  "ProtocolName": "func_run-02_task-social_acq-ap-mb8",
  "PulseSequenceDetails": "%CustomerSeq%\\cmrr_mbep2d_bold",
  "ReceiveCoilActiveElements": "HEA;HEP",
  "ReceiveCoilName": "Head_32",
  "ReconMatrixPE": 82,
  "RepetitionTime": 0.46,
  "SAR": 0.0948973,
  "ScanOptions": "FS",
  "ScanningSequence": "EP",
  "SequenceName": "epfid2d1_82",
  "SequenceVariant": "SK\\SS",
  "SeriesDescription": "func_run-02_task-social_acq-ap-mb8",
  "SeriesNumber": 14,
  "ShimSetting": [4157, -7771, -7220, 630, -71, -195, -45, 65],
  "SliceThickness": 2.7,
  "SliceTiming": [0, 0.25, 0.0625, 0.3125, 0.125, 0.375, 0.1875, 0, 0.25, 0.0625, 0.3125, 0.125, 0.375, 0.1875, 0, 0.25, 0.0625, 0.3125, 0.125, 0.375, 0.1875, 0, 0.25, 0.0625, 0.3125, 0.125, 0.375, 0.1875, 0, 0.25, 0.0625, 0.3125, 0.125, 0.375, 0.1875, 0, 0.25, 0.0625, 0.3125, 0.125, 0.375, 0.1875, 0, 0.25, 0.0625, 0.3125, 0.125, 0.375, 0.1875, 0, 0.25, 0.0625, 0.3125, 0.125, 0.375, 0.1875],
  "SoftwareVersions": "syngo MR E11",
  "SpacingBetweenSlices": 2.7,
  "StationName": "AWP66112",
  "TaskName": "social",
  "TotalReadoutTime": 0.03969,
  "TxRefAmp": 234.206,
  "WipMemBlock": "9a021fc9-2e12-4090-9dc1-0500c7972bc4||Sequence: R016 ve11c/master r/e634e98; Dec 19 2017 11:00:25 by eja",
  "dcmmeta_affine": [
    [-2.6807663440704346, -0.09174078702926636, 0.0566834956407547, 112.67286682128906],
    [-0.09272021800279617, 2.6809234619140625, -0.04665457829833031, -85.2993392944336],
    [0.05469777435064316, 0.048268791288137436, 2.6990015506744385, -60.25336837768555],
    [0.0, 0.0, 0.0, 1.0]
],
  "dcmmeta_reorient_transform": [
    [0.0, -1.0, 0.0, 81.0],
    [1.0, 0.0, 0.0, 0.0],
    [0.0, 0.0, 1.0, 0.0],
    [0.0, 0.0, 0.0, 1.0]
],
  "dcmmeta_shape": [82, 82, 56, 872],
  "dcmmeta_slice_dim": 2,
  "dcmmeta_version": 0.6,
  "global": {
    "const": {
      "AccessionNumber": "A003491",
      "AcquisitionMatrix": [82, 0, 0, 82],
      "AngioFlag": "N",
      "BitsAllocated": 16,
      "BitsStored": 16,
      "BodyPartExamined": "BRAIN",
      "Columns": 656,
      "EchoNumbers": 1,
      "EchoTime": 27.2,
      "EchoTrainLength": 82,
      "FlipAngle": 44.0,
      "HighBit": 15,
      "ImageOrientationPatient": [0.99919467921139, 0.03455935397337, 0.02038735119137, -0.0341942936236, 0.99925325659386, -0.0179910941897],
      "ImagePositionPatient": [-848.2921736645, -927.89119114823, -58.188715672208],
      "ImageType": [
        "ORIGINAL",
        "PRIMARY",
        "M",
        "MB",
        "ND",
        "NORM",
        "MOSAIC"
],
      "ImagedNucleus": "1H",
      "ImagingFrequency": 123.252113,
      "InPlanePhaseEncodingDirection": "COL",
      "MRAcquisitionType": "2D",
      "MagneticFieldStrength": 3.0,
      "Manufacturer": "SIEMENS",
      "ManufacturerModelName": "Prisma",
      "Modality": "MR",
      "NumberOfAverages": 1.0,
      "NumberOfPhaseEncodingSteps": 82,
      "PercentPhaseFieldOfView": 100.0,
      "PercentSampling": 100.0,
      "PerformedProcedureStepStartTime": "114622.429000",
      "PhotometricInterpretation": "MONOCHROME2",
      "PixelBandwidth": 3050.0,
      "PixelRepresentation": 0,
      "PixelSpacing": [2.6829268932343, 2.6829268932343],
      "ProtocolName": "func_run-02_task-social_acq-ap-mb8",
      "RepetitionTime": 460.0,
      "Rows": 656,
      "SAR": 0.09489729325749,
      "SamplesPerPixel": 1,
      "ScanOptions": "FS",
      "ScanningSequence": "EP",
      "SequenceName": "epfid2d1_82",
      "SequenceVariant": [
        "SK",
        "SS"
],
      "SeriesDescription": "func_run-02_task-social_acq-ap-mb8",
      "SeriesNumber": 14,
      "SeriesTime": "131313.018000",
      "SliceLocation": -56.391723140697,
      "SliceThickness": 2.7000000476837,
      "SmallestImagePixelValue": 0,
      "SoftwareVersions": "syngo MR E11",
      "SpacingBetweenSlices": 2.6999999303826,
      "SpecificCharacterSet": "ISO_IR 100",
      "StudyID": "1",
      "StudyTime": "114622.367000",
      "TransmitCoilName": "Body",
      "VariableFlipAngleFlag": "N",
      "WindowCenterWidthExplanation": "Algo1",
      "dBdt": 0.0},
    "slices": {}
  },
  "time": {
    "samples": {
      "AcquisitionNumber": [1, 2, 3, 4, 5, 6, 7, 8, 9, 10, 11, 12, 13, 14, 15, 16, 17, 18, 19, 20, 21, 22, 23, 24, 25, 26, 27, 28, 29, 30, 31, 32, 33, 34, 35, 36, 37, 38, 39, 40, 41, 42, 43, 44, 45, 46, 47, 48, 49, 50, 51, 52, 53, 54, 55, 56, 57, 58, 59, 60, 61, 62, 63, 64, 65, 66, 67, 68, 69, 70, 71, 72, 73, 74, 75, 76, 77, 78, 79, 80, 81, 82, 83, 84, 85, 86, 87, 88, 89, 90, 91, 92, 93, 94, 95, 96, 97, 98, 99, 100, 101, 102, 103, 104, 105, 106, 107, 108, 109, 110, 111, 112, 113, 114, 115, 116, 117, 118, 119, 120, 121, 122, 123, 124, 125, 126, 127, 128, 129, 130, 131, 132, 133, 134, 135, 136, 137, 138, 139, 140, 141, 142, 143, 144, 145, 146, 147, 148, 149, 150, 151, 152, 153, 154, 155, 156, 157, 158, 159, 160, 161, 162, 163, 164, 165, 166, 167, 168, 169, 170, 171, 172, 173, 174, 175, 176, 177, 178, 179, 180, 181, 182, 183, 184, 185, 186, 187, 188, 189, 190, 191, 192, 193, 194, 195, 196, 197, 198, 199, 200, 201, 202, 203, 204, 205, 206, 207, 208, 209, 210, 211, 212, 213, 214, 215, 216, 217, 218, 219, 220, 221, 222, 223, 224, 225, 226, 227, 228, 229, 230, 231, 232, 233, 234, 235, 236, 237, 238, 239, 240, 241, 242, 243, 244, 245, 246, 247, 248, 249, 250, 251, 252, 253, 254, 255, 256, 257, 258, 259, 260, 261, 262, 263, 264, 265, 266, 267, 268, 269, 270, 271, 272, 273, 274, 275, 276, 277, 278, 279, 280, 281, 282, 283, 284, 285, 286, 287, 288, 289, 290, 291, 292, 293, 294, 295, 296, 297, 298, 299, 300, 301, 302, 303, 304, 305, 306, 307, 308, 309, 310, 311, 312, 313, 314, 315, 316, 317, 318, 319, 320, 321, 322, 323, 324, 325, 326, 327, 328, 329, 330, 331, 332, 333, 334, 335, 336, 337, 338, 339, 340, 341, 342, 343, 344, 345, 346, 347, 348, 349, 350, 351, 352, 353, 354, 355, 356, 357, 358, 359, 360, 361, 362, 363, 364, 365, 366, 367, 368, 369, 370, 371, 372, 373, 374, 375, 376, 377, 378, 379, 380, 381, 382, 383, 384, 385, 386, 387, 388, 389, 390, 391, 392, 393, 394, 395, 396, 397, 398, 399, 400, 401, 402, 403, 404, 405, 406, 407, 408, 409, 410, 411, 412, 413, 414, 415, 416, 417, 418, 419, 420, 421, 422, 423, 424, 425, 426, 427, 428, 429, 430, 431, 432, 433, 434, 435, 436, 437, 438, 439, 440, 441, 442, 443, 444, 445, 446, 447, 448, 449, 450, 451, 452, 453, 454, 455, 456, 457, 458, 459, 460, 461, 462, 463, 464, 465, 466, 467, 468, 469, 470, 471, 472, 473, 474, 475, 476, 477, 478, 479, 480, 481, 482, 483, 484, 485, 486, 487, 488, 489, 490, 491, 492, 493, 494, 495, 496, 497, 498, 499, 500, 501, 502, 503, 504, 505, 506, 507, 508, 509, 510, 511, 512, 513, 514, 515, 516, 517, 518, 519, 520, 521, 522, 523, 524, 525, 526, 527, 528, 529, 530, 531, 532, 533, 534, 535, 536, 537, 538, 539, 540, 541, 542, 543, 544, 545, 546, 547, 548, 549, 550, 551, 552, 553, 554, 555, 556, 557, 558, 559, 560, 561, 562, 563, 564, 565, 566, 567, 568, 569, 570, 571, 572, 573, 574, 575, 576, 577, 578, 579, 580, 581, 582, 583, 584, 585, 586, 587, 588, 589, 590, 591, 592, 593, 594, 595, 596, 597, 598, 599, 600, 601, 602, 603, 604, 605, 606, 607, 608, 609, 610, 611, 612, 613, 614, 615, 616, 617, 618, 619, 620, 621, 622, 623, 624, 625, 626, 627, 628, 629, 630, 631, 632, 633, 634, 635, 636, 637, 638, 639, 640, 641, 642, 643, 644, 645, 646, 647, 648, 649, 650, 651, 652, 653, 654, 655, 656, 657, 658, 659, 660, 661, 662, 663, 664, 665, 666, 667, 668, 669, 670, 671, 672, 673, 674, 675, 676, 677, 678, 679, 680, 681, 682, 683, 684, 685, 686, 687, 688, 689, 690, 691, 692, 693, 694, 695, 696, 697, 698, 699, 700, 701, 702, 703, 704, 705, 706, 707, 708, 709, 710, 711, 712, 713, 714, 715, 716, 717, 718, 719, 720, 721, 722, 723, 724, 725, 726, 727, 728, 729, 730, 731, 732, 733, 734, 735, 736, 737, 738, 739, 740, 741, 742, 743, 744, 745, 746, 747, 748, 749, 750, 751, 752, 753, 754, 755, 756, 757, 758, 759, 760, 761, 762, 763, 764, 765, 766, 767, 768, 769, 770, 771, 772, 773, 774, 775, 776, 777, 778, 779, 780, 781, 782, 783, 784, 785, 786, 787, 788, 789, 790, 791, 792, 793, 794, 795, 796, 797, 798, 799, 800, 801, 802, 803, 804, 805, 806, 807, 808, 809, 810, 811, 812, 813, 814, 815, 816, 817, 818, 819, 820, 821, 822, 823, 824, 825, 826, 827, 828, 829, 830, 831, 832, 833, 834, 835, 836, 837, 838, 839, 840, 841, 842, 843, 844, 845, 846, 847, 848, 849, 850, 851, 852, 853, 854, 855, 856, 857, 858, 859, 860, 861, 862, 863, 864, 865, 866, 867, 868, 869, 870, 871, 872],
      "AcquisitionTime": ["131302.652500", "131303.112500", "131303.572500", "131304.032500", "131304.492500", "131304.952500", "131305.412500", "131305.872500", "131306.332500", "131306.792500", "131307.252500", "131307.712500", "131308.172500", "131308.632500", "131309.092500", "131309.552500", "131310.012500", "131310.472500", "131310.932500", "131311.392500", "131311.852500", "131312.312500", "131312.772500", "131313.232500", "131313.692500", "131314.152500", "131314.612500", "131315.072500", "131315.532500", "131315.992500", "131316.452500", "131316.912500", "131317.372500", "131317.832500", "131318.292500", "131318.752500", "131319.212500", "131319.672500", "131320.132500", "131320.592500", "131321.052500", "131321.512500", "131321.972500", "131322.432500", "131322.892500", "131323.352500", "131323.812500", "131324.272500", "131324.732500", "131325.192500", "131325.652500", "131326.112500", "131326.572500", "131327.032500", "131327.492500", "131327.952500", "131328.412500", "131328.872500", "131329.332500", "131329.792500", "131330.252500", "131330.712500", "131331.172500", "131331.632500", "131332.092500", "131332.552500", "131333.012500", "131333.472500", "131333.932500", "131334.392500", "131334.852500", "131335.312500", "131335.772500", "131336.232500", "131336.692500", "131337.152500", "131337.612500", "131338.072500", "131338.532500", "131338.992500", "131339.452500", "131339.912500", "131340.372500", "131340.832500", "131341.292500", "131341.752500", "131342.212500", "131342.672500", "131343.132500", "131343.592500", "131344.052500", "131344.512500", "131344.972500", "131345.432500", "131345.892500", "131346.352500", "131346.812500", "131347.272500", "131347.732500", "131348.192500", "131348.652500", "131349.112500", "131349.572500", "131350.032500", "131350.492500", "131350.952500", "131351.412500", "131351.872500", "131352.332500", "131352.792500", "131353.252500", "131353.712500", "131354.172500", "131354.632500", "131355.092500", "131355.552500", "131356.012500", "131356.472500", "131356.932500", "131357.392500", "131357.852500", "131358.312500", "131358.772500", "131359.232500", "131359.692500", "131400.152500", "131400.612500", "131401.072500", "131401.532500", "131401.992500", "131402.452500", "131402.912500", "131403.372500", "131403.832500", "131404.292500", "131404.752500", "131405.212500", "131405.672500", "131406.132500", "131406.592500", "131407.052500", "131407.512500", "131407.972500", "131408.432500", "131408.892500", "131409.352500", "131409.812500", "131410.272500", "131410.732500", "131411.192500", "131411.652500", "131412.112500", "131412.572500", "131413.032500", "131413.492500", "131413.952500", "131414.412500", "131414.872500", "131415.332500", "131415.792500", "131416.252500", "131416.712500", "131417.172500", "131417.632500", "131418.092500", "131418.552500", "131419.012500", "131419.472500", "131419.932500", "131420.392500", "131420.852500", "131421.312500", "131421.772500", "131422.232500", "131422.692500", "131423.152500", "131423.612500", "131424.072500", "131424.532500", "131424.992500", "131425.452500", "131425.912500", "131426.372500", "131426.832500", "131427.292500", "131427.752500", "131428.212500", "131428.672500", "131429.132500", "131429.592500", "131430.052500", "131430.512500", "131430.972500", "131431.432500", "131431.892500", "131432.352500", "131432.812500", "131433.272500", "131433.732500", "131434.192500", "131434.652500", "131435.112500", "131435.572500", "131436.032500", "131436.492500", "131436.952500", "131437.412500", "131437.872500", "131438.332500", "131438.792500", "131439.252500", "131439.712500", "131440.172500", "131440.632500", "131441.092500", "131441.552500", "131442.012500", "131442.472500", "131442.932500", "131443.392500", "131443.852500", "131444.312500", "131444.772500", "131445.232500", "131445.692500", "131446.152500", "131446.612500", "131447.072500", "131447.532500", "131447.992500", "131448.452500", "131448.912500", "131449.372500", "131449.832500", "131450.292500", "131450.752500", "131451.212500", "131451.672500", "131452.132500", "131452.592500", "131453.052500", "131453.512500", "131453.972500", "131454.432500", "131454.892500", "131455.352500", "131455.812500", "131456.272500", "131456.732500", "131457.192500", "131457.652500", "131458.112500", "131458.572500", "131459.032500", "131459.492500", "131459.952500", "131500.412500", "131500.872500", "131501.332500", "131501.792500", "131502.252500", "131502.712500", "131503.172500", "131503.632500", "131504.092500", "131504.552500", "131505.012500", "131505.472500", "131505.932500", "131506.392500", "131506.852500", "131507.312500", "131507.772500", "131508.232500", "131508.692500", "131509.152500", "131509.612500", "131510.072500", "131510.532500", "131510.992500", "131511.452500", "131511.912500", "131512.372500", "131512.832500", "131513.292500", "131513.752500", "131514.212500", "131514.672500", "131515.132500", "131515.592500", "131516.052500", "131516.512500", "131516.972500", "131517.432500", "131517.892500", "131518.352500", "131518.812500", "131519.272500", "131519.732500", "131520.192500", "131520.652500", "131521.112500", "131521.572500", "131522.032500", "131522.492500", "131522.952500", "131523.412500", "131523.872500", "131524.332500", "131524.792500", "131525.252500", "131525.712500", "131526.172500", "131526.632500", "131527.092500", "131527.552500", "131528.012500", "131528.472500", "131528.932500", "131529.392500", "131529.852500", "131530.312500", "131530.772500", "131531.232500", "131531.692500", "131532.152500", "131532.612500", "131533.072500", "131533.532500", "131533.992500", "131534.452500", "131534.912500", "131535.372500", "131535.832500", "131536.292500", "131536.752500", "131537.212500", "131537.672500", "131538.132500", "131538.592500", "131539.052500", "131539.512500", "131539.972500", "131540.432500", "131540.892500", "131541.352500", "131541.812500", "131542.272500", "131542.732500", "131543.192500", "131543.652500", "131544.112500", "131544.572500", "131545.032500", "131545.492500", "131545.952500", "131546.412500", "131546.872500", "131547.332500", "131547.792500", "131548.252500", "131548.712500", "131549.172500", "131549.632500", "131550.092500", "131550.552500", "131551.012500", "131551.472500", "131551.932500", "131552.392500", "131552.852500", "131553.312500", "131553.772500", "131554.232500", "131554.692500", "131555.152500", "131555.612500", "131556.072500", "131556.532500", "131556.992500", "131557.452500", "131557.912500", "131558.372500", "131558.832500", "131559.292500", "131559.752500", "131600.212500", "131600.672500", "131601.132500", "131601.592500", "131602.052500", "131602.512500", "131602.972500", "131603.432500", "131603.892500", "131604.352500", "131604.812500", "131605.272500", "131605.732500", "131606.192500", "131606.652500", "131607.112500", "131607.572500", "131608.032500", "131608.492500", "131608.952500", "131609.412500", "131609.872500", "131610.332500", "131610.792500", "131611.252500", "131611.712500", "131612.172500", "131612.632500", "131613.092500", "131613.552500", "131614.012500", "131614.472500", "131614.932500", "131615.392500", "131615.852500", "131616.312500", "131616.772500", "131617.232500", "131617.692500", "131618.152500", "131618.612500", "131619.072500", "131619.532500", "131619.992500", "131620.452500", "131620.912500", "131621.372500", "131621.832500", "131622.292500", "131622.752500", "131623.212500", "131623.672500", "131624.132500", "131624.592500", "131625.052500", "131625.512500", "131625.972500", "131626.432500", "131626.892500", "131627.352500", "131627.812500", "131628.272500", "131628.732500", "131629.192500", "131629.652500", "131630.112500", "131630.572500", "131631.032500", "131631.492500", "131631.952500", "131632.412500", "131632.872500", "131633.332500", "131633.792500", "131634.252500", "131634.712500", "131635.172500", "131635.632500", "131636.092500", "131636.552500", "131637.012500", "131637.472500", "131637.932500", "131638.392500", "131638.852500", "131639.312500", "131639.772500", "131640.232500", "131640.692500", "131641.152500", "131641.612500", "131642.072500", "131642.532500", "131642.992500", "131643.452500", "131643.912500", "131644.372500", "131644.832500", "131645.292500", "131645.752500", "131646.212500", "131646.672500", "131647.132500", "131647.592500", "131648.052500", "131648.512500", "131648.972500", "131649.432500", "131649.892500", "131650.352500", "131650.812500", "131651.272500", "131651.732500", "131652.192500", "131652.652500", "131653.112500", "131653.572500", "131654.032500", "131654.492500", "131654.952500", "131655.412500", "131655.872500", "131656.332500", "131656.792500", "131657.252500", "131657.712500", "131658.172500", "131658.632500", "131659.092500", "131659.552500", "131700.012500", "131700.472500", "131700.932500", "131701.392500", "131701.852500", "131702.312500", "131702.772500", "131703.232500", "131703.692500", "131704.152500", "131704.612500", "131705.072500", "131705.532500", "131705.992500", "131706.452500", "131706.912500", "131707.372500", "131707.832500", "131708.292500", "131708.752500", "131709.212500", "131709.672500", "131710.132500", "131710.592500", "131711.052500", "131711.512500", "131711.972500", "131712.432500", "131712.892500", "131713.352500", "131713.812500", "131714.272500", "131714.732500", "131715.192500", "131715.652500", "131716.112500", "131716.572500", "131717.032500", "131717.492500", "131717.952500", "131718.412500", "131718.872500", "131719.332500", "131719.792500", "131720.252500", "131720.712500", "131721.172500", "131721.632500", "131722.092500", "131722.552500", "131723.012500", "131723.472500", "131723.932500", "131724.392500", "131724.852500", "131725.312500", "131725.772500", "131726.232500", "131726.692500", "131727.152500", "131727.612500", "131728.072500", "131728.532500", "131728.992500", "131729.452500", "131729.912500", "131730.372500", "131730.832500", "131731.292500", "131731.752500", "131732.212500", "131732.672500", "131733.132500", "131733.592500", "131734.052500", "131734.512500", "131734.972500", "131735.432500", "131735.892500", "131736.352500", "131736.812500", "131737.272500", "131737.732500", "131738.192500", "131738.652500", "131739.112500", "131739.572500", "131740.032500", "131740.492500", "131740.952500", "131741.412500", "131741.872500", "131742.332500", "131742.792500", "131743.252500", "131743.712500", "131744.172500", "131744.632500", "131745.092500", "131745.552500", "131746.012500", "131746.472500", "131746.932500", "131747.392500", "131747.852500", "131748.312500", "131748.772500", "131749.232500", "131749.692500", "131750.152500", "131750.612500", "131751.072500", "131751.532500", "131751.992500", "131752.452500", "131752.912500", "131753.372500", "131753.832500", "131754.292500", "131754.752500", "131755.212500", "131755.672500", "131756.132500", "131756.592500", "131757.052500", "131757.512500", "131757.972500", "131758.432500", "131758.892500", "131759.352500", "131759.812500", "131800.272500", "131800.732500", "131801.192500", "131801.652500", "131802.112500", "131802.572500", "131803.032500", "131803.492500", "131803.952500", "131804.412500", "131804.872500", "131805.332500", "131805.792500", "131806.252500", "131806.712500", "131807.172500", "131807.632500", "131808.092500", "131808.552500", "131809.012500", "131809.472500", "131809.932500", "131810.392500", "131810.852500", "131811.312500", "131811.772500", "131812.232500", "131812.692500", "131813.152500", "131813.612500", "131814.072500", "131814.532500", "131814.992500", "131815.452500", "131815.912500", "131816.372500", "131816.832500", "131817.292500", "131817.752500", "131818.212500", "131818.672500", "131819.132500", "131819.592500", "131820.052500", "131820.512500", "131820.972500", "131821.432500", "131821.892500", "131822.352500", "131822.812500", "131823.272500", "131823.732500", "131824.192500", "131824.652500", "131825.112500", "131825.572500", "131826.032500", "131826.492500", "131826.952500", "131827.412500", "131827.872500", "131828.332500", "131828.792500", "131829.252500", "131829.712500", "131830.172500", "131830.632500", "131831.092500", "131831.552500", "131832.012500", "131832.472500", "131832.932500", "131833.392500", "131833.852500", "131834.312500", "131834.772500", "131835.232500", "131835.692500", "131836.152500", "131836.612500", "131837.072500", "131837.532500", "131837.992500", "131838.452500", "131838.912500", "131839.372500", "131839.832500", "131840.292500", "131840.752500", "131841.212500", "131841.672500", "131842.132500", "131842.592500", "131843.052500", "131843.512500", "131843.972500", "131844.432500", "131844.892500", "131845.352500", "131845.812500", "131846.272500", "131846.732500", "131847.192500", "131847.652500", "131848.112500", "131848.572500", "131849.032500", "131849.492500", "131849.952500", "131850.412500", "131850.872500", "131851.332500", "131851.792500", "131852.252500", "131852.712500", "131853.172500", "131853.632500", "131854.092500", "131854.552500", "131855.012500", "131855.472500", "131855.932500", "131856.392500", "131856.852500", "131857.312500", "131857.772500", "131858.232500", "131858.692500", "131859.152500", "131859.612500", "131900.072500", "131900.532500", "131900.992500", "131901.452500", "131901.912500", "131902.372500", "131902.832500", "131903.292500", "131903.752500", "131904.212500", "131904.672500", "131905.132500", "131905.592500", "131906.052500", "131906.512500", "131906.972500", "131907.432500", "131907.892500", "131908.352500", "131908.812500", "131909.272500", "131909.732500", "131910.192500", "131910.652500", "131911.112500", "131911.572500", "131912.032500", "131912.492500", "131912.952500", "131913.412500", "131913.872500", "131914.332500", "131914.792500", "131915.252500", "131915.712500", "131916.172500", "131916.632500", "131917.092500", "131917.552500", "131918.012500", "131918.472500", "131918.932500", "131919.392500", "131919.852500", "131920.312500", "131920.772500", "131921.232500", "131921.692500", "131922.152500", "131922.612500", "131923.072500", "131923.532500", "131923.992500", "131924.452500", "131924.912500", "131925.372500", "131925.832500", "131926.292500", "131926.752500", "131927.212500", "131927.672500", "131928.132500", "131928.592500", "131929.052500", "131929.512500", "131929.972500", "131930.432500", "131930.892500", "131931.352500", "131931.812500", "131932.272500", "131932.732500", "131933.192500", "131933.652500", "131934.112500", "131934.572500", "131935.032500", "131935.492500", "131935.952500", "131936.412500", "131936.872500", "131937.332500", "131937.792500", "131938.252500", "131938.712500", "131939.172500", "131939.632500", "131940.092500", "131940.552500", "131941.012500", "131941.472500", "131941.932500", "131942.392500", "131942.852500", "131943.312500"],
