{
  "AcquisitionMatrixPE": 82,
  "AcquisitionNumber": 1,
  "AcquisitionTime": "13:02:30.632500",
  "BandwidthPerPixelPhaseEncode": 24.888,
  "BaseResolution": 82,
  "BodyPartExamined": "BRAIN",
  "ConsistencyInfo": "N4_VE11E_LATEST_20181129",
  "ConversionSoftware": "dcm2niix",
  "ConversionSoftwareVersion": "v1.0.20201102",
  "DerivedVendorReportedEchoSpacing": 0.00049,
  "DeviceSerialNumber": "66112",
  "DwellTime": 2e-06,
  "EchoTime": 0.0272,
  "EchoTrainLength": 82,
  "EffectiveEchoSpacing": 0.00049,
  "FlipAngle": 44,
  "ImageComments": "Unaliased MB8/PE3",
  "ImageOrientationPatientDICOM": [0.998133, 0.0505016, 0.0343564, -0.0442777, 0.985706, -0.162552],
  "ImageType": [
    "ORIGINAL",
    "PRIMARY",
    "M",
    "MB",
    "ND",
    "NORM",
    "MOSAIC"
],
  "ImagingFrequency": 123.259,
  "InPlanePhaseEncodingDirectionDICOM": "COL",
  "InstitutionAddress": "Maynard 3,Hanover,NH,US,03755",
  "InstitutionName": "Dartmouth College - PBS",
  "InstitutionalDepartmentName": "Department",
  "MRAcquisitionType": "2D",
  "MagneticFieldStrength": 3,
  "Manufacturer": "Siemens",
  "ManufacturersModelName": "Prisma",
  "Modality": "MR",
  "MultibandAccelerationFactor": 8,
  "PartialFourier": 1,
  "PatientPosition": "HFS",
  "PercentPhaseFOV": 100,
  "PercentSampling": 100,
  "PhaseEncodingDirection": "j-",
  "PhaseEncodingSteps": 82,
  "PhaseResolution": 1,
  "PixelBandwidth": 3050,
  "ProcedureStepDescription": "Wager_Wager^1076_spacetop",
  "ProtocolName": "func_run-04_task-social_acq-ap-mb8",
  "PulseSequenceDetails": "%CustomerSeq%\\cmrr_mbep2d_bold",
  "ReceiveCoilActiveElements": "HEA;HEP",
  "ReceiveCoilName": "Head_32",
  "ReconMatrixPE": 82,
  "RepetitionTime": 0.46,
  "SAR": 0.130922,
  "ScanOptions": "FS",
  "ScanningSequence": "EP",
  "SequenceName": "epfid2d1_82",
  "SequenceVariant": "SK\\SS",
  "SeriesDescription": "func_run-04_task-social_acq-ap-mb8",
  "SeriesNumber": 20,
  "ShimSetting": [4245, -7753, -7244, 56, -187, -71, -74, 63],
  "SliceThickness": 2.7,
  "SliceTiming": [0, 0.25, 0.0625, 0.3125, 0.125, 0.375, 0.1875, 0, 0.25, 0.0625, 0.3125, 0.125, 0.375, 0.1875, 0, 0.25, 0.0625, 0.3125, 0.125, 0.375, 0.1875, 0, 0.25, 0.0625, 0.3125, 0.125, 0.375, 0.1875, 0, 0.25, 0.0625, 0.3125, 0.125, 0.375, 0.1875, 0, 0.25, 0.0625, 0.3125, 0.125, 0.375, 0.1875, 0, 0.25, 0.0625, 0.3125, 0.125, 0.375, 0.1875, 0, 0.25, 0.0625, 0.3125, 0.125, 0.375, 0.1875],
  "SoftwareVersions": "syngo MR E11",
  "SpacingBetweenSlices": 2.7,
  "StationName": "AWP66112",
  "TaskName": "social",
  "TotalReadoutTime": 0.03969,
  "TxRefAmp": 318.564,
  "WipMemBlock": "464fb906-426f-411c-873a-e9abbaff2b07||Sequence: R016 ve11e/master r/434b28f1; Aug  7 2019 18:53:46 by eja",
  "dcmmeta_affine": [
    [-2.67791748046875, -0.11879376322031021, 0.1136009618639946, 115.83614349365234],
    [-0.13549205660820007, 2.6445770263671875, -0.4339645802974701, -75.71792602539062],
    [0.09217563271522522, 0.4361160695552826, 2.6624743938446045, -98.6727523803711],
    [0.0, 0.0, 0.0, 1.0]
],
  "dcmmeta_reorient_transform": [
    [0.0, -1.0, 0.0, 81.0],
    [1.0, 0.0, 0.0, 0.0],
    [0.0, 0.0, 1.0, 0.0],
    [0.0, 0.0, 0.0, 1.0]
],
  "dcmmeta_shape": [82, 82, 56, 872],
  "dcmmeta_slice_dim": 2,
  "dcmmeta_version": 0.6,
  "global": {
    "const": {
      "AccessionNumber": "A004332",
      "AcquisitionMatrix": [82, 0, 0, 82],
      "AngioFlag": "N",
      "BitsAllocated": 16,
      "BitsStored": 16,
      "BodyPartExamined": "BRAIN",
      "Columns": 656,
      "EchoNumbers": 1,
      "EchoTime": 27.2,
      "EchoTrainLength": 82,
      "FlipAngle": 44.0,
      "HighBit": 15,
      "ImageOrientationPatient": [0.99813287184895, 0.05050158376387, 0.03435637017935, -0.0442776750739, 0.98570595081041, -0.1625523485742],
      "ImagePositionPatient": [-840.68236926157, -936.37263141392, 35.363557732323],
      "ImageType": [
        "ORIGINAL",
        "PRIMARY",
        "M",
        "MB",
        "ND",
        "NORM",
        "MOSAIC"
],
      "ImagedNucleus": "1H",
      "ImagingFrequency": 123.259109,
      "InPlanePhaseEncodingDirection": "COL",
      "MRAcquisitionType": "2D",
      "MagneticFieldStrength": 3.0,
      "Manufacturer": "SIEMENS",
      "ManufacturerModelName": "Prisma",
      "Modality": "MR",
      "NumberOfAverages": 1.0,
      "NumberOfPhaseEncodingSteps": 82,
      "PercentPhaseFieldOfView": 100.0,
      "PercentSampling": 100.0,
      "PerformedProcedureStepStartTime": "121439.055000",
      "PhotometricInterpretation": "MONOCHROME2",
      "PixelBandwidth": 3050.0,
      "PixelRepresentation": 0,
      "PixelSpacing": [2.6829268932343, 2.6829268932343],
      "ProtocolName": "func_run-04_task-social_acq-ap-mb8",
      "RepetitionTime": 460.0,
      "Rows": 656,
      "SAR": 0.13092161370878,
      "SamplesPerPixel": 1,
      "ScanOptions": "FS",
      "ScanningSequence": "EP",
      "SequenceName": "epfid2d1_82",
      "SequenceVariant": [
        "SK",
        "SS"
],
      "SeriesDescription": "func_run-04_task-social_acq-ap-mb8",
      "SeriesNumber": 20,
      "SeriesTime": "130257.334000",
      "SliceLocation": -80.257654489872,
      "SliceThickness": 2.7000000476837,
      "SmallestImagePixelValue": 0,
      "SoftwareVersions": "syngo MR E11",
      "SpacingBetweenSlices": 2.7000000079257,
      "SpecificCharacterSet": "ISO_IR 100",
      "StudyID": "1",
      "StudyTime": "121438.987000",
      "TransmitCoilName": "Body",
      "VariableFlipAngleFlag": "N",
      "WindowCenterWidthExplanation": "Algo1"
    },
    "slices": {}
  },
  "time": {
    "samples": {
      "AcquisitionNumber": [1, 2, 3, 4, 5, 6, 7, 8, 9, 10, 11, 12, 13, 14, 15, 16, 17, 18, 19, 20, 21, 22, 23, 24, 25, 26, 27, 28, 29, 30, 31, 32, 33, 34, 35, 36, 37, 38, 39, 40, 41, 42, 43, 44, 45, 46, 47, 48, 49, 50, 51, 52, 53, 54, 55, 56, 57, 58, 59, 60, 61, 62, 63, 64, 65, 66, 67, 68, 69, 70, 71, 72, 73, 74, 75, 76, 77, 78, 79, 80, 81, 82, 83, 84, 85, 86, 87, 88, 89, 90, 91, 92, 93, 94, 95, 96, 97, 98, 99, 100, 101, 102, 103, 104, 105, 106, 107, 108, 109, 110, 111, 112, 113, 114, 115, 116, 117, 118, 119, 120, 121, 122, 123, 124, 125, 126, 127, 128, 129, 130, 131, 132, 133, 134, 135, 136, 137, 138, 139, 140, 141, 142, 143, 144, 145, 146, 147, 148, 149, 150, 151, 152, 153, 154, 155, 156, 157, 158, 159, 160, 161, 162, 163, 164, 165, 166, 167, 168, 169, 170, 171, 172, 173, 174, 175, 176, 177, 178, 179, 180, 181, 182, 183, 184, 185, 186, 187, 188, 189, 190, 191, 192, 193, 194, 195, 196, 197, 198, 199, 200, 201, 202, 203, 204, 205, 206, 207, 208, 209, 210, 211, 212, 213, 214, 215, 216, 217, 218, 219, 220, 221, 222, 223, 224, 225, 226, 227, 228, 229, 230, 231, 232, 233, 234, 235, 236, 237, 238, 239, 240, 241, 242, 243, 244, 245, 246, 247, 248, 249, 250, 251, 252, 253, 254, 255, 256, 257, 258, 259, 260, 261, 262, 263, 264, 265, 266, 267, 268, 269, 270, 271, 272, 273, 274, 275, 276, 277, 278, 279, 280, 281, 282, 283, 284, 285, 286, 287, 288, 289, 290, 291, 292, 293, 294, 295, 296, 297, 298, 299, 300, 301, 302, 303, 304, 305, 306, 307, 308, 309, 310, 311, 312, 313, 314, 315, 316, 317, 318, 319, 320, 321, 322, 323, 324, 325, 326, 327, 328, 329, 330, 331, 332, 333, 334, 335, 336, 337, 338, 339, 340, 341, 342, 343, 344, 345, 346, 347, 348, 349, 350, 351, 352, 353, 354, 355, 356, 357, 358, 359, 360, 361, 362, 363, 364, 365, 366, 367, 368, 369, 370, 371, 372, 373, 374, 375, 376, 377, 378, 379, 380, 381, 382, 383, 384, 385, 386, 387, 388, 389, 390, 391, 392, 393, 394, 395, 396, 397, 398, 399, 400, 401, 402, 403, 404, 405, 406, 407, 408, 409, 410, 411, 412, 413, 414, 415, 416, 417, 418, 419, 420, 421, 422, 423, 424, 425, 426, 427, 428, 429, 430, 431, 432, 433, 434, 435, 436, 437, 438, 439, 440, 441, 442, 443, 444, 445, 446, 447, 448, 449, 450, 451, 452, 453, 454, 455, 456, 457, 458, 459, 460, 461, 462, 463, 464, 465, 466, 467, 468, 469, 470, 471, 472, 473, 474, 475, 476, 477, 478, 479, 480, 481, 482, 483, 484, 485, 486, 487, 488, 489, 490, 491, 492, 493, 494, 495, 496, 497, 498, 499, 500, 501, 502, 503, 504, 505, 506, 507, 508, 509, 510, 511, 512, 513, 514, 515, 516, 517, 518, 519, 520, 521, 522, 523, 524, 525, 526, 527, 528, 529, 530, 531, 532, 533, 534, 535, 536, 537, 538, 539, 540, 541, 542, 543, 544, 545, 546, 547, 548, 549, 550, 551, 552, 553, 554, 555, 556, 557, 558, 559, 560, 561, 562, 563, 564, 565, 566, 567, 568, 569, 570, 571, 572, 573, 574, 575, 576, 577, 578, 579, 580, 581, 582, 583, 584, 585, 586, 587, 588, 589, 590, 591, 592, 593, 594, 595, 596, 597, 598, 599, 600, 601, 602, 603, 604, 605, 606, 607, 608, 609, 610, 611, 612, 613, 614, 615, 616, 617, 618, 619, 620, 621, 622, 623, 624, 625, 626, 627, 628, 629, 630, 631, 632, 633, 634, 635, 636, 637, 638, 639, 640, 641, 642, 643, 644, 645, 646, 647, 648, 649, 650, 651, 652, 653, 654, 655, 656, 657, 658, 659, 660, 661, 662, 663, 664, 665, 666, 667, 668, 669, 670, 671, 672, 673, 674, 675, 676, 677, 678, 679, 680, 681, 682, 683, 684, 685, 686, 687, 688, 689, 690, 691, 692, 693, 694, 695, 696, 697, 698, 699, 700, 701, 702, 703, 704, 705, 706, 707, 708, 709, 710, 711, 712, 713, 714, 715, 716, 717, 718, 719, 720, 721, 722, 723, 724, 725, 726, 727, 728, 729, 730, 731, 732, 733, 734, 735, 736, 737, 738, 739, 740, 741, 742, 743, 744, 745, 746, 747, 748, 749, 750, 751, 752, 753, 754, 755, 756, 757, 758, 759, 760, 761, 762, 763, 764, 765, 766, 767, 768, 769, 770, 771, 772, 773, 774, 775, 776, 777, 778, 779, 780, 781, 782, 783, 784, 785, 786, 787, 788, 789, 790, 791, 792, 793, 794, 795, 796, 797, 798, 799, 800, 801, 802, 803, 804, 805, 806, 807, 808, 809, 810, 811, 812, 813, 814, 815, 816, 817, 818, 819, 820, 821, 822, 823, 824, 825, 826, 827, 828, 829, 830, 831, 832, 833, 834, 835, 836, 837, 838, 839, 840, 841, 842, 843, 844, 845, 846, 847, 848, 849, 850, 851, 852, 853, 854, 855, 856, 857, 858, 859, 860, 861, 862, 863, 864, 865, 866, 867, 868, 869, 870, 871, 872],
      "AcquisitionTime": ["130230.632500", "130231.092500", "130231.552500", "130232.012500", "130232.472500", "130232.932500", "130233.392500", "130233.852500", "130234.312500", "130234.772500", "130235.232500", "130235.692500", "130236.152500", "130236.612500", "130237.072500", "130237.532500", "130237.992500", "130238.452500", "130238.912500", "130239.372500", "130239.832500", "130240.292500", "130240.752500", "130241.212500", "130241.672500", "130242.132500", "130242.592500", "130243.052500", "130243.512500", "130243.972500", "130244.432500", "130244.892500", "130245.352500", "130245.812500", "130246.272500", "130246.732500", "130247.192500", "130247.652500", "130248.112500", "130248.572500", "130249.032500", "130249.492500", "130249.952500", "130250.412500", "130250.872500", "130251.332500", "130251.792500", "130252.252500", "130252.712500", "130253.172500", "130253.632500", "130254.092500", "130254.552500", "130255.012500", "130255.472500", "130255.932500", "130256.392500", "130256.852500", "130257.312500", "130257.772500", "130258.232500", "130258.692500", "130259.152500", "130259.612500", "130300.072500", "130300.532500", "130300.992500", "130301.452500", "130301.912500", "130302.372500", "130302.832500", "130303.292500", "130303.752500", "130304.212500", "130304.672500", "130305.132500", "130305.592500", "130306.052500", "130306.512500", "130306.972500", "130307.432500", "130307.892500", "130308.352500", "130308.812500", "130309.272500", "130309.732500", "130310.192500", "130310.652500", "130311.112500", "130311.572500", "130312.032500", "130312.492500", "130312.952500", "130313.412500", "130313.872500", "130314.332500", "130314.792500", "130315.252500", "130315.712500", "130316.172500", "130316.632500", "130317.092500", "130317.552500", "130318.012500", "130318.472500", "130318.932500", "130319.392500", "130319.852500", "130320.312500", "130320.772500", "130321.232500", "130321.692500", "130322.152500", "130322.612500", "130323.072500", "130323.532500", "130323.992500", "130324.452500", "130324.912500", "130325.372500", "130325.832500", "130326.292500", "130326.752500", "130327.212500", "130327.672500", "130328.132500", "130328.592500", "130329.052500", "130329.512500", "130329.972500", "130330.432500", "130330.892500", "130331.352500", "130331.812500", "130332.272500", "130332.732500", "130333.192500", "130333.652500", "130334.112500", "130334.572500", "130335.032500", "130335.492500", "130335.952500", "130336.412500", "130336.872500", "130337.332500", "130337.792500", "130338.252500", "130338.712500", "130339.172500", "130339.632500", "130340.092500", "130340.552500", "130341.012500", "130341.472500", "130341.932500", "130342.392500", "130342.852500", "130343.312500", "130343.772500", "130344.232500", "130344.692500", "130345.152500", "130345.612500", "130346.072500", "130346.532500", "130346.992500", "130347.452500", "130347.912500", "130348.372500", "130348.832500", "130349.292500", "130349.752500", "130350.212500", "130350.672500", "130351.132500", "130351.592500", "130352.052500", "130352.512500", "130352.972500", "130353.432500", "130353.892500", "130354.352500", "130354.812500", "130355.272500", "130355.732500", "130356.192500", "130356.652500", "130357.112500", "130357.572500", "130358.032500", "130358.492500", "130358.952500", "130359.412500", "130359.872500", "130400.332500", "130400.792500", "130401.252500", "130401.712500", "130402.172500", "130402.632500", "130403.092500", "130403.552500", "130404.012500", "130404.472500", "130404.932500", "130405.392500", "130405.852500", "130406.312500", "130406.772500", "130407.232500", "130407.692500", "130408.152500", "130408.612500", "130409.072500", "130409.532500", "130409.992500", "130410.452500", "130410.912500", "130411.372500", "130411.832500", "130412.292500", "130412.752500", "130413.212500", "130413.672500", "130414.132500", "130414.592500", "130415.052500", "130415.512500", "130415.972500", "130416.432500", "130416.892500", "130417.352500", "130417.812500", "130418.272500", "130418.732500", "130419.192500", "130419.652500", "130420.112500", "130420.572500", "130421.032500", "130421.492500", "130421.952500", "130422.412500", "130422.872500", "130423.332500", "130423.792500", "130424.252500", "130424.712500", "130425.172500", "130425.632500", "130426.092500", "130426.552500", "130427.012500", "130427.472500", "130427.932500", "130428.392500", "130428.852500", "130429.312500", "130429.772500", "130430.232500", "130430.692500", "130431.152500", "130431.612500", "130432.072500", "130432.532500", "130432.992500", "130433.452500", "130433.912500", "130434.372500", "130434.832500", "130435.292500", "130435.752500", "130436.212500", "130436.672500", "130437.132500", "130437.592500", "130438.052500", "130438.512500", "130438.972500", "130439.432500", "130439.892500", "130440.352500", "130440.812500", "130441.272500", "130441.732500", "130442.192500", "130442.652500", "130443.112500", "130443.572500", "130444.032500", "130444.492500", "130444.952500", "130445.412500", "130445.872500", "130446.332500", "130446.792500", "130447.252500", "130447.712500", "130448.172500", "130448.632500", "130449.092500", "130449.552500", "130450.012500", "130450.472500", "130450.932500", "130451.392500", "130451.852500", "130452.312500", "130452.772500", "130453.232500", "130453.692500", "130454.152500", "130454.612500", "130455.072500", "130455.532500", "130455.992500", "130456.452500", "130456.912500", "130457.372500", "130457.832500", "130458.292500", "130458.752500", "130459.212500", "130459.672500", "130500.132500", "130500.592500", "130501.052500", "130501.512500", "130501.972500", "130502.432500", "130502.892500", "130503.352500", "130503.812500", "130504.272500", "130504.732500", "130505.192500", "130505.652500", "130506.112500", "130506.572500", "130507.032500", "130507.492500", "130507.952500", "130508.412500", "130508.872500", "130509.332500", "130509.792500", "130510.252500", "130510.712500", "130511.172500", "130511.632500", "130512.092500", "130512.552500", "130513.012500", "130513.472500", "130513.932500", "130514.392500", "130514.852500", "130515.312500", "130515.772500", "130516.232500", "130516.692500", "130517.152500", "130517.612500", "130518.072500", "130518.532500", "130518.992500", "130519.452500", "130519.912500", "130520.372500", "130520.832500", "130521.292500", "130521.752500", "130522.212500", "130522.672500", "130523.132500", "130523.592500", "130524.052500", "130524.512500", "130524.972500", "130525.432500", "130525.892500", "130526.352500", "130526.812500", "130527.272500", "130527.732500", "130528.192500", "130528.652500", "130529.112500", "130529.572500", "130530.032500", "130530.492500", "130530.952500", "130531.412500", "130531.872500", "130532.332500", "130532.792500", "130533.252500", "130533.712500", "130534.172500", "130534.632500", "130535.092500", "130535.552500", "130536.012500", "130536.472500", "130536.932500", "130537.392500", "130537.852500", "130538.312500", "130538.772500", "130539.232500", "130539.692500", "130540.152500", "130540.612500", "130541.072500", "130541.532500", "130541.992500", "130542.452500", "130542.912500", "130543.372500", "130543.832500", "130544.292500", "130544.752500", "130545.212500", "130545.672500", "130546.132500", "130546.592500", "130547.052500", "130547.512500", "130547.972500", "130548.432500", "130548.892500", "130549.352500", "130549.812500", "130550.272500", "130550.732500", "130551.192500", "130551.652500", "130552.112500", "130552.572500", "130553.032500", "130553.492500", "130553.952500", "130554.412500", "130554.872500", "130555.332500", "130555.792500", "130556.252500", "130556.712500", "130557.172500", "130557.632500", "130558.092500", "130558.552500", "130559.012500", "130559.472500", "130559.932500", "130600.392500", "130600.852500", "130601.312500", "130601.772500", "130602.232500", "130602.692500", "130603.152500", "130603.612500", "130604.072500", "130604.532500", "130604.992500", "130605.452500", "130605.912500", "130606.372500", "130606.832500", "130607.292500", "130607.752500", "130608.212500", "130608.672500", "130609.132500", "130609.592500", "130610.052500", "130610.512500", "130610.972500", "130611.432500", "130611.892500", "130612.352500", "130612.812500", "130613.272500", "130613.732500", "130614.192500", "130614.652500", "130615.112500", "130615.572500", "130616.032500", "130616.492500", "130616.952500", "130617.412500", "130617.872500", "130618.332500", "130618.792500", "130619.252500", "130619.712500", "130620.172500", "130620.632500", "130621.092500", "130621.552500", "130622.012500", "130622.472500", "130622.932500", "130623.392500", "130623.852500", "130624.312500", "130624.772500", "130625.232500", "130625.692500", "130626.152500", "130626.612500", "130627.072500", "130627.532500", "130627.992500", "130628.452500", "130628.912500", "130629.372500", "130629.832500", "130630.292500", "130630.752500", "130631.212500", "130631.672500", "130632.132500", "130632.592500", "130633.052500", "130633.512500", "130633.972500", "130634.432500", "130634.892500", "130635.352500", "130635.812500", "130636.272500", "130636.732500", "130637.192500", "130637.652500", "130638.112500", "130638.572500", "130639.032500", "130639.492500", "130639.952500", "130640.412500", "130640.872500", "130641.332500", "130641.792500", "130642.252500", "130642.712500", "130643.172500", "130643.632500", "130644.092500", "130644.552500", "130645.012500", "130645.472500", "130645.932500", "130646.392500", "130646.852500", "130647.312500", "130647.772500", "130648.232500", "130648.692500", "130649.152500", "130649.612500", "130650.072500", "130650.532500", "130650.992500", "130651.452500", "130651.912500", "130652.372500", "130652.832500", "130653.292500", "130653.752500", "130654.212500", "130654.672500", "130655.132500", "130655.592500", "130656.052500", "130656.512500", "130656.972500", "130657.432500", "130657.892500", "130658.352500", "130658.812500", "130659.272500", "130659.732500", "130700.192500", "130700.652500", "130701.112500", "130701.572500", "130702.032500", "130702.492500", "130702.952500", "130703.412500", "130703.872500", "130704.332500", "130704.792500", "130705.252500", "130705.712500", "130706.172500", "130706.632500", "130707.092500", "130707.552500", "130708.012500", "130708.472500", "130708.932500", "130709.392500", "130709.852500", "130710.312500", "130710.772500", "130711.232500", "130711.692500", "130712.152500", "130712.612500", "130713.072500", "130713.532500", "130713.992500", "130714.452500", "130714.912500", "130715.372500", "130715.832500", "130716.292500", "130716.752500", "130717.212500", "130717.672500", "130718.132500", "130718.592500", "130719.052500", "130719.512500", "130719.972500", "130720.432500", "130720.892500", "130721.352500", "130721.812500", "130722.272500", "130722.732500", "130723.192500", "130723.652500", "130724.112500", "130724.572500", "130725.032500", "130725.492500", "130725.952500", "130726.412500", "130726.872500", "130727.332500", "130727.792500", "130728.252500", "130728.712500", "130729.172500", "130729.632500", "130730.092500", "130730.552500", "130731.012500", "130731.472500", "130731.932500", "130732.392500", "130732.852500", "130733.312500", "130733.772500", "130734.232500", "130734.692500", "130735.152500", "130735.612500", "130736.072500", "130736.532500", "130736.992500", "130737.452500", "130737.912500", "130738.372500", "130738.832500", "130739.292500", "130739.752500", "130740.212500", "130740.672500", "130741.132500", "130741.592500", "130742.052500", "130742.512500", "130742.972500", "130743.432500", "130743.892500", "130744.352500", "130744.812500", "130745.272500", "130745.732500", "130746.192500", "130746.652500", "130747.112500", "130747.572500", "130748.032500", "130748.492500", "130748.952500", "130749.412500", "130749.872500", "130750.332500", "130750.792500", "130751.252500", "130751.712500", "130752.172500", "130752.632500", "130753.092500", "130753.552500", "130754.012500", "130754.472500", "130754.932500", "130755.392500", "130755.852500", "130756.312500", "130756.772500", "130757.232500", "130757.692500", "130758.152500", "130758.612500", "130759.072500", "130759.532500", "130759.992500", "130800.452500", "130800.912500", "130801.372500", "130801.832500", "130802.292500", "130802.752500", "130803.212500", "130803.672500", "130804.132500", "130804.592500", "130805.052500", "130805.512500", "130805.972500", "130806.432500", "130806.892500", "130807.352500", "130807.812500", "130808.272500", "130808.732500", "130809.192500", "130809.652500", "130810.112500", "130810.572500", "130811.032500", "130811.492500", "130811.952500", "130812.412500", "130812.872500", "130813.332500", "130813.792500", "130814.252500", "130814.712500", "130815.172500", "130815.632500", "130816.092500", "130816.552500", "130817.012500", "130817.472500", "130817.932500", "130818.392500", "130818.852500", "130819.312500", "130819.772500", "130820.232500", "130820.692500", "130821.152500", "130821.612500", "130822.072500", "130822.532500", "130822.992500", "130823.452500", "130823.912500", "130824.372500", "130824.832500", "130825.292500", "130825.752500", "130826.212500", "130826.672500", "130827.132500", "130827.592500", "130828.052500", "130828.512500", "130828.972500", "130829.432500", "130829.892500", "130830.352500", "130830.812500", "130831.272500", "130831.732500", "130832.192500", "130832.652500", "130833.112500", "130833.572500", "130834.032500", "130834.492500", "130834.952500", "130835.412500", "130835.872500", "130836.332500", "130836.792500", "130837.252500", "130837.712500", "130838.172500", "130838.632500", "130839.092500", "130839.552500", "130840.012500", "130840.472500", "130840.932500", "130841.392500", "130841.852500", "130842.312500", "130842.772500", "130843.232500", "130843.692500", "130844.152500", "130844.612500", "130845.072500", "130845.532500", "130845.992500", "130846.452500", "130846.912500", "130847.372500", "130847.832500", "130848.292500", "130848.752500", "130849.212500", "130849.672500", "130850.132500", "130850.592500", "130851.052500", "130851.512500", "130851.972500", "130852.432500", "130852.892500", "130853.352500", "130853.812500", "130854.272500", "130854.732500", "130855.192500", "130855.652500", "130856.112500", "130856.572500", "130857.032500", "130857.492500", "130857.952500", "130858.412500", "130858.872500", "130859.332500", "130859.792500", "130900.252500", "130900.712500", "130901.172500", "130901.632500", "130902.092500", "130902.552500", "130903.012500", "130903.472500", "130903.932500", "130904.392500", "130904.852500", "130905.312500", "130905.772500", "130906.232500", "130906.692500", "130907.152500", "130907.612500", "130908.072500", "130908.532500", "130908.992500", "130909.452500", "130909.912500", "130910.372500", "130910.832500", "130911.292500"],
