{
  "AcquisitionMatrixPE": 82,
  "AcquisitionNumber": 1,
  "AcquisitionTime": "13:28:43.245000",
  "BandwidthPerPixelPhaseEncode": 24.888,
  "BaseResolution": 82,
  "BodyPartExamined": "BRAIN",
  "ConsistencyInfo": "N4_VE11E_LATEST_20181129",
  "ConversionSoftware": "dcm2niix",
  "ConversionSoftwareVersion": "v1.0.20201102",
  "DerivedVendorReportedEchoSpacing": 0.00049,
  "DeviceSerialNumber": "66112",
  "DwellTime": 2e-06,
  "EchoTime": 0.0272,
  "EchoTrainLength": 82,
  "EffectiveEchoSpacing": 0.00049,
  "FlipAngle": 44,
  "ImageComments": "Unaliased MB8/PE3",
  "ImageOrientationPatientDICOM": [0.998344, 0.0426866, 0.0385756, -0.0357352, 0.985525, -0.165718],
  "ImageType": [
    "ORIGINAL",
    "PRIMARY",
    "M",
    "MB",
    "ND",
    "NORM",
    "MOSAIC"
],
  "ImagingFrequency": 123.259,
  "InPlanePhaseEncodingDirectionDICOM": "COL",
  "InstitutionAddress": "Maynard 3,Hanover,NH,US,03755",
  "InstitutionName": "Dartmouth College - PBS",
  "InstitutionalDepartmentName": "Department",
  "MRAcquisitionType": "2D",
  "MagneticFieldStrength": 3,
  "Manufacturer": "Siemens",
  "ManufacturersModelName": "Prisma",
  "Modality": "MR",
  "MultibandAccelerationFactor": 8,
  "PartialFourier": 1,
  "PatientPosition": "HFS",
  "PercentPhaseFOV": 100,
  "PercentSampling": 100,
  "PhaseEncodingDirection": "j-",
  "PhaseEncodingSteps": 82,
  "PhaseResolution": 1,
  "PixelBandwidth": 3050,
  "ProcedureStepDescription": "Wager_Wager^1076_spacetop",
  "ProtocolName": "func_run-01_task-alignvideo_acq-ap-mb8",
  "PulseSequenceDetails": "%CustomerSeq%\\cmrr_mbep2d_bold",
  "ReceiveCoilActiveElements": "HEA;HEP",
  "ReceiveCoilName": "Head_32",
  "ReconMatrixPE": 82,
  "RepetitionTime": 0.46,
  "SAR": 0.131074,
  "ScanOptions": "FS",
  "ScanningSequence": "EP",
  "SequenceName": "epfid2d1_82",
  "SequenceVariant": "SK\\SS",
  "SeriesDescription": "func_run-01_task-alignvideo_acq-ap-mb8",
  "SeriesNumber": 32,
  "ShimSetting": [4246, -7758, -7249, 43, -193, -92, -69, 56],
  "SliceThickness": 2.7,
  "SliceTiming": [0, 0.25, 0.0625, 0.3125, 0.125, 0.375, 0.1875, 0, 0.25, 0.0625, 0.3125, 0.125, 0.375, 0.1875, 0, 0.25, 0.0625, 0.3125, 0.125, 0.375, 0.1875, 0, 0.25, 0.0625, 0.3125, 0.125, 0.375, 0.1875, 0, 0.25, 0.0625, 0.3125, 0.125, 0.375, 0.1875, 0, 0.25, 0.0625, 0.3125, 0.125, 0.375, 0.1875, 0, 0.25, 0.0625, 0.3125, 0.125, 0.375, 0.1875, 0, 0.25, 0.0625, 0.3125, 0.125, 0.375, 0.1875],
  "SoftwareVersions": "syngo MR E11",
  "SpacingBetweenSlices": 2.7,
  "StationName": "AWP66112",
  "TaskName": "alignvideo",
  "TotalReadoutTime": 0.03969,
  "TxRefAmp": 318.564,
  "WipMemBlock": "b9682d7b-5fe8-478f-afd0-50dbdab0b3fd||Sequence: R016 ve11e/master r/434b28f1; Aug  7 2019 18:53:46 by eja",
  "dcmmeta_affine": [
    [-2.6784827709198, -0.09587494283914566, 0.1217462420463562, 115.01140594482422],
    [-0.11452493816614151, 2.6440927982330322, -0.4429764449596405, -76.03337860107422],
    [0.10349556058645248, 0.44461026787757874, 2.6606295108795166, -104.9607925415039],
    [0.0, 0.0, 0.0, 1.0]
],
  "dcmmeta_reorient_transform": [
    [0.0, -1.0, 0.0, 81.0],
    [1.0, 0.0, 0.0, 0.0],
    [0.0, 0.0, 1.0, 0.0],
    [0.0, 0.0, 0.0, 1.0]
],
  "dcmmeta_shape": [82, 82, 56, 1073],
  "dcmmeta_slice_dim": 2,
  "dcmmeta_version": 0.6,
  "global": {
    "const": {
      "AccessionNumber": "A004332",
      "AcquisitionMatrix": [82, 0, 0, 82],
      "AngioFlag": "N",
      "BitsAllocated": 16,
      "BitsStored": 16,
      "BodyPartExamined": "BRAIN",
      "Columns": 656,
      "EchoNumbers": 1,
      "EchoTime": 27.2,
      "EchoTrainLength": 82,
      "FlipAngle": 44.0,
      "HighBit": 15,
      "ImageOrientationPatient": [0.99834351743316, 0.04268656632744, 0.03857561735549, -0.0357352041153, 0.98552545304974, -0.1657183652404],
      "ImagePositionPatient": [-848.45395655963, -929.86140773721, 28.952553484497],
      "ImageType": [
        "ORIGINAL",
        "PRIMARY",
        "M",
        "MB",
        "ND",
        "NORM",
        "MOSAIC"
],
      "ImagedNucleus": "1H",
      "ImagingFrequency": 123.259115,
      "InPlanePhaseEncodingDirection": "COL",
      "MRAcquisitionType": "2D",
      "MagneticFieldStrength": 3.0,
      "Manufacturer": "SIEMENS",
      "ManufacturerModelName": "Prisma",
      "Modality": "MR",
      "NumberOfAverages": 1.0,
      "NumberOfPhaseEncodingSteps": 82,
      "PercentPhaseFieldOfView": 100.0,
      "PercentSampling": 100.0,
      "PerformedProcedureStepStartTime": "121439.055000",
      "PhotometricInterpretation": "MONOCHROME2",
      "PixelBandwidth": 3050.0,
      "PixelRepresentation": 0,
      "PixelSpacing": [2.6829268932343, 2.6829268932343],
      "ProtocolName": "func_run-01_task-alignvideo_acq-ap-mb8",
      "RepetitionTime": 460.0,
      "Rows": 656,
      "SAR": 0.1310742920876,
      "SamplesPerPixel": 1,
      "ScanOptions": "FS",
      "ScanningSequence": "EP",
      "SequenceName": "epfid2d1_82",
      "SequenceVariant": [
        "SK",
        "SS"
],
      "SeriesDescription": "func_run-01_task-alignvideo_acq-ap-mb8",
      "SeriesNumber": 32,
      "SeriesTime": "132857.365000",
      "SliceLocation": -85.769850065061,
      "SliceThickness": 2.7000000476837,
      "SmallestImagePixelValue": 0,
      "SoftwareVersions": "syngo MR E11",
      "SpacingBetweenSlices": 2.7000000404587,
      "SpecificCharacterSet": "ISO_IR 100",
      "StudyID": "1",
      "StudyTime": "121438.987000",
      "TransmitCoilName": "Body",
      "VariableFlipAngleFlag": "N",
      "WindowCenterWidthExplanation": "Algo1"
    },
    "slices": {}
  },
  "time": {
    "samples": {
      "AcquisitionNumber": [1, 2, 3, 4, 5, 6, 7, 8, 9, 10, 11, 12, 13, 14, 15, 16, 17, 18, 19, 20, 21, 22, 23, 24, 25, 26, 27, 28, 29, 30, 31, 32, 33, 34, 35, 36, 37, 38, 39, 40, 41, 42, 43, 44, 45, 46, 47, 48, 49, 50, 51, 52, 53, 54, 55, 56, 57, 58, 59, 60, 61, 62, 63, 64, 65, 66, 67, 68, 69, 70, 71, 72, 73, 74, 75, 76, 77, 78, 79, 80, 81, 82, 83, 84, 85, 86, 87, 88, 89, 90, 91, 92, 93, 94, 95, 96, 97, 98, 99, 100, 101, 102, 103, 104, 105, 106, 107, 108, 109, 110, 111, 112, 113, 114, 115, 116, 117, 118, 119, 120, 121, 122, 123, 124, 125, 126, 127, 128, 129, 130, 131, 132, 133, 134, 135, 136, 137, 138, 139, 140, 141, 142, 143, 144, 145, 146, 147, 148, 149, 150, 151, 152, 153, 154, 155, 156, 157, 158, 159, 160, 161, 162, 163, 164, 165, 166, 167, 168, 169, 170, 171, 172, 173, 174, 175, 176, 177, 178, 179, 180, 181, 182, 183, 184, 185, 186, 187, 188, 189, 190, 191, 192, 193, 194, 195, 196, 197, 198, 199, 200, 201, 202, 203, 204, 205, 206, 207, 208, 209, 210, 211, 212, 213, 214, 215, 216, 217, 218, 219, 220, 221, 222, 223, 224, 225, 226, 227, 228, 229, 230, 231, 232, 233, 234, 235, 236, 237, 238, 239, 240, 241, 242, 243, 244, 245, 246, 247, 248, 249, 250, 251, 252, 253, 254, 255, 256, 257, 258, 259, 260, 261, 262, 263, 264, 265, 266, 267, 268, 269, 270, 271, 272, 273, 274, 275, 276, 277, 278, 279, 280, 281, 282, 283, 284, 285, 286, 287, 288, 289, 290, 291, 292, 293, 294, 295, 296, 297, 298, 299, 300, 301, 302, 303, 304, 305, 306, 307, 308, 309, 310, 311, 312, 313, 314, 315, 316, 317, 318, 319, 320, 321, 322, 323, 324, 325, 326, 327, 328, 329, 330, 331, 332, 333, 334, 335, 336, 337, 338, 339, 340, 341, 342, 343, 344, 345, 346, 347, 348, 349, 350, 351, 352, 353, 354, 355, 356, 357, 358, 359, 360, 361, 362, 363, 364, 365, 366, 367, 368, 369, 370, 371, 372, 373, 374, 375, 376, 377, 378, 379, 380, 381, 382, 383, 384, 385, 386, 387, 388, 389, 390, 391, 392, 393, 394, 395, 396, 397, 398, 399, 400, 401, 402, 403, 404, 405, 406, 407, 408, 409, 410, 411, 412, 413, 414, 415, 416, 417, 418, 419, 420, 421, 422, 423, 424, 425, 426, 427, 428, 429, 430, 431, 432, 433, 434, 435, 436, 437, 438, 439, 440, 441, 442, 443, 444, 445, 446, 447, 448, 449, 450, 451, 452, 453, 454, 455, 456, 457, 458, 459, 460, 461, 462, 463, 464, 465, 466, 467, 468, 469, 470, 471, 472, 473, 474, 475, 476, 477, 478, 479, 480, 481, 482, 483, 484, 485, 486, 487, 488, 489, 490, 491, 492, 493, 494, 495, 496, 497, 498, 499, 500, 501, 502, 503, 504, 505, 506, 507, 508, 509, 510, 511, 512, 513, 514, 515, 516, 517, 518, 519, 520, 521, 522, 523, 524, 525, 526, 527, 528, 529, 530, 531, 532, 533, 534, 535, 536, 537, 538, 539, 540, 541, 542, 543, 544, 545, 546, 547, 548, 549, 550, 551, 552, 553, 554, 555, 556, 557, 558, 559, 560, 561, 562, 563, 564, 565, 566, 567, 568, 569, 570, 571, 572, 573, 574, 575, 576, 577, 578, 579, 580, 581, 582, 583, 584, 585, 586, 587, 588, 589, 590, 591, 592, 593, 594, 595, 596, 597, 598, 599, 600, 601, 602, 603, 604, 605, 606, 607, 608, 609, 610, 611, 612, 613, 614, 615, 616, 617, 618, 619, 620, 621, 622, 623, 624, 625, 626, 627, 628, 629, 630, 631, 632, 633, 634, 635, 636, 637, 638, 639, 640, 641, 642, 643, 644, 645, 646, 647, 648, 649, 650, 651, 652, 653, 654, 655, 656, 657, 658, 659, 660, 661, 662, 663, 664, 665, 666, 667, 668, 669, 670, 671, 672, 673, 674, 675, 676, 677, 678, 679, 680, 681, 682, 683, 684, 685, 686, 687, 688, 689, 690, 691, 692, 693, 694, 695, 696, 697, 698, 699, 700, 701, 702, 703, 704, 705, 706, 707, 708, 709, 710, 711, 712, 713, 714, 715, 716, 717, 718, 719, 720, 721, 722, 723, 724, 725, 726, 727, 728, 729, 730, 731, 732, 733, 734, 735, 736, 737, 738, 739, 740, 741, 742, 743, 744, 745, 746, 747, 748, 749, 750, 751, 752, 753, 754, 755, 756, 757, 758, 759, 760, 761, 762, 763, 764, 765, 766, 767, 768, 769, 770, 771, 772, 773, 774, 775, 776, 777, 778, 779, 780, 781, 782, 783, 784, 785, 786, 787, 788, 789, 790, 791, 792, 793, 794, 795, 796, 797, 798, 799, 800, 801, 802, 803, 804, 805, 806, 807, 808, 809, 810, 811, 812, 813, 814, 815, 816, 817, 818, 819, 820, 821, 822, 823, 824, 825, 826, 827, 828, 829, 830, 831, 832, 833, 834, 835, 836, 837, 838, 839, 840, 841, 842, 843, 844, 845, 846, 847, 848, 849, 850, 851, 852, 853, 854, 855, 856, 857, 858, 859, 860, 861, 862, 863, 864, 865, 866, 867, 868, 869, 870, 871, 872, 873, 874, 875, 876, 877, 878, 879, 880, 881, 882, 883, 884, 885, 886, 887, 888, 889, 890, 891, 892, 893, 894, 895, 896, 897, 898, 899, 900, 901, 902, 903, 904, 905, 906, 907, 908, 909, 910, 911, 912, 913, 914, 915, 916, 917, 918, 919, 920, 921, 922, 923, 924, 925, 926, 927, 928, 929, 930, 931, 932, 933, 934, 935, 936, 937, 938, 939, 940, 941, 942, 943, 944, 945, 946, 947, 948, 949, 950, 951, 952, 953, 954, 955, 956, 957, 958, 959, 960, 961, 962, 963, 964, 965, 966, 967, 968, 969, 970, 971, 972, 973, 974, 975, 976, 977, 978, 979, 980, 981, 982, 983, 984, 985, 986, 987, 988, 989, 990, 991, 992, 993, 994, 995, 996, 997, 998, 999, 1000, 1001, 1002, 1003, 1004, 1005, 1006, 1007, 1008, 1009, 1010, 1011, 1012, 1013, 1014, 1015, 1016, 1017, 1018, 1019, 1020, 1021, 1022, 1023, 1024, 1025, 1026, 1027, 1028, 1029, 1030, 1031, 1032, 1033, 1034, 1035, 1036, 1037, 1038, 1039, 1040, 1041, 1042, 1043, 1044, 1045, 1046, 1047, 1048, 1049, 1050, 1051, 1052, 1053, 1054, 1055, 1056, 1057, 1058, 1059, 1060, 1061, 1062, 1063, 1064, 1065, 1066, 1067, 1068, 1069, 1070, 1071, 1072, 1073],
      "AcquisitionTime": ["132843.245000", "132843.705000", "132844.165000", "132844.625000", "132845.085000", "132845.545000", "132846.005000", "132846.465000", "132846.925000", "132847.385000", "132847.845000", "132848.305000", "132848.765000", "132849.225000", "132849.685000", "132850.145000", "132850.605000", "132851.065000", "132851.525000", "132851.985000", "132852.445000", "132852.905000", "132853.365000", "132853.825000", "132854.285000", "132854.745000", "132855.205000", "132855.665000", "132856.125000", "132856.585000", "132857.045000", "132857.505000", "132857.965000", "132858.425000", "132858.885000", "132859.345000", "132859.805000", "132900.265000", "132900.725000", "132901.185000", "132901.645000", "132902.105000", "132902.565000", "132903.025000", "132903.485000", "132903.945000", "132904.405000", "132904.865000", "132905.325000", "132905.785000", "132906.245000", "132906.705000", "132907.165000", "132907.625000", "132908.085000", "132908.545000", "132909.005000", "132909.465000", "132909.925000", "132910.385000", "132910.845000", "132911.305000", "132911.765000", "132912.225000", "132912.685000", "132913.145000", "132913.605000", "132914.065000", "132914.525000", "132914.985000", "132915.445000", "132915.905000", "132916.365000", "132916.825000", "132917.285000", "132917.745000", "132918.205000", "132918.665000", "132919.125000", "132919.585000", "132920.045000", "132920.505000", "132920.965000", "132921.425000", "132921.885000", "132922.345000", "132922.805000", "132923.265000", "132923.725000", "132924.185000", "132924.645000", "132925.105000", "132925.565000", "132926.025000", "132926.485000", "132926.945000", "132927.405000", "132927.865000", "132928.325000", "132928.785000", "132929.245000", "132929.705000", "132930.165000", "132930.625000", "132931.085000", "132931.545000", "132932.005000", "132932.465000", "132932.925000", "132933.385000", "132933.845000", "132934.305000", "132934.765000", "132935.225000", "132935.685000", "132936.145000", "132936.605000", "132937.065000", "132937.525000", "132937.985000", "132938.445000", "132938.905000", "132939.365000", "132939.825000", "132940.285000", "132940.745000", "132941.205000", "132941.665000", "132942.125000", "132942.585000", "132943.045000", "132943.505000", "132943.965000", "132944.425000", "132944.885000", "132945.345000", "132945.805000", "132946.265000", "132946.725000", "132947.185000", "132947.645000", "132948.105000", "132948.565000", "132949.025000", "132949.485000", "132949.945000", "132950.405000", "132950.865000", "132951.325000", "132951.785000", "132952.245000", "132952.705000", "132953.165000", "132953.625000", "132954.085000", "132954.545000", "132955.005000", "132955.465000", "132955.925000", "132956.385000", "132956.845000", "132957.305000", "132957.765000", "132958.225000", "132958.685000", "132959.145000", "132959.605000", "133000.065000", "133000.525000", "133000.985000", "133001.445000", "133001.905000", "133002.365000", "133002.825000", "133003.285000", "133003.745000", "133004.205000", "133004.665000", "133005.125000", "133005.585000", "133006.045000", "133006.505000", "133006.965000", "133007.425000", "133007.885000", "133008.345000", "133008.805000", "133009.265000", "133009.725000", "133010.185000", "133010.645000", "133011.105000", "133011.565000", "133012.025000", "133012.485000", "133012.945000", "133013.405000", "133013.865000", "133014.325000", "133014.785000", "133015.245000", "133015.705000", "133016.165000", "133016.625000", "133017.085000", "133017.545000", "133018.005000", "133018.465000", "133018.925000", "133019.385000", "133019.845000", "133020.305000", "133020.765000", "133021.225000", "133021.685000", "133022.145000", "133022.605000", "133023.065000", "133023.525000", "133023.985000", "133024.445000", "133024.905000", "133025.365000", "133025.825000", "133026.285000", "133026.745000", "133027.205000", "133027.665000", "133028.125000", "133028.585000", "133029.045000", "133029.505000", "133029.965000", "133030.425000", "133030.885000", "133031.345000", "133031.805000", "133032.265000", "133032.725000", "133033.185000", "133033.645000", "133034.105000", "133034.565000", "133035.025000", "133035.485000", "133035.945000", "133036.405000", "133036.865000", "133037.325000", "133037.785000", "133038.245000", "133038.705000", "133039.165000", "133039.625000", "133040.085000", "133040.545000", "133041.005000", "133041.465000", "133041.925000", "133042.385000", "133042.845000", "133043.305000", "133043.765000", "133044.225000", "133044.685000", "133045.145000", "133045.605000", "133046.065000", "133046.525000", "133046.985000", "133047.445000", "133047.905000", "133048.365000", "133048.825000", "133049.285000", "133049.745000", "133050.205000", "133050.665000", "133051.125000", "133051.585000", "133052.045000", "133052.505000", "133052.965000", "133053.425000", "133053.885000", "133054.345000", "133054.805000", "133055.265000", "133055.725000", "133056.185000", "133056.645000", "133057.105000", "133057.565000", "133058.025000", "133058.485000", "133058.945000", "133059.405000", "133059.865000", "133100.325000", "133100.785000", "133101.245000", "133101.705000", "133102.165000", "133102.625000", "133103.085000", "133103.545000", "133104.005000", "133104.465000", "133104.925000", "133105.385000", "133105.845000", "133106.305000", "133106.765000", "133107.225000", "133107.685000", "133108.145000", "133108.605000", "133109.065000", "133109.525000", "133109.985000", "133110.445000", "133110.905000", "133111.365000", "133111.825000", "133112.285000", "133112.745000", "133113.205000", "133113.665000", "133114.125000", "133114.585000", "133115.045000", "133115.505000", "133115.965000", "133116.425000", "133116.885000", "133117.345000", "133117.805000", "133118.265000", "133118.725000", "133119.185000", "133119.645000", "133120.105000", "133120.565000", "133121.025000", "133121.485000", "133121.945000", "133122.405000", "133122.865000", "133123.325000", "133123.785000", "133124.245000", "133124.705000", "133125.165000", "133125.625000", "133126.085000", "133126.545000", "133127.005000", "133127.465000", "133127.925000", "133128.385000", "133128.845000", "133129.305000", "133129.765000", "133130.225000", "133130.685000", "133131.145000", "133131.605000", "133132.065000", "133132.525000", "133132.985000", "133133.445000", "133133.905000", "133134.365000", "133134.825000", "133135.285000", "133135.745000", "133136.205000", "133136.665000", "133137.125000", "133137.585000", "133138.045000", "133138.505000", "133138.965000", "133139.425000", "133139.885000", "133140.345000", "133140.805000", "133141.265000", "133141.725000", "133142.185000", "133142.645000", "133143.105000", "133143.565000", "133144.025000", "133144.485000", "133144.945000", "133145.405000", "133145.865000", "133146.325000", "133146.785000", "133147.245000", "133147.705000", "133148.165000", "133148.625000", "133149.085000", "133149.545000", "133150.005000", "133150.465000", "133150.925000", "133151.385000", "133151.845000", "133152.305000", "133152.765000", "133153.225000", "133153.685000", "133154.145000", "133154.605000", "133155.065000", "133155.525000", "133155.985000", "133156.445000", "133156.905000", "133157.365000", "133157.825000", "133158.285000", "133158.745000", "133159.205000", "133159.665000", "133200.125000", "133200.585000", "133201.045000", "133201.505000", "133201.965000", "133202.425000", "133202.885000", "133203.345000", "133203.805000", "133204.265000", "133204.725000", "133205.185000", "133205.645000", "133206.105000", "133206.565000", "133207.025000", "133207.485000", "133207.945000", "133208.405000", "133208.865000", "133209.325000", "133209.785000", "133210.245000", "133210.705000", "133211.165000", "133211.625000", "133212.085000", "133212.545000", "133213.005000", "133213.465000", "133213.925000", "133214.385000", "133214.845000", "133215.305000", "133215.765000", "133216.225000", "133216.685000", "133217.145000", "133217.605000", "133218.065000", "133218.525000", "133218.985000", "133219.445000", "133219.905000", "133220.365000", "133220.825000", "133221.285000", "133221.745000", "133222.205000", "133222.665000", "133223.125000", "133223.585000", "133224.045000", "133224.505000", "133224.965000", "133225.425000", "133225.885000", "133226.345000", "133226.805000", "133227.265000", "133227.725000", "133228.185000", "133228.645000", "133229.105000", "133229.565000", "133230.025000", "133230.485000", "133230.945000", "133231.405000", "133231.865000", "133232.325000", "133232.785000", "133233.245000", "133233.705000", "133234.165000", "133234.625000", "133235.085000", "133235.545000", "133236.005000", "133236.465000", "133236.925000", "133237.385000", "133237.845000", "133238.305000", "133238.765000", "133239.225000", "133239.685000", "133240.145000", "133240.605000", "133241.065000", "133241.525000", "133241.985000", "133242.445000", "133242.905000", "133243.365000", "133243.825000", "133244.285000", "133244.745000", "133245.205000", "133245.665000", "133246.125000", "133246.585000", "133247.045000", "133247.505000", "133247.965000", "133248.425000", "133248.885000", "133249.345000", "133249.805000", "133250.265000", "133250.725000", "133251.185000", "133251.645000", "133252.105000", "133252.565000", "133253.025000", "133253.485000", "133253.945000", "133254.405000", "133254.865000", "133255.325000", "133255.785000", "133256.245000", "133256.705000", "133257.165000", "133257.625000", "133258.085000", "133258.545000", "133259.005000", "133259.465000", "133259.925000", "133300.385000", "133300.845000", "133301.305000", "133301.765000", "133302.225000", "133302.685000", "133303.145000", "133303.605000", "133304.065000", "133304.525000", "133304.985000", "133305.445000", "133305.905000", "133306.365000", "133306.825000", "133307.285000", "133307.745000", "133308.205000", "133308.665000", "133309.125000", "133309.585000", "133310.045000", "133310.505000", "133310.965000", "133311.425000", "133311.885000", "133312.345000", "133312.805000", "133313.265000", "133313.725000", "133314.185000", "133314.645000", "133315.105000", "133315.565000", "133316.025000", "133316.485000", "133316.945000", "133317.405000", "133317.865000", "133318.325000", "133318.785000", "133319.245000", "133319.705000", "133320.165000", "133320.625000", "133321.085000", "133321.545000", "133322.005000", "133322.465000", "133322.925000", "133323.385000", "133323.845000", "133324.305000", "133324.765000", "133325.225000", "133325.685000", "133326.145000", "133326.605000", "133327.065000", "133327.525000", "133327.985000", "133328.445000", "133328.905000", "133329.365000", "133329.825000", "133330.285000", "133330.745000", "133331.205000", "133331.665000", "133332.125000", "133332.585000", "133333.045000", "133333.505000", "133333.965000", "133334.425000", "133334.885000", "133335.345000", "133335.805000", "133336.265000", "133336.725000", "133337.185000", "133337.645000", "133338.105000", "133338.565000", "133339.025000", "133339.485000", "133339.945000", "133340.405000", "133340.865000", "133341.325000", "133341.785000", "133342.245000", "133342.705000", "133343.165000", "133343.625000", "133344.085000", "133344.545000", "133345.005000", "133345.465000", "133345.925000", "133346.385000", "133346.845000", "133347.305000", "133347.765000", "133348.225000", "133348.685000", "133349.145000", "133349.605000", "133350.065000", "133350.525000", "133350.985000", "133351.445000", "133351.905000", "133352.365000", "133352.825000", "133353.285000", "133353.745000", "133354.205000", "133354.665000", "133355.125000", "133355.585000", "133356.045000", "133356.505000", "133356.965000", "133357.425000", "133357.885000", "133358.345000", "133358.805000", "133359.265000", "133359.725000", "133400.185000", "133400.645000", "133401.105000", "133401.565000", "133402.025000", "133402.485000", "133402.945000", "133403.405000", "133403.865000", "133404.325000", "133404.785000", "133405.245000", "133405.705000", "133406.165000", "133406.625000", "133407.085000", "133407.545000", "133408.005000", "133408.465000", "133408.925000", "133409.385000", "133409.845000", "133410.305000", "133410.765000", "133411.225000", "133411.685000", "133412.145000", "133412.605000", "133413.065000", "133413.525000", "133413.985000", "133414.445000", "133414.905000", "133415.365000", "133415.825000", "133416.285000", "133416.745000", "133417.205000", "133417.665000", "133418.125000", "133418.585000", "133419.045000", "133419.505000", "133419.965000", "133420.425000", "133420.885000", "133421.345000", "133421.805000", "133422.265000", "133422.725000", "133423.185000", "133423.645000", "133424.105000", "133424.565000", "133425.025000", "133425.485000", "133425.945000", "133426.405000", "133426.865000", "133427.325000", "133427.785000", "133428.245000", "133428.705000", "133429.165000", "133429.625000", "133430.085000", "133430.545000", "133431.005000", "133431.465000", "133431.925000", "133432.385000", "133432.845000", "133433.305000", "133433.765000", "133434.225000", "133434.685000", "133435.145000", "133435.605000", "133436.065000", "133436.525000", "133436.985000", "133437.445000", "133437.905000", "133438.365000", "133438.825000", "133439.285000", "133439.745000", "133440.205000", "133440.665000", "133441.125000", "133441.585000", "133442.045000", "133442.505000", "133442.965000", "133443.425000", "133443.885000", "133444.345000", "133444.805000", "133445.265000", "133445.725000", "133446.185000", "133446.645000", "133447.105000", "133447.565000", "133448.025000", "133448.485000", "133448.945000", "133449.405000", "133449.865000", "133450.325000", "133450.785000", "133451.245000", "133451.705000", "133452.165000", "133452.625000", "133453.085000", "133453.545000", "133454.005000", "133454.465000", "133454.925000", "133455.385000", "133455.845000", "133456.305000", "133456.765000", "133457.225000", "133457.685000", "133458.145000", "133458.605000", "133459.065000", "133459.525000", "133459.985000", "133500.445000", "133500.905000", "133501.365000", "133501.825000", "133502.285000", "133502.745000", "133503.205000", "133503.665000", "133504.125000", "133504.585000", "133505.045000", "133505.505000", "133505.965000", "133506.425000", "133506.885000", "133507.345000", "133507.805000", "133508.265000", "133508.725000", "133509.185000", "133509.645000", "133510.105000", "133510.565000", "133511.025000", "133511.485000", "133511.945000", "133512.405000", "133512.865000", "133513.325000", "133513.785000", "133514.245000", "133514.705000", "133515.165000", "133515.625000", "133516.085000", "133516.545000", "133517.005000", "133517.465000", "133517.925000", "133518.385000", "133518.845000", "133519.305000", "133519.765000", "133520.225000", "133520.685000", "133521.145000", "133521.605000", "133522.065000", "133522.525000", "133522.985000", "133523.445000", "133523.905000", "133524.365000", "133524.825000", "133525.285000", "133525.745000", "133526.205000", "133526.665000", "133527.125000", "133527.585000", "133528.045000", "133528.505000", "133528.965000", "133529.425000", "133529.885000", "133530.345000", "133530.805000", "133531.265000", "133531.725000", "133532.185000", "133532.645000", "133533.105000", "133533.565000", "133534.025000", "133534.485000", "133534.945000", "133535.405000", "133535.865000", "133536.325000", "133536.785000", "133537.245000", "133537.705000", "133538.165000", "133538.625000", "133539.085000", "133539.545000", "133540.005000", "133540.465000", "133540.925000", "133541.385000", "133541.845000", "133542.305000", "133542.765000", "133543.225000", "133543.685000", "133544.145000", "133544.605000", "133545.065000", "133545.525000", "133545.985000", "133546.445000", "133546.905000", "133547.365000", "133547.825000", "133548.285000", "133548.745000", "133549.205000", "133549.665000", "133550.125000", "133550.585000", "133551.045000", "133551.505000", "133551.965000", "133552.425000", "133552.885000", "133553.345000", "133553.805000", "133554.265000", "133554.725000", "133555.185000", "133555.645000", "133556.105000", "133556.565000", "133557.025000", "133557.485000", "133557.945000", "133558.405000", "133558.865000", "133559.325000", "133559.785000", "133600.245000", "133600.705000", "133601.165000", "133601.625000", "133602.085000", "133602.545000", "133603.005000", "133603.465000", "133603.925000", "133604.385000", "133604.845000", "133605.305000", "133605.765000", "133606.225000", "133606.685000", "133607.145000", "133607.605000", "133608.065000", "133608.525000", "133608.985000", "133609.445000", "133609.905000", "133610.365000", "133610.825000", "133611.285000", "133611.745000", "133612.205000", "133612.665000", "133613.125000", "133613.585000", "133614.045000", "133614.505000", "133614.965000", "133615.425000", "133615.885000", "133616.345000", "133616.805000", "133617.265000", "133617.725000", "133618.185000", "133618.645000", "133619.105000", "133619.565000", "133620.025000", "133620.485000", "133620.945000", "133621.405000", "133621.865000", "133622.325000", "133622.785000", "133623.245000", "133623.705000", "133624.165000", "133624.625000", "133625.085000", "133625.545000", "133626.005000", "133626.465000", "133626.925000", "133627.385000", "133627.845000", "133628.305000", "133628.765000", "133629.225000", "133629.685000", "133630.145000", "133630.605000", "133631.065000", "133631.525000", "133631.985000", "133632.445000", "133632.905000", "133633.365000", "133633.825000", "133634.285000", "133634.745000", "133635.205000", "133635.665000", "133636.125000", "133636.585000", "133637.045000", "133637.505000", "133637.965000", "133638.425000", "133638.885000", "133639.345000", "133639.805000", "133640.265000", "133640.725000", "133641.185000", "133641.645000", "133642.105000", "133642.565000", "133643.025000", "133643.485000", "133643.945000", "133644.405000", "133644.865000", "133645.325000", "133645.785000", "133646.245000", "133646.705000", "133647.165000", "133647.625000", "133648.085000", "133648.545000", "133649.005000", "133649.465000", "133649.925000", "133650.385000", "133650.845000", "133651.305000", "133651.765000", "133652.225000", "133652.685000", "133653.145000", "133653.605000", "133654.065000", "133654.525000", "133654.985000", "133655.445000", "133655.905000", "133656.365000"],
