{
  "AcquisitionMatrixPE": 82,
  "AcquisitionNumber": 1,
  "AcquisitionTime": "13:17:43.847500",
  "BandwidthPerPixelPhaseEncode": 24.888,
  "BaseResolution": 82,
  "BodyPartExamined": "BRAIN",
  "ConsistencyInfo": "N4_VE11E_LATEST_20181129",
  "ConversionSoftware": "dcm2niix",
  "ConversionSoftwareVersion": "v1.0.20201102",
  "DerivedVendorReportedEchoSpacing": 0.00049,
  "DeviceSerialNumber": "66112",
  "DwellTime": 2e-06,
  "EchoTime": 0.0272,
  "EchoTrainLength": 82,
  "EffectiveEchoSpacing": 0.00049,
  "FlipAngle": 44,
  "ImageComments": "Unaliased MB8/PE3",
  "ImageOrientationPatientDICOM": [0.998133, 0.0505016, 0.0343564, -0.0442777, 0.985706, -0.162552],
  "ImageType": [
    "ORIGINAL",
    "PRIMARY",
    "M",
    "MB",
    "ND",
    "NORM",
    "MOSAIC"
],
  "ImagingFrequency": 123.259,
  "InPlanePhaseEncodingDirectionDICOM": "COL",
  "InstitutionAddress": "Maynard 3,Hanover,NH,US,03755",
  "InstitutionName": "Dartmouth College - PBS",
  "InstitutionalDepartmentName": "Department",
  "MRAcquisitionType": "2D",
  "MagneticFieldStrength": 3,
  "Manufacturer": "Siemens",
  "ManufacturersModelName": "Prisma",
  "Modality": "MR",
  "MultibandAccelerationFactor": 8,
  "PartialFourier": 1,
  "PatientPosition": "HFS",
  "PercentPhaseFOV": 100,
  "PercentSampling": 100,
  "PhaseEncodingDirection": "j-",
  "PhaseEncodingSteps": 82,
  "PhaseResolution": 1,
  "PixelBandwidth": 3050,
  "ProcedureStepDescription": "Wager_Wager^1076_spacetop",
  "ProtocolName": "func_run-06_task-social_acq-ap-mb8",
  "PulseSequenceDetails": "%CustomerSeq%\\cmrr_mbep2d_bold",
  "ReceiveCoilActiveElements": "HEA;HEP",
  "ReceiveCoilName": "Head_32",
  "ReconMatrixPE": 82,
  "RepetitionTime": 0.46,
  "SAR": 0.130922,
  "ScanOptions": "FS",
  "ScanningSequence": "EP",
  "SequenceName": "epfid2d1_82",
  "SequenceVariant": "SK\\SS",
  "SeriesDescription": "func_run-06_task-social_acq-ap-mb8",
  "SeriesNumber": 24,
  "ShimSetting": [4245, -7753, -7244, 56, -187, -71, -74, 63],
  "SliceThickness": 2.7,
  "SliceTiming": [0, 0.2525, 0.0625, 0.315, 0.125, 0.3775, 0.19, 0, 0.2525, 0.0625, 0.315, 0.125, 0.3775, 0.19, 0, 0.2525, 0.0625, 0.315, 0.125, 0.3775, 0.19, 0, 0.2525, 0.0625, 0.315, 0.125, 0.3775, 0.19, 0, 0.2525, 0.0625, 0.315, 0.125, 0.3775, 0.19, 0, 0.2525, 0.0625, 0.315, 0.125, 0.3775, 0.19, 0, 0.2525, 0.0625, 0.315, 0.125, 0.3775, 0.19, 0, 0.2525, 0.0625, 0.315, 0.125, 0.3775, 0.19],
  "SoftwareVersions": "syngo MR E11",
  "SpacingBetweenSlices": 2.7,
  "StationName": "AWP66112",
  "TaskName": "social",
  "TotalReadoutTime": 0.03969,
  "TxRefAmp": 318.564,
  "WipMemBlock": "308a4d9d-37a5-4b36-8f03-1307c87b9acb||Sequence: R016 ve11e/master r/434b28f1; Aug  7 2019 18:53:46 by eja",
  "dcmmeta_affine": [
    [-2.67791748046875, -0.11879376322031021, 0.1136009618639946, 115.83614349365234],
    [-0.13549205660820007, 2.6445770263671875, -0.4339645802974701, -75.71792602539062],
    [0.09217563271522522, 0.4361160695552826, 2.6624743938446045, -98.6727523803711],
    [0.0, 0.0, 0.0, 1.0]
],
  "dcmmeta_reorient_transform": [
    [0.0, -1.0, 0.0, 81.0],
    [1.0, 0.0, 0.0, 0.0],
    [0.0, 0.0, 1.0, 0.0],
    [0.0, 0.0, 0.0, 1.0]
],
  "dcmmeta_shape": [82, 82, 56, 872],
  "dcmmeta_slice_dim": 2,
  "dcmmeta_version": 0.6,
  "global": {
    "const": {
      "AccessionNumber": "A004332",
      "AcquisitionMatrix": [82, 0, 0, 82],
      "AngioFlag": "N",
      "BitsAllocated": 16,
      "BitsStored": 16,
      "BodyPartExamined": "BRAIN",
      "Columns": 656,
      "EchoNumbers": 1,
      "EchoTime": 27.2,
      "EchoTrainLength": 82,
      "FlipAngle": 44.0,
      "HighBit": 15,
      "ImageOrientationPatient": [0.99813287184895, 0.05050158376387, 0.03435637017935, -0.0442776750739, 0.98570595081041, -0.1625523485742],
      "ImagePositionPatient": [-840.68236926157, -936.37263141392, 35.363557732323],
      "ImageType": [
        "ORIGINAL",
        "PRIMARY",
        "M",
        "MB",
        "ND",
        "NORM",
        "MOSAIC"
],
      "ImagedNucleus": "1H",
      "ImagingFrequency": 123.259114,
      "InPlanePhaseEncodingDirection": "COL",
      "MRAcquisitionType": "2D",
      "MagneticFieldStrength": 3.0,
      "Manufacturer": "SIEMENS",
      "ManufacturerModelName": "Prisma",
      "Modality": "MR",
      "NumberOfAverages": 1.0,
      "NumberOfPhaseEncodingSteps": 82,
      "PercentPhaseFieldOfView": 100.0,
      "PercentSampling": 100.0,
      "PerformedProcedureStepStartTime": "121439.055000",
      "PhotometricInterpretation": "MONOCHROME2",
      "PixelBandwidth": 3050.0,
      "PixelRepresentation": 0,
      "PixelSpacing": [2.6829268932343, 2.6829268932343],
      "ProtocolName": "func_run-06_task-social_acq-ap-mb8",
      "RepetitionTime": 460.0,
      "Rows": 656,
      "SAR": 0.13092161370878,
      "SamplesPerPixel": 1,
      "ScanOptions": "FS",
      "ScanningSequence": "EP",
      "SequenceName": "epfid2d1_82",
      "SequenceVariant": [
        "SK",
        "SS"
],
      "SeriesDescription": "func_run-06_task-social_acq-ap-mb8",
      "SeriesNumber": 24,
      "SeriesTime": "131757.512000",
      "SliceLocation": -80.257654489872,
      "SliceThickness": 2.7000000476837,
      "SmallestImagePixelValue": 0,
      "SoftwareVersions": "syngo MR E11",
      "SpacingBetweenSlices": 2.7000000079257,
      "SpecificCharacterSet": "ISO_IR 100",
      "StudyID": "1",
      "StudyTime": "121438.987000",
      "TransmitCoilName": "Body",
      "VariableFlipAngleFlag": "N",
      "WindowCenterWidthExplanation": "Algo1"
    },
    "slices": {}
  },
  "time": {
    "samples": {
      "AcquisitionNumber": [1, 2, 3, 4, 5, 6, 7, 8, 9, 10, 11, 12, 13, 14, 15, 16, 17, 18, 19, 20, 21, 22, 23, 24, 25, 26, 27, 28, 29, 30, 31, 32, 33, 34, 35, 36, 37, 38, 39, 40, 41, 42, 43, 44, 45, 46, 47, 48, 49, 50, 51, 52, 53, 54, 55, 56, 57, 58, 59, 60, 61, 62, 63, 64, 65, 66, 67, 68, 69, 70, 71, 72, 73, 74, 75, 76, 77, 78, 79, 80, 81, 82, 83, 84, 85, 86, 87, 88, 89, 90, 91, 92, 93, 94, 95, 96, 97, 98, 99, 100, 101, 102, 103, 104, 105, 106, 107, 108, 109, 110, 111, 112, 113, 114, 115, 116, 117, 118, 119, 120, 121, 122, 123, 124, 125, 126, 127, 128, 129, 130, 131, 132, 133, 134, 135, 136, 137, 138, 139, 140, 141, 142, 143, 144, 145, 146, 147, 148, 149, 150, 151, 152, 153, 154, 155, 156, 157, 158, 159, 160, 161, 162, 163, 164, 165, 166, 167, 168, 169, 170, 171, 172, 173, 174, 175, 176, 177, 178, 179, 180, 181, 182, 183, 184, 185, 186, 187, 188, 189, 190, 191, 192, 193, 194, 195, 196, 197, 198, 199, 200, 201, 202, 203, 204, 205, 206, 207, 208, 209, 210, 211, 212, 213, 214, 215, 216, 217, 218, 219, 220, 221, 222, 223, 224, 225, 226, 227, 228, 229, 230, 231, 232, 233, 234, 235, 236, 237, 238, 239, 240, 241, 242, 243, 244, 245, 246, 247, 248, 249, 250, 251, 252, 253, 254, 255, 256, 257, 258, 259, 260, 261, 262, 263, 264, 265, 266, 267, 268, 269, 270, 271, 272, 273, 274, 275, 276, 277, 278, 279, 280, 281, 282, 283, 284, 285, 286, 287, 288, 289, 290, 291, 292, 293, 294, 295, 296, 297, 298, 299, 300, 301, 302, 303, 304, 305, 306, 307, 308, 309, 310, 311, 312, 313, 314, 315, 316, 317, 318, 319, 320, 321, 322, 323, 324, 325, 326, 327, 328, 329, 330, 331, 332, 333, 334, 335, 336, 337, 338, 339, 340, 341, 342, 343, 344, 345, 346, 347, 348, 349, 350, 351, 352, 353, 354, 355, 356, 357, 358, 359, 360, 361, 362, 363, 364, 365, 366, 367, 368, 369, 370, 371, 372, 373, 374, 375, 376, 377, 378, 379, 380, 381, 382, 383, 384, 385, 386, 387, 388, 389, 390, 391, 392, 393, 394, 395, 396, 397, 398, 399, 400, 401, 402, 403, 404, 405, 406, 407, 408, 409, 410, 411, 412, 413, 414, 415, 416, 417, 418, 419, 420, 421, 422, 423, 424, 425, 426, 427, 428, 429, 430, 431, 432, 433, 434, 435, 436, 437, 438, 439, 440, 441, 442, 443, 444, 445, 446, 447, 448, 449, 450, 451, 452, 453, 454, 455, 456, 457, 458, 459, 460, 461, 462, 463, 464, 465, 466, 467, 468, 469, 470, 471, 472, 473, 474, 475, 476, 477, 478, 479, 480, 481, 482, 483, 484, 485, 486, 487, 488, 489, 490, 491, 492, 493, 494, 495, 496, 497, 498, 499, 500, 501, 502, 503, 504, 505, 506, 507, 508, 509, 510, 511, 512, 513, 514, 515, 516, 517, 518, 519, 520, 521, 522, 523, 524, 525, 526, 527, 528, 529, 530, 531, 532, 533, 534, 535, 536, 537, 538, 539, 540, 541, 542, 543, 544, 545, 546, 547, 548, 549, 550, 551, 552, 553, 554, 555, 556, 557, 558, 559, 560, 561, 562, 563, 564, 565, 566, 567, 568, 569, 570, 571, 572, 573, 574, 575, 576, 577, 578, 579, 580, 581, 582, 583, 584, 585, 586, 587, 588, 589, 590, 591, 592, 593, 594, 595, 596, 597, 598, 599, 600, 601, 602, 603, 604, 605, 606, 607, 608, 609, 610, 611, 612, 613, 614, 615, 616, 617, 618, 619, 620, 621, 622, 623, 624, 625, 626, 627, 628, 629, 630, 631, 632, 633, 634, 635, 636, 637, 638, 639, 640, 641, 642, 643, 644, 645, 646, 647, 648, 649, 650, 651, 652, 653, 654, 655, 656, 657, 658, 659, 660, 661, 662, 663, 664, 665, 666, 667, 668, 669, 670, 671, 672, 673, 674, 675, 676, 677, 678, 679, 680, 681, 682, 683, 684, 685, 686, 687, 688, 689, 690, 691, 692, 693, 694, 695, 696, 697, 698, 699, 700, 701, 702, 703, 704, 705, 706, 707, 708, 709, 710, 711, 712, 713, 714, 715, 716, 717, 718, 719, 720, 721, 722, 723, 724, 725, 726, 727, 728, 729, 730, 731, 732, 733, 734, 735, 736, 737, 738, 739, 740, 741, 742, 743, 744, 745, 746, 747, 748, 749, 750, 751, 752, 753, 754, 755, 756, 757, 758, 759, 760, 761, 762, 763, 764, 765, 766, 767, 768, 769, 770, 771, 772, 773, 774, 775, 776, 777, 778, 779, 780, 781, 782, 783, 784, 785, 786, 787, 788, 789, 790, 791, 792, 793, 794, 795, 796, 797, 798, 799, 800, 801, 802, 803, 804, 805, 806, 807, 808, 809, 810, 811, 812, 813, 814, 815, 816, 817, 818, 819, 820, 821, 822, 823, 824, 825, 826, 827, 828, 829, 830, 831, 832, 833, 834, 835, 836, 837, 838, 839, 840, 841, 842, 843, 844, 845, 846, 847, 848, 849, 850, 851, 852, 853, 854, 855, 856, 857, 858, 859, 860, 861, 862, 863, 864, 865, 866, 867, 868, 869, 870, 871, 872],
      "AcquisitionTime": ["131743.847500", "131744.307500", "131744.767500", "131745.227500", "131745.687500", "131746.147500", "131746.607500", "131747.067500", "131747.527500", "131747.987500", "131748.447500", "131748.907500", "131749.367500", "131749.827500", "131750.287500", "131750.747500", "131751.207500", "131751.667500", "131752.127500", "131752.587500", "131753.047500", "131753.507500", "131753.967500", "131754.427500", "131754.887500", "131755.347500", "131755.807500", "131756.267500", "131756.727500", "131757.187500", "131757.647500", "131758.107500", "131758.567500", "131759.027500", "131759.487500", "131759.947500", "131800.407500", "131800.867500", "131801.327500", "131801.787500", "131802.247500", "131802.707500", "131803.167500", "131803.627500", "131804.087500", "131804.547500", "131805.007500", "131805.467500", "131805.927500", "131806.387500", "131806.847500", "131807.307500", "131807.767500", "131808.227500", "131808.687500", "131809.147500", "131809.607500", "131810.067500", "131810.527500", "131810.987500", "131811.447500", "131811.907500", "131812.367500", "131812.827500", "131813.287500", "131813.747500", "131814.207500", "131814.667500", "131815.127500", "131815.587500", "131816.047500", "131816.507500", "131816.967500", "131817.427500", "131817.887500", "131818.347500", "131818.807500", "131819.267500", "131819.727500", "131820.187500", "131820.647500", "131821.107500", "131821.567500", "131822.027500", "131822.487500", "131822.947500", "131823.407500", "131823.867500", "131824.327500", "131824.787500", "131825.247500", "131825.707500", "131826.167500", "131826.627500", "131827.087500", "131827.547500", "131828.007500", "131828.467500", "131828.927500", "131829.387500", "131829.847500", "131830.307500", "131830.767500", "131831.227500", "131831.687500", "131832.147500", "131832.607500", "131833.067500", "131833.527500", "131833.987500", "131834.447500", "131834.907500", "131835.367500", "131835.827500", "131836.287500", "131836.747500", "131837.207500", "131837.667500", "131838.127500", "131838.587500", "131839.047500", "131839.507500", "131839.967500", "131840.427500", "131840.887500", "131841.347500", "131841.807500", "131842.267500", "131842.727500", "131843.187500", "131843.647500", "131844.107500", "131844.567500", "131845.027500", "131845.487500", "131845.947500", "131846.407500", "131846.867500", "131847.327500", "131847.787500", "131848.247500", "131848.707500", "131849.167500", "131849.627500", "131850.087500", "131850.547500", "131851.007500", "131851.467500", "131851.927500", "131852.387500", "131852.847500", "131853.307500", "131853.767500", "131854.227500", "131854.687500", "131855.147500", "131855.607500", "131856.067500", "131856.527500", "131856.987500", "131857.447500", "131857.907500", "131858.367500", "131858.827500", "131859.287500", "131859.747500", "131900.207500", "131900.667500", "131901.127500", "131901.587500", "131902.047500", "131902.507500", "131902.967500", "131903.427500", "131903.887500", "131904.347500", "131904.807500", "131905.267500", "131905.727500", "131906.187500", "131906.647500", "131907.107500", "131907.567500", "131908.027500", "131908.487500", "131908.947500", "131909.407500", "131909.867500", "131910.327500", "131910.787500", "131911.247500", "131911.707500", "131912.167500", "131912.627500", "131913.087500", "131913.547500", "131914.007500", "131914.467500", "131914.927500", "131915.387500", "131915.847500", "131916.307500", "131916.767500", "131917.227500", "131917.687500", "131918.147500", "131918.607500", "131919.067500", "131919.527500", "131919.987500", "131920.447500", "131920.907500", "131921.367500", "131921.827500", "131922.287500", "131922.747500", "131923.207500", "131923.667500", "131924.127500", "131924.587500", "131925.047500", "131925.507500", "131925.967500", "131926.427500", "131926.887500", "131927.347500", "131927.807500", "131928.267500", "131928.727500", "131929.187500", "131929.647500", "131930.107500", "131930.567500", "131931.027500", "131931.487500", "131931.947500", "131932.407500", "131932.867500", "131933.327500", "131933.787500", "131934.247500", "131934.707500", "131935.167500", "131935.627500", "131936.087500", "131936.547500", "131937.007500", "131937.467500", "131937.927500", "131938.387500", "131938.847500", "131939.307500", "131939.767500", "131940.227500", "131940.687500", "131941.147500", "131941.607500", "131942.067500", "131942.527500", "131942.987500", "131943.447500", "131943.907500", "131944.367500", "131944.827500", "131945.287500", "131945.747500", "131946.207500", "131946.667500", "131947.127500", "131947.587500", "131948.047500", "131948.507500", "131948.967500", "131949.427500", "131949.887500", "131950.347500", "131950.807500", "131951.267500", "131951.727500", "131952.187500", "131952.647500", "131953.107500", "131953.567500", "131954.027500", "131954.487500", "131954.947500", "131955.407500", "131955.867500", "131956.327500", "131956.787500", "131957.247500", "131957.707500", "131958.167500", "131958.627500", "131959.087500", "131959.547500", "132000.007500", "132000.467500", "132000.927500", "132001.387500", "132001.847500", "132002.307500", "132002.767500", "132003.227500", "132003.687500", "132004.147500", "132004.607500", "132005.067500", "132005.527500", "132005.987500", "132006.447500", "132006.907500", "132007.367500", "132007.827500", "132008.287500", "132008.747500", "132009.207500", "132009.667500", "132010.127500", "132010.587500", "132011.047500", "132011.507500", "132011.967500", "132012.427500", "132012.887500", "132013.347500", "132013.807500", "132014.267500", "132014.727500", "132015.187500", "132015.647500", "132016.107500", "132016.567500", "132017.027500", "132017.487500", "132017.947500", "132018.407500", "132018.867500", "132019.327500", "132019.787500", "132020.247500", "132020.707500", "132021.167500", "132021.627500", "132022.087500", "132022.547500", "132023.007500", "132023.467500", "132023.927500", "132024.387500", "132024.847500", "132025.307500", "132025.767500", "132026.227500", "132026.687500", "132027.147500", "132027.607500", "132028.067500", "132028.527500", "132028.987500", "132029.447500", "132029.907500", "132030.367500", "132030.827500", "132031.287500", "132031.747500", "132032.207500", "132032.667500", "132033.127500", "132033.587500", "132034.047500", "132034.507500", "132034.967500", "132035.427500", "132035.887500", "132036.347500", "132036.807500", "132037.267500", "132037.727500", "132038.187500", "132038.647500", "132039.107500", "132039.567500", "132040.027500", "132040.487500", "132040.947500", "132041.407500", "132041.867500", "132042.327500", "132042.787500", "132043.247500", "132043.707500", "132044.167500", "132044.627500", "132045.087500", "132045.547500", "132046.007500", "132046.467500", "132046.927500", "132047.387500", "132047.847500", "132048.307500", "132048.767500", "132049.227500", "132049.687500", "132050.147500", "132050.607500", "132051.067500", "132051.527500", "132051.987500", "132052.447500", "132052.907500", "132053.367500", "132053.827500", "132054.287500", "132054.747500", "132055.207500", "132055.667500", "132056.127500", "132056.587500", "132057.047500", "132057.507500", "132057.967500", "132058.427500", "132058.887500", "132059.347500", "132059.807500", "132100.267500", "132100.727500", "132101.187500", "132101.647500", "132102.107500", "132102.567500", "132103.027500", "132103.487500", "132103.947500", "132104.407500", "132104.867500", "132105.327500", "132105.787500", "132106.247500", "132106.707500", "132107.167500", "132107.627500", "132108.087500", "132108.547500", "132109.007500", "132109.467500", "132109.927500", "132110.387500", "132110.847500", "132111.307500", "132111.767500", "132112.227500", "132112.687500", "132113.147500", "132113.607500", "132114.067500", "132114.527500", "132114.987500", "132115.447500", "132115.907500", "132116.367500", "132116.827500", "132117.287500", "132117.747500", "132118.207500", "132118.667500", "132119.127500", "132119.587500", "132120.047500", "132120.507500", "132120.967500", "132121.427500", "132121.887500", "132122.347500", "132122.807500", "132123.267500", "132123.727500", "132124.187500", "132124.647500", "132125.107500", "132125.567500", "132126.027500", "132126.487500", "132126.947500", "132127.407500", "132127.867500", "132128.327500", "132128.787500", "132129.247500", "132129.707500", "132130.167500", "132130.627500", "132131.087500", "132131.547500", "132132.007500", "132132.467500", "132132.927500", "132133.387500", "132133.847500", "132134.307500", "132134.767500", "132135.227500", "132135.687500", "132136.147500", "132136.607500", "132137.067500", "132137.527500", "132137.987500", "132138.447500", "132138.907500", "132139.367500", "132139.827500", "132140.287500", "132140.747500", "132141.207500", "132141.667500", "132142.127500", "132142.587500", "132143.047500", "132143.507500", "132143.967500", "132144.427500", "132144.887500", "132145.347500", "132145.807500", "132146.267500", "132146.727500", "132147.187500", "132147.647500", "132148.107500", "132148.567500", "132149.027500", "132149.487500", "132149.947500", "132150.407500", "132150.867500", "132151.327500", "132151.787500", "132152.247500", "132152.707500", "132153.167500", "132153.627500", "132154.087500", "132154.547500", "132155.007500", "132155.467500", "132155.927500", "132156.387500", "132156.847500", "132157.307500", "132157.767500", "132158.227500", "132158.687500", "132159.147500", "132159.607500", "132200.067500", "132200.527500", "132200.987500", "132201.447500", "132201.907500", "132202.367500", "132202.827500", "132203.287500", "132203.747500", "132204.207500", "132204.667500", "132205.127500", "132205.587500", "132206.047500", "132206.507500", "132206.967500", "132207.427500", "132207.887500", "132208.347500", "132208.807500", "132209.267500", "132209.727500", "132210.187500", "132210.647500", "132211.107500", "132211.567500", "132212.027500", "132212.487500", "132212.947500", "132213.407500", "132213.867500", "132214.327500", "132214.787500", "132215.247500", "132215.707500", "132216.167500", "132216.627500", "132217.087500", "132217.547500", "132218.007500", "132218.467500", "132218.927500", "132219.387500", "132219.847500", "132220.307500", "132220.767500", "132221.227500", "132221.687500", "132222.147500", "132222.607500", "132223.067500", "132223.527500", "132223.987500", "132224.447500", "132224.907500", "132225.367500", "132225.827500", "132226.287500", "132226.747500", "132227.207500", "132227.667500", "132228.127500", "132228.587500", "132229.047500", "132229.507500", "132229.967500", "132230.427500", "132230.887500", "132231.347500", "132231.807500", "132232.267500", "132232.727500", "132233.187500", "132233.647500", "132234.107500", "132234.567500", "132235.027500", "132235.487500", "132235.947500", "132236.407500", "132236.867500", "132237.327500", "132237.787500", "132238.247500", "132238.707500", "132239.167500", "132239.627500", "132240.087500", "132240.547500", "132241.007500", "132241.467500", "132241.927500", "132242.387500", "132242.847500", "132243.307500", "132243.767500", "132244.227500", "132244.687500", "132245.147500", "132245.607500", "132246.067500", "132246.527500", "132246.987500", "132247.447500", "132247.907500", "132248.367500", "132248.827500", "132249.287500", "132249.747500", "132250.207500", "132250.667500", "132251.127500", "132251.587500", "132252.047500", "132252.507500", "132252.967500", "132253.427500", "132253.887500", "132254.347500", "132254.807500", "132255.267500", "132255.727500", "132256.187500", "132256.647500", "132257.107500", "132257.567500", "132258.027500", "132258.487500", "132258.947500", "132259.407500", "132259.867500", "132300.327500", "132300.787500", "132301.247500", "132301.707500", "132302.167500", "132302.627500", "132303.087500", "132303.547500", "132304.007500", "132304.467500", "132304.927500", "132305.387500", "132305.847500", "132306.307500", "132306.767500", "132307.227500", "132307.687500", "132308.147500", "132308.607500", "132309.067500", "132309.527500", "132309.987500", "132310.447500", "132310.907500", "132311.367500", "132311.827500", "132312.287500", "132312.747500", "132313.207500", "132313.667500", "132314.127500", "132314.587500", "132315.047500", "132315.507500", "132315.967500", "132316.427500", "132316.887500", "132317.347500", "132317.807500", "132318.267500", "132318.727500", "132319.187500", "132319.647500", "132320.107500", "132320.567500", "132321.027500", "132321.487500", "132321.947500", "132322.407500", "132322.867500", "132323.327500", "132323.787500", "132324.247500", "132324.707500", "132325.167500", "132325.627500", "132326.087500", "132326.547500", "132327.007500", "132327.467500", "132327.927500", "132328.387500", "132328.847500", "132329.307500", "132329.767500", "132330.227500", "132330.687500", "132331.147500", "132331.607500", "132332.067500", "132332.527500", "132332.987500", "132333.447500", "132333.907500", "132334.367500", "132334.827500", "132335.287500", "132335.747500", "132336.207500", "132336.667500", "132337.127500", "132337.587500", "132338.047500", "132338.507500", "132338.967500", "132339.427500", "132339.887500", "132340.347500", "132340.807500", "132341.267500", "132341.727500", "132342.187500", "132342.647500", "132343.107500", "132343.567500", "132344.027500", "132344.487500", "132344.947500", "132345.407500", "132345.867500", "132346.327500", "132346.787500", "132347.247500", "132347.707500", "132348.167500", "132348.627500", "132349.087500", "132349.547500", "132350.007500", "132350.467500", "132350.927500", "132351.387500", "132351.847500", "132352.307500", "132352.767500", "132353.227500", "132353.687500", "132354.147500", "132354.607500", "132355.067500", "132355.527500", "132355.987500", "132356.447500", "132356.907500", "132357.367500", "132357.827500", "132358.287500", "132358.747500", "132359.207500", "132359.667500", "132400.127500", "132400.587500", "132401.047500", "132401.507500", "132401.967500", "132402.427500", "132402.887500", "132403.347500", "132403.807500", "132404.267500", "132404.727500", "132405.187500", "132405.647500", "132406.107500", "132406.567500", "132407.027500", "132407.487500", "132407.947500", "132408.407500", "132408.867500", "132409.327500", "132409.787500", "132410.247500", "132410.707500", "132411.167500", "132411.627500", "132412.087500", "132412.547500", "132413.007500", "132413.467500", "132413.927500", "132414.387500", "132414.847500", "132415.307500", "132415.767500", "132416.227500", "132416.687500", "132417.147500", "132417.607500", "132418.067500", "132418.527500", "132418.987500", "132419.447500", "132419.907500", "132420.367500", "132420.827500", "132421.287500", "132421.747500", "132422.207500", "132422.667500", "132423.127500", "132423.587500", "132424.047500", "132424.507500"],
