{
  "AcquisitionMatrixPE": 82,
  "AcquisitionNumber": 1,
  "AcquisitionTime": "09:26:59.415000",
  "BandwidthPerPixelPhaseEncode": 24.888,
  "BaseResolution": 82,
  "BodyPartExamined": "BRAIN",
  "ConsistencyInfo": "N4_VE11E_LATEST_20181129",
  "ConversionSoftware": "dcm2niix",
  "ConversionSoftwareVersion": "v1.0.20201102",
  "DerivedVendorReportedEchoSpacing": 0.00049,
  "DeviceSerialNumber": "66112",
  "DwellTime": 2e-06,
  "EchoTime": 0.0272,
  "EchoTrainLength": 82,
  "EffectiveEchoSpacing": 0.00049,
  "FlipAngle": 44,
  "ImageComments": "Unaliased MB8/PE3",
  "ImageOrientationPatientDICOM": [0.999595, 0.0113519, 0.0261012, -0.0104681, 0.999376, -0.0337491],
  "ImageType": [
    "ORIGINAL",
    "PRIMARY",
    "M",
    "MB",
    "ND",
    "NORM",
    "MOSAIC"
],
  "ImagingFrequency": 123.252,
  "InPlanePhaseEncodingDirectionDICOM": "COL",
  "InstitutionAddress": "Maynard 3,Hanover,NH,US,03755",
  "InstitutionName": "Dartmouth College - PBS",
  "InstitutionalDepartmentName": "Department",
  "MRAcquisitionType": "2D",
  "MagneticFieldStrength": 3,
  "Manufacturer": "Siemens",
  "ManufacturersModelName": "Prisma",
  "Modality": "MR",
  "MultibandAccelerationFactor": 8,
  "PartialFourier": 1,
  "PatientPosition": "HFS",
  "PercentPhaseFOV": 100,
  "PercentSampling": 100,
  "PhaseEncodingDirection": "j-",
  "PhaseEncodingSteps": 82,
  "PhaseResolution": 1,
  "PixelBandwidth": 3050,
  "ProcedureStepDescription": "Wager_Wager^1076_spacetop",
  "ProtocolName": "func_run-05_task-social_acq-ap-mb8",
  "PulseSequenceDetails": "%CustomerSeq%\\cmrr_mbep2d_bold",
  "ReceiveCoilActiveElements": "HEA;HEP",
  "ReceiveCoilName": "Head_32",
  "ReconMatrixPE": 82,
  "RepetitionTime": 0.46,
  "SAR": 0.0861423,
  "ScanOptions": "FS",
  "ScanningSequence": "EP",
  "SequenceName": "epfid2d1_82",
  "SequenceVariant": "SK\\SS",
  "SeriesDescription": "func_run-05_task-social_acq-ap-mb8",
  "SeriesNumber": 18,
  "ShimSetting": [4148, -7723, -7322, 477, -16, -125, 20, 63],
  "SliceThickness": 2.7,
  "SliceTiming": [0, 0.2525, 0.0625, 0.315, 0.125, 0.3775, 0.1875, 0, 0.2525, 0.0625, 0.315, 0.125, 0.3775, 0.1875, 0, 0.2525, 0.0625, 0.315, 0.125, 0.3775, 0.1875, 0, 0.2525, 0.0625, 0.315, 0.125, 0.3775, 0.1875, 0, 0.2525, 0.0625, 0.315, 0.125, 0.3775, 0.1875, 0, 0.2525, 0.0625, 0.315, 0.125, 0.3775, 0.1875, 0, 0.2525, 0.0625, 0.315, 0.125, 0.3775, 0.1875, 0, 0.2525, 0.0625, 0.315, 0.125, 0.3775, 0.1875],
  "SoftwareVersions": "syngo MR E11",
  "SpacingBetweenSlices": 2.7,
  "StationName": "AWP66112",
  "TaskName": "social",
  "TotalReadoutTime": 0.03969,
  "TxRefAmp": 252.301,
  "WipMemBlock": "798a2eb2-6191-4700-ad56-548a9d6081a6||Sequence: R016 ve11e/master r/434b28f1; Aug  7 2019 18:53:46 by eja",
  "dcmmeta_affine": [
    [-2.681839942932129, -0.028085269033908844, 0.07146359235048294, 110.71456909179688],
    [-0.03045627661049366, 2.6812515258789062, -0.09034789353609085, -89.01724243164062],
    [0.07002755999565125, 0.09054633229970932, 2.6975414752960205, -83.25862121582031],
    [0.0, 0.0, 0.0, 1.0]
],
  "dcmmeta_reorient_transform": [
    [0.0, -1.0, 0.0, 81.0],
    [1.0, 0.0, 0.0, 0.0],
    [0.0, 0.0, 1.0, 0.0],
    [0.0, 0.0, 0.0, 1.0]
],
  "dcmmeta_shape": [82, 82, 56, 872],
  "dcmmeta_slice_dim": 2,
  "dcmmeta_version": 0.6,
  "global": {
    "const": {
      "AccessionNumber": "A003949",
      "AcquisitionMatrix": [82, 0, 0, 82],
      "AngioFlag": "N",
      "BitsAllocated": 16,
      "BitsStored": 16,
      "BodyPartExamined": "BRAIN",
      "Columns": 656,
      "EchoNumbers": 1,
      "EchoTime": 27.2,
      "EchoTrainLength": 82,
      "FlipAngle": 44.0,
      "HighBit": 15,
      "ImageOrientationPatient": [0.99959484947475, 0.01135188432931, 0.02610118054263, -0.0104681454106, 0.99937551356007, -0.0337490863314],
      "ImagePositionPatient": [-870.0672399563, -906.42423550505, -70.035483004181],
      "ImageType": [
        "ORIGINAL",
        "PRIMARY",
        "M",
        "MB",
        "ND",
        "NORM",
        "MOSAIC"
],
      "ImagedNucleus": "1H",
      "ImagingFrequency": 123.252208,
      "InPlanePhaseEncodingDirection": "COL",
      "MRAcquisitionType": "2D",
      "MagneticFieldStrength": 3.0,
      "Manufacturer": "SIEMENS",
      "ManufacturerModelName": "Prisma",
      "Modality": "MR",
      "NumberOfAverages": 1.0,
      "NumberOfPhaseEncodingSteps": 82,
      "PercentPhaseFieldOfView": 100.0,
      "PercentSampling": 100.0,
      "PerformedProcedureStepStartTime": "083445.153000",
      "PhotometricInterpretation": "MONOCHROME2",
      "PixelBandwidth": 3050.0,
      "PixelRepresentation": 0,
      "PixelSpacing": [2.6829268932343, 2.6829268932343],
      "ProtocolName": "func_run-05_task-social_acq-ap-mb8",
      "RepetitionTime": 460.0,
      "Rows": 656,
      "SAR": 0.08614228110979,
      "SamplesPerPixel": 1,
      "ScanOptions": "FS",
      "ScanningSequence": "EP",
      "SequenceName": "epfid2d1_82",
      "SequenceVariant": [
        "SK",
        "SS"
],
      "SeriesDescription": "func_run-05_task-social_acq-ap-mb8",
      "SeriesNumber": 18,
      "SeriesTime": "092718.564000",
      "SliceLocation": -77.273708199913,
      "SliceThickness": 2.7000000476837,
      "SmallestImagePixelValue": 0,
      "SoftwareVersions": "syngo MR E11",
      "SpacingBetweenSlices": 2.7000000189678,
      "SpecificCharacterSet": "ISO_IR 100",
      "StudyID": "3",
      "StudyTime": "083445.031000",
      "TransmitCoilName": "Body",
      "VariableFlipAngleFlag": "N",
      "WindowCenterWidthExplanation": "Algo1"
    },
    "slices": {}
  },
  "time": {
    "samples": {
      "AcquisitionNumber": [1, 2, 3, 4, 5, 6, 7, 8, 9, 10, 11, 12, 13, 14, 15, 16, 17, 18, 19, 20, 21, 22, 23, 24, 25, 26, 27, 28, 29, 30, 31, 32, 33, 34, 35, 36, 37, 38, 39, 40, 41, 42, 43, 44, 45, 46, 47, 48, 49, 50, 51, 52, 53, 54, 55, 56, 57, 58, 59, 60, 61, 62, 63, 64, 65, 66, 67, 68, 69, 70, 71, 72, 73, 74, 75, 76, 77, 78, 79, 80, 81, 82, 83, 84, 85, 86, 87, 88, 89, 90, 91, 92, 93, 94, 95, 96, 97, 98, 99, 100, 101, 102, 103, 104, 105, 106, 107, 108, 109, 110, 111, 112, 113, 114, 115, 116, 117, 118, 119, 120, 121, 122, 123, 124, 125, 126, 127, 128, 129, 130, 131, 132, 133, 134, 135, 136, 137, 138, 139, 140, 141, 142, 143, 144, 145, 146, 147, 148, 149, 150, 151, 152, 153, 154, 155, 156, 157, 158, 159, 160, 161, 162, 163, 164, 165, 166, 167, 168, 169, 170, 171, 172, 173, 174, 175, 176, 177, 178, 179, 180, 181, 182, 183, 184, 185, 186, 187, 188, 189, 190, 191, 192, 193, 194, 195, 196, 197, 198, 199, 200, 201, 202, 203, 204, 205, 206, 207, 208, 209, 210, 211, 212, 213, 214, 215, 216, 217, 218, 219, 220, 221, 222, 223, 224, 225, 226, 227, 228, 229, 230, 231, 232, 233, 234, 235, 236, 237, 238, 239, 240, 241, 242, 243, 244, 245, 246, 247, 248, 249, 250, 251, 252, 253, 254, 255, 256, 257, 258, 259, 260, 261, 262, 263, 264, 265, 266, 267, 268, 269, 270, 271, 272, 273, 274, 275, 276, 277, 278, 279, 280, 281, 282, 283, 284, 285, 286, 287, 288, 289, 290, 291, 292, 293, 294, 295, 296, 297, 298, 299, 300, 301, 302, 303, 304, 305, 306, 307, 308, 309, 310, 311, 312, 313, 314, 315, 316, 317, 318, 319, 320, 321, 322, 323, 324, 325, 326, 327, 328, 329, 330, 331, 332, 333, 334, 335, 336, 337, 338, 339, 340, 341, 342, 343, 344, 345, 346, 347, 348, 349, 350, 351, 352, 353, 354, 355, 356, 357, 358, 359, 360, 361, 362, 363, 364, 365, 366, 367, 368, 369, 370, 371, 372, 373, 374, 375, 376, 377, 378, 379, 380, 381, 382, 383, 384, 385, 386, 387, 388, 389, 390, 391, 392, 393, 394, 395, 396, 397, 398, 399, 400, 401, 402, 403, 404, 405, 406, 407, 408, 409, 410, 411, 412, 413, 414, 415, 416, 417, 418, 419, 420, 421, 422, 423, 424, 425, 426, 427, 428, 429, 430, 431, 432, 433, 434, 435, 436, 437, 438, 439, 440, 441, 442, 443, 444, 445, 446, 447, 448, 449, 450, 451, 452, 453, 454, 455, 456, 457, 458, 459, 460, 461, 462, 463, 464, 465, 466, 467, 468, 469, 470, 471, 472, 473, 474, 475, 476, 477, 478, 479, 480, 481, 482, 483, 484, 485, 486, 487, 488, 489, 490, 491, 492, 493, 494, 495, 496, 497, 498, 499, 500, 501, 502, 503, 504, 505, 506, 507, 508, 509, 510, 511, 512, 513, 514, 515, 516, 517, 518, 519, 520, 521, 522, 523, 524, 525, 526, 527, 528, 529, 530, 531, 532, 533, 534, 535, 536, 537, 538, 539, 540, 541, 542, 543, 544, 545, 546, 547, 548, 549, 550, 551, 552, 553, 554, 555, 556, 557, 558, 559, 560, 561, 562, 563, 564, 565, 566, 567, 568, 569, 570, 571, 572, 573, 574, 575, 576, 577, 578, 579, 580, 581, 582, 583, 584, 585, 586, 587, 588, 589, 590, 591, 592, 593, 594, 595, 596, 597, 598, 599, 600, 601, 602, 603, 604, 605, 606, 607, 608, 609, 610, 611, 612, 613, 614, 615, 616, 617, 618, 619, 620, 621, 622, 623, 624, 625, 626, 627, 628, 629, 630, 631, 632, 633, 634, 635, 636, 637, 638, 639, 640, 641, 642, 643, 644, 645, 646, 647, 648, 649, 650, 651, 652, 653, 654, 655, 656, 657, 658, 659, 660, 661, 662, 663, 664, 665, 666, 667, 668, 669, 670, 671, 672, 673, 674, 675, 676, 677, 678, 679, 680, 681, 682, 683, 684, 685, 686, 687, 688, 689, 690, 691, 692, 693, 694, 695, 696, 697, 698, 699, 700, 701, 702, 703, 704, 705, 706, 707, 708, 709, 710, 711, 712, 713, 714, 715, 716, 717, 718, 719, 720, 721, 722, 723, 724, 725, 726, 727, 728, 729, 730, 731, 732, 733, 734, 735, 736, 737, 738, 739, 740, 741, 742, 743, 744, 745, 746, 747, 748, 749, 750, 751, 752, 753, 754, 755, 756, 757, 758, 759, 760, 761, 762, 763, 764, 765, 766, 767, 768, 769, 770, 771, 772, 773, 774, 775, 776, 777, 778, 779, 780, 781, 782, 783, 784, 785, 786, 787, 788, 789, 790, 791, 792, 793, 794, 795, 796, 797, 798, 799, 800, 801, 802, 803, 804, 805, 806, 807, 808, 809, 810, 811, 812, 813, 814, 815, 816, 817, 818, 819, 820, 821, 822, 823, 824, 825, 826, 827, 828, 829, 830, 831, 832, 833, 834, 835, 836, 837, 838, 839, 840, 841, 842, 843, 844, 845, 846, 847, 848, 849, 850, 851, 852, 853, 854, 855, 856, 857, 858, 859, 860, 861, 862, 863, 864, 865, 866, 867, 868, 869, 870, 871, 872],
      "AcquisitionTime": ["092659.415000", "092659.875000", "092700.335000", "092700.795000", "092701.255000", "092701.715000", "092702.175000", "092702.635000", "092703.095000", "092703.555000", "092704.015000", "092704.475000", "092704.935000", "092705.395000", "092705.855000", "092706.315000", "092706.775000", "092707.235000", "092707.695000", "092708.155000", "092708.615000", "092709.075000", "092709.535000", "092709.995000", "092710.455000", "092710.915000", "092711.375000", "092711.835000", "092712.295000", "092712.755000", "092713.215000", "092713.675000", "092714.135000", "092714.595000", "092715.055000", "092715.515000", "092715.975000", "092716.435000", "092716.895000", "092717.355000", "092717.815000", "092718.275000", "092718.735000", "092719.195000", "092719.655000", "092720.115000", "092720.575000", "092721.035000", "092721.495000", "092721.955000", "092722.415000", "092722.875000", "092723.335000", "092723.795000", "092724.255000", "092724.715000", "092725.175000", "092725.635000", "092726.095000", "092726.555000", "092727.015000", "092727.475000", "092727.935000", "092728.395000", "092728.855000", "092729.315000", "092729.775000", "092730.235000", "092730.695000", "092731.155000", "092731.615000", "092732.075000", "092732.535000", "092732.995000", "092733.455000", "092733.915000", "092734.375000", "092734.835000", "092735.295000", "092735.755000", "092736.215000", "092736.675000", "092737.135000", "092737.595000", "092738.055000", "092738.515000", "092738.975000", "092739.435000", "092739.895000", "092740.355000", "092740.815000", "092741.275000", "092741.735000", "092742.195000", "092742.655000", "092743.115000", "092743.575000", "092744.035000", "092744.495000", "092744.955000", "092745.415000", "092745.875000", "092746.335000", "092746.795000", "092747.255000", "092747.715000", "092748.175000", "092748.635000", "092749.095000", "092749.555000", "092750.015000", "092750.475000", "092750.935000", "092751.395000", "092751.855000", "092752.315000", "092752.775000", "092753.235000", "092753.695000", "092754.155000", "092754.615000", "092755.075000", "092755.535000", "092755.995000", "092756.455000", "092756.915000", "092757.375000", "092757.835000", "092758.295000", "092758.755000", "092759.215000", "092759.675000", "092800.135000", "092800.595000", "092801.055000", "092801.515000", "092801.975000", "092802.435000", "092802.895000", "092803.355000", "092803.815000", "092804.275000", "092804.735000", "092805.195000", "092805.655000", "092806.115000", "092806.575000", "092807.035000", "092807.495000", "092807.955000", "092808.415000", "092808.875000", "092809.335000", "092809.795000", "092810.255000", "092810.715000", "092811.175000", "092811.635000", "092812.095000", "092812.555000", "092813.015000", "092813.475000", "092813.935000", "092814.395000", "092814.855000", "092815.315000", "092815.775000", "092816.235000", "092816.695000", "092817.155000", "092817.615000", "092818.075000", "092818.535000", "092818.995000", "092819.455000", "092819.915000", "092820.375000", "092820.835000", "092821.295000", "092821.755000", "092822.215000", "092822.675000", "092823.135000", "092823.595000", "092824.055000", "092824.515000", "092824.975000", "092825.435000", "092825.895000", "092826.355000", "092826.815000", "092827.275000", "092827.735000", "092828.195000", "092828.655000", "092829.115000", "092829.575000", "092830.035000", "092830.495000", "092830.955000", "092831.415000", "092831.875000", "092832.335000", "092832.795000", "092833.255000", "092833.715000", "092834.175000", "092834.635000", "092835.095000", "092835.555000", "092836.015000", "092836.475000", "092836.935000", "092837.395000", "092837.855000", "092838.315000", "092838.775000", "092839.235000", "092839.695000", "092840.155000", "092840.615000", "092841.075000", "092841.535000", "092841.995000", "092842.455000", "092842.915000", "092843.375000", "092843.835000", "092844.295000", "092844.755000", "092845.215000", "092845.675000", "092846.135000", "092846.595000", "092847.055000", "092847.515000", "092847.975000", "092848.435000", "092848.895000", "092849.355000", "092849.815000", "092850.275000", "092850.735000", "092851.195000", "092851.655000", "092852.115000", "092852.575000", "092853.035000", "092853.495000", "092853.955000", "092854.415000", "092854.875000", "092855.335000", "092855.795000", "092856.255000", "092856.715000", "092857.175000", "092857.635000", "092858.095000", "092858.555000", "092859.015000", "092859.475000", "092859.935000", "092900.395000", "092900.855000", "092901.315000", "092901.775000", "092902.235000", "092902.695000", "092903.155000", "092903.615000", "092904.075000", "092904.535000", "092904.995000", "092905.455000", "092905.915000", "092906.375000", "092906.835000", "092907.295000", "092907.755000", "092908.215000", "092908.675000", "092909.135000", "092909.595000", "092910.055000", "092910.515000", "092910.975000", "092911.435000", "092911.895000", "092912.355000", "092912.815000", "092913.275000", "092913.735000", "092914.195000", "092914.655000", "092915.115000", "092915.575000", "092916.035000", "092916.495000", "092916.955000", "092917.415000", "092917.875000", "092918.335000", "092918.795000", "092919.255000", "092919.715000", "092920.175000", "092920.635000", "092921.095000", "092921.555000", "092922.015000", "092922.475000", "092922.935000", "092923.395000", "092923.855000", "092924.315000", "092924.775000", "092925.235000", "092925.695000", "092926.155000", "092926.615000", "092927.075000", "092927.535000", "092927.995000", "092928.455000", "092928.915000", "092929.375000", "092929.835000", "092930.295000", "092930.755000", "092931.215000", "092931.675000", "092932.135000", "092932.595000", "092933.055000", "092933.515000", "092933.975000", "092934.435000", "092934.895000", "092935.355000", "092935.815000", "092936.275000", "092936.735000", "092937.195000", "092937.655000", "092938.115000", "092938.575000", "092939.035000", "092939.495000", "092939.955000", "092940.415000", "092940.875000", "092941.335000", "092941.795000", "092942.255000", "092942.715000", "092943.175000", "092943.635000", "092944.095000", "092944.555000", "092945.015000", "092945.475000", "092945.935000", "092946.395000", "092946.855000", "092947.315000", "092947.775000", "092948.235000", "092948.695000", "092949.155000", "092949.615000", "092950.075000", "092950.535000", "092950.995000", "092951.455000", "092951.915000", "092952.375000", "092952.835000", "092953.295000", "092953.755000", "092954.215000", "092954.675000", "092955.135000", "092955.595000", "092956.055000", "092956.515000", "092956.975000", "092957.435000", "092957.895000", "092958.355000", "092958.815000", "092959.275000", "092959.735000", "093000.195000", "093000.655000", "093001.115000", "093001.575000", "093002.035000", "093002.495000", "093002.955000", "093003.415000", "093003.875000", "093004.335000", "093004.795000", "093005.255000", "093005.715000", "093006.175000", "093006.635000", "093007.095000", "093007.555000", "093008.015000", "093008.475000", "093008.935000", "093009.395000", "093009.855000", "093010.315000", "093010.775000", "093011.235000", "093011.695000", "093012.155000", "093012.615000", "093013.075000", "093013.535000", "093013.995000", "093014.455000", "093014.915000", "093015.375000", "093015.835000", "093016.295000", "093016.755000", "093017.215000", "093017.675000", "093018.135000", "093018.595000", "093019.055000", "093019.515000", "093019.975000", "093020.435000", "093020.895000", "093021.355000", "093021.815000", "093022.275000", "093022.735000", "093023.195000", "093023.655000", "093024.115000", "093024.575000", "093025.035000", "093025.495000", "093025.955000", "093026.415000", "093026.875000", "093027.335000", "093027.795000", "093028.255000", "093028.715000", "093029.175000", "093029.635000", "093030.095000", "093030.555000", "093031.015000", "093031.475000", "093031.935000", "093032.395000", "093032.855000", "093033.315000", "093033.775000", "093034.235000", "093034.695000", "093035.155000", "093035.615000", "093036.075000", "093036.535000", "093036.995000", "093037.455000", "093037.915000", "093038.375000", "093038.835000", "093039.295000", "093039.755000", "093040.215000", "093040.675000", "093041.135000", "093041.595000", "093042.055000", "093042.515000", "093042.975000", "093043.435000", "093043.895000", "093044.355000", "093044.815000", "093045.275000", "093045.735000", "093046.195000", "093046.655000", "093047.115000", "093047.575000", "093048.035000", "093048.495000", "093048.955000", "093049.415000", "093049.875000", "093050.335000", "093050.795000", "093051.255000", "093051.715000", "093052.175000", "093052.635000", "093053.095000", "093053.555000", "093054.015000", "093054.475000", "093054.935000", "093055.395000", "093055.855000", "093056.315000", "093056.775000", "093057.235000", "093057.695000", "093058.155000", "093058.615000", "093059.075000", "093059.535000", "093059.995000", "093100.455000", "093100.915000", "093101.375000", "093101.835000", "093102.295000", "093102.755000", "093103.215000", "093103.675000", "093104.135000", "093104.595000", "093105.055000", "093105.515000", "093105.975000", "093106.435000", "093106.895000", "093107.355000", "093107.815000", "093108.275000", "093108.735000", "093109.195000", "093109.655000", "093110.115000", "093110.575000", "093111.035000", "093111.495000", "093111.955000", "093112.415000", "093112.875000", "093113.335000", "093113.795000", "093114.255000", "093114.715000", "093115.175000", "093115.635000", "093116.095000", "093116.555000", "093117.015000", "093117.475000", "093117.935000", "093118.395000", "093118.855000", "093119.315000", "093119.775000", "093120.235000", "093120.695000", "093121.155000", "093121.615000", "093122.075000", "093122.535000", "093122.995000", "093123.455000", "093123.915000", "093124.375000", "093124.835000", "093125.295000", "093125.755000", "093126.215000", "093126.675000", "093127.135000", "093127.595000", "093128.055000", "093128.515000", "093128.975000", "093129.435000", "093129.895000", "093130.355000", "093130.815000", "093131.275000", "093131.735000", "093132.195000", "093132.655000", "093133.115000", "093133.575000", "093134.035000", "093134.495000", "093134.955000", "093135.415000", "093135.875000", "093136.335000", "093136.795000", "093137.255000", "093137.715000", "093138.175000", "093138.635000", "093139.095000", "093139.555000", "093140.015000", "093140.475000", "093140.935000", "093141.395000", "093141.855000", "093142.315000", "093142.775000", "093143.235000", "093143.695000", "093144.155000", "093144.615000", "093145.075000", "093145.535000", "093145.995000", "093146.455000", "093146.915000", "093147.375000", "093147.835000", "093148.295000", "093148.755000", "093149.215000", "093149.675000", "093150.135000", "093150.595000", "093151.055000", "093151.515000", "093151.975000", "093152.435000", "093152.895000", "093153.355000", "093153.815000", "093154.275000", "093154.735000", "093155.195000", "093155.655000", "093156.115000", "093156.575000", "093157.035000", "093157.495000", "093157.955000", "093158.415000", "093158.875000", "093159.335000", "093159.795000", "093200.255000", "093200.715000", "093201.175000", "093201.635000", "093202.095000", "093202.555000", "093203.015000", "093203.475000", "093203.935000", "093204.395000", "093204.855000", "093205.315000", "093205.775000", "093206.235000", "093206.695000", "093207.155000", "093207.615000", "093208.075000", "093208.535000", "093208.995000", "093209.455000", "093209.915000", "093210.375000", "093210.835000", "093211.295000", "093211.755000", "093212.215000", "093212.675000", "093213.135000", "093213.595000", "093214.055000", "093214.515000", "093214.975000", "093215.435000", "093215.895000", "093216.355000", "093216.815000", "093217.275000", "093217.735000", "093218.195000", "093218.655000", "093219.115000", "093219.575000", "093220.035000", "093220.495000", "093220.955000", "093221.415000", "093221.875000", "093222.335000", "093222.795000", "093223.255000", "093223.715000", "093224.175000", "093224.635000", "093225.095000", "093225.555000", "093226.015000", "093226.475000", "093226.935000", "093227.395000", "093227.855000", "093228.315000", "093228.775000", "093229.235000", "093229.695000", "093230.155000", "093230.615000", "093231.075000", "093231.535000", "093231.995000", "093232.455000", "093232.915000", "093233.375000", "093233.835000", "093234.295000", "093234.755000", "093235.215000", "093235.675000", "093236.135000", "093236.595000", "093237.055000", "093237.515000", "093237.975000", "093238.435000", "093238.895000", "093239.355000", "093239.815000", "093240.275000", "093240.735000", "093241.195000", "093241.655000", "093242.115000", "093242.575000", "093243.035000", "093243.495000", "093243.955000", "093244.415000", "093244.875000", "093245.335000", "093245.795000", "093246.255000", "093246.715000", "093247.175000", "093247.635000", "093248.095000", "093248.555000", "093249.015000", "093249.475000", "093249.935000", "093250.395000", "093250.855000", "093251.315000", "093251.775000", "093252.235000", "093252.695000", "093253.155000", "093253.615000", "093254.075000", "093254.535000", "093254.995000", "093255.455000", "093255.915000", "093256.375000", "093256.835000", "093257.295000", "093257.755000", "093258.215000", "093258.675000", "093259.135000", "093259.595000", "093300.055000", "093300.515000", "093300.975000", "093301.435000", "093301.895000", "093302.355000", "093302.815000", "093303.275000", "093303.735000", "093304.195000", "093304.655000", "093305.115000", "093305.575000", "093306.035000", "093306.495000", "093306.955000", "093307.415000", "093307.875000", "093308.335000", "093308.795000", "093309.255000", "093309.715000", "093310.175000", "093310.635000", "093311.095000", "093311.555000", "093312.015000", "093312.475000", "093312.935000", "093313.395000", "093313.855000", "093314.315000", "093314.775000", "093315.235000", "093315.695000", "093316.155000", "093316.615000", "093317.075000", "093317.535000", "093317.995000", "093318.455000", "093318.915000", "093319.375000", "093319.835000", "093320.295000", "093320.755000", "093321.215000", "093321.675000", "093322.135000", "093322.595000", "093323.055000", "093323.515000", "093323.975000", "093324.435000", "093324.895000", "093325.355000", "093325.815000", "093326.275000", "093326.735000", "093327.195000", "093327.655000", "093328.115000", "093328.575000", "093329.035000", "093329.495000", "093329.955000", "093330.415000", "093330.875000", "093331.335000", "093331.795000", "093332.255000", "093332.715000", "093333.175000", "093333.635000", "093334.095000", "093334.555000", "093335.015000", "093335.475000", "093335.935000", "093336.395000", "093336.855000", "093337.315000", "093337.775000", "093338.235000", "093338.695000", "093339.155000", "093339.615000", "093340.075000"],
