{
  "AcquisitionMatrixPE": 82,
  "AcquisitionNumber": 1,
  "AcquisitionTime": "09:03:33.665000",
  "BandwidthPerPixelPhaseEncode": 24.888,
  "BaseResolution": 82,
  "BodyPartExamined": "BRAIN",
  "ConsistencyInfo": "N4_VE11E_LATEST_20181129",
  "ConversionSoftware": "dcm2niix",
  "ConversionSoftwareVersion": "v1.0.20201102",
  "DerivedVendorReportedEchoSpacing": 0.00049,
  "DeviceSerialNumber": "66112",
  "DwellTime": 2e-06,
  "EchoTime": 0.0272,
  "EchoTrainLength": 82,
  "EffectiveEchoSpacing": 0.00049,
  "FlipAngle": 44,
  "ImageComments": "Unaliased MB8/PE3",
  "ImageOrientationPatientDICOM": [0.999595, 0.0113519, 0.0261012, -0.0104681, 0.999376, -0.0337491],
  "ImageType": [
    "ORIGINAL",
    "PRIMARY",
    "M",
    "MB",
    "ND",
    "NORM",
    "MOSAIC"
],
  "ImagingFrequency": 123.252,
  "InPlanePhaseEncodingDirectionDICOM": "COL",
  "InstitutionAddress": "Maynard 3,Hanover,NH,US,03755",
  "InstitutionName": "Dartmouth College - PBS",
  "InstitutionalDepartmentName": "Department",
  "MRAcquisitionType": "2D",
  "MagneticFieldStrength": 3,
  "Manufacturer": "Siemens",
  "ManufacturersModelName": "Prisma",
  "Modality": "MR",
  "MultibandAccelerationFactor": 8,
  "PartialFourier": 1,
  "PatientPosition": "HFS",
  "PercentPhaseFOV": 100,
  "PercentSampling": 100,
  "PhaseEncodingDirection": "j-",
  "PhaseEncodingSteps": 82,
  "PhaseResolution": 1,
  "PixelBandwidth": 3050,
  "ProcedureStepDescription": "Wager_Wager^1076_spacetop",
  "ProtocolName": "func_run-02_task-social_acq-ap-mb8",
  "PulseSequenceDetails": "%CustomerSeq%\\cmrr_mbep2d_bold",
  "ReceiveCoilActiveElements": "HEA;HEP",
  "ReceiveCoilName": "Head_32",
  "ReconMatrixPE": 82,
  "RepetitionTime": 0.46,
  "SAR": 0.0861423,
  "ScanOptions": "FS",
  "ScanningSequence": "EP",
  "SequenceName": "epfid2d1_82",
  "SequenceVariant": "SK\\SS",
  "SeriesDescription": "func_run-02_task-social_acq-ap-mb8",
  "SeriesNumber": 12,
  "ShimSetting": [4148, -7723, -7322, 477, -16, -125, 20, 63],
  "SliceThickness": 2.7,
  "SliceTiming": [0, 0.25, 0.0625, 0.3125, 0.125, 0.375, 0.1875, 0, 0.25, 0.0625, 0.3125, 0.125, 0.375, 0.1875, 0, 0.25, 0.0625, 0.3125, 0.125, 0.375, 0.1875, 0, 0.25, 0.0625, 0.3125, 0.125, 0.375, 0.1875, 0, 0.25, 0.0625, 0.3125, 0.125, 0.375, 0.1875, 0, 0.25, 0.0625, 0.3125, 0.125, 0.375, 0.1875, 0, 0.25, 0.0625, 0.3125, 0.125, 0.375, 0.1875, 0, 0.25, 0.0625, 0.3125, 0.125, 0.375, 0.1875],
  "SoftwareVersions": "syngo MR E11",
  "SpacingBetweenSlices": 2.7,
  "StationName": "AWP66112",
  "TaskName": "social",
  "TotalReadoutTime": 0.03969,
  "TxRefAmp": 252.301,
  "WipMemBlock": "6cb6c687-4206-40a4-9a7e-d05946a7bb27||Sequence: R016 ve11e/master r/434b28f1; Aug  7 2019 18:53:46 by eja",
  "dcmmeta_affine": [
    [-2.681839942932129, -0.028085269033908844, 0.07146359235048294, 110.71456909179688],
    [-0.03045627661049366, 2.6812515258789062, -0.09034789353609085, -89.01724243164062],
    [0.07002755999565125, 0.09054633229970932, 2.6975414752960205, -83.25862121582031],
    [0.0, 0.0, 0.0, 1.0]
],
  "dcmmeta_reorient_transform": [
    [0.0, -1.0, 0.0, 81.0],
    [1.0, 0.0, 0.0, 0.0],
    [0.0, 0.0, 1.0, 0.0],
    [0.0, 0.0, 0.0, 1.0]
],
  "dcmmeta_shape": [82, 82, 56, 872],
  "dcmmeta_slice_dim": 2,
  "dcmmeta_version": 0.6,
  "global": {
    "const": {
      "AccessionNumber": "A003949",
      "AcquisitionMatrix": [82, 0, 0, 82],
      "AngioFlag": "N",
      "BitsAllocated": 16,
      "BitsStored": 16,
      "BodyPartExamined": "BRAIN",
      "Columns": 656,
      "EchoNumbers": 1,
      "EchoTime": 27.2,
      "EchoTrainLength": 82,
      "FlipAngle": 44.0,
      "HighBit": 15,
      "ImageOrientationPatient": [0.99959484947475, 0.01135188432931, 0.02610118054263, -0.0104681454106, 0.99937551356007, -0.0337490863314],
      "ImagePositionPatient": [-870.0672399563, -906.42423550505, -70.035483004181],
      "ImageType": [
        "ORIGINAL",
        "PRIMARY",
        "M",
        "MB",
        "ND",
        "NORM",
        "MOSAIC"
],
      "ImagedNucleus": "1H",
      "ImagingFrequency": 123.252198,
      "InPlanePhaseEncodingDirection": "COL",
      "MRAcquisitionType": "2D",
      "MagneticFieldStrength": 3.0,
      "Manufacturer": "SIEMENS",
      "ManufacturerModelName": "Prisma",
      "Modality": "MR",
      "NumberOfAverages": 1.0,
      "NumberOfPhaseEncodingSteps": 82,
      "PercentPhaseFieldOfView": 100.0,
      "PercentSampling": 100.0,
      "PerformedProcedureStepStartTime": "083445.153000",
      "PhotometricInterpretation": "MONOCHROME2",
      "PixelBandwidth": 3050.0,
      "PixelRepresentation": 0,
      "PixelSpacing": [2.6829268932343, 2.6829268932343],
      "ProtocolName": "func_run-02_task-social_acq-ap-mb8",
      "RepetitionTime": 460.0,
      "Rows": 656,
      "SAR": 0.08614228110979,
      "SamplesPerPixel": 1,
      "ScanOptions": "FS",
      "ScanningSequence": "EP",
      "SequenceName": "epfid2d1_82",
      "SequenceVariant": [
        "SK",
        "SS"
],
      "SeriesDescription": "func_run-02_task-social_acq-ap-mb8",
      "SeriesNumber": 12,
      "SeriesTime": "090358.564000",
      "SliceLocation": -77.273708199913,
      "SliceThickness": 2.7000000476837,
      "SmallestImagePixelValue": 0,
      "SoftwareVersions": "syngo MR E11",
      "SpacingBetweenSlices": 2.7000000189678,
      "SpecificCharacterSet": "ISO_IR 100",
      "StudyID": "3",
      "StudyTime": "083445.031000",
      "TransmitCoilName": "Body",
      "VariableFlipAngleFlag": "N",
      "WindowCenterWidthExplanation": "Algo1"
    },
    "slices": {}
  },
  "time": {
    "samples": {
      "AcquisitionNumber": [1, 2, 3, 4, 5, 6, 7, 8, 9, 10, 11, 12, 13, 14, 15, 16, 17, 18, 19, 20, 21, 22, 23, 24, 25, 26, 27, 28, 29, 30, 31, 32, 33, 34, 35, 36, 37, 38, 39, 40, 41, 42, 43, 44, 45, 46, 47, 48, 49, 50, 51, 52, 53, 54, 55, 56, 57, 58, 59, 60, 61, 62, 63, 64, 65, 66, 67, 68, 69, 70, 71, 72, 73, 74, 75, 76, 77, 78, 79, 80, 81, 82, 83, 84, 85, 86, 87, 88, 89, 90, 91, 92, 93, 94, 95, 96, 97, 98, 99, 100, 101, 102, 103, 104, 105, 106, 107, 108, 109, 110, 111, 112, 113, 114, 115, 116, 117, 118, 119, 120, 121, 122, 123, 124, 125, 126, 127, 128, 129, 130, 131, 132, 133, 134, 135, 136, 137, 138, 139, 140, 141, 142, 143, 144, 145, 146, 147, 148, 149, 150, 151, 152, 153, 154, 155, 156, 157, 158, 159, 160, 161, 162, 163, 164, 165, 166, 167, 168, 169, 170, 171, 172, 173, 174, 175, 176, 177, 178, 179, 180, 181, 182, 183, 184, 185, 186, 187, 188, 189, 190, 191, 192, 193, 194, 195, 196, 197, 198, 199, 200, 201, 202, 203, 204, 205, 206, 207, 208, 209, 210, 211, 212, 213, 214, 215, 216, 217, 218, 219, 220, 221, 222, 223, 224, 225, 226, 227, 228, 229, 230, 231, 232, 233, 234, 235, 236, 237, 238, 239, 240, 241, 242, 243, 244, 245, 246, 247, 248, 249, 250, 251, 252, 253, 254, 255, 256, 257, 258, 259, 260, 261, 262, 263, 264, 265, 266, 267, 268, 269, 270, 271, 272, 273, 274, 275, 276, 277, 278, 279, 280, 281, 282, 283, 284, 285, 286, 287, 288, 289, 290, 291, 292, 293, 294, 295, 296, 297, 298, 299, 300, 301, 302, 303, 304, 305, 306, 307, 308, 309, 310, 311, 312, 313, 314, 315, 316, 317, 318, 319, 320, 321, 322, 323, 324, 325, 326, 327, 328, 329, 330, 331, 332, 333, 334, 335, 336, 337, 338, 339, 340, 341, 342, 343, 344, 345, 346, 347, 348, 349, 350, 351, 352, 353, 354, 355, 356, 357, 358, 359, 360, 361, 362, 363, 364, 365, 366, 367, 368, 369, 370, 371, 372, 373, 374, 375, 376, 377, 378, 379, 380, 381, 382, 383, 384, 385, 386, 387, 388, 389, 390, 391, 392, 393, 394, 395, 396, 397, 398, 399, 400, 401, 402, 403, 404, 405, 406, 407, 408, 409, 410, 411, 412, 413, 414, 415, 416, 417, 418, 419, 420, 421, 422, 423, 424, 425, 426, 427, 428, 429, 430, 431, 432, 433, 434, 435, 436, 437, 438, 439, 440, 441, 442, 443, 444, 445, 446, 447, 448, 449, 450, 451, 452, 453, 454, 455, 456, 457, 458, 459, 460, 461, 462, 463, 464, 465, 466, 467, 468, 469, 470, 471, 472, 473, 474, 475, 476, 477, 478, 479, 480, 481, 482, 483, 484, 485, 486, 487, 488, 489, 490, 491, 492, 493, 494, 495, 496, 497, 498, 499, 500, 501, 502, 503, 504, 505, 506, 507, 508, 509, 510, 511, 512, 513, 514, 515, 516, 517, 518, 519, 520, 521, 522, 523, 524, 525, 526, 527, 528, 529, 530, 531, 532, 533, 534, 535, 536, 537, 538, 539, 540, 541, 542, 543, 544, 545, 546, 547, 548, 549, 550, 551, 552, 553, 554, 555, 556, 557, 558, 559, 560, 561, 562, 563, 564, 565, 566, 567, 568, 569, 570, 571, 572, 573, 574, 575, 576, 577, 578, 579, 580, 581, 582, 583, 584, 585, 586, 587, 588, 589, 590, 591, 592, 593, 594, 595, 596, 597, 598, 599, 600, 601, 602, 603, 604, 605, 606, 607, 608, 609, 610, 611, 612, 613, 614, 615, 616, 617, 618, 619, 620, 621, 622, 623, 624, 625, 626, 627, 628, 629, 630, 631, 632, 633, 634, 635, 636, 637, 638, 639, 640, 641, 642, 643, 644, 645, 646, 647, 648, 649, 650, 651, 652, 653, 654, 655, 656, 657, 658, 659, 660, 661, 662, 663, 664, 665, 666, 667, 668, 669, 670, 671, 672, 673, 674, 675, 676, 677, 678, 679, 680, 681, 682, 683, 684, 685, 686, 687, 688, 689, 690, 691, 692, 693, 694, 695, 696, 697, 698, 699, 700, 701, 702, 703, 704, 705, 706, 707, 708, 709, 710, 711, 712, 713, 714, 715, 716, 717, 718, 719, 720, 721, 722, 723, 724, 725, 726, 727, 728, 729, 730, 731, 732, 733, 734, 735, 736, 737, 738, 739, 740, 741, 742, 743, 744, 745, 746, 747, 748, 749, 750, 751, 752, 753, 754, 755, 756, 757, 758, 759, 760, 761, 762, 763, 764, 765, 766, 767, 768, 769, 770, 771, 772, 773, 774, 775, 776, 777, 778, 779, 780, 781, 782, 783, 784, 785, 786, 787, 788, 789, 790, 791, 792, 793, 794, 795, 796, 797, 798, 799, 800, 801, 802, 803, 804, 805, 806, 807, 808, 809, 810, 811, 812, 813, 814, 815, 816, 817, 818, 819, 820, 821, 822, 823, 824, 825, 826, 827, 828, 829, 830, 831, 832, 833, 834, 835, 836, 837, 838, 839, 840, 841, 842, 843, 844, 845, 846, 847, 848, 849, 850, 851, 852, 853, 854, 855, 856, 857, 858, 859, 860, 861, 862, 863, 864, 865, 866, 867, 868, 869, 870, 871, 872],
      "AcquisitionTime": ["090333.665000", "090334.125000", "090334.585000", "090335.045000", "090335.505000", "090335.965000", "090336.425000", "090336.885000", "090337.345000", "090337.805000", "090338.265000", "090338.725000", "090339.185000", "090339.645000", "090340.105000", "090340.565000", "090341.025000", "090341.485000", "090341.945000", "090342.405000", "090342.865000", "090343.325000", "090343.785000", "090344.245000", "090344.705000", "090345.165000", "090345.625000", "090346.085000", "090346.545000", "090347.005000", "090347.465000", "090347.925000", "090348.385000", "090348.845000", "090349.305000", "090349.765000", "090350.225000", "090350.685000", "090351.145000", "090351.605000", "090352.065000", "090352.525000", "090352.985000", "090353.445000", "090353.905000", "090354.365000", "090354.825000", "090355.285000", "090355.745000", "090356.205000", "090356.665000", "090357.125000", "090357.585000", "090358.045000", "090358.505000", "090358.965000", "090359.425000", "090359.885000", "090400.345000", "090400.805000", "090401.265000", "090401.725000", "090402.185000", "090402.645000", "090403.105000", "090403.565000", "090404.025000", "090404.485000", "090404.945000", "090405.405000", "090405.865000", "090406.325000", "090406.785000", "090407.245000", "090407.705000", "090408.165000", "090408.625000", "090409.085000", "090409.545000", "090410.005000", "090410.465000", "090410.925000", "090411.385000", "090411.845000", "090412.305000", "090412.765000", "090413.225000", "090413.685000", "090414.145000", "090414.605000", "090415.065000", "090415.525000", "090415.985000", "090416.445000", "090416.905000", "090417.365000", "090417.825000", "090418.285000", "090418.745000", "090419.205000", "090419.665000", "090420.125000", "090420.585000", "090421.045000", "090421.505000", "090421.965000", "090422.425000", "090422.885000", "090423.345000", "090423.805000", "090424.265000", "090424.725000", "090425.185000", "090425.645000", "090426.105000", "090426.565000", "090427.025000", "090427.485000", "090427.945000", "090428.405000", "090428.865000", "090429.325000", "090429.785000", "090430.245000", "090430.705000", "090431.165000", "090431.625000", "090432.085000", "090432.545000", "090433.005000", "090433.465000", "090433.925000", "090434.385000", "090434.845000", "090435.305000", "090435.765000", "090436.225000", "090436.685000", "090437.145000", "090437.605000", "090438.065000", "090438.525000", "090438.985000", "090439.445000", "090439.905000", "090440.365000", "090440.825000", "090441.285000", "090441.745000", "090442.205000", "090442.665000", "090443.125000", "090443.585000", "090444.045000", "090444.505000", "090444.965000", "090445.425000", "090445.885000", "090446.345000", "090446.805000", "090447.265000", "090447.725000", "090448.185000", "090448.645000", "090449.105000", "090449.565000", "090450.025000", "090450.485000", "090450.945000", "090451.405000", "090451.865000", "090452.325000", "090452.785000", "090453.245000", "090453.705000", "090454.165000", "090454.625000", "090455.085000", "090455.545000", "090456.005000", "090456.465000", "090456.925000", "090457.385000", "090457.845000", "090458.305000", "090458.765000", "090459.225000", "090459.685000", "090500.145000", "090500.605000", "090501.065000", "090501.525000", "090501.985000", "090502.445000", "090502.905000", "090503.365000", "090503.825000", "090504.285000", "090504.745000", "090505.205000", "090505.665000", "090506.125000", "090506.585000", "090507.045000", "090507.505000", "090507.965000", "090508.425000", "090508.885000", "090509.345000", "090509.805000", "090510.265000", "090510.725000", "090511.185000", "090511.645000", "090512.105000", "090512.565000", "090513.025000", "090513.485000", "090513.945000", "090514.405000", "090514.865000", "090515.325000", "090515.785000", "090516.245000", "090516.705000", "090517.165000", "090517.625000", "090518.085000", "090518.545000", "090519.005000", "090519.465000", "090519.925000", "090520.385000", "090520.845000", "090521.305000", "090521.765000", "090522.225000", "090522.685000", "090523.145000", "090523.605000", "090524.065000", "090524.525000", "090524.985000", "090525.445000", "090525.905000", "090526.365000", "090526.825000", "090527.285000", "090527.745000", "090528.205000", "090528.665000", "090529.125000", "090529.585000", "090530.045000", "090530.505000", "090530.965000", "090531.425000", "090531.885000", "090532.345000", "090532.805000", "090533.265000", "090533.725000", "090534.185000", "090534.645000", "090535.105000", "090535.565000", "090536.025000", "090536.485000", "090536.945000", "090537.405000", "090537.865000", "090538.325000", "090538.785000", "090539.245000", "090539.705000", "090540.165000", "090540.625000", "090541.085000", "090541.545000", "090542.005000", "090542.465000", "090542.925000", "090543.385000", "090543.845000", "090544.305000", "090544.765000", "090545.225000", "090545.685000", "090546.145000", "090546.605000", "090547.065000", "090547.525000", "090547.985000", "090548.445000", "090548.905000", "090549.365000", "090549.825000", "090550.285000", "090550.745000", "090551.205000", "090551.665000", "090552.125000", "090552.585000", "090553.045000", "090553.505000", "090553.965000", "090554.425000", "090554.885000", "090555.345000", "090555.805000", "090556.265000", "090556.725000", "090557.185000", "090557.645000", "090558.105000", "090558.565000", "090559.025000", "090559.485000", "090559.945000", "090600.405000", "090600.865000", "090601.325000", "090601.785000", "090602.245000", "090602.705000", "090603.165000", "090603.625000", "090604.085000", "090604.545000", "090605.005000", "090605.465000", "090605.925000", "090606.385000", "090606.845000", "090607.305000", "090607.765000", "090608.225000", "090608.685000", "090609.145000", "090609.605000", "090610.065000", "090610.525000", "090610.985000", "090611.445000", "090611.905000", "090612.365000", "090612.825000", "090613.285000", "090613.745000", "090614.205000", "090614.665000", "090615.125000", "090615.585000", "090616.045000", "090616.505000", "090616.965000", "090617.425000", "090617.885000", "090618.345000", "090618.805000", "090619.265000", "090619.725000", "090620.185000", "090620.645000", "090621.105000", "090621.565000", "090622.025000", "090622.485000", "090622.945000", "090623.405000", "090623.865000", "090624.325000", "090624.785000", "090625.245000", "090625.705000", "090626.165000", "090626.625000", "090627.085000", "090627.545000", "090628.005000", "090628.465000", "090628.925000", "090629.385000", "090629.845000", "090630.305000", "090630.765000", "090631.225000", "090631.685000", "090632.145000", "090632.605000", "090633.065000", "090633.525000", "090633.985000", "090634.445000", "090634.905000", "090635.365000", "090635.825000", "090636.285000", "090636.745000", "090637.205000", "090637.665000", "090638.125000", "090638.585000", "090639.045000", "090639.505000", "090639.965000", "090640.425000", "090640.885000", "090641.345000", "090641.805000", "090642.265000", "090642.725000", "090643.185000", "090643.645000", "090644.105000", "090644.565000", "090645.025000", "090645.485000", "090645.945000", "090646.405000", "090646.865000", "090647.325000", "090647.785000", "090648.245000", "090648.705000", "090649.165000", "090649.625000", "090650.085000", "090650.545000", "090651.005000", "090651.465000", "090651.925000", "090652.385000", "090652.845000", "090653.305000", "090653.765000", "090654.225000", "090654.685000", "090655.145000", "090655.605000", "090656.065000", "090656.525000", "090656.985000", "090657.445000", "090657.905000", "090658.365000", "090658.825000", "090659.285000", "090659.745000", "090700.205000", "090700.665000", "090701.125000", "090701.585000", "090702.045000", "090702.505000", "090702.965000", "090703.425000", "090703.885000", "090704.345000", "090704.805000", "090705.265000", "090705.725000", "090706.185000", "090706.645000", "090707.105000", "090707.565000", "090708.025000", "090708.485000", "090708.945000", "090709.405000", "090709.865000", "090710.325000", "090710.785000", "090711.245000", "090711.705000", "090712.165000", "090712.625000", "090713.085000", "090713.545000", "090714.005000", "090714.465000", "090714.925000", "090715.385000", "090715.845000", "090716.305000", "090716.765000", "090717.225000", "090717.685000", "090718.145000", "090718.605000", "090719.065000", "090719.525000", "090719.985000", "090720.445000", "090720.905000", "090721.365000", "090721.825000", "090722.285000", "090722.745000", "090723.205000", "090723.665000", "090724.125000", "090724.585000", "090725.045000", "090725.505000", "090725.965000", "090726.425000", "090726.885000", "090727.345000", "090727.805000", "090728.265000", "090728.725000", "090729.185000", "090729.645000", "090730.105000", "090730.565000", "090731.025000", "090731.485000", "090731.945000", "090732.405000", "090732.865000", "090733.325000", "090733.785000", "090734.245000", "090734.705000", "090735.165000", "090735.625000", "090736.085000", "090736.545000", "090737.005000", "090737.465000", "090737.925000", "090738.385000", "090738.845000", "090739.305000", "090739.765000", "090740.225000", "090740.685000", "090741.145000", "090741.605000", "090742.065000", "090742.525000", "090742.985000", "090743.445000", "090743.905000", "090744.365000", "090744.825000", "090745.285000", "090745.745000", "090746.205000", "090746.665000", "090747.125000", "090747.585000", "090748.045000", "090748.505000", "090748.965000", "090749.425000", "090749.885000", "090750.345000", "090750.805000", "090751.265000", "090751.725000", "090752.185000", "090752.645000", "090753.105000", "090753.565000", "090754.025000", "090754.485000", "090754.945000", "090755.405000", "090755.865000", "090756.325000", "090756.785000", "090757.245000", "090757.705000", "090758.165000", "090758.625000", "090759.085000", "090759.545000", "090800.005000", "090800.465000", "090800.925000", "090801.385000", "090801.845000", "090802.305000", "090802.765000", "090803.225000", "090803.685000", "090804.145000", "090804.605000", "090805.065000", "090805.525000", "090805.985000", "090806.445000", "090806.905000", "090807.365000", "090807.825000", "090808.285000", "090808.745000", "090809.205000", "090809.665000", "090810.125000", "090810.585000", "090811.045000", "090811.505000", "090811.965000", "090812.425000", "090812.885000", "090813.345000", "090813.805000", "090814.265000", "090814.725000", "090815.185000", "090815.645000", "090816.105000", "090816.565000", "090817.025000", "090817.485000", "090817.945000", "090818.405000", "090818.865000", "090819.325000", "090819.785000", "090820.245000", "090820.705000", "090821.165000", "090821.625000", "090822.085000", "090822.545000", "090823.005000", "090823.465000", "090823.925000", "090824.385000", "090824.845000", "090825.305000", "090825.765000", "090826.225000", "090826.685000", "090827.145000", "090827.605000", "090828.065000", "090828.525000", "090828.985000", "090829.445000", "090829.905000", "090830.365000", "090830.825000", "090831.285000", "090831.745000", "090832.205000", "090832.665000", "090833.125000", "090833.585000", "090834.045000", "090834.505000", "090834.965000", "090835.425000", "090835.885000", "090836.345000", "090836.805000", "090837.265000", "090837.725000", "090838.185000", "090838.645000", "090839.105000", "090839.565000", "090840.025000", "090840.485000", "090840.945000", "090841.405000", "090841.865000", "090842.325000", "090842.785000", "090843.245000", "090843.705000", "090844.165000", "090844.625000", "090845.085000", "090845.545000", "090846.005000", "090846.465000", "090846.925000", "090847.385000", "090847.845000", "090848.305000", "090848.765000", "090849.225000", "090849.685000", "090850.145000", "090850.605000", "090851.065000", "090851.525000", "090851.985000", "090852.445000", "090852.905000", "090853.365000", "090853.825000", "090854.285000", "090854.745000", "090855.205000", "090855.665000", "090856.125000", "090856.585000", "090857.045000", "090857.505000", "090857.965000", "090858.425000", "090858.885000", "090859.345000", "090859.805000", "090900.265000", "090900.725000", "090901.185000", "090901.645000", "090902.105000", "090902.565000", "090903.025000", "090903.485000", "090903.945000", "090904.405000", "090904.865000", "090905.325000", "090905.785000", "090906.245000", "090906.705000", "090907.165000", "090907.625000", "090908.085000", "090908.545000", "090909.005000", "090909.465000", "090909.925000", "090910.385000", "090910.845000", "090911.305000", "090911.765000", "090912.225000", "090912.685000", "090913.145000", "090913.605000", "090914.065000", "090914.525000", "090914.985000", "090915.445000", "090915.905000", "090916.365000", "090916.825000", "090917.285000", "090917.745000", "090918.205000", "090918.665000", "090919.125000", "090919.585000", "090920.045000", "090920.505000", "090920.965000", "090921.425000", "090921.885000", "090922.345000", "090922.805000", "090923.265000", "090923.725000", "090924.185000", "090924.645000", "090925.105000", "090925.565000", "090926.025000", "090926.485000", "090926.945000", "090927.405000", "090927.865000", "090928.325000", "090928.785000", "090929.245000", "090929.705000", "090930.165000", "090930.625000", "090931.085000", "090931.545000", "090932.005000", "090932.465000", "090932.925000", "090933.385000", "090933.845000", "090934.305000", "090934.765000", "090935.225000", "090935.685000", "090936.145000", "090936.605000", "090937.065000", "090937.525000", "090937.985000", "090938.445000", "090938.905000", "090939.365000", "090939.825000", "090940.285000", "090940.745000", "090941.205000", "090941.665000", "090942.125000", "090942.585000", "090943.045000", "090943.505000", "090943.965000", "090944.425000", "090944.885000", "090945.345000", "090945.805000", "090946.265000", "090946.725000", "090947.185000", "090947.645000", "090948.105000", "090948.565000", "090949.025000", "090949.485000", "090949.945000", "090950.405000", "090950.865000", "090951.325000", "090951.785000", "090952.245000", "090952.705000", "090953.165000", "090953.625000", "090954.085000", "090954.545000", "090955.005000", "090955.465000", "090955.925000", "090956.385000", "090956.845000", "090957.305000", "090957.765000", "090958.225000", "090958.685000", "090959.145000", "090959.605000", "091000.065000", "091000.525000", "091000.985000", "091001.445000", "091001.905000", "091002.365000", "091002.825000", "091003.285000", "091003.745000", "091004.205000", "091004.665000", "091005.125000", "091005.585000", "091006.045000", "091006.505000", "091006.965000", "091007.425000", "091007.885000", "091008.345000", "091008.805000", "091009.265000", "091009.725000", "091010.185000", "091010.645000", "091011.105000", "091011.565000", "091012.025000", "091012.485000", "091012.945000", "091013.405000", "091013.865000", "091014.325000"],
