{
  "AcquisitionMatrixPE": 82,
  "AcquisitionNumber": 1,
  "AcquisitionTime": "08:56:36.147500",
  "BandwidthPerPixelPhaseEncode": 24.888,
  "BaseResolution": 82,
  "BodyPartExamined": "BRAIN",
  "ConsistencyInfo": "N4_VE11E_LATEST_20181129",
  "ConversionSoftware": "dcm2niix",
  "ConversionSoftwareVersion": "v1.0.20201102",
  "DerivedVendorReportedEchoSpacing": 0.00049,
  "DeviceSerialNumber": "66112",
  "DwellTime": 2e-06,
  "EchoTime": 0.0272,
  "EchoTrainLength": 82,
  "EffectiveEchoSpacing": 0.00049,
  "FlipAngle": 44,
  "ImageComments": "Unaliased MB8/PE3",
  "ImageOrientationPatientDICOM": [0.999595, 0.0113519, 0.0261012, -0.0104681, 0.999376, -0.0337491],
  "ImageType": [
    "ORIGINAL",
    "PRIMARY",
    "M",
    "MB",
    "ND",
    "NORM",
    "MOSAIC"
],
  "ImagingFrequency": 123.252,
  "InPlanePhaseEncodingDirectionDICOM": "COL",
  "InstitutionAddress": "Maynard 3,Hanover,NH,US,03755",
  "InstitutionName": "Dartmouth College - PBS",
  "InstitutionalDepartmentName": "Department",
  "MRAcquisitionType": "2D",
  "MagneticFieldStrength": 3,
  "Manufacturer": "Siemens",
  "ManufacturersModelName": "Prisma",
  "Modality": "MR",
  "MultibandAccelerationFactor": 8,
  "PartialFourier": 1,
  "PatientPosition": "HFS",
  "PercentPhaseFOV": 100,
  "PercentSampling": 100,
  "PhaseEncodingDirection": "j-",
  "PhaseEncodingSteps": 82,
  "PhaseResolution": 1,
  "PixelBandwidth": 3050,
  "ProcedureStepDescription": "Wager_Wager^1076_spacetop",
  "ProtocolName": "func_run-01_task-social_acq-ap-mb8",
  "PulseSequenceDetails": "%CustomerSeq%\\cmrr_mbep2d_bold",
  "ReceiveCoilActiveElements": "HEA;HEP",
  "ReceiveCoilName": "Head_32",
  "ReconMatrixPE": 82,
  "RepetitionTime": 0.46,
  "SAR": 0.0861423,
  "ScanOptions": "FS",
  "ScanningSequence": "EP",
  "SequenceName": "epfid2d1_82",
  "SequenceVariant": "SK\\SS",
  "SeriesDescription": "func_run-01_task-social_acq-ap-mb8",
  "SeriesNumber": 10,
  "ShimSetting": [4148, -7723, -7322, 477, -16, -125, 20, 63],
  "SliceThickness": 2.7,
  "SliceTiming": [0, 0.2525, 0.065, 0.315, 0.1275, 0.3775, 0.19, 0, 0.2525, 0.065, 0.315, 0.1275, 0.3775, 0.19, 0, 0.2525, 0.065, 0.315, 0.1275, 0.3775, 0.19, 0, 0.2525, 0.065, 0.315, 0.1275, 0.3775, 0.19, 0, 0.2525, 0.065, 0.315, 0.1275, 0.3775, 0.19, 0, 0.2525, 0.065, 0.315, 0.1275, 0.3775, 0.19, 0, 0.2525, 0.065, 0.315, 0.1275, 0.3775, 0.19, 0, 0.2525, 0.065, 0.315, 0.1275, 0.3775, 0.19],
  "SoftwareVersions": "syngo MR E11",
  "SpacingBetweenSlices": 2.7,
  "StationName": "AWP66112",
  "TaskName": "social",
  "TotalReadoutTime": 0.03969,
  "TxRefAmp": 252.301,
  "WipMemBlock": "2dbb023e-3780-4486-a263-5dd207a58e98||Sequence: R016 ve11e/master r/434b28f1; Aug  7 2019 18:53:46 by eja",
  "dcmmeta_affine": [
    [-2.681839942932129, -0.028085269033908844, 0.07146359235048294, 110.71456909179688],
    [-0.03045627661049366, 2.6812515258789062, -0.09034789353609085, -89.01724243164062],
    [0.07002755999565125, 0.09054633229970932, 2.6975414752960205, -83.25862121582031],
    [0.0, 0.0, 0.0, 1.0]
],
  "dcmmeta_reorient_transform": [
    [0.0, -1.0, 0.0, 81.0],
    [1.0, 0.0, 0.0, 0.0],
    [0.0, 0.0, 1.0, 0.0],
    [0.0, 0.0, 0.0, 1.0]
],
  "dcmmeta_shape": [82, 82, 56, 872],
  "dcmmeta_slice_dim": 2,
  "dcmmeta_version": 0.6,
  "global": {
    "const": {
      "AccessionNumber": "A003949",
      "AcquisitionMatrix": [82, 0, 0, 82],
      "AngioFlag": "N",
      "BitsAllocated": 16,
      "BitsStored": 16,
      "BodyPartExamined": "BRAIN",
      "Columns": 656,
      "EchoNumbers": 1,
      "EchoTime": 27.2,
      "EchoTrainLength": 82,
      "FlipAngle": 44.0,
      "HighBit": 15,
      "ImageOrientationPatient": [0.99959484947475, 0.01135188432931, 0.02610118054263, -0.0104681454106, 0.99937551356007, -0.0337490863314],
      "ImagePositionPatient": [-870.0672399563, -906.42423550505, -70.035483004181],
      "ImageType": [
        "ORIGINAL",
        "PRIMARY",
        "M",
        "MB",
        "ND",
        "NORM",
        "MOSAIC"
],
      "ImagedNucleus": "1H",
      "ImagingFrequency": 123.25219,
      "InPlanePhaseEncodingDirection": "COL",
      "MRAcquisitionType": "2D",
      "MagneticFieldStrength": 3.0,
      "Manufacturer": "SIEMENS",
      "ManufacturerModelName": "Prisma",
      "Modality": "MR",
      "NumberOfAverages": 1.0,
      "NumberOfPhaseEncodingSteps": 82,
      "PercentPhaseFieldOfView": 100.0,
      "PercentSampling": 100.0,
      "PerformedProcedureStepStartTime": "083445.153000",
      "PhotometricInterpretation": "MONOCHROME2",
      "PixelBandwidth": 3050.0,
      "PixelRepresentation": 0,
      "PixelSpacing": [2.6829268932343, 2.6829268932343],
      "ProtocolName": "func_run-01_task-social_acq-ap-mb8",
      "RepetitionTime": 460.0,
      "Rows": 656,
      "SAR": 0.08614228110979,
      "SamplesPerPixel": 1,
      "ScanOptions": "FS",
      "ScanningSequence": "EP",
      "SequenceName": "epfid2d1_82",
      "SequenceVariant": [
        "SK",
        "SS"
],
      "SeriesDescription": "func_run-01_task-social_acq-ap-mb8",
      "SeriesNumber": 10,
      "SeriesTime": "085658.485000",
      "SliceLocation": -77.273708199913,
      "SliceThickness": 2.7000000476837,
      "SmallestImagePixelValue": 0,
      "SoftwareVersions": "syngo MR E11",
      "SpacingBetweenSlices": 2.7000000189678,
      "SpecificCharacterSet": "ISO_IR 100",
      "StudyID": "3",
      "StudyTime": "083445.031000",
      "TransmitCoilName": "Body",
      "VariableFlipAngleFlag": "N",
      "WindowCenterWidthExplanation": "Algo1"
    },
    "slices": {}
  },
  "time": {
    "samples": {
      "AcquisitionNumber": [1, 2, 3, 4, 5, 6, 7, 8, 9, 10, 11, 12, 13, 14, 15, 16, 17, 18, 19, 20, 21, 22, 23, 24, 25, 26, 27, 28, 29, 30, 31, 32, 33, 34, 35, 36, 37, 38, 39, 40, 41, 42, 43, 44, 45, 46, 47, 48, 49, 50, 51, 52, 53, 54, 55, 56, 57, 58, 59, 60, 61, 62, 63, 64, 65, 66, 67, 68, 69, 70, 71, 72, 73, 74, 75, 76, 77, 78, 79, 80, 81, 82, 83, 84, 85, 86, 87, 88, 89, 90, 91, 92, 93, 94, 95, 96, 97, 98, 99, 100, 101, 102, 103, 104, 105, 106, 107, 108, 109, 110, 111, 112, 113, 114, 115, 116, 117, 118, 119, 120, 121, 122, 123, 124, 125, 126, 127, 128, 129, 130, 131, 132, 133, 134, 135, 136, 137, 138, 139, 140, 141, 142, 143, 144, 145, 146, 147, 148, 149, 150, 151, 152, 153, 154, 155, 156, 157, 158, 159, 160, 161, 162, 163, 164, 165, 166, 167, 168, 169, 170, 171, 172, 173, 174, 175, 176, 177, 178, 179, 180, 181, 182, 183, 184, 185, 186, 187, 188, 189, 190, 191, 192, 193, 194, 195, 196, 197, 198, 199, 200, 201, 202, 203, 204, 205, 206, 207, 208, 209, 210, 211, 212, 213, 214, 215, 216, 217, 218, 219, 220, 221, 222, 223, 224, 225, 226, 227, 228, 229, 230, 231, 232, 233, 234, 235, 236, 237, 238, 239, 240, 241, 242, 243, 244, 245, 246, 247, 248, 249, 250, 251, 252, 253, 254, 255, 256, 257, 258, 259, 260, 261, 262, 263, 264, 265, 266, 267, 268, 269, 270, 271, 272, 273, 274, 275, 276, 277, 278, 279, 280, 281, 282, 283, 284, 285, 286, 287, 288, 289, 290, 291, 292, 293, 294, 295, 296, 297, 298, 299, 300, 301, 302, 303, 304, 305, 306, 307, 308, 309, 310, 311, 312, 313, 314, 315, 316, 317, 318, 319, 320, 321, 322, 323, 324, 325, 326, 327, 328, 329, 330, 331, 332, 333, 334, 335, 336, 337, 338, 339, 340, 341, 342, 343, 344, 345, 346, 347, 348, 349, 350, 351, 352, 353, 354, 355, 356, 357, 358, 359, 360, 361, 362, 363, 364, 365, 366, 367, 368, 369, 370, 371, 372, 373, 374, 375, 376, 377, 378, 379, 380, 381, 382, 383, 384, 385, 386, 387, 388, 389, 390, 391, 392, 393, 394, 395, 396, 397, 398, 399, 400, 401, 402, 403, 404, 405, 406, 407, 408, 409, 410, 411, 412, 413, 414, 415, 416, 417, 418, 419, 420, 421, 422, 423, 424, 425, 426, 427, 428, 429, 430, 431, 432, 433, 434, 435, 436, 437, 438, 439, 440, 441, 442, 443, 444, 445, 446, 447, 448, 449, 450, 451, 452, 453, 454, 455, 456, 457, 458, 459, 460, 461, 462, 463, 464, 465, 466, 467, 468, 469, 470, 471, 472, 473, 474, 475, 476, 477, 478, 479, 480, 481, 482, 483, 484, 485, 486, 487, 488, 489, 490, 491, 492, 493, 494, 495, 496, 497, 498, 499, 500, 501, 502, 503, 504, 505, 506, 507, 508, 509, 510, 511, 512, 513, 514, 515, 516, 517, 518, 519, 520, 521, 522, 523, 524, 525, 526, 527, 528, 529, 530, 531, 532, 533, 534, 535, 536, 537, 538, 539, 540, 541, 542, 543, 544, 545, 546, 547, 548, 549, 550, 551, 552, 553, 554, 555, 556, 557, 558, 559, 560, 561, 562, 563, 564, 565, 566, 567, 568, 569, 570, 571, 572, 573, 574, 575, 576, 577, 578, 579, 580, 581, 582, 583, 584, 585, 586, 587, 588, 589, 590, 591, 592, 593, 594, 595, 596, 597, 598, 599, 600, 601, 602, 603, 604, 605, 606, 607, 608, 609, 610, 611, 612, 613, 614, 615, 616, 617, 618, 619, 620, 621, 622, 623, 624, 625, 626, 627, 628, 629, 630, 631, 632, 633, 634, 635, 636, 637, 638, 639, 640, 641, 642, 643, 644, 645, 646, 647, 648, 649, 650, 651, 652, 653, 654, 655, 656, 657, 658, 659, 660, 661, 662, 663, 664, 665, 666, 667, 668, 669, 670, 671, 672, 673, 674, 675, 676, 677, 678, 679, 680, 681, 682, 683, 684, 685, 686, 687, 688, 689, 690, 691, 692, 693, 694, 695, 696, 697, 698, 699, 700, 701, 702, 703, 704, 705, 706, 707, 708, 709, 710, 711, 712, 713, 714, 715, 716, 717, 718, 719, 720, 721, 722, 723, 724, 725, 726, 727, 728, 729, 730, 731, 732, 733, 734, 735, 736, 737, 738, 739, 740, 741, 742, 743, 744, 745, 746, 747, 748, 749, 750, 751, 752, 753, 754, 755, 756, 757, 758, 759, 760, 761, 762, 763, 764, 765, 766, 767, 768, 769, 770, 771, 772, 773, 774, 775, 776, 777, 778, 779, 780, 781, 782, 783, 784, 785, 786, 787, 788, 789, 790, 791, 792, 793, 794, 795, 796, 797, 798, 799, 800, 801, 802, 803, 804, 805, 806, 807, 808, 809, 810, 811, 812, 813, 814, 815, 816, 817, 818, 819, 820, 821, 822, 823, 824, 825, 826, 827, 828, 829, 830, 831, 832, 833, 834, 835, 836, 837, 838, 839, 840, 841, 842, 843, 844, 845, 846, 847, 848, 849, 850, 851, 852, 853, 854, 855, 856, 857, 858, 859, 860, 861, 862, 863, 864, 865, 866, 867, 868, 869, 870, 871, 872],
      "AcquisitionTime": ["085636.147500", "085636.607500", "085637.067500", "085637.527500", "085637.987500", "085638.447500", "085638.907500", "085639.367500", "085639.827500", "085640.287500", "085640.747500", "085641.207500", "085641.667500", "085642.127500", "085642.587500", "085643.047500", "085643.507500", "085643.967500", "085644.427500", "085644.887500", "085645.347500", "085645.807500", "085646.267500", "085646.727500", "085647.187500", "085647.647500", "085648.107500", "085648.567500", "085649.027500", "085649.487500", "085649.947500", "085650.407500", "085650.867500", "085651.327500", "085651.787500", "085652.247500", "085652.707500", "085653.167500", "085653.627500", "085654.087500", "085654.547500", "085655.007500", "085655.467500", "085655.927500", "085656.387500", "085656.847500", "085657.307500", "085657.767500", "085658.227500", "085658.687500", "085659.147500", "085659.607500", "085700.067500", "085700.527500", "085700.987500", "085701.447500", "085701.907500", "085702.367500", "085702.827500", "085703.287500", "085703.747500", "085704.207500", "085704.667500", "085705.127500", "085705.587500", "085706.047500", "085706.507500", "085706.967500", "085707.427500", "085707.887500", "085708.347500", "085708.807500", "085709.267500", "085709.727500", "085710.187500", "085710.647500", "085711.107500", "085711.567500", "085712.027500", "085712.487500", "085712.947500", "085713.407500", "085713.867500", "085714.327500", "085714.787500", "085715.247500", "085715.707500", "085716.167500", "085716.627500", "085717.087500", "085717.547500", "085718.007500", "085718.467500", "085718.927500", "085719.387500", "085719.847500", "085720.307500", "085720.767500", "085721.227500", "085721.687500", "085722.147500", "085722.607500", "085723.067500", "085723.527500", "085723.987500", "085724.447500", "085724.907500", "085725.367500", "085725.827500", "085726.287500", "085726.747500", "085727.207500", "085727.667500", "085728.127500", "085728.587500", "085729.047500", "085729.507500", "085729.967500", "085730.427500", "085730.887500", "085731.347500", "085731.807500", "085732.267500", "085732.727500", "085733.187500", "085733.647500", "085734.107500", "085734.567500", "085735.027500", "085735.487500", "085735.947500", "085736.407500", "085736.867500", "085737.327500", "085737.787500", "085738.247500", "085738.707500", "085739.167500", "085739.627500", "085740.087500", "085740.547500", "085741.007500", "085741.467500", "085741.927500", "085742.387500", "085742.847500", "085743.307500", "085743.767500", "085744.227500", "085744.687500", "085745.147500", "085745.607500", "085746.067500", "085746.527500", "085746.987500", "085747.447500", "085747.907500", "085748.367500", "085748.827500", "085749.287500", "085749.747500", "085750.207500", "085750.667500", "085751.127500", "085751.587500", "085752.047500", "085752.507500", "085752.967500", "085753.427500", "085753.887500", "085754.347500", "085754.807500", "085755.267500", "085755.727500", "085756.187500", "085756.647500", "085757.107500", "085757.567500", "085758.027500", "085758.487500", "085758.947500", "085759.407500", "085759.867500", "085800.327500", "085800.787500", "085801.247500", "085801.707500", "085802.167500", "085802.627500", "085803.087500", "085803.547500", "085804.007500", "085804.467500", "085804.927500", "085805.387500", "085805.847500", "085806.307500", "085806.767500", "085807.227500", "085807.687500", "085808.147500", "085808.607500", "085809.067500", "085809.527500", "085809.987500", "085810.447500", "085810.907500", "085811.367500", "085811.827500", "085812.287500", "085812.747500", "085813.207500", "085813.667500", "085814.127500", "085814.587500", "085815.047500", "085815.507500", "085815.967500", "085816.427500", "085816.887500", "085817.347500", "085817.807500", "085818.267500", "085818.727500", "085819.187500", "085819.647500", "085820.107500", "085820.567500", "085821.027500", "085821.487500", "085821.947500", "085822.407500", "085822.867500", "085823.327500", "085823.787500", "085824.247500", "085824.707500", "085825.167500", "085825.627500", "085826.087500", "085826.547500", "085827.007500", "085827.467500", "085827.927500", "085828.387500", "085828.847500", "085829.307500", "085829.767500", "085830.227500", "085830.687500", "085831.147500", "085831.607500", "085832.067500", "085832.527500", "085832.987500", "085833.447500", "085833.907500", "085834.367500", "085834.827500", "085835.287500", "085835.747500", "085836.207500", "085836.667500", "085837.127500", "085837.587500", "085838.047500", "085838.507500", "085838.967500", "085839.427500", "085839.887500", "085840.347500", "085840.807500", "085841.267500", "085841.727500", "085842.187500", "085842.647500", "085843.107500", "085843.567500", "085844.027500", "085844.487500", "085844.947500", "085845.407500", "085845.867500", "085846.327500", "085846.787500", "085847.247500", "085847.707500", "085848.167500", "085848.627500", "085849.087500", "085849.547500", "085850.007500", "085850.467500", "085850.927500", "085851.387500", "085851.847500", "085852.307500", "085852.767500", "085853.227500", "085853.687500", "085854.147500", "085854.607500", "085855.067500", "085855.527500", "085855.987500", "085856.447500", "085856.907500", "085857.367500", "085857.827500", "085858.287500", "085858.747500", "085859.207500", "085859.667500", "085900.127500", "085900.587500", "085901.047500", "085901.507500", "085901.967500", "085902.427500", "085902.887500", "085903.347500", "085903.807500", "085904.267500", "085904.727500", "085905.187500", "085905.647500", "085906.107500", "085906.567500", "085907.027500", "085907.487500", "085907.947500", "085908.407500", "085908.867500", "085909.327500", "085909.787500", "085910.247500", "085910.707500", "085911.167500", "085911.627500", "085912.087500", "085912.547500", "085913.007500", "085913.467500", "085913.927500", "085914.387500", "085914.847500", "085915.307500", "085915.767500", "085916.227500", "085916.687500", "085917.147500", "085917.607500", "085918.067500", "085918.527500", "085918.987500", "085919.447500", "085919.907500", "085920.367500", "085920.827500", "085921.287500", "085921.747500", "085922.207500", "085922.667500", "085923.127500", "085923.587500", "085924.047500", "085924.507500", "085924.967500", "085925.427500", "085925.887500", "085926.347500", "085926.807500", "085927.267500", "085927.727500", "085928.187500", "085928.647500", "085929.107500", "085929.567500", "085930.027500", "085930.487500", "085930.947500", "085931.407500", "085931.867500", "085932.327500", "085932.787500", "085933.247500", "085933.707500", "085934.167500", "085934.627500", "085935.087500", "085935.547500", "085936.007500", "085936.467500", "085936.927500", "085937.387500", "085937.847500", "085938.307500", "085938.767500", "085939.227500", "085939.687500", "085940.147500", "085940.607500", "085941.067500", "085941.527500", "085941.987500", "085942.447500", "085942.907500", "085943.367500", "085943.827500", "085944.287500", "085944.747500", "085945.207500", "085945.667500", "085946.127500", "085946.587500", "085947.047500", "085947.507500", "085947.967500", "085948.427500", "085948.887500", "085949.347500", "085949.807500", "085950.267500", "085950.727500", "085951.187500", "085951.647500", "085952.107500", "085952.567500", "085953.027500", "085953.487500", "085953.947500", "085954.407500", "085954.867500", "085955.327500", "085955.787500", "085956.247500", "085956.707500", "085957.167500", "085957.627500", "085958.087500", "085958.547500", "085959.007500", "085959.467500", "085959.927500", "090000.387500", "090000.847500", "090001.307500", "090001.767500", "090002.227500", "090002.687500", "090003.147500", "090003.607500", "090004.067500", "090004.527500", "090004.987500", "090005.447500", "090005.907500", "090006.367500", "090006.827500", "090007.287500", "090007.747500", "090008.207500", "090008.667500", "090009.127500", "090009.587500", "090010.047500", "090010.507500", "090010.967500", "090011.427500", "090011.887500", "090012.347500", "090012.807500", "090013.267500", "090013.727500", "090014.187500", "090014.647500", "090015.107500", "090015.567500", "090016.027500", "090016.487500", "090016.947500", "090017.407500", "090017.867500", "090018.327500", "090018.787500", "090019.247500", "090019.707500", "090020.167500", "090020.627500", "090021.087500", "090021.547500", "090022.007500", "090022.467500", "090022.927500", "090023.387500", "090023.847500", "090024.307500", "090024.767500", "090025.227500", "090025.687500", "090026.147500", "090026.607500", "090027.067500", "090027.527500", "090027.987500", "090028.447500", "090028.907500", "090029.367500", "090029.827500", "090030.287500", "090030.747500", "090031.207500", "090031.667500", "090032.127500", "090032.587500", "090033.047500", "090033.507500", "090033.967500", "090034.427500", "090034.887500", "090035.347500", "090035.807500", "090036.267500", "090036.727500", "090037.187500", "090037.647500", "090038.107500", "090038.567500", "090039.027500", "090039.487500", "090039.947500", "090040.407500", "090040.867500", "090041.327500", "090041.787500", "090042.247500", "090042.707500", "090043.167500", "090043.627500", "090044.087500", "090044.547500", "090045.007500", "090045.467500", "090045.927500", "090046.387500", "090046.847500", "090047.307500", "090047.767500", "090048.227500", "090048.687500", "090049.147500", "090049.607500", "090050.067500", "090050.527500", "090050.987500", "090051.447500", "090051.907500", "090052.367500", "090052.827500", "090053.287500", "090053.747500", "090054.207500", "090054.667500", "090055.127500", "090055.587500", "090056.047500", "090056.507500", "090056.967500", "090057.427500", "090057.887500", "090058.347500", "090058.807500", "090059.267500", "090059.727500", "090100.187500", "090100.647500", "090101.107500", "090101.567500", "090102.027500", "090102.487500", "090102.947500", "090103.407500", "090103.867500", "090104.327500", "090104.787500", "090105.247500", "090105.707500", "090106.167500", "090106.627500", "090107.087500", "090107.547500", "090108.007500", "090108.467500", "090108.927500", "090109.387500", "090109.847500", "090110.307500", "090110.767500", "090111.227500", "090111.687500", "090112.147500", "090112.607500", "090113.067500", "090113.527500", "090113.987500", "090114.447500", "090114.907500", "090115.367500", "090115.827500", "090116.287500", "090116.747500", "090117.207500", "090117.667500", "090118.127500", "090118.587500", "090119.047500", "090119.507500", "090119.967500", "090120.427500", "090120.887500", "090121.347500", "090121.807500", "090122.267500", "090122.727500", "090123.187500", "090123.647500", "090124.107500", "090124.567500", "090125.027500", "090125.487500", "090125.947500", "090126.407500", "090126.867500", "090127.327500", "090127.787500", "090128.247500", "090128.707500", "090129.167500", "090129.627500", "090130.087500", "090130.547500", "090131.007500", "090131.467500", "090131.927500", "090132.387500", "090132.847500", "090133.307500", "090133.767500", "090134.227500", "090134.687500", "090135.147500", "090135.607500", "090136.067500", "090136.527500", "090136.987500", "090137.447500", "090137.907500", "090138.367500", "090138.827500", "090139.287500", "090139.747500", "090140.207500", "090140.667500", "090141.127500", "090141.587500", "090142.047500", "090142.507500", "090142.967500", "090143.427500", "090143.887500", "090144.347500", "090144.807500", "090145.267500", "090145.727500", "090146.187500", "090146.647500", "090147.107500", "090147.567500", "090148.027500", "090148.487500", "090148.947500", "090149.407500", "090149.867500", "090150.327500", "090150.787500", "090151.247500", "090151.707500", "090152.167500", "090152.627500", "090153.087500", "090153.547500", "090154.007500", "090154.467500", "090154.927500", "090155.387500", "090155.847500", "090156.307500", "090156.767500", "090157.227500", "090157.687500", "090158.147500", "090158.607500", "090159.067500", "090159.527500", "090159.987500", "090200.447500", "090200.907500", "090201.367500", "090201.827500", "090202.287500", "090202.747500", "090203.207500", "090203.667500", "090204.127500", "090204.587500", "090205.047500", "090205.507500", "090205.967500", "090206.427500", "090206.887500", "090207.347500", "090207.807500", "090208.267500", "090208.727500", "090209.187500", "090209.647500", "090210.107500", "090210.567500", "090211.027500", "090211.487500", "090211.947500", "090212.407500", "090212.867500", "090213.327500", "090213.787500", "090214.247500", "090214.707500", "090215.167500", "090215.627500", "090216.087500", "090216.547500", "090217.007500", "090217.467500", "090217.927500", "090218.387500", "090218.847500", "090219.307500", "090219.767500", "090220.227500", "090220.687500", "090221.147500", "090221.607500", "090222.067500", "090222.527500", "090222.987500", "090223.447500", "090223.907500", "090224.367500", "090224.827500", "090225.287500", "090225.747500", "090226.207500", "090226.667500", "090227.127500", "090227.587500", "090228.047500", "090228.507500", "090228.967500", "090229.427500", "090229.887500", "090230.347500", "090230.807500", "090231.267500", "090231.727500", "090232.187500", "090232.647500", "090233.107500", "090233.567500", "090234.027500", "090234.487500", "090234.947500", "090235.407500", "090235.867500", "090236.327500", "090236.787500", "090237.247500", "090237.707500", "090238.167500", "090238.627500", "090239.087500", "090239.547500", "090240.007500", "090240.467500", "090240.927500", "090241.387500", "090241.847500", "090242.307500", "090242.767500", "090243.227500", "090243.687500", "090244.147500", "090244.607500", "090245.067500", "090245.527500", "090245.987500", "090246.447500", "090246.907500", "090247.367500", "090247.827500", "090248.287500", "090248.747500", "090249.207500", "090249.667500", "090250.127500", "090250.587500", "090251.047500", "090251.507500", "090251.967500", "090252.427500", "090252.887500", "090253.347500", "090253.807500", "090254.267500", "090254.727500", "090255.187500", "090255.647500", "090256.107500", "090256.567500", "090257.027500", "090257.487500", "090257.947500", "090258.407500", "090258.867500", "090259.327500", "090259.787500", "090300.247500", "090300.707500", "090301.167500", "090301.627500", "090302.087500", "090302.547500", "090303.007500", "090303.467500", "090303.927500", "090304.387500", "090304.847500", "090305.307500", "090305.767500", "090306.227500", "090306.687500", "090307.147500", "090307.607500", "090308.067500", "090308.527500", "090308.987500", "090309.447500", "090309.907500", "090310.367500", "090310.827500", "090311.287500", "090311.747500", "090312.207500", "090312.667500", "090313.127500", "090313.587500", "090314.047500", "090314.507500", "090314.967500", "090315.427500", "090315.887500", "090316.347500", "090316.807500"],
