{
  "AcquisitionMatrixPE": 82,
  "AcquisitionNumber": 1,
  "AcquisitionTime": "09:57:19.252500",
  "BandwidthPerPixelPhaseEncode": 24.888,
  "BaseResolution": 82,
  "BodyPartExamined": "BRAIN",
  "ConsistencyInfo": "N4_VE11E_LATEST_20181129",
  "ConversionSoftware": "dcm2niix",
  "ConversionSoftwareVersion": "v1.0.20201102",
  "DerivedVendorReportedEchoSpacing": 0.00049,
  "DeviceSerialNumber": "66112",
  "DwellTime": 2e-06,
  "EchoTime": 0.0272,
  "EchoTrainLength": 82,
  "EffectiveEchoSpacing": 0.00049,
  "FlipAngle": 44,
  "ImageComments": "Unaliased MB8/PE3",
  "ImageOrientationPatientDICOM": [0.999519, 0.0255256, 0.0175984, -0.0275699, 0.991407, 0.127874],
  "ImageType": [
    "ORIGINAL",
    "PRIMARY",
    "M",
    "MB",
    "ND",
    "NORM",
    "MOSAIC"
],
  "ImagingFrequency": 123.252,
  "InPlanePhaseEncodingDirectionDICOM": "COL",
  "InstitutionAddress": "Maynard 3,Hanover,NH,US,03755",
  "InstitutionName": "Dartmouth College - PBS",
  "InstitutionalDepartmentName": "Department",
  "MRAcquisitionType": "2D",
  "MagneticFieldStrength": 3,
  "Manufacturer": "Siemens",
  "ManufacturersModelName": "Prisma",
  "Modality": "MR",
  "MultibandAccelerationFactor": 8,
  "PartialFourier": 1,
  "PatientPosition": "HFS",
  "PercentPhaseFOV": 100,
  "PercentSampling": 100,
  "PhaseEncodingDirection": "j-",
  "PhaseEncodingSteps": 82,
  "PhaseResolution": 1,
  "PixelBandwidth": 3050,
  "ProcedureStepDescription": "Wager_Wager^1076_spacetop",
  "ProtocolName": "func_run-02_task-alignvideo_acq-ap-mb8",
  "PulseSequenceDetails": "%CustomerSeq%\\cmrr_mbep2d_bold",
  "ReceiveCoilActiveElements": "HEA;HEP",
  "ReceiveCoilName": "Head_32",
  "ReconMatrixPE": 82,
  "RepetitionTime": 0.46,
  "SAR": 0.0885268,
  "ScanOptions": "FS",
  "ScanningSequence": "EP",
  "SequenceName": "epfid2d1_82",
  "SequenceVariant": "SK\\SS",
  "SeriesDescription": "func_run-02_task-alignvideo_acq-ap-mb8",
  "SeriesNumber": 34,
  "ShimSetting": [4168, -7852, -7353, 449, 93, -296, -162, 59],
  "SliceThickness": 2.7,
  "SliceTiming": [0, 0.2525, 0.0625, 0.315, 0.125, 0.3775, 0.19, 0, 0.2525, 0.0625, 0.315, 0.125, 0.3775, 0.19, 0, 0.2525, 0.0625, 0.315, 0.125, 0.3775, 0.19, 0, 0.2525, 0.0625, 0.315, 0.125, 0.3775, 0.19, 0, 0.2525, 0.0625, 0.315, 0.125, 0.3775, 0.19, 0, 0.2525, 0.0625, 0.315, 0.125, 0.3775, 0.19, 0, 0.2525, 0.0625, 0.315, 0.125, 0.3775, 0.19, 0, 0.2525, 0.0625, 0.315, 0.125, 0.3775, 0.19],
  "SoftwareVersions": "syngo MR E11",
  "SpacingBetweenSlices": 2.7,
  "StationName": "AWP66112",
  "TaskName": "alignvideo",
  "TotalReadoutTime": 0.03969,
  "TxRefAmp": 253.993,
  "WipMemBlock": "60ec0ecc-9c12-4b6f-82df-499006a9bbf0||Sequence: R016 ve11e/master r/434b28f1; Aug  7 2019 18:53:46 by eja",
  "dcmmeta_affine": [
    [-2.6816370487213135, -0.07396794855594635, 0.03829430416226387, 116.13695526123047],
    [-0.06848327070474625, 2.6598727703094482, 0.34640413522720337, -92.91918182373047],
    [0.04721510782837868, -0.3430769145488739, 2.677412509918213, -60.36576461791992],
    [0.0, 0.0, 0.0, 1.0]
],
  "dcmmeta_reorient_transform": [
    [0.0, -1.0, 0.0, 81.0],
    [1.0, 0.0, 0.0, 0.0],
    [0.0, 0.0, 1.0, 0.0],
    [0.0, 0.0, 0.0, 1.0]
],
  "dcmmeta_shape": [82, 82, 56, 926],
  "dcmmeta_slice_dim": 2,
  "dcmmeta_version": 0.6,
  "global": {
    "const": {
      "AccessionNumber": "A003862",
      "AcquisitionMatrix": [82, 0, 0, 82],
      "AngioFlag": "N",
      "BitsAllocated": 16,
      "BitsStored": 16,
      "BodyPartExamined": "BRAIN",
      "Columns": 656,
      "EchoNumbers": 1,
      "EchoTime": 27.2,
      "EchoTrainLength": 82,
      "FlipAngle": 44.0,
      "HighBit": 15,
      "ImageOrientationPatient": [0.99951925570398, 0.02552558092659, 0.01759835774492, -0.0275698716805, 0.99140713714852, 0.12787412008102],
      "ImagePositionPatient": [-858.54659486622, -905.56873144745, -200.16880630507],
      "ImageType": [
        "ORIGINAL",
        "PRIMARY",
        "M",
        "MB",
        "ND",
        "NORM",
        "MOSAIC"
],
      "ImagedNucleus": "1H",
      "ImagingFrequency": 123.252267,
      "InPlanePhaseEncodingDirection": "COL",
      "MRAcquisitionType": "2D",
      "MagneticFieldStrength": 3.0,
      "Manufacturer": "SIEMENS",
      "ManufacturerModelName": "Prisma",
      "Modality": "MR",
      "NumberOfAverages": 1.0,
      "NumberOfPhaseEncodingSteps": 82,
      "PercentPhaseFieldOfView": 100.0,
      "PercentSampling": 100.0,
      "PerformedProcedureStepStartTime": "080509.608000",
      "PhotometricInterpretation": "MONOCHROME2",
      "PixelBandwidth": 3050.0,
      "PixelRepresentation": 0,
      "PixelSpacing": [2.6829268932343, 2.6829268932343],
      "ProtocolName": "func_run-02_task-alignvideo_acq-ap-mb8",
      "RepetitionTime": 460.0,
      "Rows": 656,
      "SAR": 0.08852676478458,
      "SamplesPerPixel": 1,
      "ScanOptions": "FS",
      "ScanningSequence": "EP",
      "SequenceName": "epfid2d1_82",
      "SequenceVariant": [
        "SK",
        "SS"
],
      "SeriesDescription": "func_run-02_task-alignvideo_acq-ap-mb8",
      "SeriesNumber": 34,
      "SeriesTime": "095735.175000",
      "SliceLocation": -70.134911469738,
      "SliceThickness": 2.7000000476837,
      "SmallestImagePixelValue": 0,
      "SoftwareVersions": "syngo MR E11",
      "SpacingBetweenSlices": 2.6999999116373,
      "SpecificCharacterSet": "ISO_IR 100",
      "StudyID": "1",
      "StudyTime": "080509.464000",
      "TransmitCoilName": "Body",
      "VariableFlipAngleFlag": "N",
      "WindowCenterWidthExplanation": "Algo1"
    },
    "slices": {}
  },
  "time": {
    "samples": {
      "AcquisitionNumber": [1, 2, 3, 4, 5, 6, 7, 8, 9, 10, 11, 12, 13, 14, 15, 16, 17, 18, 19, 20, 21, 22, 23, 24, 25, 26, 27, 28, 29, 30, 31, 32, 33, 34, 35, 36, 37, 38, 39, 40, 41, 42, 43, 44, 45, 46, 47, 48, 49, 50, 51, 52, 53, 54, 55, 56, 57, 58, 59, 60, 61, 62, 63, 64, 65, 66, 67, 68, 69, 70, 71, 72, 73, 74, 75, 76, 77, 78, 79, 80, 81, 82, 83, 84, 85, 86, 87, 88, 89, 90, 91, 92, 93, 94, 95, 96, 97, 98, 99, 100, 101, 102, 103, 104, 105, 106, 107, 108, 109, 110, 111, 112, 113, 114, 115, 116, 117, 118, 119, 120, 121, 122, 123, 124, 125, 126, 127, 128, 129, 130, 131, 132, 133, 134, 135, 136, 137, 138, 139, 140, 141, 142, 143, 144, 145, 146, 147, 148, 149, 150, 151, 152, 153, 154, 155, 156, 157, 158, 159, 160, 161, 162, 163, 164, 165, 166, 167, 168, 169, 170, 171, 172, 173, 174, 175, 176, 177, 178, 179, 180, 181, 182, 183, 184, 185, 186, 187, 188, 189, 190, 191, 192, 193, 194, 195, 196, 197, 198, 199, 200, 201, 202, 203, 204, 205, 206, 207, 208, 209, 210, 211, 212, 213, 214, 215, 216, 217, 218, 219, 220, 221, 222, 223, 224, 225, 226, 227, 228, 229, 230, 231, 232, 233, 234, 235, 236, 237, 238, 239, 240, 241, 242, 243, 244, 245, 246, 247, 248, 249, 250, 251, 252, 253, 254, 255, 256, 257, 258, 259, 260, 261, 262, 263, 264, 265, 266, 267, 268, 269, 270, 271, 272, 273, 274, 275, 276, 277, 278, 279, 280, 281, 282, 283, 284, 285, 286, 287, 288, 289, 290, 291, 292, 293, 294, 295, 296, 297, 298, 299, 300, 301, 302, 303, 304, 305, 306, 307, 308, 309, 310, 311, 312, 313, 314, 315, 316, 317, 318, 319, 320, 321, 322, 323, 324, 325, 326, 327, 328, 329, 330, 331, 332, 333, 334, 335, 336, 337, 338, 339, 340, 341, 342, 343, 344, 345, 346, 347, 348, 349, 350, 351, 352, 353, 354, 355, 356, 357, 358, 359, 360, 361, 362, 363, 364, 365, 366, 367, 368, 369, 370, 371, 372, 373, 374, 375, 376, 377, 378, 379, 380, 381, 382, 383, 384, 385, 386, 387, 388, 389, 390, 391, 392, 393, 394, 395, 396, 397, 398, 399, 400, 401, 402, 403, 404, 405, 406, 407, 408, 409, 410, 411, 412, 413, 414, 415, 416, 417, 418, 419, 420, 421, 422, 423, 424, 425, 426, 427, 428, 429, 430, 431, 432, 433, 434, 435, 436, 437, 438, 439, 440, 441, 442, 443, 444, 445, 446, 447, 448, 449, 450, 451, 452, 453, 454, 455, 456, 457, 458, 459, 460, 461, 462, 463, 464, 465, 466, 467, 468, 469, 470, 471, 472, 473, 474, 475, 476, 477, 478, 479, 480, 481, 482, 483, 484, 485, 486, 487, 488, 489, 490, 491, 492, 493, 494, 495, 496, 497, 498, 499, 500, 501, 502, 503, 504, 505, 506, 507, 508, 509, 510, 511, 512, 513, 514, 515, 516, 517, 518, 519, 520, 521, 522, 523, 524, 525, 526, 527, 528, 529, 530, 531, 532, 533, 534, 535, 536, 537, 538, 539, 540, 541, 542, 543, 544, 545, 546, 547, 548, 549, 550, 551, 552, 553, 554, 555, 556, 557, 558, 559, 560, 561, 562, 563, 564, 565, 566, 567, 568, 569, 570, 571, 572, 573, 574, 575, 576, 577, 578, 579, 580, 581, 582, 583, 584, 585, 586, 587, 588, 589, 590, 591, 592, 593, 594, 595, 596, 597, 598, 599, 600, 601, 602, 603, 604, 605, 606, 607, 608, 609, 610, 611, 612, 613, 614, 615, 616, 617, 618, 619, 620, 621, 622, 623, 624, 625, 626, 627, 628, 629, 630, 631, 632, 633, 634, 635, 636, 637, 638, 639, 640, 641, 642, 643, 644, 645, 646, 647, 648, 649, 650, 651, 652, 653, 654, 655, 656, 657, 658, 659, 660, 661, 662, 663, 664, 665, 666, 667, 668, 669, 670, 671, 672, 673, 674, 675, 676, 677, 678, 679, 680, 681, 682, 683, 684, 685, 686, 687, 688, 689, 690, 691, 692, 693, 694, 695, 696, 697, 698, 699, 700, 701, 702, 703, 704, 705, 706, 707, 708, 709, 710, 711, 712, 713, 714, 715, 716, 717, 718, 719, 720, 721, 722, 723, 724, 725, 726, 727, 728, 729, 730, 731, 732, 733, 734, 735, 736, 737, 738, 739, 740, 741, 742, 743, 744, 745, 746, 747, 748, 749, 750, 751, 752, 753, 754, 755, 756, 757, 758, 759, 760, 761, 762, 763, 764, 765, 766, 767, 768, 769, 770, 771, 772, 773, 774, 775, 776, 777, 778, 779, 780, 781, 782, 783, 784, 785, 786, 787, 788, 789, 790, 791, 792, 793, 794, 795, 796, 797, 798, 799, 800, 801, 802, 803, 804, 805, 806, 807, 808, 809, 810, 811, 812, 813, 814, 815, 816, 817, 818, 819, 820, 821, 822, 823, 824, 825, 826, 827, 828, 829, 830, 831, 832, 833, 834, 835, 836, 837, 838, 839, 840, 841, 842, 843, 844, 845, 846, 847, 848, 849, 850, 851, 852, 853, 854, 855, 856, 857, 858, 859, 860, 861, 862, 863, 864, 865, 866, 867, 868, 869, 870, 871, 872, 873, 874, 875, 876, 877, 878, 879, 880, 881, 882, 883, 884, 885, 886, 887, 888, 889, 890, 891, 892, 893, 894, 895, 896, 897, 898, 899, 900, 901, 902, 903, 904, 905, 906, 907, 908, 909, 910, 911, 912, 913, 914, 915, 916, 917, 918, 919, 920, 921, 922, 923, 924, 925, 926],
      "AcquisitionTime": ["095719.252500", "095719.712500", "095720.172500", "095720.632500", "095721.092500", "095721.552500", "095722.012500", "095722.472500", "095722.932500", "095723.392500", "095723.852500", "095724.312500", "095724.772500", "095725.232500", "095725.692500", "095726.152500", "095726.612500", "095727.072500", "095727.532500", "095727.992500", "095728.452500", "095728.912500", "095729.372500", "095729.832500", "095730.292500", "095730.752500", "095731.212500", "095731.672500", "095732.132500", "095732.592500", "095733.052500", "095733.512500", "095733.972500", "095734.432500", "095734.892500", "095735.352500", "095735.812500", "095736.272500", "095736.732500", "095737.192500", "095737.652500", "095738.112500", "095738.572500", "095739.032500", "095739.492500", "095739.952500", "095740.412500", "095740.872500", "095741.332500", "095741.792500", "095742.252500", "095742.712500", "095743.172500", "095743.632500", "095744.092500", "095744.552500", "095745.012500", "095745.472500", "095745.932500", "095746.392500", "095746.852500", "095747.312500", "095747.772500", "095748.232500", "095748.692500", "095749.152500", "095749.612500", "095750.072500", "095750.532500", "095750.992500", "095751.452500", "095751.912500", "095752.372500", "095752.832500", "095753.292500", "095753.752500", "095754.212500", "095754.672500", "095755.132500", "095755.592500", "095756.052500", "095756.512500", "095756.972500", "095757.432500", "095757.892500", "095758.352500", "095758.812500", "095759.272500", "095759.732500", "095800.192500", "095800.652500", "095801.112500", "095801.572500", "095802.032500", "095802.492500", "095802.952500", "095803.412500", "095803.872500", "095804.332500", "095804.792500", "095805.252500", "095805.712500", "095806.172500", "095806.632500", "095807.092500", "095807.552500", "095808.012500", "095808.472500", "095808.932500", "095809.392500", "095809.852500", "095810.312500", "095810.772500", "095811.232500", "095811.692500", "095812.152500", "095812.612500", "095813.072500", "095813.532500", "095813.992500", "095814.452500", "095814.912500", "095815.372500", "095815.832500", "095816.292500", "095816.752500", "095817.212500", "095817.672500", "095818.132500", "095818.592500", "095819.052500", "095819.512500", "095819.972500", "095820.432500", "095820.892500", "095821.352500", "095821.812500", "095822.272500", "095822.732500", "095823.192500", "095823.652500", "095824.112500", "095824.572500", "095825.032500", "095825.492500", "095825.952500", "095826.412500", "095826.872500", "095827.332500", "095827.792500", "095828.252500", "095828.712500", "095829.172500", "095829.632500", "095830.092500", "095830.552500", "095831.012500", "095831.472500", "095831.932500", "095832.392500", "095832.852500", "095833.312500", "095833.772500", "095834.232500", "095834.692500", "095835.152500", "095835.612500", "095836.072500", "095836.532500", "095836.992500", "095837.452500", "095837.912500", "095838.372500", "095838.832500", "095839.292500", "095839.752500", "095840.212500", "095840.672500", "095841.132500", "095841.592500", "095842.052500", "095842.512500", "095842.972500", "095843.432500", "095843.892500", "095844.352500", "095844.812500", "095845.272500", "095845.732500", "095846.192500", "095846.652500", "095847.112500", "095847.572500", "095848.032500", "095848.492500", "095848.952500", "095849.412500", "095849.872500", "095850.332500", "095850.792500", "095851.252500", "095851.712500", "095852.172500", "095852.632500", "095853.092500", "095853.552500", "095854.012500", "095854.472500", "095854.932500", "095855.392500", "095855.852500", "095856.312500", "095856.772500", "095857.232500", "095857.692500", "095858.152500", "095858.612500", "095859.072500", "095859.532500", "095859.992500", "095900.452500", "095900.912500", "095901.372500", "095901.832500", "095902.292500", "095902.752500", "095903.212500", "095903.672500", "095904.132500", "095904.592500", "095905.052500", "095905.512500", "095905.972500", "095906.432500", "095906.892500", "095907.352500", "095907.812500", "095908.272500", "095908.732500", "095909.192500", "095909.652500", "095910.112500", "095910.572500", "095911.032500", "095911.492500", "095911.952500", "095912.412500", "095912.872500", "095913.332500", "095913.792500", "095914.252500", "095914.712500", "095915.172500", "095915.632500", "095916.092500", "095916.552500", "095917.012500", "095917.472500", "095917.932500", "095918.392500", "095918.852500", "095919.312500", "095919.772500", "095920.232500", "095920.692500", "095921.152500", "095921.612500", "095922.072500", "095922.532500", "095922.992500", "095923.452500", "095923.912500", "095924.372500", "095924.832500", "095925.292500", "095925.752500", "095926.212500", "095926.672500", "095927.132500", "095927.592500", "095928.052500", "095928.512500", "095928.972500", "095929.432500", "095929.892500", "095930.352500", "095930.812500", "095931.272500", "095931.732500", "095932.192500", "095932.652500", "095933.112500", "095933.572500", "095934.032500", "095934.492500", "095934.952500", "095935.412500", "095935.872500", "095936.332500", "095936.792500", "095937.252500", "095937.712500", "095938.172500", "095938.632500", "095939.092500", "095939.552500", "095940.012500", "095940.472500", "095940.932500", "095941.392500", "095941.852500", "095942.312500", "095942.772500", "095943.232500", "095943.692500", "095944.152500", "095944.612500", "095945.072500", "095945.532500", "095945.992500", "095946.452500", "095946.912500", "095947.372500", "095947.832500", "095948.292500", "095948.752500", "095949.212500", "095949.672500", "095950.132500", "095950.592500", "095951.052500", "095951.512500", "095951.972500", "095952.432500", "095952.892500", "095953.352500", "095953.812500", "095954.272500", "095954.732500", "095955.192500", "095955.652500", "095956.112500", "095956.572500", "095957.032500", "095957.492500", "095957.952500", "095958.412500", "095958.872500", "095959.332500", "095959.792500", "100000.252500", "100000.712500", "100001.172500", "100001.632500", "100002.092500", "100002.552500", "100003.012500", "100003.472500", "100003.932500", "100004.392500", "100004.852500", "100005.312500", "100005.772500", "100006.232500", "100006.692500", "100007.152500", "100007.612500", "100008.072500", "100008.532500", "100008.992500", "100009.452500", "100009.912500", "100010.372500", "100010.832500", "100011.292500", "100011.752500", "100012.212500", "100012.672500", "100013.132500", "100013.592500", "100014.052500", "100014.512500", "100014.972500", "100015.432500", "100015.892500", "100016.352500", "100016.812500", "100017.272500", "100017.732500", "100018.192500", "100018.652500", "100019.112500", "100019.572500", "100020.032500", "100020.492500", "100020.952500", "100021.412500", "100021.872500", "100022.332500", "100022.792500", "100023.252500", "100023.712500", "100024.172500", "100024.632500", "100025.092500", "100025.552500", "100026.012500", "100026.472500", "100026.932500", "100027.392500", "100027.852500", "100028.312500", "100028.772500", "100029.232500", "100029.692500", "100030.152500", "100030.612500", "100031.072500", "100031.532500", "100031.992500", "100032.452500", "100032.912500", "100033.372500", "100033.832500", "100034.292500", "100034.752500", "100035.212500", "100035.672500", "100036.132500", "100036.592500", "100037.052500", "100037.512500", "100037.972500", "100038.432500", "100038.892500", "100039.352500", "100039.812500", "100040.272500", "100040.732500", "100041.192500", "100041.652500", "100042.112500", "100042.572500", "100043.032500", "100043.492500", "100043.952500", "100044.412500", "100044.872500", "100045.332500", "100045.792500", "100046.252500", "100046.712500", "100047.172500", "100047.632500", "100048.092500", "100048.552500", "100049.012500", "100049.472500", "100049.932500", "100050.392500", "100050.852500", "100051.312500", "100051.772500", "100052.232500", "100052.692500", "100053.152500", "100053.612500", "100054.072500", "100054.532500", "100054.992500", "100055.452500", "100055.912500", "100056.372500", "100056.832500", "100057.292500", "100057.752500", "100058.212500", "100058.672500", "100059.132500", "100059.592500", "100100.052500", "100100.512500", "100100.972500", "100101.432500", "100101.892500", "100102.352500", "100102.812500", "100103.272500", "100103.732500", "100104.192500", "100104.652500", "100105.112500", "100105.572500", "100106.032500", "100106.492500", "100106.952500", "100107.412500", "100107.872500", "100108.332500", "100108.792500", "100109.252500", "100109.712500", "100110.172500", "100110.632500", "100111.092500", "100111.552500", "100112.012500", "100112.472500", "100112.932500", "100113.392500", "100113.852500", "100114.312500", "100114.772500", "100115.232500", "100115.692500", "100116.152500", "100116.612500", "100117.072500", "100117.532500", "100117.992500", "100118.452500", "100118.912500", "100119.372500", "100119.832500", "100120.292500", "100120.752500", "100121.212500", "100121.672500", "100122.132500", "100122.592500", "100123.052500", "100123.512500", "100123.972500", "100124.432500", "100124.892500", "100125.352500", "100125.812500", "100126.272500", "100126.732500", "100127.192500", "100127.652500", "100128.112500", "100128.572500", "100129.032500", "100129.492500", "100129.952500", "100130.412500", "100130.872500", "100131.332500", "100131.792500", "100132.252500", "100132.712500", "100133.172500", "100133.632500", "100134.092500", "100134.552500", "100135.012500", "100135.472500", "100135.932500", "100136.392500", "100136.852500", "100137.312500", "100137.772500", "100138.232500", "100138.692500", "100139.152500", "100139.612500", "100140.072500", "100140.532500", "100140.992500", "100141.452500", "100141.912500", "100142.372500", "100142.832500", "100143.292500", "100143.752500", "100144.212500", "100144.672500", "100145.132500", "100145.592500", "100146.052500", "100146.512500", "100146.972500", "100147.432500", "100147.892500", "100148.352500", "100148.812500", "100149.272500", "100149.732500", "100150.192500", "100150.652500", "100151.112500", "100151.572500", "100152.032500", "100152.492500", "100152.952500", "100153.412500", "100153.872500", "100154.332500", "100154.792500", "100155.252500", "100155.712500", "100156.172500", "100156.632500", "100157.092500", "100157.552500", "100158.012500", "100158.472500", "100158.932500", "100159.392500", "100159.852500", "100200.312500", "100200.772500", "100201.232500", "100201.692500", "100202.152500", "100202.612500", "100203.072500", "100203.532500", "100203.992500", "100204.452500", "100204.912500", "100205.372500", "100205.832500", "100206.292500", "100206.752500", "100207.212500", "100207.672500", "100208.132500", "100208.592500", "100209.052500", "100209.512500", "100209.972500", "100210.432500", "100210.892500", "100211.352500", "100211.812500", "100212.272500", "100212.732500", "100213.192500", "100213.652500", "100214.112500", "100214.572500", "100215.032500", "100215.492500", "100215.952500", "100216.412500", "100216.872500", "100217.332500", "100217.792500", "100218.252500", "100218.712500", "100219.172500", "100219.632500", "100220.092500", "100220.552500", "100221.012500", "100221.472500", "100221.932500", "100222.392500", "100222.852500", "100223.312500", "100223.772500", "100224.232500", "100224.692500", "100225.152500", "100225.612500", "100226.072500", "100226.532500", "100226.992500", "100227.452500", "100227.912500", "100228.372500", "100228.832500", "100229.292500", "100229.752500", "100230.212500", "100230.672500", "100231.132500", "100231.592500", "100232.052500", "100232.512500", "100232.972500", "100233.432500", "100233.892500", "100234.352500", "100234.812500", "100235.272500", "100235.732500", "100236.192500", "100236.652500", "100237.112500", "100237.572500", "100238.032500", "100238.492500", "100238.952500", "100239.412500", "100239.872500", "100240.332500", "100240.792500", "100241.252500", "100241.712500", "100242.172500", "100242.632500", "100243.092500", "100243.552500", "100244.012500", "100244.472500", "100244.932500", "100245.392500", "100245.852500", "100246.312500", "100246.772500", "100247.232500", "100247.692500", "100248.152500", "100248.612500", "100249.072500", "100249.532500", "100249.992500", "100250.452500", "100250.912500", "100251.372500", "100251.832500", "100252.292500", "100252.752500", "100253.212500", "100253.672500", "100254.132500", "100254.592500", "100255.052500", "100255.512500", "100255.972500", "100256.432500", "100256.892500", "100257.352500", "100257.812500", "100258.272500", "100258.732500", "100259.192500", "100259.652500", "100300.112500", "100300.572500", "100301.032500", "100301.492500", "100301.952500", "100302.412500", "100302.872500", "100303.332500", "100303.792500", "100304.252500", "100304.712500", "100305.172500", "100305.632500", "100306.092500", "100306.552500", "100307.012500", "100307.472500", "100307.932500", "100308.392500", "100308.852500", "100309.312500", "100309.772500", "100310.232500", "100310.692500", "100311.152500", "100311.612500", "100312.072500", "100312.532500", "100312.992500", "100313.452500", "100313.912500", "100314.372500", "100314.832500", "100315.292500", "100315.752500", "100316.212500", "100316.672500", "100317.132500", "100317.592500", "100318.052500", "100318.512500", "100318.972500", "100319.432500", "100319.892500", "100320.352500", "100320.812500", "100321.272500", "100321.732500", "100322.192500", "100322.652500", "100323.112500", "100323.572500", "100324.032500", "100324.492500", "100324.952500", "100325.412500", "100325.872500", "100326.332500", "100326.792500", "100327.252500", "100327.712500", "100328.172500", "100328.632500", "100329.092500", "100329.552500", "100330.012500", "100330.472500", "100330.932500", "100331.392500", "100331.852500", "100332.312500", "100332.772500", "100333.232500", "100333.692500", "100334.152500", "100334.612500", "100335.072500", "100335.532500", "100335.992500", "100336.452500", "100336.912500", "100337.372500", "100337.832500", "100338.292500", "100338.752500", "100339.212500", "100339.672500", "100340.132500", "100340.592500", "100341.052500", "100341.512500", "100341.972500", "100342.432500", "100342.892500", "100343.352500", "100343.812500", "100344.272500", "100344.732500", "100345.192500", "100345.652500", "100346.112500", "100346.572500", "100347.032500", "100347.492500", "100347.952500", "100348.412500", "100348.872500", "100349.332500", "100349.792500", "100350.252500", "100350.712500", "100351.172500", "100351.632500", "100352.092500", "100352.552500", "100353.012500", "100353.472500", "100353.932500", "100354.392500", "100354.852500", "100355.312500", "100355.772500", "100356.232500", "100356.692500", "100357.152500", "100357.612500", "100358.072500", "100358.532500", "100358.992500", "100359.452500", "100359.912500", "100400.372500", "100400.832500", "100401.292500", "100401.752500", "100402.212500", "100402.672500", "100403.132500", "100403.592500", "100404.052500", "100404.512500", "100404.972500", "100405.432500", "100405.892500", "100406.352500", "100406.812500", "100407.272500", "100407.732500", "100408.192500", "100408.652500", "100409.112500", "100409.572500", "100410.032500", "100410.492500", "100410.952500", "100411.412500", "100411.872500", "100412.332500", "100412.792500", "100413.252500", "100413.712500", "100414.172500", "100414.632500", "100415.092500", "100415.552500", "100416.012500", "100416.472500", "100416.932500", "100417.392500", "100417.852500", "100418.312500", "100418.772500", "100419.232500", "100419.692500", "100420.152500", "100420.612500", "100421.072500", "100421.532500", "100421.992500", "100422.452500", "100422.912500", "100423.372500", "100423.832500", "100424.292500", "100424.752500"],
