{
  "AcquisitionMatrixPE": 82,
  "AcquisitionNumber": 1,
  "AcquisitionTime": "12:52:54.912500",
  "BandwidthPerPixelPhaseEncode": 24.888,
  "BaseResolution": 82,
  "BodyPartExamined": "BRAIN",
  "ConsistencyInfo": "N4_VE11E_LATEST_20181129",
  "ConversionSoftware": "dcm2niix",
  "ConversionSoftwareVersion": "v1.0.20201102",
  "DerivedVendorReportedEchoSpacing": 0.00049,
  "DeviceSerialNumber": "66112",
  "DwellTime": 2e-06,
  "EchoTime": 0.0272,
  "EchoTrainLength": 82,
  "EffectiveEchoSpacing": 0.00049,
  "FlipAngle": 44,
  "ImageComments": "Unaliased MB8/PE3",
  "ImageOrientationPatientDICOM": [0.998533, 0.0229113, 0.0490685, -0.0308568, 0.985329, 0.167854],
  "ImageType": [
    "ORIGINAL",
    "PRIMARY",
    "M",
    "MB",
    "ND",
    "NORM",
    "MOSAIC"
],
  "ImagingFrequency": 123.252,
  "InPlanePhaseEncodingDirectionDICOM": "COL",
  "InstitutionAddress": "Maynard 3,Hanover,NH,US,03755",
  "InstitutionName": "Dartmouth College - PBS",
  "InstitutionalDepartmentName": "Department",
  "MRAcquisitionType": "2D",
  "MagneticFieldStrength": 3,
  "Manufacturer": "Siemens",
  "ManufacturersModelName": "Prisma",
  "Modality": "MR",
  "MultibandAccelerationFactor": 8,
  "PartialFourier": 1,
  "PatientPosition": "HFS",
  "PercentPhaseFOV": 100,
  "PercentSampling": 100,
  "PhaseEncodingDirection": "j-",
  "PhaseEncodingSteps": 82,
  "PhaseResolution": 1,
  "PixelBandwidth": 3050,
  "ProcedureStepDescription": "Wager_Wager^1076_spacetop",
  "ProtocolName": "func_run-01_task-narratives_acq-ap-mb8",
  "PulseSequenceDetails": "%CustomerSeq%\\cmrr_mbep2d_bold",
  "ReceiveCoilActiveElements": "HEA;HEP",
  "ReceiveCoilName": "Head_32",
  "ReconMatrixPE": 82,
  "RepetitionTime": 0.46,
  "SAR": 0.100202,
  "ScanOptions": "FS",
  "ScanningSequence": "EP",
  "SequenceName": "epfid2d1_82",
  "SequenceVariant": "SK\\SS",
  "SeriesDescription": "func_run-01_task-narratives_acq-ap-mb8",
  "SeriesNumber": 12,
  "ShimSetting": [4139, -7717, -7291, 692, -27, -51, 10, 57],
  "SliceThickness": 2.7,
  "SliceTiming": [0, 0.25, 0.0625, 0.3125, 0.125, 0.375, 0.1875, 0, 0.25, 0.0625, 0.3125, 0.125, 0.375, 0.1875, 0, 0.25, 0.0625, 0.3125, 0.125, 0.375, 0.1875, 0, 0.25, 0.0625, 0.3125, 0.125, 0.375, 0.1875, 0, 0.25, 0.0625, 0.3125, 0.125, 0.375, 0.1875, 0, 0.25, 0.0625, 0.3125, 0.125, 0.375, 0.1875, 0, 0.25, 0.0625, 0.3125, 0.125, 0.375, 0.1875, 0, 0.25, 0.0625, 0.3125, 0.125, 0.375, 0.1875],
  "SoftwareVersions": "syngo MR E11",
  "SpacingBetweenSlices": 2.7,
  "StationName": "AWP66112",
  "TaskName": "narratives",
  "TotalReadoutTime": 0.03969,
  "TxRefAmp": 244.638,
  "WipMemBlock": "dd15e417-c8ed-4ae3-af26-7830157147f3||Sequence: R016 ve11e/master r/434b28f1; Aug  7 2019 18:53:46 by eja",
  "dcmmeta_affine": [
    [-2.678989887237549, -0.0827864333987236, 0.12015770375728607, 114.03868103027344],
    [-0.06146930158138275, 2.6435654163360596, 0.4566282033920288, -107.91548156738281],
    [0.13164716958999634, -0.4503393769264221, 2.658393144607544, -53.67765808105469],
    [0.0, 0.0, 0.0, 1.0]
],
  "dcmmeta_reorient_transform": [
    [0.0, -1.0, 0.0, 81.0],
    [1.0, 0.0, 0.0, 0.0],
    [0.0, 0.0, 1.0, 0.0],
    [0.0, 0.0, 0.0, 1.0]
],
  "dcmmeta_shape": [82, 82, 56, 967],
  "dcmmeta_slice_dim": 2,
  "dcmmeta_version": 0.6,
  "global": {
    "const": {
      "AccessionNumber": "A003914",
      "AcquisitionMatrix": [82, 0, 0, 82],
      "AngioFlag": "N",
      "BitsAllocated": 16,
      "BitsStored": 16,
      "BodyPartExamined": "BRAIN",
      "Columns": 656,
      "EchoNumbers": 1,
      "EchoTime": 27.2,
      "EchoTrainLength": 82,
      "FlipAngle": 44.0,
      "HighBit": 15,
      "ImageOrientationPatient": [0.99853260161955, 0.02291128502723, 0.04906848806814, -0.0308567601707, 0.98532886567138, 0.16785376619704],
      "ImagePositionPatient": [-852.44339194268, -882.55824282565, -257.18528947645],
      "ImageType": [
        "ORIGINAL",
        "PRIMARY",
        "M",
        "MB",
        "ND",
        "NORM",
        "MOSAIC"
],
      "ImagedNucleus": "1H",
      "ImagingFrequency": 123.252238,
      "InPlanePhaseEncodingDirection": "COL",
      "MRAcquisitionType": "2D",
      "MagneticFieldStrength": 3.0,
      "Manufacturer": "SIEMENS",
      "ManufacturerModelName": "Prisma",
      "Modality": "MR",
      "NumberOfAverages": 1.0,
      "NumberOfPhaseEncodingSteps": 82,
      "PercentPhaseFieldOfView": 100.0,
      "PercentSampling": 100.0,
      "PerformedProcedureStepStartTime": "123814.769000",
      "PhotometricInterpretation": "MONOCHROME2",
      "PixelBandwidth": 3050.0,
      "PixelRepresentation": 0,
      "PixelSpacing": [2.6829268932343, 2.6829268932343],
      "ProtocolName": "func_run-01_task-narratives_acq-ap-mb8",
      "RepetitionTime": 460.0,
      "Rows": 656,
      "SAR": 0.10020230264622,
      "SamplesPerPixel": 1,
      "ScanOptions": "FS",
      "ScanningSequence": "EP",
      "SequenceName": "epfid2d1_82",
      "SequenceVariant": [
        "SK",
        "SS"
],
      "SeriesDescription": "func_run-01_task-narratives_acq-ap-mb8",
      "SeriesNumber": 12,
      "SeriesTime": "125313.570000",
      "SliceLocation": -66.02627241841,
      "SliceThickness": 2.7000000476837,
      "SmallestImagePixelValue": 0,
      "SoftwareVersions": "syngo MR E11",
      "SpacingBetweenSlices": 2.7000001253946,
      "SpecificCharacterSet": "ISO_IR 100",
      "StudyID": "2",
      "StudyTime": "123814.722000",
      "TransmitCoilName": "Body",
      "VariableFlipAngleFlag": "N",
      "WindowCenterWidthExplanation": "Algo1"
    },
    "slices": {}
  },
  "time": {
    "samples": {
      "AcquisitionNumber": [1, 2, 3, 4, 5, 6, 7, 8, 9, 10, 11, 12, 13, 14, 15, 16, 17, 18, 19, 20, 21, 22, 23, 24, 25, 26, 27, 28, 29, 30, 31, 32, 33, 34, 35, 36, 37, 38, 39, 40, 41, 42, 43, 44, 45, 46, 47, 48, 49, 50, 51, 52, 53, 54, 55, 56, 57, 58, 59, 60, 61, 62, 63, 64, 65, 66, 67, 68, 69, 70, 71, 72, 73, 74, 75, 76, 77, 78, 79, 80, 81, 82, 83, 84, 85, 86, 87, 88, 89, 90, 91, 92, 93, 94, 95, 96, 97, 98, 99, 100, 101, 102, 103, 104, 105, 106, 107, 108, 109, 110, 111, 112, 113, 114, 115, 116, 117, 118, 119, 120, 121, 122, 123, 124, 125, 126, 127, 128, 129, 130, 131, 132, 133, 134, 135, 136, 137, 138, 139, 140, 141, 142, 143, 144, 145, 146, 147, 148, 149, 150, 151, 152, 153, 154, 155, 156, 157, 158, 159, 160, 161, 162, 163, 164, 165, 166, 167, 168, 169, 170, 171, 172, 173, 174, 175, 176, 177, 178, 179, 180, 181, 182, 183, 184, 185, 186, 187, 188, 189, 190, 191, 192, 193, 194, 195, 196, 197, 198, 199, 200, 201, 202, 203, 204, 205, 206, 207, 208, 209, 210, 211, 212, 213, 214, 215, 216, 217, 218, 219, 220, 221, 222, 223, 224, 225, 226, 227, 228, 229, 230, 231, 232, 233, 234, 235, 236, 237, 238, 239, 240, 241, 242, 243, 244, 245, 246, 247, 248, 249, 250, 251, 252, 253, 254, 255, 256, 257, 258, 259, 260, 261, 262, 263, 264, 265, 266, 267, 268, 269, 270, 271, 272, 273, 274, 275, 276, 277, 278, 279, 280, 281, 282, 283, 284, 285, 286, 287, 288, 289, 290, 291, 292, 293, 294, 295, 296, 297, 298, 299, 300, 301, 302, 303, 304, 305, 306, 307, 308, 309, 310, 311, 312, 313, 314, 315, 316, 317, 318, 319, 320, 321, 322, 323, 324, 325, 326, 327, 328, 329, 330, 331, 332, 333, 334, 335, 336, 337, 338, 339, 340, 341, 342, 343, 344, 345, 346, 347, 348, 349, 350, 351, 352, 353, 354, 355, 356, 357, 358, 359, 360, 361, 362, 363, 364, 365, 366, 367, 368, 369, 370, 371, 372, 373, 374, 375, 376, 377, 378, 379, 380, 381, 382, 383, 384, 385, 386, 387, 388, 389, 390, 391, 392, 393, 394, 395, 396, 397, 398, 399, 400, 401, 402, 403, 404, 405, 406, 407, 408, 409, 410, 411, 412, 413, 414, 415, 416, 417, 418, 419, 420, 421, 422, 423, 424, 425, 426, 427, 428, 429, 430, 431, 432, 433, 434, 435, 436, 437, 438, 439, 440, 441, 442, 443, 444, 445, 446, 447, 448, 449, 450, 451, 452, 453, 454, 455, 456, 457, 458, 459, 460, 461, 462, 463, 464, 465, 466, 467, 468, 469, 470, 471, 472, 473, 474, 475, 476, 477, 478, 479, 480, 481, 482, 483, 484, 485, 486, 487, 488, 489, 490, 491, 492, 493, 494, 495, 496, 497, 498, 499, 500, 501, 502, 503, 504, 505, 506, 507, 508, 509, 510, 511, 512, 513, 514, 515, 516, 517, 518, 519, 520, 521, 522, 523, 524, 525, 526, 527, 528, 529, 530, 531, 532, 533, 534, 535, 536, 537, 538, 539, 540, 541, 542, 543, 544, 545, 546, 547, 548, 549, 550, 551, 552, 553, 554, 555, 556, 557, 558, 559, 560, 561, 562, 563, 564, 565, 566, 567, 568, 569, 570, 571, 572, 573, 574, 575, 576, 577, 578, 579, 580, 581, 582, 583, 584, 585, 586, 587, 588, 589, 590, 591, 592, 593, 594, 595, 596, 597, 598, 599, 600, 601, 602, 603, 604, 605, 606, 607, 608, 609, 610, 611, 612, 613, 614, 615, 616, 617, 618, 619, 620, 621, 622, 623, 624, 625, 626, 627, 628, 629, 630, 631, 632, 633, 634, 635, 636, 637, 638, 639, 640, 641, 642, 643, 644, 645, 646, 647, 648, 649, 650, 651, 652, 653, 654, 655, 656, 657, 658, 659, 660, 661, 662, 663, 664, 665, 666, 667, 668, 669, 670, 671, 672, 673, 674, 675, 676, 677, 678, 679, 680, 681, 682, 683, 684, 685, 686, 687, 688, 689, 690, 691, 692, 693, 694, 695, 696, 697, 698, 699, 700, 701, 702, 703, 704, 705, 706, 707, 708, 709, 710, 711, 712, 713, 714, 715, 716, 717, 718, 719, 720, 721, 722, 723, 724, 725, 726, 727, 728, 729, 730, 731, 732, 733, 734, 735, 736, 737, 738, 739, 740, 741, 742, 743, 744, 745, 746, 747, 748, 749, 750, 751, 752, 753, 754, 755, 756, 757, 758, 759, 760, 761, 762, 763, 764, 765, 766, 767, 768, 769, 770, 771, 772, 773, 774, 775, 776, 777, 778, 779, 780, 781, 782, 783, 784, 785, 786, 787, 788, 789, 790, 791, 792, 793, 794, 795, 796, 797, 798, 799, 800, 801, 802, 803, 804, 805, 806, 807, 808, 809, 810, 811, 812, 813, 814, 815, 816, 817, 818, 819, 820, 821, 822, 823, 824, 825, 826, 827, 828, 829, 830, 831, 832, 833, 834, 835, 836, 837, 838, 839, 840, 841, 842, 843, 844, 845, 846, 847, 848, 849, 850, 851, 852, 853, 854, 855, 856, 857, 858, 859, 860, 861, 862, 863, 864, 865, 866, 867, 868, 869, 870, 871, 872, 873, 874, 875, 876, 877, 878, 879, 880, 881, 882, 883, 884, 885, 886, 887, 888, 889, 890, 891, 892, 893, 894, 895, 896, 897, 898, 899, 900, 901, 902, 903, 904, 905, 906, 907, 908, 909, 910, 911, 912, 913, 914, 915, 916, 917, 918, 919, 920, 921, 922, 923, 924, 925, 926, 927, 928, 929, 930, 931, 932, 933, 934, 935, 936, 937, 938, 939, 940, 941, 942, 943, 944, 945, 946, 947, 948, 949, 950, 951, 952, 953, 954, 955, 956, 957, 958, 959, 960, 961, 962, 963, 964, 965, 966, 967],
      "AcquisitionTime": ["125254.912500", "125255.372500", "125255.832500", "125256.292500", "125256.752500", "125257.212500", "125257.672500", "125258.132500", "125258.592500", "125259.052500", "125259.512500", "125259.972500", "125300.432500", "125300.892500", "125301.352500", "125301.812500", "125302.272500", "125302.732500", "125303.192500", "125303.652500", "125304.112500", "125304.572500", "125305.032500", "125305.492500", "125305.952500", "125306.412500", "125306.872500", "125307.332500", "125307.792500", "125308.252500", "125308.712500", "125309.172500", "125309.632500", "125310.092500", "125310.552500", "125311.012500", "125311.472500", "125311.932500", "125312.392500", "125312.852500", "125313.312500", "125313.772500", "125314.232500", "125314.692500", "125315.152500", "125315.612500", "125316.072500", "125316.532500", "125316.992500", "125317.452500", "125317.912500", "125318.372500", "125318.832500", "125319.292500", "125319.752500", "125320.212500", "125320.672500", "125321.132500", "125321.592500", "125322.052500", "125322.512500", "125322.972500", "125323.432500", "125323.892500", "125324.352500", "125324.812500", "125325.272500", "125325.732500", "125326.192500", "125326.652500", "125327.112500", "125327.572500", "125328.032500", "125328.492500", "125328.952500", "125329.412500", "125329.872500", "125330.332500", "125330.792500", "125331.252500", "125331.712500", "125332.172500", "125332.632500", "125333.092500", "125333.552500", "125334.012500", "125334.472500", "125334.932500", "125335.392500", "125335.852500", "125336.312500", "125336.772500", "125337.232500", "125337.692500", "125338.152500", "125338.612500", "125339.072500", "125339.532500", "125339.992500", "125340.452500", "125340.912500", "125341.372500", "125341.832500", "125342.292500", "125342.752500", "125343.212500", "125343.672500", "125344.132500", "125344.592500", "125345.052500", "125345.512500", "125345.972500", "125346.432500", "125346.892500", "125347.352500", "125347.812500", "125348.272500", "125348.732500", "125349.192500", "125349.652500", "125350.112500", "125350.572500", "125351.032500", "125351.492500", "125351.952500", "125352.412500", "125352.872500", "125353.332500", "125353.792500", "125354.252500", "125354.712500", "125355.172500", "125355.632500", "125356.092500", "125356.552500", "125357.012500", "125357.472500", "125357.932500", "125358.392500", "125358.852500", "125359.312500", "125359.772500", "125400.232500", "125400.692500", "125401.152500", "125401.612500", "125402.072500", "125402.532500", "125402.992500", "125403.452500", "125403.912500", "125404.372500", "125404.832500", "125405.292500", "125405.752500", "125406.212500", "125406.672500", "125407.132500", "125407.592500", "125408.052500", "125408.512500", "125408.972500", "125409.432500", "125409.892500", "125410.352500", "125410.812500", "125411.272500", "125411.732500", "125412.192500", "125412.652500", "125413.112500", "125413.572500", "125414.032500", "125414.492500", "125414.952500", "125415.412500", "125415.872500", "125416.332500", "125416.792500", "125417.252500", "125417.712500", "125418.172500", "125418.632500", "125419.092500", "125419.552500", "125420.012500", "125420.472500", "125420.932500", "125421.392500", "125421.852500", "125422.312500", "125422.772500", "125423.232500", "125423.692500", "125424.152500", "125424.612500", "125425.072500", "125425.532500", "125425.992500", "125426.452500", "125426.912500", "125427.372500", "125427.832500", "125428.292500", "125428.752500", "125429.212500", "125429.672500", "125430.132500", "125430.592500", "125431.052500", "125431.512500", "125431.972500", "125432.432500", "125432.892500", "125433.352500", "125433.812500", "125434.272500", "125434.732500", "125435.192500", "125435.652500", "125436.112500", "125436.572500", "125437.032500", "125437.492500", "125437.952500", "125438.412500", "125438.872500", "125439.332500", "125439.792500", "125440.252500", "125440.712500", "125441.172500", "125441.632500", "125442.092500", "125442.552500", "125443.012500", "125443.472500", "125443.932500", "125444.392500", "125444.852500", "125445.312500", "125445.772500", "125446.232500", "125446.692500", "125447.152500", "125447.612500", "125448.072500", "125448.532500", "125448.992500", "125449.452500", "125449.912500", "125450.372500", "125450.832500", "125451.292500", "125451.752500", "125452.212500", "125452.672500", "125453.132500", "125453.592500", "125454.052500", "125454.512500", "125454.972500", "125455.432500", "125455.892500", "125456.352500", "125456.812500", "125457.272500", "125457.732500", "125458.192500", "125458.652500", "125459.112500", "125459.572500", "125500.032500", "125500.492500", "125500.952500", "125501.412500", "125501.872500", "125502.332500", "125502.792500", "125503.252500", "125503.712500", "125504.172500", "125504.632500", "125505.092500", "125505.552500", "125506.012500", "125506.472500", "125506.932500", "125507.392500", "125507.852500", "125508.312500", "125508.772500", "125509.232500", "125509.692500", "125510.152500", "125510.612500", "125511.072500", "125511.532500", "125511.992500", "125512.452500", "125512.912500", "125513.372500", "125513.832500", "125514.292500", "125514.752500", "125515.212500", "125515.672500", "125516.132500", "125516.592500", "125517.052500", "125517.512500", "125517.972500", "125518.432500", "125518.892500", "125519.352500", "125519.812500", "125520.272500", "125520.732500", "125521.192500", "125521.652500", "125522.112500", "125522.572500", "125523.032500", "125523.492500", "125523.952500", "125524.412500", "125524.872500", "125525.332500", "125525.792500", "125526.252500", "125526.712500", "125527.172500", "125527.632500", "125528.092500", "125528.552500", "125529.012500", "125529.472500", "125529.932500", "125530.392500", "125530.852500", "125531.312500", "125531.772500", "125532.232500", "125532.692500", "125533.152500", "125533.612500", "125534.072500", "125534.532500", "125534.992500", "125535.452500", "125535.912500", "125536.372500", "125536.832500", "125537.292500", "125537.752500", "125538.212500", "125538.672500", "125539.132500", "125539.592500", "125540.052500", "125540.512500", "125540.972500", "125541.432500", "125541.892500", "125542.352500", "125542.812500", "125543.272500", "125543.732500", "125544.192500", "125544.652500", "125545.112500", "125545.572500", "125546.032500", "125546.492500", "125546.952500", "125547.412500", "125547.872500", "125548.332500", "125548.792500", "125549.252500", "125549.712500", "125550.172500", "125550.632500", "125551.092500", "125551.552500", "125552.012500", "125552.472500", "125552.932500", "125553.392500", "125553.852500", "125554.312500", "125554.772500", "125555.232500", "125555.692500", "125556.152500", "125556.612500", "125557.072500", "125557.532500", "125557.992500", "125558.452500", "125558.912500", "125559.372500", "125559.832500", "125600.292500", "125600.752500", "125601.212500", "125601.672500", "125602.132500", "125602.592500", "125603.052500", "125603.512500", "125603.972500", "125604.432500", "125604.892500", "125605.352500", "125605.812500", "125606.272500", "125606.732500", "125607.192500", "125607.652500", "125608.112500", "125608.572500", "125609.032500", "125609.492500", "125609.952500", "125610.412500", "125610.872500", "125611.332500", "125611.792500", "125612.252500", "125612.712500", "125613.172500", "125613.632500", "125614.092500", "125614.552500", "125615.012500", "125615.472500", "125615.932500", "125616.392500", "125616.852500", "125617.312500", "125617.772500", "125618.232500", "125618.692500", "125619.152500", "125619.612500", "125620.072500", "125620.532500", "125620.992500", "125621.452500", "125621.912500", "125622.372500", "125622.832500", "125623.292500", "125623.752500", "125624.212500", "125624.672500", "125625.132500", "125625.592500", "125626.052500", "125626.512500", "125626.972500", "125627.432500", "125627.892500", "125628.352500", "125628.812500", "125629.272500", "125629.732500", "125630.192500", "125630.652500", "125631.112500", "125631.572500", "125632.032500", "125632.492500", "125632.952500", "125633.412500", "125633.872500", "125634.332500", "125634.792500", "125635.252500", "125635.712500", "125636.172500", "125636.632500", "125637.092500", "125637.552500", "125638.012500", "125638.472500", "125638.932500", "125639.392500", "125639.852500", "125640.312500", "125640.772500", "125641.232500", "125641.692500", "125642.152500", "125642.612500", "125643.072500", "125643.532500", "125643.992500", "125644.452500", "125644.912500", "125645.372500", "125645.832500", "125646.292500", "125646.752500", "125647.212500", "125647.672500", "125648.132500", "125648.592500", "125649.052500", "125649.512500", "125649.972500", "125650.432500", "125650.892500", "125651.352500", "125651.812500", "125652.272500", "125652.732500", "125653.192500", "125653.652500", "125654.112500", "125654.572500", "125655.032500", "125655.492500", "125655.952500", "125656.412500", "125656.872500", "125657.332500", "125657.792500", "125658.252500", "125658.712500", "125659.172500", "125659.632500", "125700.092500", "125700.552500", "125701.012500", "125701.472500", "125701.932500", "125702.392500", "125702.852500", "125703.312500", "125703.772500", "125704.232500", "125704.692500", "125705.152500", "125705.612500", "125706.072500", "125706.532500", "125706.992500", "125707.452500", "125707.912500", "125708.372500", "125708.832500", "125709.292500", "125709.752500", "125710.212500", "125710.672500", "125711.132500", "125711.592500", "125712.052500", "125712.512500", "125712.972500", "125713.432500", "125713.892500", "125714.352500", "125714.812500", "125715.272500", "125715.732500", "125716.192500", "125716.652500", "125717.112500", "125717.572500", "125718.032500", "125718.492500", "125718.952500", "125719.412500", "125719.872500", "125720.332500", "125720.792500", "125721.252500", "125721.712500", "125722.172500", "125722.632500", "125723.092500", "125723.552500", "125724.012500", "125724.472500", "125724.932500", "125725.392500", "125725.852500", "125726.312500", "125726.772500", "125727.232500", "125727.692500", "125728.152500", "125728.612500", "125729.072500", "125729.532500", "125729.992500", "125730.452500", "125730.912500", "125731.372500", "125731.832500", "125732.292500", "125732.752500", "125733.212500", "125733.672500", "125734.132500", "125734.592500", "125735.052500", "125735.512500", "125735.972500", "125736.432500", "125736.892500", "125737.352500", "125737.812500", "125738.272500", "125738.732500", "125739.192500", "125739.652500", "125740.112500", "125740.572500", "125741.032500", "125741.492500", "125741.952500", "125742.412500", "125742.872500", "125743.332500", "125743.792500", "125744.252500", "125744.712500", "125745.172500", "125745.632500", "125746.092500", "125746.552500", "125747.012500", "125747.472500", "125747.932500", "125748.392500", "125748.852500", "125749.312500", "125749.772500", "125750.232500", "125750.692500", "125751.152500", "125751.612500", "125752.072500", "125752.532500", "125752.992500", "125753.452500", "125753.912500", "125754.372500", "125754.832500", "125755.292500", "125755.752500", "125756.212500", "125756.672500", "125757.132500", "125757.592500", "125758.052500", "125758.512500", "125758.972500", "125759.432500", "125759.892500", "125800.352500", "125800.812500", "125801.272500", "125801.732500", "125802.192500", "125802.652500", "125803.112500", "125803.572500", "125804.032500", "125804.492500", "125804.952500", "125805.412500", "125805.872500", "125806.332500", "125806.792500", "125807.252500", "125807.712500", "125808.172500", "125808.632500", "125809.092500", "125809.552500", "125810.012500", "125810.472500", "125810.932500", "125811.392500", "125811.852500", "125812.312500", "125812.772500", "125813.232500", "125813.692500", "125814.152500", "125814.612500", "125815.072500", "125815.532500", "125815.992500", "125816.452500", "125816.912500", "125817.372500", "125817.832500", "125818.292500", "125818.752500", "125819.212500", "125819.672500", "125820.132500", "125820.592500", "125821.052500", "125821.512500", "125821.972500", "125822.432500", "125822.892500", "125823.352500", "125823.812500", "125824.272500", "125824.732500", "125825.192500", "125825.652500", "125826.112500", "125826.572500", "125827.032500", "125827.492500", "125827.952500", "125828.412500", "125828.872500", "125829.332500", "125829.792500", "125830.252500", "125830.712500", "125831.172500", "125831.632500", "125832.092500", "125832.552500", "125833.012500", "125833.472500", "125833.932500", "125834.392500", "125834.852500", "125835.312500", "125835.772500", "125836.232500", "125836.692500", "125837.152500", "125837.612500", "125838.072500", "125838.532500", "125838.992500", "125839.452500", "125839.912500", "125840.372500", "125840.832500", "125841.292500", "125841.752500", "125842.212500", "125842.672500", "125843.132500", "125843.592500", "125844.052500", "125844.512500", "125844.972500", "125845.432500", "125845.892500", "125846.352500", "125846.812500", "125847.272500", "125847.732500", "125848.192500", "125848.652500", "125849.112500", "125849.572500", "125850.032500", "125850.492500", "125850.952500", "125851.412500", "125851.872500", "125852.332500", "125852.792500", "125853.252500", "125853.712500", "125854.172500", "125854.632500", "125855.092500", "125855.552500", "125856.012500", "125856.472500", "125856.932500", "125857.392500", "125857.852500", "125858.312500", "125858.772500", "125859.232500", "125859.692500", "125900.152500", "125900.612500", "125901.072500", "125901.532500", "125901.992500", "125902.452500", "125902.912500", "125903.372500", "125903.832500", "125904.292500", "125904.752500", "125905.212500", "125905.672500", "125906.132500", "125906.592500", "125907.052500", "125907.512500", "125907.972500", "125908.432500", "125908.892500", "125909.352500", "125909.812500", "125910.272500", "125910.732500", "125911.192500", "125911.652500", "125912.112500", "125912.572500", "125913.032500", "125913.492500", "125913.952500", "125914.412500", "125914.872500", "125915.332500", "125915.792500", "125916.252500", "125916.712500", "125917.172500", "125917.632500", "125918.092500", "125918.552500", "125919.012500", "125919.472500", "125919.932500", "125920.392500", "125920.852500", "125921.312500", "125921.772500", "125922.232500", "125922.692500", "125923.152500", "125923.612500", "125924.072500", "125924.532500", "125924.992500", "125925.452500", "125925.912500", "125926.372500", "125926.832500", "125927.292500", "125927.752500", "125928.212500", "125928.672500", "125929.132500", "125929.592500", "125930.052500", "125930.512500", "125930.972500", "125931.432500", "125931.892500", "125932.352500", "125932.812500", "125933.272500", "125933.732500", "125934.192500", "125934.652500", "125935.112500", "125935.572500", "125936.032500", "125936.492500", "125936.952500", "125937.412500", "125937.872500", "125938.332500", "125938.792500", "125939.252500", "125939.712500", "125940.172500", "125940.632500", "125941.092500", "125941.552500", "125942.012500", "125942.472500", "125942.932500", "125943.392500", "125943.852500", "125944.312500", "125944.772500", "125945.232500", "125945.692500", "125946.152500", "125946.612500", "125947.072500", "125947.532500", "125947.992500", "125948.452500", "125948.912500", "125949.372500", "125949.832500", "125950.292500", "125950.752500", "125951.212500", "125951.672500", "125952.132500", "125952.592500", "125953.052500", "125953.512500", "125953.972500", "125954.432500", "125954.892500", "125955.352500", "125955.812500", "125956.272500", "125956.732500", "125957.192500", "125957.652500", "125958.112500", "125958.572500", "125959.032500", "125959.492500", "125959.952500", "130000.412500", "130000.872500", "130001.332500", "130001.792500", "130002.252500", "130002.712500", "130003.172500", "130003.632500", "130004.092500", "130004.552500", "130005.012500", "130005.472500", "130005.932500", "130006.392500", "130006.852500", "130007.312500", "130007.772500", "130008.232500", "130008.692500", "130009.152500", "130009.612500", "130010.072500", "130010.532500", "130010.992500", "130011.452500", "130011.912500", "130012.372500", "130012.832500", "130013.292500", "130013.752500", "130014.212500", "130014.672500", "130015.132500", "130015.592500", "130016.052500", "130016.512500", "130016.972500", "130017.432500", "130017.892500", "130018.352500", "130018.812500", "130019.272500"],
