{
  "AcquisitionMatrixPE": 82,
  "AcquisitionNumber": 1,
  "AcquisitionTime": "15:29:48.205000",
  "BandwidthPerPixelPhaseEncode": 24.888,
  "BaseResolution": 82,
  "BodyPartExamined": "BRAIN",
  "ConsistencyInfo": "N4_VE11C_LATEST_20160120",
  "ConversionSoftware": "dcm2niix",
  "ConversionSoftwareVersion": "v1.0.20201102",
  "DerivedVendorReportedEchoSpacing": 0.00049,
  "DeviceSerialNumber": "66112",
  "DwellTime": 2e-06,
  "EchoTime": 0.0272,
  "EchoTrainLength": 82,
  "EffectiveEchoSpacing": 0.00049,
  "FlipAngle": 44,
  "ImageComments": "Unaliased MB8/PE3",
  "ImageOrientationPatientDICOM": [0.998848, 0.0277578, 0.0391475, -0.03139, 0.994939, 0.0954474],
  "ImageType": [
    "ORIGINAL",
    "PRIMARY",
    "M",
    "MB",
    "ND",
    "NORM",
    "MOSAIC"
],
  "ImagingFrequency": 123.252,
  "InPlanePhaseEncodingDirectionDICOM": "COL",
  "InstitutionAddress": "Maynard 3,Hanover,NH,US,03755",
  "InstitutionName": "Dartmouth College - PBS",
  "InstitutionalDepartmentName": "Department",
  "MRAcquisitionType": "2D",
  "MagneticFieldStrength": 3,
  "Manufacturer": "Siemens",
  "ManufacturersModelName": "Prisma",
  "Modality": "MR",
  "MultibandAccelerationFactor": 8,
  "PartialFourier": 1,
  "PatientPosition": "HFS",
  "PercentPhaseFOV": 100,
  "PercentSampling": 100,
  "PhaseEncodingDirection": "j-",
  "PhaseEncodingSteps": 82,
  "PhaseResolution": 1,
  "PixelBandwidth": 3050,
  "ProcedureStepDescription": "Wager_Wager^1076_spacetop",
  "ProtocolName": "func_run-02_task-narratives_acq-ap-mb8",
  "PulseSequenceDetails": "%CustomerSeq%\\cmrr_mbep2d_bold",
  "ReceiveCoilActiveElements": "HEA;HEP",
  "ReceiveCoilName": "Head_32",
  "ReconMatrixPE": 82,
  "RepetitionTime": 0.46,
  "SAR": 0.0778531,
  "ScanOptions": "FS",
  "ScanningSequence": "EP",
  "SequenceName": "epfid2d1_82",
  "SequenceVariant": "SK\\SS",
  "SeriesDescription": "func_run-02_task-narratives_acq-ap-mb8",
  "SeriesNumber": 12,
  "ShimSetting": [4148, -7732, -7316, 525, -56, -227, -31, 66],
  "SliceThickness": 2.7,
  "SliceTiming": [0, 0.25, 0.0625, 0.3125, 0.125, 0.3775, 0.1875, 0, 0.25, 0.0625, 0.3125, 0.125, 0.3775, 0.1875, 0, 0.25, 0.0625, 0.3125, 0.125, 0.3775, 0.1875, 0, 0.25, 0.0625, 0.3125, 0.125, 0.3775, 0.1875, 0, 0.25, 0.0625, 0.3125, 0.125, 0.3775, 0.1875, 0, 0.25, 0.0625, 0.3125, 0.125, 0.3775, 0.1875, 0, 0.25, 0.0625, 0.3125, 0.125, 0.3775, 0.1875, 0, 0.25, 0.0625, 0.3125, 0.125, 0.3775, 0.1875],
  "SoftwareVersions": "syngo MR E11",
  "SpacingBetweenSlices": 2.7,
  "StationName": "AWP66112",
  "TaskName": "narratives",
  "TotalReadoutTime": 0.03969,
  "TxRefAmp": 221.713,
  "WipMemBlock": "cfe2a83f-7236-4628-b630-bc4ca1414e26||Sequence: R016 ve11c/master r/e634e98; Dec 19 2017 11:00:25 by eja",
  "dcmmeta_affine": [
    [-2.679835796356201, -0.08421707898378372, 0.09800982475280762, 112.18988037109375],
    [-0.0744720995426178, 2.6693496704101562, 0.26072898507118225, -105.0618896484375],
    [0.10502975434064865, -0.25607845187187195, 2.685593843460083, -80.7967529296875],
    [0.0, 0.0, 0.0, 1.0]
],
  "dcmmeta_reorient_transform": [
    [0.0, -1.0, 0.0, 81.0],
    [1.0, 0.0, 0.0, 0.0],
    [0.0, 0.0, 1.0, 0.0],
    [0.0, 0.0, 0.0, 1.0]
],
  "dcmmeta_shape": [82, 82, 56, 1098],
  "dcmmeta_slice_dim": 2,
  "dcmmeta_version": 0.6,
  "global": {
    "const": {
      "AccessionNumber": "A003508",
      "AcquisitionMatrix": [82, 0, 0, 82],
      "AngioFlag": "N",
      "BitsAllocated": 16,
      "BitsStored": 16,
      "BodyPartExamined": "BRAIN",
      "Columns": 656,
      "EchoNumbers": 1,
      "EchoTime": 27.2,
      "EchoTrainLength": 82,
      "FlipAngle": 44.0,
      "HighBit": 15,
      "ImageOrientationPatient": [0.99884782752646, 0.02775778137465, 0.03914745226491, -0.031390001158, 0.99493942387572, 0.09544742346006],
      "ImagePositionPatient": [-850.31083759994, -898.63230569728, -205.17716655759],
      "ImageType": [
        "ORIGINAL",
        "PRIMARY",
        "M",
        "MB",
        "ND",
        "NORM",
        "MOSAIC"
],
      "ImagedNucleus": "1H",
      "ImagingFrequency": 123.252178,
      "InPlanePhaseEncodingDirection": "COL",
      "MRAcquisitionType": "2D",
      "MagneticFieldStrength": 3.0,
      "Manufacturer": "SIEMENS",
      "ManufacturerModelName": "Prisma",
      "Modality": "MR",
      "NumberOfAverages": 1.0,
      "NumberOfPhaseEncodingSteps": 82,
      "PercentPhaseFieldOfView": 100.0,
      "PercentSampling": 100.0,
      "PerformedProcedureStepStartTime": "143345.696000",
      "PhotometricInterpretation": "MONOCHROME2",
      "PixelBandwidth": 3050.0,
      "PixelRepresentation": 0,
      "PixelSpacing": [2.6829268932343, 2.6829268932343],
      "ProtocolName": "func_run-02_task-narratives_acq-ap-mb8",
      "RepetitionTime": 460.0,
      "Rows": 656,
      "SAR": 0.0778531344764,
      "SamplesPerPixel": 1,
      "ScanOptions": "FS",
      "ScanningSequence": "EP",
      "SequenceName": "epfid2d1_82",
      "SequenceVariant": [
        "SK",
        "SS"
],
      "SeriesDescription": "func_run-02_task-narratives_acq-ap-mb8",
      "SeriesNumber": 12,
      "SeriesTime": "153002.536000",
      "SliceLocation": -86.438607031337,
      "SliceThickness": 2.7000000476837,
      "SmallestImagePixelValue": 0,
      "SoftwareVersions": "syngo MR E11",
      "SpacingBetweenSlices": 2.6999999527921,
      "SpecificCharacterSet": "ISO_IR 100",
      "StudyID": "2",
      "StudyTime": "143345.618000",
      "TransmitCoilName": "Body",
      "VariableFlipAngleFlag": "N",
      "WindowCenterWidthExplanation": "Algo1",
      "dBdt": 0.0},
    "slices": {}
  },
  "time": {
    "samples": {
      "AcquisitionNumber": [1, 2, 3, 4, 5, 6, 7, 8, 9, 10, 11, 12, 13, 14, 15, 16, 17, 18, 19, 20, 21, 22, 23, 24, 25, 26, 27, 28, 29, 30, 31, 32, 33, 34, 35, 36, 37, 38, 39, 40, 41, 42, 43, 44, 45, 46, 47, 48, 49, 50, 51, 52, 53, 54, 55, 56, 57, 58, 59, 60, 61, 62, 63, 64, 65, 66, 67, 68, 69, 70, 71, 72, 73, 74, 75, 76, 77, 78, 79, 80, 81, 82, 83, 84, 85, 86, 87, 88, 89, 90, 91, 92, 93, 94, 95, 96, 97, 98, 99, 100, 101, 102, 103, 104, 105, 106, 107, 108, 109, 110, 111, 112, 113, 114, 115, 116, 117, 118, 119, 120, 121, 122, 123, 124, 125, 126, 127, 128, 129, 130, 131, 132, 133, 134, 135, 136, 137, 138, 139, 140, 141, 142, 143, 144, 145, 146, 147, 148, 149, 150, 151, 152, 153, 154, 155, 156, 157, 158, 159, 160, 161, 162, 163, 164, 165, 166, 167, 168, 169, 170, 171, 172, 173, 174, 175, 176, 177, 178, 179, 180, 181, 182, 183, 184, 185, 186, 187, 188, 189, 190, 191, 192, 193, 194, 195, 196, 197, 198, 199, 200, 201, 202, 203, 204, 205, 206, 207, 208, 209, 210, 211, 212, 213, 214, 215, 216, 217, 218, 219, 220, 221, 222, 223, 224, 225, 226, 227, 228, 229, 230, 231, 232, 233, 234, 235, 236, 237, 238, 239, 240, 241, 242, 243, 244, 245, 246, 247, 248, 249, 250, 251, 252, 253, 254, 255, 256, 257, 258, 259, 260, 261, 262, 263, 264, 265, 266, 267, 268, 269, 270, 271, 272, 273, 274, 275, 276, 277, 278, 279, 280, 281, 282, 283, 284, 285, 286, 287, 288, 289, 290, 291, 292, 293, 294, 295, 296, 297, 298, 299, 300, 301, 302, 303, 304, 305, 306, 307, 308, 309, 310, 311, 312, 313, 314, 315, 316, 317, 318, 319, 320, 321, 322, 323, 324, 325, 326, 327, 328, 329, 330, 331, 332, 333, 334, 335, 336, 337, 338, 339, 340, 341, 342, 343, 344, 345, 346, 347, 348, 349, 350, 351, 352, 353, 354, 355, 356, 357, 358, 359, 360, 361, 362, 363, 364, 365, 366, 367, 368, 369, 370, 371, 372, 373, 374, 375, 376, 377, 378, 379, 380, 381, 382, 383, 384, 385, 386, 387, 388, 389, 390, 391, 392, 393, 394, 395, 396, 397, 398, 399, 400, 401, 402, 403, 404, 405, 406, 407, 408, 409, 410, 411, 412, 413, 414, 415, 416, 417, 418, 419, 420, 421, 422, 423, 424, 425, 426, 427, 428, 429, 430, 431, 432, 433, 434, 435, 436, 437, 438, 439, 440, 441, 442, 443, 444, 445, 446, 447, 448, 449, 450, 451, 452, 453, 454, 455, 456, 457, 458, 459, 460, 461, 462, 463, 464, 465, 466, 467, 468, 469, 470, 471, 472, 473, 474, 475, 476, 477, 478, 479, 480, 481, 482, 483, 484, 485, 486, 487, 488, 489, 490, 491, 492, 493, 494, 495, 496, 497, 498, 499, 500, 501, 502, 503, 504, 505, 506, 507, 508, 509, 510, 511, 512, 513, 514, 515, 516, 517, 518, 519, 520, 521, 522, 523, 524, 525, 526, 527, 528, 529, 530, 531, 532, 533, 534, 535, 536, 537, 538, 539, 540, 541, 542, 543, 544, 545, 546, 547, 548, 549, 550, 551, 552, 553, 554, 555, 556, 557, 558, 559, 560, 561, 562, 563, 564, 565, 566, 567, 568, 569, 570, 571, 572, 573, 574, 575, 576, 577, 578, 579, 580, 581, 582, 583, 584, 585, 586, 587, 588, 589, 590, 591, 592, 593, 594, 595, 596, 597, 598, 599, 600, 601, 602, 603, 604, 605, 606, 607, 608, 609, 610, 611, 612, 613, 614, 615, 616, 617, 618, 619, 620, 621, 622, 623, 624, 625, 626, 627, 628, 629, 630, 631, 632, 633, 634, 635, 636, 637, 638, 639, 640, 641, 642, 643, 644, 645, 646, 647, 648, 649, 650, 651, 652, 653, 654, 655, 656, 657, 658, 659, 660, 661, 662, 663, 664, 665, 666, 667, 668, 669, 670, 671, 672, 673, 674, 675, 676, 677, 678, 679, 680, 681, 682, 683, 684, 685, 686, 687, 688, 689, 690, 691, 692, 693, 694, 695, 696, 697, 698, 699, 700, 701, 702, 703, 704, 705, 706, 707, 708, 709, 710, 711, 712, 713, 714, 715, 716, 717, 718, 719, 720, 721, 722, 723, 724, 725, 726, 727, 728, 729, 730, 731, 732, 733, 734, 735, 736, 737, 738, 739, 740, 741, 742, 743, 744, 745, 746, 747, 748, 749, 750, 751, 752, 753, 754, 755, 756, 757, 758, 759, 760, 761, 762, 763, 764, 765, 766, 767, 768, 769, 770, 771, 772, 773, 774, 775, 776, 777, 778, 779, 780, 781, 782, 783, 784, 785, 786, 787, 788, 789, 790, 791, 792, 793, 794, 795, 796, 797, 798, 799, 800, 801, 802, 803, 804, 805, 806, 807, 808, 809, 810, 811, 812, 813, 814, 815, 816, 817, 818, 819, 820, 821, 822, 823, 824, 825, 826, 827, 828, 829, 830, 831, 832, 833, 834, 835, 836, 837, 838, 839, 840, 841, 842, 843, 844, 845, 846, 847, 848, 849, 850, 851, 852, 853, 854, 855, 856, 857, 858, 859, 860, 861, 862, 863, 864, 865, 866, 867, 868, 869, 870, 871, 872, 873, 874, 875, 876, 877, 878, 879, 880, 881, 882, 883, 884, 885, 886, 887, 888, 889, 890, 891, 892, 893, 894, 895, 896, 897, 898, 899, 900, 901, 902, 903, 904, 905, 906, 907, 908, 909, 910, 911, 912, 913, 914, 915, 916, 917, 918, 919, 920, 921, 922, 923, 924, 925, 926, 927, 928, 929, 930, 931, 932, 933, 934, 935, 936, 937, 938, 939, 940, 941, 942, 943, 944, 945, 946, 947, 948, 949, 950, 951, 952, 953, 954, 955, 956, 957, 958, 959, 960, 961, 962, 963, 964, 965, 966, 967, 968, 969, 970, 971, 972, 973, 974, 975, 976, 977, 978, 979, 980, 981, 982, 983, 984, 985, 986, 987, 988, 989, 990, 991, 992, 993, 994, 995, 996, 997, 998, 999, 1000, 1001, 1002, 1003, 1004, 1005, 1006, 1007, 1008, 1009, 1010, 1011, 1012, 1013, 1014, 1015, 1016, 1017, 1018, 1019, 1020, 1021, 1022, 1023, 1024, 1025, 1026, 1027, 1028, 1029, 1030, 1031, 1032, 1033, 1034, 1035, 1036, 1037, 1038, 1039, 1040, 1041, 1042, 1043, 1044, 1045, 1046, 1047, 1048, 1049, 1050, 1051, 1052, 1053, 1054, 1055, 1056, 1057, 1058, 1059, 1060, 1061, 1062, 1063, 1064, 1065, 1066, 1067, 1068, 1069, 1070, 1071, 1072, 1073, 1074, 1075, 1076, 1077, 1078, 1079, 1080, 1081, 1082, 1083, 1084, 1085, 1086, 1087, 1088, 1089, 1090, 1091, 1092, 1093, 1094, 1095, 1096, 1097, 1098],
      "AcquisitionTime": ["152948.205000", "152948.665000", "152949.125000", "152949.585000", "152950.045000", "152950.505000", "152950.965000", "152951.425000", "152951.885000", "152952.345000", "152952.805000", "152953.265000", "152953.725000", "152954.185000", "152954.645000", "152955.105000", "152955.565000", "152956.025000", "152956.485000", "152956.945000", "152957.405000", "152957.865000", "152958.325000", "152958.785000", "152959.245000", "152959.705000", "153000.165000", "153000.625000", "153001.085000", "153001.545000", "153002.005000", "153002.465000", "153002.925000", "153003.385000", "153003.845000", "153004.305000", "153004.765000", "153005.225000", "153005.685000", "153006.145000", "153006.605000", "153007.065000", "153007.525000", "153007.985000", "153008.445000", "153008.905000", "153009.365000", "153009.825000", "153010.285000", "153010.745000", "153011.205000", "153011.665000", "153012.125000", "153012.585000", "153013.045000", "153013.505000", "153013.965000", "153014.425000", "153014.885000", "153015.345000", "153015.805000", "153016.265000", "153016.725000", "153017.185000", "153017.645000", "153018.105000", "153018.565000", "153019.025000", "153019.485000", "153019.945000", "153020.405000", "153020.865000", "153021.325000", "153021.785000", "153022.245000", "153022.705000", "153023.165000", "153023.625000", "153024.085000", "153024.545000", "153025.005000", "153025.465000", "153025.925000", "153026.385000", "153026.845000", "153027.305000", "153027.765000", "153028.225000", "153028.685000", "153029.145000", "153029.605000", "153030.065000", "153030.525000", "153030.985000", "153031.445000", "153031.905000", "153032.365000", "153032.825000", "153033.285000", "153033.745000", "153034.205000", "153034.665000", "153035.125000", "153035.585000", "153036.045000", "153036.505000", "153036.965000", "153037.425000", "153037.885000", "153038.345000", "153038.805000", "153039.265000", "153039.725000", "153040.185000", "153040.645000", "153041.105000", "153041.565000", "153042.025000", "153042.485000", "153042.945000", "153043.405000", "153043.865000", "153044.325000", "153044.785000", "153045.245000", "153045.705000", "153046.165000", "153046.625000", "153047.085000", "153047.545000", "153048.005000", "153048.465000", "153048.925000", "153049.385000", "153049.845000", "153050.305000", "153050.765000", "153051.225000", "153051.685000", "153052.145000", "153052.605000", "153053.065000", "153053.525000", "153053.985000", "153054.445000", "153054.905000", "153055.365000", "153055.825000", "153056.285000", "153056.745000", "153057.205000", "153057.665000", "153058.125000", "153058.585000", "153059.045000", "153059.505000", "153059.965000", "153100.425000", "153100.885000", "153101.345000", "153101.805000", "153102.265000", "153102.725000", "153103.185000", "153103.645000", "153104.105000", "153104.565000", "153105.025000", "153105.485000", "153105.945000", "153106.405000", "153106.865000", "153107.325000", "153107.785000", "153108.245000", "153108.705000", "153109.165000", "153109.625000", "153110.085000", "153110.545000", "153111.005000", "153111.465000", "153111.925000", "153112.385000", "153112.845000", "153113.305000", "153113.765000", "153114.225000", "153114.685000", "153115.145000", "153115.605000", "153116.065000", "153116.525000", "153116.985000", "153117.445000", "153117.905000", "153118.365000", "153118.825000", "153119.285000", "153119.745000", "153120.205000", "153120.665000", "153121.125000", "153121.585000", "153122.045000", "153122.505000", "153122.965000", "153123.425000", "153123.885000", "153124.345000", "153124.805000", "153125.265000", "153125.725000", "153126.185000", "153126.645000", "153127.105000", "153127.565000", "153128.025000", "153128.485000", "153128.945000", "153129.405000", "153129.865000", "153130.325000", "153130.785000", "153131.245000", "153131.705000", "153132.165000", "153132.625000", "153133.085000", "153133.545000", "153134.005000", "153134.465000", "153134.925000", "153135.385000", "153135.845000", "153136.305000", "153136.765000", "153137.225000", "153137.685000", "153138.145000", "153138.605000", "153139.065000", "153139.525000", "153139.985000", "153140.445000", "153140.905000", "153141.365000", "153141.825000", "153142.285000", "153142.745000", "153143.205000", "153143.665000", "153144.125000", "153144.585000", "153145.045000", "153145.505000", "153145.965000", "153146.425000", "153146.885000", "153147.345000", "153147.805000", "153148.265000", "153148.725000", "153149.185000", "153149.645000", "153150.105000", "153150.565000", "153151.025000", "153151.485000", "153151.945000", "153152.405000", "153152.865000", "153153.325000", "153153.785000", "153154.245000", "153154.705000", "153155.165000", "153155.625000", "153156.085000", "153156.545000", "153157.005000", "153157.465000", "153157.925000", "153158.385000", "153158.845000", "153159.305000", "153159.765000", "153200.225000", "153200.685000", "153201.145000", "153201.605000", "153202.065000", "153202.525000", "153202.985000", "153203.445000", "153203.905000", "153204.365000", "153204.825000", "153205.285000", "153205.745000", "153206.205000", "153206.665000", "153207.125000", "153207.585000", "153208.045000", "153208.505000", "153208.965000", "153209.425000", "153209.885000", "153210.345000", "153210.805000", "153211.265000", "153211.725000", "153212.185000", "153212.645000", "153213.105000", "153213.565000", "153214.025000", "153214.485000", "153214.945000", "153215.405000", "153215.865000", "153216.325000", "153216.785000", "153217.245000", "153217.705000", "153218.165000", "153218.625000", "153219.085000", "153219.545000", "153220.005000", "153220.465000", "153220.925000", "153221.385000", "153221.845000", "153222.305000", "153222.765000", "153223.225000", "153223.685000", "153224.145000", "153224.605000", "153225.065000", "153225.525000", "153225.985000", "153226.445000", "153226.905000", "153227.365000", "153227.825000", "153228.285000", "153228.745000", "153229.205000", "153229.665000", "153230.125000", "153230.585000", "153231.045000", "153231.505000", "153231.965000", "153232.425000", "153232.885000", "153233.345000", "153233.805000", "153234.265000", "153234.725000", "153235.185000", "153235.645000", "153236.105000", "153236.565000", "153237.025000", "153237.485000", "153237.945000", "153238.405000", "153238.865000", "153239.325000", "153239.785000", "153240.245000", "153240.705000", "153241.165000", "153241.625000", "153242.085000", "153242.545000", "153243.005000", "153243.465000", "153243.925000", "153244.385000", "153244.845000", "153245.305000", "153245.765000", "153246.225000", "153246.685000", "153247.145000", "153247.605000", "153248.065000", "153248.525000", "153248.985000", "153249.445000", "153249.905000", "153250.365000", "153250.825000", "153251.285000", "153251.745000", "153252.205000", "153252.665000", "153253.125000", "153253.585000", "153254.045000", "153254.505000", "153254.965000", "153255.425000", "153255.885000", "153256.345000", "153256.805000", "153257.265000", "153257.725000", "153258.185000", "153258.645000", "153259.105000", "153259.565000", "153300.025000", "153300.485000", "153300.945000", "153301.405000", "153301.865000", "153302.325000", "153302.785000", "153303.245000", "153303.705000", "153304.165000", "153304.625000", "153305.085000", "153305.545000", "153306.005000", "153306.465000", "153306.925000", "153307.385000", "153307.845000", "153308.305000", "153308.765000", "153309.225000", "153309.685000", "153310.145000", "153310.605000", "153311.065000", "153311.525000", "153311.985000", "153312.445000", "153312.905000", "153313.365000", "153313.825000", "153314.285000", "153314.745000", "153315.205000", "153315.665000", "153316.125000", "153316.585000", "153317.045000", "153317.505000", "153317.965000", "153318.425000", "153318.885000", "153319.345000", "153319.805000", "153320.265000", "153320.725000", "153321.185000", "153321.645000", "153322.105000", "153322.565000", "153323.025000", "153323.485000", "153323.945000", "153324.405000", "153324.865000", "153325.325000", "153325.785000", "153326.245000", "153326.705000", "153327.165000", "153327.625000", "153328.085000", "153328.545000", "153329.005000", "153329.465000", "153329.925000", "153330.385000", "153330.845000", "153331.305000", "153331.765000", "153332.225000", "153332.685000", "153333.145000", "153333.605000", "153334.065000", "153334.525000", "153334.985000", "153335.445000", "153335.905000", "153336.365000", "153336.825000", "153337.285000", "153337.745000", "153338.205000", "153338.665000", "153339.125000", "153339.585000", "153340.045000", "153340.505000", "153340.965000", "153341.425000", "153341.885000", "153342.345000", "153342.805000", "153343.265000", "153343.725000", "153344.185000", "153344.645000", "153345.105000", "153345.565000", "153346.025000", "153346.485000", "153346.945000", "153347.405000", "153347.865000", "153348.325000", "153348.785000", "153349.245000", "153349.705000", "153350.165000", "153350.625000", "153351.085000", "153351.545000", "153352.005000", "153352.465000", "153352.925000", "153353.385000", "153353.845000", "153354.305000", "153354.765000", "153355.225000", "153355.685000", "153356.145000", "153356.605000", "153357.065000", "153357.525000", "153357.985000", "153358.445000", "153358.905000", "153359.365000", "153359.825000", "153400.285000", "153400.745000", "153401.205000", "153401.665000", "153402.125000", "153402.585000", "153403.045000", "153403.505000", "153403.965000", "153404.425000", "153404.885000", "153405.345000", "153405.805000", "153406.265000", "153406.725000", "153407.185000", "153407.645000", "153408.105000", "153408.565000", "153409.025000", "153409.485000", "153409.945000", "153410.405000", "153410.865000", "153411.325000", "153411.785000", "153412.245000", "153412.705000", "153413.165000", "153413.625000", "153414.085000", "153414.545000", "153415.005000", "153415.465000", "153415.925000", "153416.385000", "153416.845000", "153417.305000", "153417.765000", "153418.225000", "153418.685000", "153419.145000", "153419.605000", "153420.065000", "153420.525000", "153420.985000", "153421.445000", "153421.905000", "153422.365000", "153422.825000", "153423.285000", "153423.745000", "153424.205000", "153424.665000", "153425.125000", "153425.585000", "153426.045000", "153426.505000", "153426.965000", "153427.425000", "153427.885000", "153428.345000", "153428.805000", "153429.265000", "153429.725000", "153430.185000", "153430.645000", "153431.105000", "153431.565000", "153432.025000", "153432.485000", "153432.945000", "153433.405000", "153433.865000", "153434.325000", "153434.785000", "153435.245000", "153435.705000", "153436.165000", "153436.625000", "153437.085000", "153437.545000", "153438.005000", "153438.465000", "153438.925000", "153439.385000", "153439.845000", "153440.305000", "153440.765000", "153441.225000", "153441.685000", "153442.145000", "153442.605000", "153443.065000", "153443.525000", "153443.985000", "153444.445000", "153444.905000", "153445.365000", "153445.825000", "153446.285000", "153446.745000", "153447.205000", "153447.665000", "153448.125000", "153448.585000", "153449.045000", "153449.505000", "153449.965000", "153450.425000", "153450.885000", "153451.345000", "153451.805000", "153452.265000", "153452.725000", "153453.185000", "153453.645000", "153454.105000", "153454.565000", "153455.025000", "153455.485000", "153455.945000", "153456.405000", "153456.865000", "153457.325000", "153457.785000", "153458.245000", "153458.705000", "153459.165000", "153459.625000", "153500.085000", "153500.545000", "153501.005000", "153501.465000", "153501.925000", "153502.385000", "153502.845000", "153503.305000", "153503.765000", "153504.225000", "153504.685000", "153505.145000", "153505.605000", "153506.065000", "153506.525000", "153506.985000", "153507.445000", "153507.905000", "153508.365000", "153508.825000", "153509.285000", "153509.745000", "153510.205000", "153510.665000", "153511.125000", "153511.585000", "153512.045000", "153512.505000", "153512.965000", "153513.425000", "153513.885000", "153514.345000", "153514.805000", "153515.265000", "153515.725000", "153516.185000", "153516.645000", "153517.105000", "153517.565000", "153518.025000", "153518.485000", "153518.945000", "153519.405000", "153519.865000", "153520.325000", "153520.785000", "153521.245000", "153521.705000", "153522.165000", "153522.625000", "153523.085000", "153523.545000", "153524.005000", "153524.465000", "153524.925000", "153525.385000", "153525.845000", "153526.305000", "153526.765000", "153527.225000", "153527.685000", "153528.145000", "153528.605000", "153529.065000", "153529.525000", "153529.985000", "153530.445000", "153530.905000", "153531.365000", "153531.825000", "153532.285000", "153532.745000", "153533.205000", "153533.665000", "153534.125000", "153534.585000", "153535.045000", "153535.505000", "153535.965000", "153536.425000", "153536.885000", "153537.345000", "153537.805000", "153538.265000", "153538.725000", "153539.185000", "153539.645000", "153540.105000", "153540.565000", "153541.025000", "153541.485000", "153541.945000", "153542.405000", "153542.865000", "153543.325000", "153543.785000", "153544.245000", "153544.705000", "153545.165000", "153545.625000", "153546.085000", "153546.545000", "153547.005000", "153547.465000", "153547.925000", "153548.385000", "153548.845000", "153549.305000", "153549.765000", "153550.225000", "153550.685000", "153551.145000", "153551.605000", "153552.065000", "153552.525000", "153552.985000", "153553.445000", "153553.905000", "153554.365000", "153554.825000", "153555.285000", "153555.745000", "153556.205000", "153556.665000", "153557.125000", "153557.585000", "153558.045000", "153558.505000", "153558.965000", "153559.425000", "153559.885000", "153600.345000", "153600.805000", "153601.265000", "153601.725000", "153602.185000", "153602.645000", "153603.105000", "153603.565000", "153604.025000", "153604.485000", "153604.945000", "153605.405000", "153605.865000", "153606.325000", "153606.785000", "153607.245000", "153607.705000", "153608.165000", "153608.625000", "153609.085000", "153609.545000", "153610.005000", "153610.465000", "153610.925000", "153611.385000", "153611.845000", "153612.305000", "153612.765000", "153613.225000", "153613.685000", "153614.145000", "153614.605000", "153615.065000", "153615.525000", "153615.985000", "153616.445000", "153616.905000", "153617.365000", "153617.825000", "153618.285000", "153618.745000", "153619.205000", "153619.665000", "153620.125000", "153620.585000", "153621.045000", "153621.505000", "153621.965000", "153622.425000", "153622.885000", "153623.345000", "153623.805000", "153624.265000", "153624.725000", "153625.185000", "153625.645000", "153626.105000", "153626.565000", "153627.025000", "153627.485000", "153627.945000", "153628.405000", "153628.865000", "153629.325000", "153629.785000", "153630.245000", "153630.705000", "153631.165000", "153631.625000", "153632.085000", "153632.545000", "153633.005000", "153633.465000", "153633.925000", "153634.385000", "153634.845000", "153635.305000", "153635.765000", "153636.225000", "153636.685000", "153637.145000", "153637.605000", "153638.065000", "153638.525000", "153638.985000", "153639.445000", "153639.905000", "153640.365000", "153640.825000", "153641.285000", "153641.745000", "153642.205000", "153642.665000", "153643.125000", "153643.585000", "153644.045000", "153644.505000", "153644.965000", "153645.425000", "153645.885000", "153646.345000", "153646.805000", "153647.265000", "153647.725000", "153648.185000", "153648.645000", "153649.105000", "153649.565000", "153650.025000", "153650.485000", "153650.945000", "153651.405000", "153651.865000", "153652.325000", "153652.785000", "153653.245000", "153653.705000", "153654.165000", "153654.625000", "153655.085000", "153655.545000", "153656.005000", "153656.465000", "153656.925000", "153657.385000", "153657.845000", "153658.305000", "153658.765000", "153659.225000", "153659.685000", "153700.145000", "153700.605000", "153701.065000", "153701.525000", "153701.985000", "153702.445000", "153702.905000", "153703.365000", "153703.825000", "153704.285000", "153704.745000", "153705.205000", "153705.665000", "153706.125000", "153706.585000", "153707.045000", "153707.505000", "153707.965000", "153708.425000", "153708.885000", "153709.345000", "153709.805000", "153710.265000", "153710.725000", "153711.185000", "153711.645000", "153712.105000", "153712.565000", "153713.025000", "153713.485000", "153713.945000", "153714.405000", "153714.865000", "153715.325000", "153715.785000", "153716.245000", "153716.705000", "153717.165000", "153717.625000", "153718.085000", "153718.545000", "153719.005000", "153719.465000", "153719.925000", "153720.385000", "153720.845000", "153721.305000", "153721.765000", "153722.225000", "153722.685000", "153723.145000", "153723.605000", "153724.065000", "153724.525000", "153724.985000", "153725.445000", "153725.905000", "153726.365000", "153726.825000", "153727.285000", "153727.745000", "153728.205000", "153728.665000", "153729.125000", "153729.585000", "153730.045000", "153730.505000", "153730.965000", "153731.425000", "153731.885000", "153732.345000", "153732.805000", "153733.265000", "153733.725000", "153734.185000", "153734.645000", "153735.105000", "153735.565000", "153736.025000", "153736.485000", "153736.945000", "153737.405000", "153737.865000", "153738.325000", "153738.785000", "153739.245000", "153739.705000", "153740.165000", "153740.625000", "153741.085000", "153741.545000", "153742.005000", "153742.465000", "153742.925000", "153743.385000", "153743.845000", "153744.305000", "153744.765000", "153745.225000", "153745.685000", "153746.145000", "153746.605000", "153747.065000", "153747.525000", "153747.985000", "153748.445000", "153748.905000", "153749.365000", "153749.825000", "153750.285000", "153750.745000", "153751.205000", "153751.665000", "153752.125000", "153752.585000", "153753.045000", "153753.505000", "153753.965000", "153754.425000", "153754.885000", "153755.345000", "153755.805000", "153756.265000", "153756.725000", "153757.185000", "153757.645000", "153758.105000", "153758.565000", "153759.025000", "153759.485000", "153759.945000", "153800.405000", "153800.865000", "153801.325000", "153801.785000", "153802.245000", "153802.705000", "153803.165000", "153803.625000", "153804.085000", "153804.545000", "153805.005000", "153805.465000", "153805.925000", "153806.385000", "153806.845000", "153807.305000", "153807.765000", "153808.225000", "153808.685000", "153809.145000", "153809.605000", "153810.065000", "153810.525000", "153810.985000", "153811.445000", "153811.905000", "153812.365000", "153812.825000"],
