{
  "AcquisitionMatrixPE": 140,
  "AcquisitionNumber": 1,
  "AcquisitionTime": "14:29:7.540000",
  "BandwidthPerPixelPhaseEncode": 10.352,
  "BaseResolution": 140,
  "BodyPartExamined": "BRAIN",
  "ConsistencyInfo": "N4_VE11E_LATEST_20181129",
  "ConversionSoftware": "dcm2niix",
  "ConversionSoftwareVersion": "v1.0.20201102",
  "DerivedVendorReportedEchoSpacing": 0.000689998,
  "DeviceSerialNumber": "66112",
  "DiffusionScheme": "Monopolar",
  "DwellTime": 2.1e-06,
  "EchoTime": 0.088,
  "EchoTrainLength": 105,
  "EffectiveEchoSpacing": 0.000689998,
  "FlipAngle": 90,
  "ImageComments": "Unaliased MB3/PE3",
  "ImageOrientationPatientDICOM": [1, 0, 0, 0, 1, 0],
  "ImageType": [
    "ORIGINAL",
    "PRIMARY",
    "DIFFUSION",
    "NONE",
    "MB",
    "ND"
],
  "ImagingFrequency": 123.252,
  "InPlanePhaseEncodingDirectionDICOM": "COL",
  "InstitutionAddress": "Maynard 3,Hanover,NH,US,03755",
  "InstitutionName": "Dartmouth College - PBS",
  "InstitutionalDepartmentName": "Department",
  "IntendedFor": [
    "ses-01/dwi/sub-0075_ses-01_acq-96dirX6b0Xmb_dwi.nii.gz"
],
  "MRAcquisitionType": "2D",
  "MagneticFieldStrength": 3,
  "Manufacturer": "Siemens",
  "ManufacturersModelName": "Prisma",
  "Modality": "MR",
  "MultibandAccelerationFactor": 3,
  "PartialFourier": 0.75,
  "PatientPosition": "HFS",
  "PercentPhaseFOV": 100,
  "PercentSampling": 100,
  "PhaseEncodingDirection": "j",
  "PhaseEncodingSteps": 105,
  "PhaseResolution": 1,
  "PixelBandwidth": 1700,
  "ProcedureStepDescription": "Wager_Wager^1076_spacetop",
  "ProtocolName": "dwi_acq-discorr-PA",
  "PulseSequenceDetails": "%CustomerSeq%\\cmrr_mbep2d_diff",
  "ReceiveCoilActiveElements": "HEA;HEP",
  "ReceiveCoilName": "Head_32",
  "ReconMatrixPE": 140,
  "RepetitionTime": 4.1,
  "SAR": 0.136905,
  "ScanOptions": "PFP\\FS",
  "ScanningSequence": "EP",
  "SequenceName": "ep_b0",
  "SequenceVariant": "SK\\SS",
  "SeriesDescription": "dwi_acq-discorr-PA",
  "SeriesNumber": 6,
  "ShimSetting": [4166, -7684, -7305, 414, -86, -9, 39, 36],
  "SliceThickness": 1.7,
  "SliceTiming": [0, 2.10938, 0.14062, 2.26562, 0.29688, 2.40625, 0.45312, 2.5625, 0.59375, 2.71875, 0.75, 2.85938, 0.89062, 3.01562, 1.04688, 3.17188, 1.20312, 3.3125, 1.35938, 3.46875, 1.5, 3.625, 1.65625, 3.76562, 1.8125, 3.92188, 1.95312, 0, 2.10938, 0.14062, 2.26562, 0.29688, 2.40625, 0.45312, 2.5625, 0.59375, 2.71875, 0.75, 2.85938, 0.89062, 3.01562, 1.04688, 3.17188, 1.20312, 3.3125, 1.35938, 3.46875, 1.5, 3.625, 1.65625, 3.76562, 1.8125, 3.92188, 1.95312, 0, 2.10938, 0.14062, 2.26562, 0.29688, 2.40625, 0.45312, 2.5625, 0.59375, 2.71875, 0.75, 2.85938, 0.89062, 3.01562, 1.04688, 3.17188, 1.20312, 3.3125, 1.35938, 3.46875, 1.5, 3.625, 1.65625, 3.76562, 1.8125, 3.92188, 1.95312],
  "SoftwareVersions": "syngo MR E11",
  "SpacingBetweenSlices": 1.7,
  "StationName": "AWP66112",
  "TotalReadoutTime": 0.0959097,
  "TxRefAmp": 230.02,
  "WipMemBlock": "503e9851-085e-4358-8d77-ed0932fa4832||Sequence: R016 ve11e/master r/434b28f1; Aug  7 2019 19:06:17 by eja",
  "dcmmeta_affine": [
    [-1.7142857313156128, 0.0, 0.0, 120.0],
    [0.0, 1.7142857313156128, 0.0, -99.72571563720703],
    [0.0, 0.0, 1.7000007629394531, -81.44005584716797],
    [0.0, 0.0, 0.0, 1.0]
],
  "dcmmeta_reorient_transform": [
    [0.0, -1.0, 0.0, 139.0],
    [1.0, 0.0, 0.0, 0.0],
    [0.0, 0.0, -1.0, 80.0],
    [0.0, 0.0, 0.0, 1.0]
],
  "dcmmeta_shape": [140, 140, 81],
  "dcmmeta_slice_dim": 2,
  "dcmmeta_version": 0.6,
  "global": {
    "const": {
      "AccessionNumber": "A004004",
      "AcquisitionMatrix": [140, 0, 0, 140],
      "AcquisitionNumber": 1,
      "AngioFlag": "N",
      "BitsAllocated": 16,
      "BitsStored": 16,
      "BodyPartExamined": "BRAIN",
      "Columns": 140,
      "EchoNumbers": 1,
      "EchoTime": 88.0,
      "EchoTrainLength": 105,
      "FlipAngle": 90.0,
      "HighBit": 15,
      "ImageOrientationPatient": [1.0, 0.0, 0.0, 0.0, 1.0, 0.0],
      "ImageType": [
        "ORIGINAL",
        "PRIMARY",
        "DIFFUSION",
        "NONE",
        "MB",
        "ND"
],
      "ImagedNucleus": "1H",
      "ImagingFrequency": 123.252217,
      "InPlanePhaseEncodingDirection": "COL",
      "MRAcquisitionType": "2D",
      "MagneticFieldStrength": 3.0,
      "Manufacturer": "SIEMENS",
      "ManufacturerModelName": "Prisma",
      "Modality": "MR",
      "NumberOfAverages": 1.0,
      "NumberOfPhaseEncodingSteps": 105,
      "PercentPhaseFieldOfView": 100.0,
      "PercentSampling": 100.0,
      "PerformedProcedureStepStartTime": "132337.871000",
      "PhotometricInterpretation": "MONOCHROME2",
      "PixelBandwidth": 1700.0,
      "PixelRepresentation": 0,
      "PixelSpacing": [1.7142857313156, 1.7142857313156],
      "ProtocolName": "dwi_acq-discorr-PA",
      "RepetitionTime": 4100.0,
      "Rows": 140,
      "SAR": 0.13690509931692,
      "SamplesPerPixel": 1,
      "ScanOptions": [
        "PFP",
        "FS"
],
      "ScanningSequence": "EP",
      "SequenceName": "ep_b0",
      "SequenceVariant": [
        "SK",
        "SS"
],
      "SeriesDescription": "dwi_acq-discorr-PA",
      "SeriesNumber": 6,
      "SeriesTime": "142912.265000",
      "SliceThickness": 1.7000000476837,
      "SmallestImagePixelValue": 0,
      "SoftwareVersions": "syngo MR E11",
      "SpacingBetweenSlices": 1.7,
      "SpecificCharacterSet": "ISO_IR 100",
      "StudyID": "1",
      "StudyTime": "132337.800000",
      "TransmitCoilName": "Body",
      "VariableFlipAngleFlag": "N",
      "WindowCenterWidthExplanation": "Algo1"
    },
    "slices": {
      "AcquisitionTime": ["142907.540000", "142909.655000", "142907.690000", "142909.805000", "142907.842500", "142909.957500", "142907.992500", "142910.107500", "142908.145000", "142910.260000", "142908.295000", "142910.410000", "142908.445000", "142910.562500", "142908.597500", "142910.712500", "142908.747500", "142910.865000", "142908.900000", "142911.015000", "142909.050000", "142911.165000", "142909.202500", "142911.317500", "142909.352500", "142911.467500", "142909.505000", "142907.540000", "142909.655000", "142907.690000", "142909.805000", "142907.842500", "142909.957500", "142907.992500", "142910.107500", "142908.145000", "142910.260000", "142908.295000", "142910.410000", "142908.445000", "142910.562500", "142908.597500", "142910.712500", "142908.747500", "142910.865000", "142908.900000", "142911.015000", "142909.050000", "142911.165000", "142909.202500", "142911.317500", "142909.352500", "142911.467500", "142909.505000", "142907.540000", "142909.655000", "142907.690000", "142909.805000", "142907.842500", "142909.957500", "142907.992500", "142910.107500", "142908.145000", "142910.260000", "142908.295000", "142910.410000", "142908.445000", "142910.562500", "142908.597500", "142910.712500", "142908.747500", "142910.865000", "142908.900000", "142911.015000", "142909.050000", "142911.165000", "142909.202500", "142911.317500", "142909.352500", "142911.467500", "142909.505000"],
      "ContentTime": ["142912.268000", "142912.356000", "142912.275000", "142912.363000", "142912.282000", "142912.369000", "142912.288000", "142912.376000", "142912.294000", "142912.382000", "142912.300000", "142912.388000", "142912.306000", "142912.395000", "142912.312000", "142912.415000", "142912.318000", "142912.422000", "142912.324000", "142912.430000", "142912.330000", "142912.438000", "142912.337000", "142912.444000", "142912.343000", "142912.450000", "142912.350000", "142912.271000", "142912.359000", "142912.277000", "142912.365000", "142912.284000", "142912.371000", "142912.290000", "142912.378000", "142912.296000", "142912.384000", "142912.302000", "142912.390000", "142912.308000", "142912.397000", "142912.314000", "142912.417000", "142912.320000", "142912.424000", "142912.326000", "142912.433000", "142912.333000", "142912.440000", "142912.339000", "142912.446000", "142912.345000", "142912.453000", "142912.352000", "142912.273000", "142912.361000", "142912.279000", "142912.367000", "142912.286000", "142912.373000", "142912.292000", "142912.380000", "142912.298000", "142912.386000", "142912.304000", "142912.393000", "142912.310000", "142912.413000", "142912.316000", "142912.419000", "142912.322000", "142912.428000", "142912.328000", "142912.435000", "142912.335000", "142912.442000", "142912.341000", "142912.448000", "142912.347000", "142912.455000", "142912.354000"],
      "CsaImage.GSWDDataType": [
        "predicted",
        "predicted",
        "predicted",
        "predicted",
        "predicted",
        "predicted",
        "predicted",
        "predicted",
        "predicted",
        "predicted",
        "predicted",
        "predicted",
        "predicted",
        "predicted",
        "predicted",
        "predicted",
        "predicted",
        "predicted",
        "predicted",
        "predicted",
        "predicted",
        "predicted",
        "predicted",
        "measured",
        "predicted",
        "measured",
        "predicted",
        "predicted",
        "predicted",
        "predicted",
        "predicted",
        "predicted",
        "predicted",
        "predicted",
        "predicted",
        "predicted",
        "predicted",
        "predicted",
        "predicted",
        "predicted",
        "predicted",
        "predicted",
        "predicted",
        "predicted",
        "predicted",
        "predicted",
        "predicted",
        "predicted",
        "predicted",
        "predicted",
        "measured",
        "predicted",
        "measured",
        "predicted",
        "predicted",
        "predicted",
        "predicted",
        "predicted",
        "predicted",
        "predicted",
        "predicted",
        "predicted",
        "predicted",
        "predicted",
        "predicted",
        "predicted",
        "predicted",
        "predicted",
        "predicted",
        "predicted",
        "predicted",
        "predicted",
        "predicted",
        "predicted",
        "predicted",
        "predicted",
        "predicted",
        "measured",
        "predicted",
        "measured",
        "predicted"
],
      "CsaImage.ICE_Dims": [
        "X_1_1_1_1_1_1_1_1_1_1_1_78",
        "X_1_1_1_1_1_1_42_1_1_2_1_78",
        "X_1_1_1_1_1_1_2_1_1_3_1_78",
        "X_1_1_1_1_1_1_43_1_1_4_1_78",
        "X_1_1_1_1_1_1_3_1_1_5_1_78",
        "X_1_1_1_1_1_1_44_1_1_6_1_78",
        "X_1_1_1_1_1_1_4_1_1_7_1_78",
        "X_1_1_1_1_1_1_45_1_1_8_1_78",
        "X_1_1_1_1_1_1_5_1_1_9_1_78",
        "X_1_1_1_1_1_1_46_1_1_10_1_78",
        "X_1_1_1_1_1_1_6_1_1_11_1_78",
        "X_1_1_1_1_1_1_47_1_1_12_1_78",
        "X_1_1_1_1_1_1_7_1_1_13_1_78",
        "X_1_1_1_1_1_1_48_1_1_14_1_78",
        "X_1_1_1_1_1_1_8_1_1_15_1_78",
        "X_1_1_1_1_1_1_49_1_1_16_1_78",
        "X_1_1_1_1_1_1_9_1_1_17_1_78",
        "X_1_1_1_1_1_1_50_1_1_18_1_78",
        "X_1_1_1_1_1_1_10_1_1_19_1_78",
        "X_1_1_1_1_1_1_51_1_1_20_1_78",
        "X_1_1_1_1_1_1_11_1_1_21_1_78",
        "X_1_1_1_1_1_1_52_1_1_22_1_78",
        "X_1_1_1_1_1_1_12_1_1_23_1_78",
        "X_1_1_1_1_1_1_53_1_1_24_1_78",
        "X_1_1_1_1_1_1_13_1_1_25_1_78",
        "X_1_1_1_1_1_1_54_1_1_26_1_78",
        "X_1_1_1_1_1_1_14_1_1_27_1_78",
        "X_1_1_1_1_1_1_55_1_1_28_1_78",
        "X_1_1_1_1_1_1_15_1_1_29_1_78",
        "X_1_1_1_1_1_1_56_1_1_30_1_78",
        "X_1_1_1_1_1_1_16_1_1_31_1_78",
        "X_1_1_1_1_1_1_57_1_1_32_1_78",
        "X_1_1_1_1_1_1_17_1_1_33_1_78",
        "X_1_1_1_1_1_1_58_1_1_34_1_78",
        "X_1_1_1_1_1_1_18_1_1_35_1_78",
        "X_1_1_1_1_1_1_59_1_1_36_1_78",
        "X_1_1_1_1_1_1_19_1_1_37_1_78",
        "X_1_1_1_1_1_1_60_1_1_38_1_78",
        "X_1_1_1_1_1_1_20_1_1_39_1_78",
        "X_1_1_1_1_1_1_61_1_1_40_1_78",
        "X_1_1_1_1_1_1_21_1_1_41_1_78",
        "X_1_1_1_1_1_1_62_1_1_42_1_78",
        "X_1_1_1_1_1_1_22_1_1_43_1_78",
        "X_1_1_1_1_1_1_63_1_1_44_1_78",
        "X_1_1_1_1_1_1_23_1_1_45_1_78",
        "X_1_1_1_1_1_1_64_1_1_46_1_78",
        "X_1_1_1_1_1_1_24_1_1_47_1_78",
        "X_1_1_1_1_1_1_65_1_1_48_1_78",
        "X_1_1_1_1_1_1_25_1_1_49_1_78",
        "X_1_1_1_1_1_1_66_1_1_50_1_78",
        "X_1_1_1_1_1_1_26_1_1_51_1_78",
        "X_1_1_1_1_1_1_67_1_1_52_1_78",
        "X_1_1_1_1_1_1_27_1_1_53_1_78",
        "X_1_1_1_1_1_1_68_1_1_54_1_78",
        "X_1_1_1_1_1_1_28_1_1_55_1_78",
        "X_1_1_1_1_1_1_69_1_1_56_1_78",
        "X_1_1_1_1_1_1_29_1_1_57_1_78",
        "X_1_1_1_1_1_1_70_1_1_58_1_78",
        "X_1_1_1_1_1_1_30_1_1_59_1_78",
        "X_1_1_1_1_1_1_71_1_1_60_1_78",
        "X_1_1_1_1_1_1_31_1_1_61_1_78",
        "X_1_1_1_1_1_1_72_1_1_62_1_78",
        "X_1_1_1_1_1_1_32_1_1_63_1_78",
        "X_1_1_1_1_1_1_73_1_1_64_1_78",
        "X_1_1_1_1_1_1_33_1_1_65_1_78",
        "X_1_1_1_1_1_1_74_1_1_66_1_78",
        "X_1_1_1_1_1_1_34_1_1_67_1_78",
        "X_1_1_1_1_1_1_75_1_1_68_1_78",
        "X_1_1_1_1_1_1_35_1_1_69_1_78",
        "X_1_1_1_1_1_1_76_1_1_70_1_78",
        "X_1_1_1_1_1_1_36_1_1_71_1_78",
        "X_1_1_1_1_1_1_77_1_1_72_1_78",
        "X_1_1_1_1_1_1_37_1_1_73_1_78",
        "X_1_1_1_1_1_1_78_1_1_74_1_78",
        "X_1_1_1_1_1_1_38_1_1_75_1_78",
        "X_1_1_1_1_1_1_79_1_1_76_1_78",
        "X_1_1_1_1_1_1_39_1_1_77_1_78",
        "X_1_1_1_1_1_1_80_1_1_78_1_78",
        "X_1_1_1_1_1_1_40_1_1_79_1_78",
        "X_1_1_1_1_1_1_81_1_1_80_1_78",
        "X_1_1_1_1_1_1_41_1_1_81_1_78"
],
      "CsaImage.ProtocolSliceNumber": [0, 1, 2, 3, 4, 5, 6, 7, 8, 9, 10, 11, 12, 13, 14, 15, 16, 17, 18, 19, 20, 21, 22, 23, 24, 25, 26, 27, 28, 29, 30, 31, 32, 33, 34, 35, 36, 37, 38, 39, 40, 41, 42, 43, 44, 45, 46, 47, 48, 49, 50, 51, 52, 53, 54, 55, 56, 57, 58, 59, 60, 61, 62, 63, 64, 65, 66, 67, 68, 69, 70, 71, 72, 73, 74, 75, 76, 77, 78, 79, 80],
      "CsaImage.RFSWDDataType": [
        "predicted",
        "predicted",
        "predicted",
        "predicted",
        "predicted",
        "predicted",
        "predicted",
        "predicted",
        "predicted",
        "predicted",
        "predicted",
        "predicted",
        "predicted",
        "predicted",
        "predicted",
        "predicted",
        "predicted",
        "predicted",
        "predicted",
        "predicted",
        "predicted",
        "predicted",
        "predicted",
        "measured",
        "predicted",
        "measured",
        "predicted",
        "predicted",
        "predicted",
        "predicted",
        "predicted",
        "predicted",
        "predicted",
        "predicted",
        "predicted",
        "predicted",
        "predicted",
        "predicted",
        "predicted",
        "predicted",
        "predicted",
        "predicted",
        "predicted",
        "predicted",
        "predicted",
        "predicted",
        "predicted",
        "predicted",
        "predicted",
        "predicted",
        "measured",
        "predicted",
        "measured",
        "predicted",
        "predicted",
        "predicted",
        "predicted",
        "predicted",
        "predicted",
        "predicted",
        "predicted",
        "predicted",
        "predicted",
        "predicted",
        "predicted",
        "predicted",
        "predicted",
        "predicted",
        "predicted",
        "predicted",
        "predicted",
        "predicted",
        "predicted",
        "predicted",
        "predicted",
        "predicted",
        "predicted",
        "measured",
        "predicted",
        "measured",
        "predicted"
],
      "CsaImage.SlicePosition_PCS": [
        [-120.00000119, -138.56000066, -81.44000244],
        [-120.00000119, -138.56000066, -79.73999786],
        [-120.00000119, -138.56000066, -78.04000092],
        [-120.00000119, -138.56000066, -76.34000397],
        [-120.00000119, -138.56000066, -74.63999939],
        [-120.00000119, -138.56000066, -72.94000244],
        [-120.00000119, -138.56000066, -71.23999786],
        [-120.00000119, -138.56000066, -69.54000092],
        [-120.00000119, -138.56000066, -67.84000397],
        [-120.00000119, -138.56000066, -66.13999939],
        [-120.00000119, -138.56000066, -64.44000244],
        [-120.00000119, -138.56000066, -62.74000168],
        [-120.00000119, -138.56000066, -61.04000092],
        [-120.00000119, -138.56000066, -59.34000015],
        [-120.00000119, -138.56000066, -57.63999939],
        [-120.00000119, -138.56000066, -55.93999863],
        [-120.00000119, -138.56000066, -54.24000168],
        [-120.00000119, -138.56000066, -52.54000092],
        [-120.00000119, -138.56000066, -50.84000015],
        [-120.00000119, -138.56000066, -49.13999939],
        [-120.00000119, -138.56000066, -47.43999863],
        [-120.00000119, -138.56000066, -45.74000168],
        [-120.00000119, -138.56000066, -44.04000092],
        [-120.00000119, -138.56000066, -42.34000015],
        [-120.00000119, -138.56000066, -40.63999939],
        [-120.00000119, -138.56000066, -38.93999863],
        [-120.00000119, -138.56000066, -37.24000168],
        [-120.00000119, -138.56000066, -35.54000092],
        [-120.00000119, -138.56000066, -33.84000015],
        [-120.00000119, -138.56000066, -32.13999939],
        [-120.00000119, -138.56000066, -30.44000053],
        [-120.00000119, -138.56000066, -28.73999977],
        [-120.00000119, -138.56000066, -27.04000092],
        [-120.00000119, -138.56000066, -25.34000015],
        [-120.00000119, -138.56000066, -23.63999939],
        [-120.00000119, -138.56000066, -21.94000053],
        [-120.00000119, -138.56000066, -20.23999977],
        [-120.00000119, -138.56000066, -18.54000092],
        [-120.00000119, -138.56000066, -16.84000015],
        [-120.00000119, -138.56000066, -15.14000034],
        [-120.00000119, -138.56000066, -13.44000053],
        [-120.00000119, -138.56000066, -11.73999977],
        [-120.00000119, -138.56000066, -10.03999996],
        [-120.00000119, -138.56000066, -8.34000015],
        [-120.00000119, -138.56000066, -6.64000034],
        [-120.00000119, -138.56000066, -4.94000006],
        [-120.00000119, -138.56000066, -3.24000025],
        [-120.00000119, -138.56000066, -1.5400002],
        [-120.00000119, -138.56000066, 0.1599998],
        [-120.00000119, -138.56000066, 1.85999978],
        [-120.00000119, -138.56000066, 3.5599997],
        [-120.00000119, -138.56000066, 5.25999975],
        [-120.00000119, -138.56000066, 6.96000004],
        [-120.00000119, -138.56000066, 8.65999985],
        [-120.00000119, -138.56000066, 10.35999966],
        [-120.00000119, -138.56000066, 12.05999947],
        [-120.00000119, -138.56000066, 13.76000023],
        [-120.00000119, -138.56000066, 15.46000004],
        [-120.00000119, -138.56000066, 17.15999985],
        [-120.00000119, -138.56000066, 18.86000061],
        [-120.00000119, -138.56000066, 20.55999947],
        [-120.00000119, -138.56000066, 22.26000023],
        [-120.00000119, -138.56000066, 23.95999908],
        [-120.00000119, -138.56000066, 25.65999985],
        [-120.00000119, -138.56000066, 27.36000061],
        [-120.00000119, -138.56000066, 29.05999947],
        [-120.00000119, -138.56000066, 30.76000023],
        [-120.00000119, -138.56000066, 32.45999908],
        [-120.00000119, -138.56000066, 34.15999985],
        [-120.00000119, -138.56000066, 35.86000061],
        [-120.00000119, -138.56000066, 37.56000137],
        [-120.00000119, -138.56000066, 39.25999832],
        [-120.00000119, -138.56000066, 40.95999908],
        [-120.00000119, -138.56000066, 42.65999985],
        [-120.00000119, -138.56000066, 44.36000061],
        [-120.00000119, -138.56000066, 46.06000137],
        [-120.00000119, -138.56000066, 47.75999832],
        [-120.00000119, -138.56000066, 49.45999908],
        [-120.00000119, -138.56000066, 51.15999985],
        [-120.00000119, -138.56000066, 52.86000061],
        [-120.00000119, -138.56000066, 54.56000137]
],
      "CsaImage.TimeAfterStart": [16.4, 18.515, 16.55, 18.665, 16.7, 18.8175, 16.8525, 18.9675, 17.0025, 19.12, 17.155, 19.27, 17.305, 19.42, 17.4575, 19.5725, 17.6075, 19.7225, 17.76, 19.875, 17.91, 20.025, 18.06, 20.1775, 18.2125, 20.3275, 18.3625, 16.4, 18.515, 16.55, 18.665, 16.7, 18.8175, 16.8525, 18.9675, 17.0025, 19.12, 17.155, 19.27, 17.305, 19.42, 17.4575, 19.5725, 17.6075, 19.7225, 17.76, 19.875, 17.91, 20.025, 18.06, 20.1775, 18.2125, 20.3275, 18.3625, 16.4, 18.515, 16.55, 18.665, 16.7, 18.8175, 16.8525, 18.9675, 17.0025, 19.12, 17.155, 19.27, 17.305, 19.42, 17.4575, 19.5725, 17.6075, 19.7225, 17.76, 19.875, 17.91, 20.025, 18.06, 20.1775, 18.2125, 20.3275, 18.3625],
      "ImagePositionPatient": [
        [-120.00000119209, -138.56000065804, -81.440002441406],
        [-120.00000119209, -138.56000065804, -79.73999786377],
        [-120.00000119209, -138.56000065804, -78.040000915527],
        [-120.00000119209, -138.56000065804, -76.340003967285],
        [-120.00000119209, -138.56000065804, -74.639999389648],
        [-120.00000119209, -138.56000065804, -72.940002441406],
        [-120.00000119209, -138.56000065804, -71.23999786377],
        [-120.00000119209, -138.56000065804, -69.540000915527],
        [-120.00000119209, -138.56000065804, -67.840003967285],
        [-120.00000119209, -138.56000065804, -66.139999389648],
        [-120.00000119209, -138.56000065804, -64.440002441406],
        [-120.00000119209, -138.56000065804, -62.740001678467],
        [-120.00000119209, -138.56000065804, -61.040000915527],
        [-120.00000119209, -138.56000065804, -59.340000152588],
        [-120.00000119209, -138.56000065804, -57.639999389648],
        [-120.00000119209, -138.56000065804, -55.939998626709],
        [-120.00000119209, -138.56000065804, -54.240001678467],
        [-120.00000119209, -138.56000065804, -52.540000915527],
        [-120.00000119209, -138.56000065804, -50.840000152588],
        [-120.00000119209, -138.56000065804, -49.139999389648],
        [-120.00000119209, -138.56000065804, -47.439998626709],
        [-120.00000119209, -138.56000065804, -45.740001678467],
        [-120.00000119209, -138.56000065804, -44.040000915527],
        [-120.00000119209, -138.56000065804, -42.340000152588],
        [-120.00000119209, -138.56000065804, -40.639999389648],
        [-120.00000119209, -138.56000065804, -38.939998626709],
        [-120.00000119209, -138.56000065804, -37.240001678467],
        [-120.00000119209, -138.56000065804, -35.540000915527],
        [-120.00000119209, -138.56000065804, -33.840000152588],
        [-120.00000119209, -138.56000065804, -32.139999389648],
        [-120.00000119209, -138.56000065804, -30.440000534058],
        [-120.00000119209, -138.56000065804, -28.739999771118],
        [-120.00000119209, -138.56000065804, -27.040000915527],
        [-120.00000119209, -138.56000065804, -25.340000152588],
        [-120.00000119209, -138.56000065804, -23.639999389648],
        [-120.00000119209, -138.56000065804, -21.940000534058],
        [-120.00000119209, -138.56000065804, -20.239999771118],
        [-120.00000119209, -138.56000065804, -18.540000915527],
        [-120.00000119209, -138.56000065804, -16.840000152588],
        [-120.00000119209, -138.56000065804, -15.140000343323],
        [-120.00000119209, -138.56000065804, -13.440000534058],
        [-120.00000119209, -138.56000065804, -11.739999771118],
        [-120.00000119209, -138.56000065804, -10.039999961853],
        [-120.00000119209, -138.56000065804, -8.3400001525879],
        [-120.00000119209, -138.56000065804, -6.6400003433228],
        [-120.00000119209, -138.56000065804, -4.9400000572205],
        [-120.00000119209, -138.56000065804, -3.2400002479553],
        [-120.00000119209, -138.56000065804, -1.5400002002716],
        [-120.00000119209, -138.56000065804, 0.15999980270863],
        [-120.00000119209, -138.56000065804, 1.8599997758865],
        [-120.00000119209, -138.56000065804, 3.559999704361],
        [-120.00000119209, -138.56000065804, 5.2599997520447],
        [-120.00000119209, -138.56000065804, 6.960000038147],
        [-120.00000119209, -138.56000065804, 8.6599998474121],
        [-120.00000119209, -138.56000065804, 10.359999656677],
        [-120.00000119209, -138.56000065804, 12.059999465942],
        [-120.00000119209, -138.56000065804, 13.760000228882],
        [-120.00000119209, -138.56000065804, 15.460000038147],
        [-120.00000119209, -138.56000065804, 17.159999847412],
        [-120.00000119209, -138.56000065804, 18.860000610352],
        [-120.00000119209, -138.56000065804, 20.559999465942],
        [-120.00000119209, -138.56000065804, 22.260000228882],
        [-120.00000119209, -138.56000065804, 23.959999084473],
        [-120.00000119209, -138.56000065804, 25.659999847412],
        [-120.00000119209, -138.56000065804, 27.360000610352],
        [-120.00000119209, -138.56000065804, 29.059999465942],
        [-120.00000119209, -138.56000065804, 30.760000228882],
        [-120.00000119209, -138.56000065804, 32.459999084473],
        [-120.00000119209, -138.56000065804, 34.159999847412],
        [-120.00000119209, -138.56000065804, 35.860000610352],
        [-120.00000119209, -138.56000065804, 37.560001373291],
        [-120.00000119209, -138.56000065804, 39.259998321533],
        [-120.00000119209, -138.56000065804, 40.959999084473],
        [-120.00000119209, -138.56000065804, 42.659999847412],
        [-120.00000119209, -138.56000065804, 44.360000610352],
        [-120.00000119209, -138.56000065804, 46.060001373291],
        [-120.00000119209, -138.56000065804, 47.759998321533],
        [-120.00000119209, -138.56000065804, 49.459999084473],
        [-120.00000119209, -138.56000065804, 51.159999847412],
        [-120.00000119209, -138.56000065804, 52.860000610352],
        [-120.00000119209, -138.56000065804, 54.560001373291]
],
      "InstanceCreationTime": ["142912.268000", "142912.356000", "142912.275000", "142912.363000", "142912.282000", "142912.369000", "142912.288000", "142912.376000", "142912.294000", "142912.382000", "142912.300000", "142912.388000", "142912.306000", "142912.395000", "142912.312000", "142912.415000", "142912.318000", "142912.422000", "142912.324000", "142912.430000", "142912.330000", "142912.438000", "142912.337000", "142912.444000", "142912.343000", "142912.450000", "142912.350000", "142912.271000", "142912.359000", "142912.277000", "142912.365000", "142912.284000", "142912.371000", "142912.290000", "142912.378000", "142912.296000", "142912.384000", "142912.302000", "142912.390000", "142912.308000", "142912.397000", "142912.314000", "142912.417000", "142912.320000", "142912.424000", "142912.326000", "142912.433000", "142912.333000", "142912.440000", "142912.339000", "142912.446000", "142912.345000", "142912.453000", "142912.352000", "142912.273000", "142912.361000", "142912.279000", "142912.367000", "142912.286000", "142912.373000", "142912.292000", "142912.380000", "142912.298000", "142912.386000", "142912.304000", "142912.393000", "142912.310000", "142912.413000", "142912.316000", "142912.419000", "142912.322000", "142912.428000", "142912.328000", "142912.435000", "142912.335000", "142912.442000", "142912.341000", "142912.448000", "142912.347000", "142912.455000", "142912.354000"],
      "InstanceNumber": [1, 2, 3, 4, 5, 6, 7, 8, 9, 10, 11, 12, 13, 14, 15, 16, 17, 18, 19, 20, 21, 22, 23, 24, 25, 26, 27, 28, 29, 30, 31, 32, 33, 34, 35, 36, 37, 38, 39, 40, 41, 42, 43, 44, 45, 46, 47, 48, 49, 50, 51, 52, 53, 54, 55, 56, 57, 58, 59, 60, 61, 62, 63, 64, 65, 66, 67, 68, 69, 70, 71, 72, 73, 74, 75, 76, 77, 78, 79, 80, 81],
      "LargestImagePixelValue": [50578, 39408, 37296, 48018, 34252, 32180, 33601, 35694, 30730, 28518, 31526, 33918, 41598, 65335, 65535, 65535, 65535, 65535, 65535, 65535, 65535, 65535, 65535, 65535, 61489, 42109, 33622, 28297, 32955, 43650, 45645, 36393, 41309, 44230, 51650, 58362, 52013, 45975, 44207, 30807, 26748, 29763, 30367, 26715, 31460, 24305, 35574, 34604, 28681, 36648, 41932, 42030, 42511, 46279, 51973, 52130, 49392, 42649, 61375, 65535, 51337, 59637, 42107, 40468, 46130, 49940, 45351, 42751, 39502, 28203, 22245, 10174, 9693, 13316, 9069, 11121, 13111, 9673, 1026, 828, 781],
      "SliceLocation": [-81.440002441406, -79.73999786377, -78.040000915527, -76.340003967285, -74.639999389648, -72.940002441406, -71.23999786377, -69.540000915527, -67.840003967285, -66.139999389648, -64.440002441406, -62.740001678467, -61.040000915527, -59.340000152588, -57.639999389648, -55.939998626709, -54.240001678467, -52.540000915527, -50.840000152588, -49.139999389648, -47.439998626709, -45.740001678467, -44.040000915527, -42.340000152588, -40.639999389648, -38.939998626709, -37.240001678467, -35.540000915527, -33.840000152588, -32.139999389648, -30.440000534058, -28.739999771118, -27.040000915527, -25.340000152588, -23.639999389648, -21.940000534058, -20.239999771118, -18.540000915527, -16.840000152588, -15.140000343323, -13.440000534058, -11.739999771118, -10.039999961853, -8.3400001525879, -6.6400003433228, -4.9400000572205, -3.2400002479553, -1.5400002002716, 0.15999980270863, 1.8599997758865, 3.559999704361, 5.2599997520447, 6.960000038147, 8.6599998474121, 10.359999656677, 12.059999465942, 13.760000228882, 15.460000038147, 17.159999847412, 18.860000610352, 20.559999465942, 22.260000228882, 23.959999084473, 25.659999847412, 27.360000610352, 29.059999465942, 30.760000228882, 32.459999084473, 34.159999847412, 35.860000610352, 37.560001373291, 39.259998321533, 40.959999084473, 42.659999847412, 44.360000610352, 46.060001373291, 47.759998321533, 49.459999084473, 51.159999847412, 52.860000610352, 54.560001373291],
