{
  "AcquisitionMatrixPE": 82,
  "AcquisitionNumber": 1,
  "AcquisitionTime": "16:38:20.755000",
  "BandwidthPerPixelPhaseEncode": 24.888,
  "BaseResolution": 82,
  "BodyPartExamined": "BRAIN",
  "ConsistencyInfo": "N4_VE11C_LATEST_20160120",
  "ConversionSoftware": "dcm2niix",
  "ConversionSoftwareVersion": "v1.0.20201102",
  "DerivedVendorReportedEchoSpacing": 0.00049,
  "DeviceSerialNumber": "66112",
  "DwellTime": 2e-06,
  "EchoTime": 0.0272,
  "EchoTrainLength": 82,
  "EffectiveEchoSpacing": 0.00049,
  "FlipAngle": 44,
  "ImageComments": "Unaliased MB8/PE3",
  "ImageOrientationPatientDICOM": [0.998004, 0.0474531, 0.0416771, -0.0435738, 0.995032, -0.0895114],
  "ImageType": [
    "ORIGINAL",
    "PRIMARY",
    "M",
    "MB",
    "ND",
    "NORM",
    "MOSAIC"
],
  "ImagingFrequency": 123.252,
  "InPlanePhaseEncodingDirectionDICOM": "COL",
  "InstitutionAddress": "Maynard 3,Hanover,NH,US,03755",
  "InstitutionName": "Dartmouth College - PBS",
  "InstitutionalDepartmentName": "Department",
  "MRAcquisitionType": "2D",
  "MagneticFieldStrength": 3,
  "Manufacturer": "Siemens",
  "ManufacturersModelName": "Prisma",
  "Modality": "MR",
  "MultibandAccelerationFactor": 8,
  "PartialFourier": 1,
  "PatientPosition": "HFS",
  "PercentPhaseFOV": 100,
  "PercentSampling": 100,
  "PhaseEncodingDirection": "j-",
  "PhaseEncodingSteps": 82,
  "PhaseResolution": 1,
  "PixelBandwidth": 3050,
  "ProcedureStepDescription": "Wager_Wager^1076_spacetop",
  "ProtocolName": "func_run-01_task-alignvideo_acq-ap-mb8",
  "PulseSequenceDetails": "%CustomerSeq%\\cmrr_mbep2d_bold",
  "ReceiveCoilActiveElements": "HEA;HEP",
  "ReceiveCoilName": "Head_32",
  "ReconMatrixPE": 82,
  "RepetitionTime": 0.46,
  "SAR": 0.081288,
  "ScanOptions": "FS",
  "ScanningSequence": "EP",
  "SequenceName": "epfid2d1_82",
  "SequenceVariant": "SK\\SS",
  "SeriesDescription": "func_run-01_task-alignvideo_acq-ap-mb8",
  "SeriesNumber": 37,
  "ShimSetting": [4149, -7775, -7265, 577, -60, -261, 22, 72],
  "SliceThickness": 2.7,
  "SliceTiming": [0, 0.25, 0.0625, 0.3125, 0.125, 0.375, 0.1875, 0, 0.25, 0.0625, 0.3125, 0.125, 0.375, 0.1875, 0, 0.25, 0.0625, 0.3125, 0.125, 0.375, 0.1875, 0, 0.25, 0.0625, 0.3125, 0.125, 0.375, 0.1875, 0, 0.25, 0.0625, 0.3125, 0.125, 0.375, 0.1875, 0, 0.25, 0.0625, 0.3125, 0.125, 0.375, 0.1875, 0, 0.25, 0.0625, 0.3125, 0.125, 0.375, 0.1875, 0, 0.25, 0.0625, 0.3125, 0.125, 0.375, 0.1875],
  "SoftwareVersions": "syngo MR E11",
  "SpacingBetweenSlices": 2.7,
  "StationName": "AWP66112",
  "TaskName": "alignvideo",
  "TotalReadoutTime": 0.03969,
  "TxRefAmp": 221.102,
  "WipMemBlock": "85900c87-134b-454b-9045-1d4fb7f692c8||Sequence: R016 ve11c/master r/e634e98; Dec 19 2017 11:00:25 by eja",
  "dcmmeta_affine": [
    [-2.6775708198547363, -0.11690539121627808, 0.12343765050172806, 111.84068298339844],
    [-0.12731333076953888, 2.6695985794067383, -0.2362949401140213, -64.27162170410156],
    [0.11181659251451492, 0.24015246331691742, 2.6868064403533936, -77.97985076904297],
    [0.0, 0.0, 0.0, 1.0]
],
  "dcmmeta_reorient_transform": [
    [0.0, -1.0, 0.0, 81.0],
    [1.0, 0.0, 0.0, 0.0],
    [0.0, 0.0, 1.0, 0.0],
    [0.0, 0.0, 0.0, 1.0]
],
  "dcmmeta_shape": [82, 82, 56, 1073],
  "dcmmeta_slice_dim": 2,
  "dcmmeta_version": 0.6,
  "global": {
    "const": {
      "AccessionNumber": "A003492",
      "AcquisitionMatrix": [82, 0, 0, 82],
      "AngioFlag": "N",
      "BitsAllocated": 16,
      "BitsStored": 16,
      "BodyPartExamined": "BRAIN",
      "Columns": 656,
      "EchoNumbers": 1,
      "EchoTime": 27.2,
      "EchoTrainLength": 82,
      "FlipAngle": 44.0,
      "HighBit": 15,
      "ImageOrientationPatient": [0.99800361652146, 0.04745314796231, 0.04167709393121, -0.0435738253677, 0.99503217833442, -0.0895113725841],
      "ImagePositionPatient": [-837.28229948388, -954.67958566739, -21.695106090231],
      "ImageType": [
        "ORIGINAL",
        "PRIMARY",
        "M",
        "MB",
        "ND",
        "NORM",
        "MOSAIC"
],
      "ImagedNucleus": "1H",
      "ImagingFrequency": 123.252158,
      "InPlanePhaseEncodingDirection": "COL",
      "MRAcquisitionType": "2D",
      "MagneticFieldStrength": 3.0,
      "Manufacturer": "SIEMENS",
      "ManufacturerModelName": "Prisma",
      "Modality": "MR",
      "NumberOfAverages": 1.0,
      "NumberOfPhaseEncodingSteps": 82,
      "PercentPhaseFieldOfView": 100.0,
      "PercentSampling": 100.0,
      "PerformedProcedureStepStartTime": "150309.808000",
      "PhotometricInterpretation": "MONOCHROME2",
      "PixelBandwidth": 3050.0,
      "PixelRepresentation": 0,
      "PixelSpacing": [2.6829268932343, 2.6829268932343],
      "ProtocolName": "func_run-01_task-alignvideo_acq-ap-mb8",
      "RepetitionTime": 460.0,
      "Rows": 656,
      "SAR": 0.08128800501783,
      "SamplesPerPixel": 1,
      "ScanOptions": "FS",
      "ScanningSequence": "EP",
      "SequenceName": "epfid2d1_82",
      "SequenceVariant": [
        "SK",
        "SS"
],
      "SeriesDescription": "func_run-01_task-alignvideo_acq-ap-mb8",
      "SeriesNumber": 37,
      "SeriesTime": "163832.954000",
      "SliceLocation": -66.860868260088,
      "SliceThickness": 2.7000000476837,
      "SmallestImagePixelValue": 0,
      "SoftwareVersions": "syngo MR E11",
      "SpacingBetweenSlices": 2.7000000908016,
      "SpecificCharacterSet": "ISO_IR 100",
      "StudyID": "1",
      "StudyTime": "150309.731000",
      "TransmitCoilName": "Body",
      "VariableFlipAngleFlag": "N",
      "WindowCenterWidthExplanation": "Algo1",
      "dBdt": 0.0},
    "slices": {}
  },
  "time": {
    "samples": {
      "AcquisitionNumber": [1, 2, 3, 4, 5, 6, 7, 8, 9, 10, 11, 12, 13, 14, 15, 16, 17, 18, 19, 20, 21, 22, 23, 24, 25, 26, 27, 28, 29, 30, 31, 32, 33, 34, 35, 36, 37, 38, 39, 40, 41, 42, 43, 44, 45, 46, 47, 48, 49, 50, 51, 52, 53, 54, 55, 56, 57, 58, 59, 60, 61, 62, 63, 64, 65, 66, 67, 68, 69, 70, 71, 72, 73, 74, 75, 76, 77, 78, 79, 80, 81, 82, 83, 84, 85, 86, 87, 88, 89, 90, 91, 92, 93, 94, 95, 96, 97, 98, 99, 100, 101, 102, 103, 104, 105, 106, 107, 108, 109, 110, 111, 112, 113, 114, 115, 116, 117, 118, 119, 120, 121, 122, 123, 124, 125, 126, 127, 128, 129, 130, 131, 132, 133, 134, 135, 136, 137, 138, 139, 140, 141, 142, 143, 144, 145, 146, 147, 148, 149, 150, 151, 152, 153, 154, 155, 156, 157, 158, 159, 160, 161, 162, 163, 164, 165, 166, 167, 168, 169, 170, 171, 172, 173, 174, 175, 176, 177, 178, 179, 180, 181, 182, 183, 184, 185, 186, 187, 188, 189, 190, 191, 192, 193, 194, 195, 196, 197, 198, 199, 200, 201, 202, 203, 204, 205, 206, 207, 208, 209, 210, 211, 212, 213, 214, 215, 216, 217, 218, 219, 220, 221, 222, 223, 224, 225, 226, 227, 228, 229, 230, 231, 232, 233, 234, 235, 236, 237, 238, 239, 240, 241, 242, 243, 244, 245, 246, 247, 248, 249, 250, 251, 252, 253, 254, 255, 256, 257, 258, 259, 260, 261, 262, 263, 264, 265, 266, 267, 268, 269, 270, 271, 272, 273, 274, 275, 276, 277, 278, 279, 280, 281, 282, 283, 284, 285, 286, 287, 288, 289, 290, 291, 292, 293, 294, 295, 296, 297, 298, 299, 300, 301, 302, 303, 304, 305, 306, 307, 308, 309, 310, 311, 312, 313, 314, 315, 316, 317, 318, 319, 320, 321, 322, 323, 324, 325, 326, 327, 328, 329, 330, 331, 332, 333, 334, 335, 336, 337, 338, 339, 340, 341, 342, 343, 344, 345, 346, 347, 348, 349, 350, 351, 352, 353, 354, 355, 356, 357, 358, 359, 360, 361, 362, 363, 364, 365, 366, 367, 368, 369, 370, 371, 372, 373, 374, 375, 376, 377, 378, 379, 380, 381, 382, 383, 384, 385, 386, 387, 388, 389, 390, 391, 392, 393, 394, 395, 396, 397, 398, 399, 400, 401, 402, 403, 404, 405, 406, 407, 408, 409, 410, 411, 412, 413, 414, 415, 416, 417, 418, 419, 420, 421, 422, 423, 424, 425, 426, 427, 428, 429, 430, 431, 432, 433, 434, 435, 436, 437, 438, 439, 440, 441, 442, 443, 444, 445, 446, 447, 448, 449, 450, 451, 452, 453, 454, 455, 456, 457, 458, 459, 460, 461, 462, 463, 464, 465, 466, 467, 468, 469, 470, 471, 472, 473, 474, 475, 476, 477, 478, 479, 480, 481, 482, 483, 484, 485, 486, 487, 488, 489, 490, 491, 492, 493, 494, 495, 496, 497, 498, 499, 500, 501, 502, 503, 504, 505, 506, 507, 508, 509, 510, 511, 512, 513, 514, 515, 516, 517, 518, 519, 520, 521, 522, 523, 524, 525, 526, 527, 528, 529, 530, 531, 532, 533, 534, 535, 536, 537, 538, 539, 540, 541, 542, 543, 544, 545, 546, 547, 548, 549, 550, 551, 552, 553, 554, 555, 556, 557, 558, 559, 560, 561, 562, 563, 564, 565, 566, 567, 568, 569, 570, 571, 572, 573, 574, 575, 576, 577, 578, 579, 580, 581, 582, 583, 584, 585, 586, 587, 588, 589, 590, 591, 592, 593, 594, 595, 596, 597, 598, 599, 600, 601, 602, 603, 604, 605, 606, 607, 608, 609, 610, 611, 612, 613, 614, 615, 616, 617, 618, 619, 620, 621, 622, 623, 624, 625, 626, 627, 628, 629, 630, 631, 632, 633, 634, 635, 636, 637, 638, 639, 640, 641, 642, 643, 644, 645, 646, 647, 648, 649, 650, 651, 652, 653, 654, 655, 656, 657, 658, 659, 660, 661, 662, 663, 664, 665, 666, 667, 668, 669, 670, 671, 672, 673, 674, 675, 676, 677, 678, 679, 680, 681, 682, 683, 684, 685, 686, 687, 688, 689, 690, 691, 692, 693, 694, 695, 696, 697, 698, 699, 700, 701, 702, 703, 704, 705, 706, 707, 708, 709, 710, 711, 712, 713, 714, 715, 716, 717, 718, 719, 720, 721, 722, 723, 724, 725, 726, 727, 728, 729, 730, 731, 732, 733, 734, 735, 736, 737, 738, 739, 740, 741, 742, 743, 744, 745, 746, 747, 748, 749, 750, 751, 752, 753, 754, 755, 756, 757, 758, 759, 760, 761, 762, 763, 764, 765, 766, 767, 768, 769, 770, 771, 772, 773, 774, 775, 776, 777, 778, 779, 780, 781, 782, 783, 784, 785, 786, 787, 788, 789, 790, 791, 792, 793, 794, 795, 796, 797, 798, 799, 800, 801, 802, 803, 804, 805, 806, 807, 808, 809, 810, 811, 812, 813, 814, 815, 816, 817, 818, 819, 820, 821, 822, 823, 824, 825, 826, 827, 828, 829, 830, 831, 832, 833, 834, 835, 836, 837, 838, 839, 840, 841, 842, 843, 844, 845, 846, 847, 848, 849, 850, 851, 852, 853, 854, 855, 856, 857, 858, 859, 860, 861, 862, 863, 864, 865, 866, 867, 868, 869, 870, 871, 872, 873, 874, 875, 876, 877, 878, 879, 880, 881, 882, 883, 884, 885, 886, 887, 888, 889, 890, 891, 892, 893, 894, 895, 896, 897, 898, 899, 900, 901, 902, 903, 904, 905, 906, 907, 908, 909, 910, 911, 912, 913, 914, 915, 916, 917, 918, 919, 920, 921, 922, 923, 924, 925, 926, 927, 928, 929, 930, 931, 932, 933, 934, 935, 936, 937, 938, 939, 940, 941, 942, 943, 944, 945, 946, 947, 948, 949, 950, 951, 952, 953, 954, 955, 956, 957, 958, 959, 960, 961, 962, 963, 964, 965, 966, 967, 968, 969, 970, 971, 972, 973, 974, 975, 976, 977, 978, 979, 980, 981, 982, 983, 984, 985, 986, 987, 988, 989, 990, 991, 992, 993, 994, 995, 996, 997, 998, 999, 1000, 1001, 1002, 1003, 1004, 1005, 1006, 1007, 1008, 1009, 1010, 1011, 1012, 1013, 1014, 1015, 1016, 1017, 1018, 1019, 1020, 1021, 1022, 1023, 1024, 1025, 1026, 1027, 1028, 1029, 1030, 1031, 1032, 1033, 1034, 1035, 1036, 1037, 1038, 1039, 1040, 1041, 1042, 1043, 1044, 1045, 1046, 1047, 1048, 1049, 1050, 1051, 1052, 1053, 1054, 1055, 1056, 1057, 1058, 1059, 1060, 1061, 1062, 1063, 1064, 1065, 1066, 1067, 1068, 1069, 1070, 1071, 1072, 1073],
      "AcquisitionTime": ["163820.755000", "163821.215000", "163821.675000", "163822.135000", "163822.595000", "163823.055000", "163823.515000", "163823.975000", "163824.435000", "163824.895000", "163825.355000", "163825.815000", "163826.275000", "163826.735000", "163827.195000", "163827.655000", "163828.115000", "163828.575000", "163829.035000", "163829.495000", "163829.955000", "163830.415000", "163830.875000", "163831.335000", "163831.795000", "163832.255000", "163832.715000", "163833.175000", "163833.635000", "163834.095000", "163834.555000", "163835.015000", "163835.475000", "163835.935000", "163836.395000", "163836.855000", "163837.315000", "163837.775000", "163838.235000", "163838.695000", "163839.155000", "163839.615000", "163840.075000", "163840.535000", "163840.995000", "163841.455000", "163841.915000", "163842.375000", "163842.835000", "163843.295000", "163843.755000", "163844.215000", "163844.675000", "163845.135000", "163845.595000", "163846.055000", "163846.515000", "163846.975000", "163847.435000", "163847.895000", "163848.355000", "163848.815000", "163849.275000", "163849.735000", "163850.195000", "163850.655000", "163851.115000", "163851.575000", "163852.035000", "163852.495000", "163852.955000", "163853.415000", "163853.875000", "163854.335000", "163854.795000", "163855.255000", "163855.715000", "163856.175000", "163856.635000", "163857.095000", "163857.555000", "163858.015000", "163858.475000", "163858.935000", "163859.395000", "163859.855000", "163900.315000", "163900.775000", "163901.235000", "163901.695000", "163902.155000", "163902.615000", "163903.075000", "163903.535000", "163903.995000", "163904.455000", "163904.915000", "163905.375000", "163905.835000", "163906.295000", "163906.755000", "163907.215000", "163907.675000", "163908.135000", "163908.595000", "163909.055000", "163909.515000", "163909.975000", "163910.435000", "163910.895000", "163911.355000", "163911.815000", "163912.275000", "163912.735000", "163913.195000", "163913.655000", "163914.115000", "163914.575000", "163915.035000", "163915.495000", "163915.955000", "163916.415000", "163916.875000", "163917.335000", "163917.795000", "163918.255000", "163918.715000", "163919.175000", "163919.635000", "163920.095000", "163920.555000", "163921.015000", "163921.475000", "163921.935000", "163922.395000", "163922.855000", "163923.315000", "163923.775000", "163924.235000", "163924.695000", "163925.155000", "163925.615000", "163926.075000", "163926.535000", "163926.995000", "163927.455000", "163927.915000", "163928.375000", "163928.835000", "163929.295000", "163929.755000", "163930.215000", "163930.675000", "163931.135000", "163931.595000", "163932.055000", "163932.515000", "163932.975000", "163933.435000", "163933.895000", "163934.355000", "163934.815000", "163935.275000", "163935.735000", "163936.195000", "163936.655000", "163937.115000", "163937.575000", "163938.035000", "163938.495000", "163938.955000", "163939.415000", "163939.875000", "163940.335000", "163940.795000", "163941.255000", "163941.715000", "163942.175000", "163942.635000", "163943.095000", "163943.555000", "163944.015000", "163944.475000", "163944.935000", "163945.395000", "163945.855000", "163946.315000", "163946.775000", "163947.235000", "163947.695000", "163948.155000", "163948.615000", "163949.075000", "163949.535000", "163949.995000", "163950.455000", "163950.915000", "163951.375000", "163951.835000", "163952.295000", "163952.755000", "163953.215000", "163953.675000", "163954.135000", "163954.595000", "163955.055000", "163955.515000", "163955.975000", "163956.435000", "163956.895000", "163957.355000", "163957.815000", "163958.275000", "163958.735000", "163959.195000", "163959.655000", "164000.115000", "164000.575000", "164001.035000", "164001.495000", "164001.955000", "164002.415000", "164002.875000", "164003.335000", "164003.795000", "164004.255000", "164004.715000", "164005.175000", "164005.635000", "164006.095000", "164006.555000", "164007.015000", "164007.475000", "164007.935000", "164008.395000", "164008.855000", "164009.315000", "164009.775000", "164010.235000", "164010.695000", "164011.155000", "164011.615000", "164012.075000", "164012.535000", "164012.995000", "164013.455000", "164013.915000", "164014.375000", "164014.835000", "164015.295000", "164015.755000", "164016.215000", "164016.675000", "164017.135000", "164017.595000", "164018.055000", "164018.515000", "164018.975000", "164019.435000", "164019.895000", "164020.355000", "164020.815000", "164021.275000", "164021.735000", "164022.195000", "164022.655000", "164023.115000", "164023.575000", "164024.035000", "164024.495000", "164024.955000", "164025.415000", "164025.875000", "164026.335000", "164026.795000", "164027.255000", "164027.715000", "164028.175000", "164028.635000", "164029.095000", "164029.555000", "164030.015000", "164030.475000", "164030.935000", "164031.395000", "164031.855000", "164032.315000", "164032.775000", "164033.235000", "164033.695000", "164034.155000", "164034.615000", "164035.075000", "164035.535000", "164035.995000", "164036.455000", "164036.915000", "164037.375000", "164037.835000", "164038.295000", "164038.755000", "164039.215000", "164039.675000", "164040.135000", "164040.595000", "164041.055000", "164041.515000", "164041.975000", "164042.435000", "164042.895000", "164043.355000", "164043.815000", "164044.275000", "164044.735000", "164045.195000", "164045.655000", "164046.115000", "164046.575000", "164047.035000", "164047.495000", "164047.955000", "164048.415000", "164048.875000", "164049.335000", "164049.795000", "164050.255000", "164050.715000", "164051.175000", "164051.635000", "164052.095000", "164052.555000", "164053.015000", "164053.475000", "164053.935000", "164054.395000", "164054.855000", "164055.315000", "164055.775000", "164056.235000", "164056.695000", "164057.155000", "164057.615000", "164058.075000", "164058.535000", "164058.995000", "164059.455000", "164059.915000", "164100.375000", "164100.835000", "164101.295000", "164101.755000", "164102.215000", "164102.675000", "164103.135000", "164103.595000", "164104.055000", "164104.515000", "164104.975000", "164105.435000", "164105.895000", "164106.355000", "164106.815000", "164107.275000", "164107.735000", "164108.195000", "164108.655000", "164109.115000", "164109.575000", "164110.035000", "164110.495000", "164110.955000", "164111.415000", "164111.875000", "164112.335000", "164112.795000", "164113.255000", "164113.715000", "164114.175000", "164114.635000", "164115.095000", "164115.555000", "164116.015000", "164116.475000", "164116.935000", "164117.395000", "164117.855000", "164118.315000", "164118.775000", "164119.235000", "164119.695000", "164120.155000", "164120.615000", "164121.075000", "164121.535000", "164121.995000", "164122.455000", "164122.915000", "164123.375000", "164123.835000", "164124.295000", "164124.755000", "164125.215000", "164125.675000", "164126.135000", "164126.595000", "164127.055000", "164127.515000", "164127.975000", "164128.435000", "164128.895000", "164129.355000", "164129.815000", "164130.275000", "164130.735000", "164131.195000", "164131.655000", "164132.115000", "164132.575000", "164133.035000", "164133.495000", "164133.955000", "164134.415000", "164134.875000", "164135.335000", "164135.795000", "164136.255000", "164136.715000", "164137.175000", "164137.635000", "164138.095000", "164138.555000", "164139.015000", "164139.475000", "164139.935000", "164140.395000", "164140.855000", "164141.315000", "164141.775000", "164142.235000", "164142.695000", "164143.155000", "164143.615000", "164144.075000", "164144.535000", "164144.995000", "164145.455000", "164145.915000", "164146.375000", "164146.835000", "164147.295000", "164147.755000", "164148.215000", "164148.675000", "164149.135000", "164149.595000", "164150.055000", "164150.515000", "164150.975000", "164151.435000", "164151.895000", "164152.355000", "164152.815000", "164153.275000", "164153.735000", "164154.195000", "164154.655000", "164155.115000", "164155.575000", "164156.035000", "164156.495000", "164156.955000", "164157.415000", "164157.875000", "164158.335000", "164158.795000", "164159.255000", "164159.715000", "164200.175000", "164200.635000", "164201.095000", "164201.555000", "164202.015000", "164202.475000", "164202.935000", "164203.395000", "164203.855000", "164204.315000", "164204.775000", "164205.235000", "164205.695000", "164206.155000", "164206.615000", "164207.075000", "164207.535000", "164207.995000", "164208.455000", "164208.915000", "164209.375000", "164209.835000", "164210.295000", "164210.755000", "164211.215000", "164211.675000", "164212.135000", "164212.595000", "164213.055000", "164213.515000", "164213.975000", "164214.435000", "164214.895000", "164215.355000", "164215.815000", "164216.275000", "164216.735000", "164217.195000", "164217.655000", "164218.115000", "164218.575000", "164219.035000", "164219.495000", "164219.955000", "164220.415000", "164220.875000", "164221.335000", "164221.795000", "164222.255000", "164222.715000", "164223.175000", "164223.635000", "164224.095000", "164224.555000", "164225.015000", "164225.475000", "164225.935000", "164226.395000", "164226.855000", "164227.315000", "164227.775000", "164228.235000", "164228.695000", "164229.155000", "164229.615000", "164230.075000", "164230.535000", "164230.995000", "164231.455000", "164231.915000", "164232.375000", "164232.835000", "164233.295000", "164233.755000", "164234.215000", "164234.675000", "164235.135000", "164235.595000", "164236.055000", "164236.515000", "164236.975000", "164237.435000", "164237.895000", "164238.355000", "164238.815000", "164239.275000", "164239.735000", "164240.195000", "164240.655000", "164241.115000", "164241.575000", "164242.035000", "164242.495000", "164242.955000", "164243.415000", "164243.875000", "164244.335000", "164244.795000", "164245.255000", "164245.715000", "164246.175000", "164246.635000", "164247.095000", "164247.555000", "164248.015000", "164248.475000", "164248.935000", "164249.395000", "164249.855000", "164250.315000", "164250.775000", "164251.235000", "164251.695000", "164252.155000", "164252.615000", "164253.075000", "164253.535000", "164253.995000", "164254.455000", "164254.915000", "164255.375000", "164255.835000", "164256.295000", "164256.755000", "164257.215000", "164257.675000", "164258.135000", "164258.595000", "164259.055000", "164259.515000", "164259.975000", "164300.435000", "164300.895000", "164301.355000", "164301.815000", "164302.275000", "164302.735000", "164303.195000", "164303.655000", "164304.115000", "164304.575000", "164305.035000", "164305.495000", "164305.955000", "164306.415000", "164306.875000", "164307.335000", "164307.795000", "164308.255000", "164308.715000", "164309.175000", "164309.635000", "164310.095000", "164310.555000", "164311.015000", "164311.475000", "164311.935000", "164312.395000", "164312.855000", "164313.315000", "164313.775000", "164314.235000", "164314.695000", "164315.155000", "164315.615000", "164316.075000", "164316.535000", "164316.995000", "164317.455000", "164317.915000", "164318.375000", "164318.835000", "164319.295000", "164319.755000", "164320.215000", "164320.675000", "164321.135000", "164321.595000", "164322.055000", "164322.515000", "164322.975000", "164323.435000", "164323.895000", "164324.355000", "164324.815000", "164325.275000", "164325.735000", "164326.195000", "164326.655000", "164327.115000", "164327.575000", "164328.035000", "164328.495000", "164328.955000", "164329.415000", "164329.875000", "164330.335000", "164330.795000", "164331.255000", "164331.715000", "164332.175000", "164332.635000", "164333.095000", "164333.555000", "164334.015000", "164334.475000", "164334.935000", "164335.395000", "164335.855000", "164336.315000", "164336.775000", "164337.235000", "164337.695000", "164338.155000", "164338.615000", "164339.075000", "164339.535000", "164339.995000", "164340.455000", "164340.915000", "164341.375000", "164341.835000", "164342.295000", "164342.755000", "164343.215000", "164343.675000", "164344.135000", "164344.595000", "164345.055000", "164345.515000", "164345.975000", "164346.435000", "164346.895000", "164347.355000", "164347.815000", "164348.275000", "164348.735000", "164349.195000", "164349.655000", "164350.115000", "164350.575000", "164351.035000", "164351.495000", "164351.955000", "164352.415000", "164352.875000", "164353.335000", "164353.795000", "164354.255000", "164354.715000", "164355.175000", "164355.635000", "164356.095000", "164356.555000", "164357.015000", "164357.475000", "164357.935000", "164358.395000", "164358.855000", "164359.315000", "164359.775000", "164400.235000", "164400.695000", "164401.155000", "164401.615000", "164402.075000", "164402.535000", "164402.995000", "164403.455000", "164403.915000", "164404.375000", "164404.835000", "164405.295000", "164405.755000", "164406.215000", "164406.675000", "164407.135000", "164407.595000", "164408.055000", "164408.515000", "164408.975000", "164409.435000", "164409.895000", "164410.355000", "164410.815000", "164411.275000", "164411.735000", "164412.195000", "164412.655000", "164413.115000", "164413.575000", "164414.035000", "164414.495000", "164414.955000", "164415.415000", "164415.875000", "164416.335000", "164416.795000", "164417.255000", "164417.715000", "164418.175000", "164418.635000", "164419.095000", "164419.555000", "164420.015000", "164420.475000", "164420.935000", "164421.395000", "164421.855000", "164422.315000", "164422.775000", "164423.235000", "164423.695000", "164424.155000", "164424.615000", "164425.075000", "164425.535000", "164425.995000", "164426.455000", "164426.915000", "164427.375000", "164427.835000", "164428.295000", "164428.755000", "164429.215000", "164429.675000", "164430.135000", "164430.595000", "164431.055000", "164431.515000", "164431.975000", "164432.435000", "164432.895000", "164433.355000", "164433.815000", "164434.275000", "164434.735000", "164435.195000", "164435.655000", "164436.115000", "164436.575000", "164437.035000", "164437.495000", "164437.955000", "164438.415000", "164438.875000", "164439.335000", "164439.795000", "164440.255000", "164440.715000", "164441.175000", "164441.635000", "164442.095000", "164442.555000", "164443.015000", "164443.475000", "164443.935000", "164444.395000", "164444.855000", "164445.315000", "164445.775000", "164446.235000", "164446.695000", "164447.155000", "164447.615000", "164448.075000", "164448.535000", "164448.995000", "164449.455000", "164449.915000", "164450.375000", "164450.835000", "164451.295000", "164451.755000", "164452.215000", "164452.675000", "164453.135000", "164453.595000", "164454.055000", "164454.515000", "164454.975000", "164455.435000", "164455.895000", "164456.355000", "164456.815000", "164457.275000", "164457.735000", "164458.195000", "164458.655000", "164459.115000", "164459.575000", "164500.035000", "164500.495000", "164500.955000", "164501.415000", "164501.875000", "164502.335000", "164502.795000", "164503.255000", "164503.715000", "164504.175000", "164504.635000", "164505.095000", "164505.555000", "164506.015000", "164506.475000", "164506.935000", "164507.395000", "164507.855000", "164508.315000", "164508.775000", "164509.235000", "164509.695000", "164510.155000", "164510.615000", "164511.075000", "164511.535000", "164511.995000", "164512.455000", "164512.915000", "164513.375000", "164513.835000", "164514.295000", "164514.755000", "164515.215000", "164515.675000", "164516.135000", "164516.595000", "164517.055000", "164517.515000", "164517.975000", "164518.435000", "164518.895000", "164519.355000", "164519.815000", "164520.275000", "164520.735000", "164521.195000", "164521.655000", "164522.115000", "164522.575000", "164523.035000", "164523.495000", "164523.955000", "164524.415000", "164524.875000", "164525.335000", "164525.795000", "164526.255000", "164526.715000", "164527.175000", "164527.635000", "164528.095000", "164528.555000", "164529.015000", "164529.475000", "164529.935000", "164530.395000", "164530.855000", "164531.315000", "164531.775000", "164532.235000", "164532.695000", "164533.155000", "164533.615000", "164534.075000", "164534.535000", "164534.995000", "164535.455000", "164535.915000", "164536.375000", "164536.835000", "164537.295000", "164537.755000", "164538.215000", "164538.675000", "164539.135000", "164539.595000", "164540.055000", "164540.515000", "164540.975000", "164541.435000", "164541.895000", "164542.355000", "164542.815000", "164543.275000", "164543.735000", "164544.195000", "164544.655000", "164545.115000", "164545.575000", "164546.035000", "164546.495000", "164546.955000", "164547.415000", "164547.875000", "164548.335000", "164548.795000", "164549.255000", "164549.715000", "164550.175000", "164550.635000", "164551.095000", "164551.555000", "164552.015000", "164552.475000", "164552.935000", "164553.395000", "164553.855000", "164554.315000", "164554.775000", "164555.235000", "164555.695000", "164556.155000", "164556.615000", "164557.075000", "164557.535000", "164557.995000", "164558.455000", "164558.915000", "164559.375000", "164559.835000", "164600.295000", "164600.755000", "164601.215000", "164601.675000", "164602.135000", "164602.595000", "164603.055000", "164603.515000", "164603.975000", "164604.435000", "164604.895000", "164605.355000", "164605.815000", "164606.275000", "164606.735000", "164607.195000", "164607.655000", "164608.115000", "164608.575000", "164609.035000", "164609.495000", "164609.955000", "164610.415000", "164610.875000", "164611.335000", "164611.795000", "164612.255000", "164612.715000", "164613.175000", "164613.635000", "164614.095000", "164614.555000", "164615.015000", "164615.475000", "164615.935000", "164616.395000", "164616.855000", "164617.315000", "164617.775000", "164618.235000", "164618.695000", "164619.155000", "164619.615000", "164620.075000", "164620.535000", "164620.995000", "164621.455000", "164621.915000", "164622.375000", "164622.835000", "164623.295000", "164623.755000", "164624.215000", "164624.675000", "164625.135000", "164625.595000", "164626.055000", "164626.515000", "164626.975000", "164627.435000", "164627.895000", "164628.355000", "164628.815000", "164629.275000", "164629.735000", "164630.195000", "164630.655000", "164631.115000", "164631.575000", "164632.035000", "164632.495000", "164632.955000", "164633.415000", "164633.875000"],
