{
  "AcquisitionMatrixPE": 82,
  "AcquisitionNumber": 1,
  "AcquisitionTime": "16:21:38.797500",
  "BandwidthPerPixelPhaseEncode": 24.888,
  "BaseResolution": 82,
  "BodyPartExamined": "BRAIN",
  "ConsistencyInfo": "N4_VE11C_LATEST_20160120",
  "ConversionSoftware": "dcm2niix",
  "ConversionSoftwareVersion": "v1.0.20201102",
  "DerivedVendorReportedEchoSpacing": 0.00049,
  "DeviceSerialNumber": "66112",
  "DwellTime": 2e-06,
  "EchoTime": 0.0272,
  "EchoTrainLength": 82,
  "EffectiveEchoSpacing": 0.00049,
  "FlipAngle": 44,
  "ImageComments": "Unaliased MB8/PE3",
  "ImageOrientationPatientDICOM": [0.99909, 0.0150797, 0.0398905, -0.013602, 0.999221, -0.0370585],
  "ImageType": [
    "ORIGINAL",
    "PRIMARY",
    "M",
    "MB",
    "ND",
    "NORM",
    "MOSAIC"
],
  "ImagingFrequency": 123.252,
  "InPlanePhaseEncodingDirectionDICOM": "COL",
  "InstitutionAddress": "Maynard 3,Hanover,NH,US,03755",
  "InstitutionName": "Dartmouth College - PBS",
  "InstitutionalDepartmentName": "Department",
  "MRAcquisitionType": "2D",
  "MagneticFieldStrength": 3,
  "Manufacturer": "Siemens",
  "ManufacturersModelName": "Prisma",
  "Modality": "MR",
  "MultibandAccelerationFactor": 8,
  "PartialFourier": 1,
  "PatientPosition": "HFS",
  "PercentPhaseFOV": 100,
  "PercentSampling": 100,
  "PhaseEncodingDirection": "j-",
  "PhaseEncodingSteps": 82,
  "PhaseResolution": 1,
  "PixelBandwidth": 3050,
  "ProcedureStepDescription": "Wager_Wager^1076_spacetop",
  "ProtocolName": "func_run-05_task-social_acq-ap-mb8",
  "PulseSequenceDetails": "%CustomerSeq%\\cmrr_mbep2d_bold",
  "ReceiveCoilActiveElements": "HEA;HEP",
  "ReceiveCoilName": "Head_32",
  "ReconMatrixPE": 82,
  "RepetitionTime": 0.46,
  "SAR": 0.0811933,
  "ScanOptions": "FS",
  "ScanningSequence": "EP",
  "SequenceName": "epfid2d1_82",
  "SequenceVariant": "SK\\SS",
  "SeriesDescription": "func_run-05_task-social_acq-ap-mb8",
  "SeriesNumber": 27,
  "ShimSetting": [4148, -7773, -7264, 563, -73, -248, 27, 66],
  "SliceThickness": 2.7,
  "SliceTiming": [0, 0.25, 0.0625, 0.315, 0.125, 0.3775, 0.1875, 0, 0.25, 0.0625, 0.315, 0.125, 0.3775, 0.1875, 0, 0.25, 0.0625, 0.315, 0.125, 0.3775, 0.1875, 0, 0.25, 0.0625, 0.315, 0.125, 0.3775, 0.1875, 0, 0.25, 0.0625, 0.315, 0.125, 0.3775, 0.1875, 0, 0.25, 0.0625, 0.315, 0.125, 0.3775, 0.1875, 0, 0.25, 0.0625, 0.315, 0.125, 0.3775, 0.1875, 0, 0.25, 0.0625, 0.315, 0.125, 0.3775, 0.1875],
  "SoftwareVersions": "syngo MR E11",
  "SpacingBetweenSlices": 2.7,
  "StationName": "AWP66112",
  "TaskName": "social",
  "TotalReadoutTime": 0.03969,
  "TxRefAmp": 221.102,
  "WipMemBlock": "f7514986-4034-4446-bb83-49c58d478b8a||Sequence: R016 ve11c/master r/e634e98; Dec 19 2017 11:00:25 by eja",
  "dcmmeta_affine": [
    [-2.6804862022399902, -0.0364932082593441, 0.10912913084030151, 108.32516479492188],
    [-0.04045766219496727, 2.680835723876953, -0.09850195795297623, -78.27371978759766],
    [0.10702318698167801, 0.09942527115345001, 2.6959948539733887, -70.72284698486328],
    [0.0, 0.0, 0.0, 1.0]
],
  "dcmmeta_reorient_transform": [
    [0.0, -1.0, 0.0, 81.0],
    [1.0, 0.0, 0.0, 0.0],
    [0.0, 0.0, 1.0, 0.0],
    [0.0, 0.0, 0.0, 1.0]
],
  "dcmmeta_shape": [82, 82, 56, 872],
  "dcmmeta_slice_dim": 2,
  "dcmmeta_version": 0.6,
  "global": {
    "const": {
      "AccessionNumber": "A003492",
      "AcquisitionMatrix": [82, 0, 0, 82],
      "AngioFlag": "N",
      "BitsAllocated": 16,
      "BitsStored": 16,
      "BodyPartExamined": "BRAIN",
      "Columns": 656,
      "EchoNumbers": 1,
      "EchoTime": 27.2,
      "EchoTrainLength": 82,
      "FlipAngle": 44.0,
      "HighBit": 15,
      "ImageOrientationPatient": [0.9990902635259, 0.01507967432356, 0.03989045938634, -0.0136020133446, 0.99922052227147, -0.0370585092051],
      "ImagePositionPatient": [-864.19518691275, -919.88513193708, -64.849999672245],
      "ImageType": [
        "ORIGINAL",
        "PRIMARY",
        "M",
        "MB",
        "ND",
        "NORM",
        "MOSAIC"
],
      "ImagedNucleus": "1H",
      "ImagingFrequency": 123.252164,
      "InPlanePhaseEncodingDirection": "COL",
      "MRAcquisitionType": "2D",
      "MagneticFieldStrength": 3.0,
      "Manufacturer": "SIEMENS",
      "ManufacturerModelName": "Prisma",
      "Modality": "MR",
      "NumberOfAverages": 1.0,
      "NumberOfPhaseEncodingSteps": 82,
      "PercentPhaseFieldOfView": 100.0,
      "PercentSampling": 100.0,
      "PerformedProcedureStepStartTime": "150309.808000",
      "PhotometricInterpretation": "MONOCHROME2",
      "PixelBandwidth": 3050.0,
      "PixelRepresentation": 0,
      "PixelSpacing": [2.6829268932343, 2.6829268932343],
      "ProtocolName": "func_run-05_task-social_acq-ap-mb8",
      "RepetitionTime": 460.0,
      "Rows": 656,
      "SAR": 0.081193317766,
      "SamplesPerPixel": 1,
      "ScanOptions": "FS",
      "ScanningSequence": "EP",
      "SequenceName": "epfid2d1_82",
      "SequenceVariant": [
        "SK",
        "SS"
],
      "SeriesDescription": "func_run-05_task-social_acq-ap-mb8",
      "SeriesNumber": 27,
      "SeriesTime": "162153.021000",
      "SliceLocation": -63.384029499367,
      "SliceThickness": 2.7000000476837,
      "SmallestImagePixelValue": 0,
      "SoftwareVersions": "syngo MR E11",
      "SpacingBetweenSlices": 2.7000000699606,
      "SpecificCharacterSet": "ISO_IR 100",
      "StudyID": "1",
      "StudyTime": "150309.731000",
      "TransmitCoilName": "Body",
      "VariableFlipAngleFlag": "N",
      "WindowCenterWidthExplanation": "Algo1",
      "dBdt": 0.0},
    "slices": {}
  },
  "time": {
    "samples": {
      "AcquisitionNumber": [1, 2, 3, 4, 5, 6, 7, 8, 9, 10, 11, 12, 13, 14, 15, 16, 17, 18, 19, 20, 21, 22, 23, 24, 25, 26, 27, 28, 29, 30, 31, 32, 33, 34, 35, 36, 37, 38, 39, 40, 41, 42, 43, 44, 45, 46, 47, 48, 49, 50, 51, 52, 53, 54, 55, 56, 57, 58, 59, 60, 61, 62, 63, 64, 65, 66, 67, 68, 69, 70, 71, 72, 73, 74, 75, 76, 77, 78, 79, 80, 81, 82, 83, 84, 85, 86, 87, 88, 89, 90, 91, 92, 93, 94, 95, 96, 97, 98, 99, 100, 101, 102, 103, 104, 105, 106, 107, 108, 109, 110, 111, 112, 113, 114, 115, 116, 117, 118, 119, 120, 121, 122, 123, 124, 125, 126, 127, 128, 129, 130, 131, 132, 133, 134, 135, 136, 137, 138, 139, 140, 141, 142, 143, 144, 145, 146, 147, 148, 149, 150, 151, 152, 153, 154, 155, 156, 157, 158, 159, 160, 161, 162, 163, 164, 165, 166, 167, 168, 169, 170, 171, 172, 173, 174, 175, 176, 177, 178, 179, 180, 181, 182, 183, 184, 185, 186, 187, 188, 189, 190, 191, 192, 193, 194, 195, 196, 197, 198, 199, 200, 201, 202, 203, 204, 205, 206, 207, 208, 209, 210, 211, 212, 213, 214, 215, 216, 217, 218, 219, 220, 221, 222, 223, 224, 225, 226, 227, 228, 229, 230, 231, 232, 233, 234, 235, 236, 237, 238, 239, 240, 241, 242, 243, 244, 245, 246, 247, 248, 249, 250, 251, 252, 253, 254, 255, 256, 257, 258, 259, 260, 261, 262, 263, 264, 265, 266, 267, 268, 269, 270, 271, 272, 273, 274, 275, 276, 277, 278, 279, 280, 281, 282, 283, 284, 285, 286, 287, 288, 289, 290, 291, 292, 293, 294, 295, 296, 297, 298, 299, 300, 301, 302, 303, 304, 305, 306, 307, 308, 309, 310, 311, 312, 313, 314, 315, 316, 317, 318, 319, 320, 321, 322, 323, 324, 325, 326, 327, 328, 329, 330, 331, 332, 333, 334, 335, 336, 337, 338, 339, 340, 341, 342, 343, 344, 345, 346, 347, 348, 349, 350, 351, 352, 353, 354, 355, 356, 357, 358, 359, 360, 361, 362, 363, 364, 365, 366, 367, 368, 369, 370, 371, 372, 373, 374, 375, 376, 377, 378, 379, 380, 381, 382, 383, 384, 385, 386, 387, 388, 389, 390, 391, 392, 393, 394, 395, 396, 397, 398, 399, 400, 401, 402, 403, 404, 405, 406, 407, 408, 409, 410, 411, 412, 413, 414, 415, 416, 417, 418, 419, 420, 421, 422, 423, 424, 425, 426, 427, 428, 429, 430, 431, 432, 433, 434, 435, 436, 437, 438, 439, 440, 441, 442, 443, 444, 445, 446, 447, 448, 449, 450, 451, 452, 453, 454, 455, 456, 457, 458, 459, 460, 461, 462, 463, 464, 465, 466, 467, 468, 469, 470, 471, 472, 473, 474, 475, 476, 477, 478, 479, 480, 481, 482, 483, 484, 485, 486, 487, 488, 489, 490, 491, 492, 493, 494, 495, 496, 497, 498, 499, 500, 501, 502, 503, 504, 505, 506, 507, 508, 509, 510, 511, 512, 513, 514, 515, 516, 517, 518, 519, 520, 521, 522, 523, 524, 525, 526, 527, 528, 529, 530, 531, 532, 533, 534, 535, 536, 537, 538, 539, 540, 541, 542, 543, 544, 545, 546, 547, 548, 549, 550, 551, 552, 553, 554, 555, 556, 557, 558, 559, 560, 561, 562, 563, 564, 565, 566, 567, 568, 569, 570, 571, 572, 573, 574, 575, 576, 577, 578, 579, 580, 581, 582, 583, 584, 585, 586, 587, 588, 589, 590, 591, 592, 593, 594, 595, 596, 597, 598, 599, 600, 601, 602, 603, 604, 605, 606, 607, 608, 609, 610, 611, 612, 613, 614, 615, 616, 617, 618, 619, 620, 621, 622, 623, 624, 625, 626, 627, 628, 629, 630, 631, 632, 633, 634, 635, 636, 637, 638, 639, 640, 641, 642, 643, 644, 645, 646, 647, 648, 649, 650, 651, 652, 653, 654, 655, 656, 657, 658, 659, 660, 661, 662, 663, 664, 665, 666, 667, 668, 669, 670, 671, 672, 673, 674, 675, 676, 677, 678, 679, 680, 681, 682, 683, 684, 685, 686, 687, 688, 689, 690, 691, 692, 693, 694, 695, 696, 697, 698, 699, 700, 701, 702, 703, 704, 705, 706, 707, 708, 709, 710, 711, 712, 713, 714, 715, 716, 717, 718, 719, 720, 721, 722, 723, 724, 725, 726, 727, 728, 729, 730, 731, 732, 733, 734, 735, 736, 737, 738, 739, 740, 741, 742, 743, 744, 745, 746, 747, 748, 749, 750, 751, 752, 753, 754, 755, 756, 757, 758, 759, 760, 761, 762, 763, 764, 765, 766, 767, 768, 769, 770, 771, 772, 773, 774, 775, 776, 777, 778, 779, 780, 781, 782, 783, 784, 785, 786, 787, 788, 789, 790, 791, 792, 793, 794, 795, 796, 797, 798, 799, 800, 801, 802, 803, 804, 805, 806, 807, 808, 809, 810, 811, 812, 813, 814, 815, 816, 817, 818, 819, 820, 821, 822, 823, 824, 825, 826, 827, 828, 829, 830, 831, 832, 833, 834, 835, 836, 837, 838, 839, 840, 841, 842, 843, 844, 845, 846, 847, 848, 849, 850, 851, 852, 853, 854, 855, 856, 857, 858, 859, 860, 861, 862, 863, 864, 865, 866, 867, 868, 869, 870, 871, 872],
      "AcquisitionTime": ["162138.797500", "162139.257500", "162139.717500", "162140.177500", "162140.637500", "162141.097500", "162141.557500", "162142.017500", "162142.477500", "162142.937500", "162143.397500", "162143.857500", "162144.317500", "162144.777500", "162145.237500", "162145.697500", "162146.157500", "162146.617500", "162147.077500", "162147.537500", "162147.997500", "162148.457500", "162148.917500", "162149.377500", "162149.837500", "162150.297500", "162150.757500", "162151.217500", "162151.677500", "162152.137500", "162152.597500", "162153.057500", "162153.517500", "162153.977500", "162154.437500", "162154.897500", "162155.357500", "162155.817500", "162156.277500", "162156.737500", "162157.197500", "162157.657500", "162158.117500", "162158.577500", "162159.037500", "162159.497500", "162159.957500", "162200.417500", "162200.877500", "162201.337500", "162201.797500", "162202.257500", "162202.717500", "162203.177500", "162203.637500", "162204.097500", "162204.557500", "162205.017500", "162205.477500", "162205.937500", "162206.397500", "162206.857500", "162207.317500", "162207.777500", "162208.237500", "162208.697500", "162209.157500", "162209.617500", "162210.077500", "162210.537500", "162210.997500", "162211.457500", "162211.917500", "162212.377500", "162212.837500", "162213.297500", "162213.757500", "162214.217500", "162214.677500", "162215.137500", "162215.597500", "162216.057500", "162216.517500", "162216.977500", "162217.437500", "162217.897500", "162218.357500", "162218.817500", "162219.277500", "162219.737500", "162220.197500", "162220.657500", "162221.117500", "162221.577500", "162222.037500", "162222.497500", "162222.957500", "162223.417500", "162223.877500", "162224.337500", "162224.797500", "162225.257500", "162225.717500", "162226.177500", "162226.637500", "162227.097500", "162227.557500", "162228.017500", "162228.477500", "162228.937500", "162229.397500", "162229.857500", "162230.317500", "162230.777500", "162231.237500", "162231.697500", "162232.157500", "162232.617500", "162233.077500", "162233.537500", "162233.997500", "162234.457500", "162234.917500", "162235.377500", "162235.837500", "162236.297500", "162236.757500", "162237.217500", "162237.677500", "162238.137500", "162238.597500", "162239.057500", "162239.517500", "162239.977500", "162240.437500", "162240.897500", "162241.357500", "162241.817500", "162242.277500", "162242.737500", "162243.197500", "162243.657500", "162244.117500", "162244.577500", "162245.037500", "162245.497500", "162245.957500", "162246.417500", "162246.877500", "162247.337500", "162247.797500", "162248.257500", "162248.717500", "162249.177500", "162249.637500", "162250.097500", "162250.557500", "162251.017500", "162251.477500", "162251.937500", "162252.397500", "162252.857500", "162253.317500", "162253.777500", "162254.237500", "162254.697500", "162255.157500", "162255.617500", "162256.077500", "162256.537500", "162256.997500", "162257.457500", "162257.917500", "162258.377500", "162258.837500", "162259.297500", "162259.757500", "162300.217500", "162300.677500", "162301.137500", "162301.597500", "162302.057500", "162302.517500", "162302.977500", "162303.437500", "162303.897500", "162304.357500", "162304.817500", "162305.277500", "162305.737500", "162306.197500", "162306.657500", "162307.117500", "162307.577500", "162308.037500", "162308.497500", "162308.957500", "162309.417500", "162309.877500", "162310.337500", "162310.797500", "162311.257500", "162311.717500", "162312.177500", "162312.637500", "162313.097500", "162313.557500", "162314.017500", "162314.477500", "162314.937500", "162315.397500", "162315.857500", "162316.317500", "162316.777500", "162317.237500", "162317.697500", "162318.157500", "162318.617500", "162319.077500", "162319.537500", "162319.997500", "162320.457500", "162320.917500", "162321.377500", "162321.837500", "162322.297500", "162322.757500", "162323.217500", "162323.677500", "162324.137500", "162324.597500", "162325.057500", "162325.517500", "162325.977500", "162326.437500", "162326.897500", "162327.357500", "162327.817500", "162328.277500", "162328.737500", "162329.197500", "162329.657500", "162330.117500", "162330.577500", "162331.037500", "162331.497500", "162331.957500", "162332.417500", "162332.877500", "162333.337500", "162333.797500", "162334.257500", "162334.717500", "162335.177500", "162335.637500", "162336.097500", "162336.557500", "162337.017500", "162337.477500", "162337.937500", "162338.397500", "162338.857500", "162339.317500", "162339.777500", "162340.237500", "162340.697500", "162341.157500", "162341.617500", "162342.077500", "162342.537500", "162342.997500", "162343.457500", "162343.917500", "162344.377500", "162344.837500", "162345.297500", "162345.757500", "162346.217500", "162346.677500", "162347.137500", "162347.597500", "162348.057500", "162348.517500", "162348.977500", "162349.437500", "162349.897500", "162350.357500", "162350.817500", "162351.277500", "162351.737500", "162352.197500", "162352.657500", "162353.117500", "162353.577500", "162354.037500", "162354.497500", "162354.957500", "162355.417500", "162355.877500", "162356.337500", "162356.797500", "162357.257500", "162357.717500", "162358.177500", "162358.637500", "162359.097500", "162359.557500", "162400.017500", "162400.477500", "162400.937500", "162401.397500", "162401.857500", "162402.317500", "162402.777500", "162403.237500", "162403.697500", "162404.157500", "162404.617500", "162405.077500", "162405.537500", "162405.997500", "162406.457500", "162406.917500", "162407.377500", "162407.837500", "162408.297500", "162408.757500", "162409.217500", "162409.677500", "162410.137500", "162410.597500", "162411.057500", "162411.517500", "162411.977500", "162412.437500", "162412.897500", "162413.357500", "162413.817500", "162414.277500", "162414.737500", "162415.197500", "162415.657500", "162416.117500", "162416.577500", "162417.037500", "162417.497500", "162417.957500", "162418.417500", "162418.877500", "162419.337500", "162419.797500", "162420.257500", "162420.717500", "162421.177500", "162421.637500", "162422.097500", "162422.557500", "162423.017500", "162423.477500", "162423.937500", "162424.397500", "162424.857500", "162425.317500", "162425.777500", "162426.237500", "162426.697500", "162427.157500", "162427.617500", "162428.077500", "162428.537500", "162428.997500", "162429.457500", "162429.917500", "162430.377500", "162430.837500", "162431.297500", "162431.757500", "162432.217500", "162432.677500", "162433.137500", "162433.597500", "162434.057500", "162434.517500", "162434.977500", "162435.437500", "162435.897500", "162436.357500", "162436.817500", "162437.277500", "162437.737500", "162438.197500", "162438.657500", "162439.117500", "162439.577500", "162440.037500", "162440.497500", "162440.957500", "162441.417500", "162441.877500", "162442.337500", "162442.797500", "162443.257500", "162443.717500", "162444.177500", "162444.637500", "162445.097500", "162445.557500", "162446.017500", "162446.477500", "162446.937500", "162447.397500", "162447.857500", "162448.317500", "162448.777500", "162449.237500", "162449.697500", "162450.157500", "162450.617500", "162451.077500", "162451.537500", "162451.997500", "162452.457500", "162452.917500", "162453.377500", "162453.837500", "162454.297500", "162454.757500", "162455.217500", "162455.677500", "162456.137500", "162456.597500", "162457.057500", "162457.517500", "162457.977500", "162458.437500", "162458.897500", "162459.357500", "162459.817500", "162500.277500", "162500.737500", "162501.197500", "162501.657500", "162502.117500", "162502.577500", "162503.037500", "162503.497500", "162503.957500", "162504.417500", "162504.877500", "162505.337500", "162505.797500", "162506.257500", "162506.717500", "162507.177500", "162507.637500", "162508.097500", "162508.557500", "162509.017500", "162509.477500", "162509.937500", "162510.397500", "162510.857500", "162511.317500", "162511.777500", "162512.237500", "162512.697500", "162513.157500", "162513.617500", "162514.077500", "162514.537500", "162514.997500", "162515.457500", "162515.917500", "162516.377500", "162516.837500", "162517.297500", "162517.757500", "162518.217500", "162518.677500", "162519.137500", "162519.597500", "162520.057500", "162520.517500", "162520.977500", "162521.437500", "162521.897500", "162522.357500", "162522.817500", "162523.277500", "162523.737500", "162524.197500", "162524.657500", "162525.117500", "162525.577500", "162526.037500", "162526.497500", "162526.957500", "162527.417500", "162527.877500", "162528.337500", "162528.797500", "162529.257500", "162529.717500", "162530.177500", "162530.637500", "162531.097500", "162531.557500", "162532.017500", "162532.477500", "162532.937500", "162533.397500", "162533.857500", "162534.317500", "162534.777500", "162535.237500", "162535.697500", "162536.157500", "162536.617500", "162537.077500", "162537.537500", "162537.997500", "162538.457500", "162538.917500", "162539.377500", "162539.837500", "162540.297500", "162540.757500", "162541.217500", "162541.677500", "162542.137500", "162542.597500", "162543.057500", "162543.517500", "162543.977500", "162544.437500", "162544.897500", "162545.357500", "162545.817500", "162546.277500", "162546.737500", "162547.197500", "162547.657500", "162548.117500", "162548.577500", "162549.037500", "162549.497500", "162549.957500", "162550.417500", "162550.877500", "162551.337500", "162551.797500", "162552.257500", "162552.717500", "162553.177500", "162553.637500", "162554.097500", "162554.557500", "162555.017500", "162555.477500", "162555.937500", "162556.397500", "162556.857500", "162557.317500", "162557.777500", "162558.237500", "162558.697500", "162559.157500", "162559.617500", "162600.077500", "162600.537500", "162600.997500", "162601.457500", "162601.917500", "162602.377500", "162602.837500", "162603.297500", "162603.757500", "162604.217500", "162604.677500", "162605.137500", "162605.597500", "162606.057500", "162606.517500", "162606.977500", "162607.437500", "162607.897500", "162608.357500", "162608.817500", "162609.277500", "162609.737500", "162610.197500", "162610.657500", "162611.117500", "162611.577500", "162612.037500", "162612.497500", "162612.957500", "162613.417500", "162613.877500", "162614.337500", "162614.797500", "162615.257500", "162615.717500", "162616.177500", "162616.637500", "162617.097500", "162617.557500", "162618.017500", "162618.477500", "162618.937500", "162619.397500", "162619.857500", "162620.317500", "162620.777500", "162621.237500", "162621.697500", "162622.157500", "162622.617500", "162623.077500", "162623.537500", "162623.997500", "162624.457500", "162624.917500", "162625.377500", "162625.837500", "162626.297500", "162626.757500", "162627.217500", "162627.677500", "162628.137500", "162628.597500", "162629.057500", "162629.517500", "162629.977500", "162630.437500", "162630.897500", "162631.357500", "162631.817500", "162632.277500", "162632.737500", "162633.197500", "162633.657500", "162634.117500", "162634.577500", "162635.037500", "162635.497500", "162635.957500", "162636.417500", "162636.877500", "162637.337500", "162637.797500", "162638.257500", "162638.717500", "162639.177500", "162639.637500", "162640.097500", "162640.557500", "162641.017500", "162641.477500", "162641.937500", "162642.397500", "162642.857500", "162643.317500", "162643.777500", "162644.237500", "162644.697500", "162645.157500", "162645.617500", "162646.077500", "162646.537500", "162646.997500", "162647.457500", "162647.917500", "162648.377500", "162648.837500", "162649.297500", "162649.757500", "162650.217500", "162650.677500", "162651.137500", "162651.597500", "162652.057500", "162652.517500", "162652.977500", "162653.437500", "162653.897500", "162654.357500", "162654.817500", "162655.277500", "162655.737500", "162656.197500", "162656.657500", "162657.117500", "162657.577500", "162658.037500", "162658.497500", "162658.957500", "162659.417500", "162659.877500", "162700.337500", "162700.797500", "162701.257500", "162701.717500", "162702.177500", "162702.637500", "162703.097500", "162703.557500", "162704.017500", "162704.477500", "162704.937500", "162705.397500", "162705.857500", "162706.317500", "162706.777500", "162707.237500", "162707.697500", "162708.157500", "162708.617500", "162709.077500", "162709.537500", "162709.997500", "162710.457500", "162710.917500", "162711.377500", "162711.837500", "162712.297500", "162712.757500", "162713.217500", "162713.677500", "162714.137500", "162714.597500", "162715.057500", "162715.517500", "162715.977500", "162716.437500", "162716.897500", "162717.357500", "162717.817500", "162718.277500", "162718.737500", "162719.197500", "162719.657500", "162720.117500", "162720.577500", "162721.037500", "162721.497500", "162721.957500", "162722.417500", "162722.877500", "162723.337500", "162723.797500", "162724.257500", "162724.717500", "162725.177500", "162725.637500", "162726.097500", "162726.557500", "162727.017500", "162727.477500", "162727.937500", "162728.397500", "162728.857500", "162729.317500", "162729.777500", "162730.237500", "162730.697500", "162731.157500", "162731.617500", "162732.077500", "162732.537500", "162732.997500", "162733.457500", "162733.917500", "162734.377500", "162734.837500", "162735.297500", "162735.757500", "162736.217500", "162736.677500", "162737.137500", "162737.597500", "162738.057500", "162738.517500", "162738.977500", "162739.437500", "162739.897500", "162740.357500", "162740.817500", "162741.277500", "162741.737500", "162742.197500", "162742.657500", "162743.117500", "162743.577500", "162744.037500", "162744.497500", "162744.957500", "162745.417500", "162745.877500", "162746.337500", "162746.797500", "162747.257500", "162747.717500", "162748.177500", "162748.637500", "162749.097500", "162749.557500", "162750.017500", "162750.477500", "162750.937500", "162751.397500", "162751.857500", "162752.317500", "162752.777500", "162753.237500", "162753.697500", "162754.157500", "162754.617500", "162755.077500", "162755.537500", "162755.997500", "162756.457500", "162756.917500", "162757.377500", "162757.837500", "162758.297500", "162758.757500", "162759.217500", "162759.677500", "162800.137500", "162800.597500", "162801.057500", "162801.517500", "162801.977500", "162802.437500", "162802.897500", "162803.357500", "162803.817500", "162804.277500", "162804.737500", "162805.197500", "162805.657500", "162806.117500", "162806.577500", "162807.037500", "162807.497500", "162807.957500", "162808.417500", "162808.877500", "162809.337500", "162809.797500", "162810.257500", "162810.717500", "162811.177500", "162811.637500", "162812.097500", "162812.557500", "162813.017500", "162813.477500", "162813.937500", "162814.397500", "162814.857500", "162815.317500", "162815.777500", "162816.237500", "162816.697500", "162817.157500", "162817.617500", "162818.077500", "162818.537500", "162818.997500", "162819.457500"],
