{
  "AcquisitionMatrixPE": 82,
  "AcquisitionNumber": 1,
  "AcquisitionTime": "16:28:37.512500",
  "BandwidthPerPixelPhaseEncode": 24.888,
  "BaseResolution": 82,
  "BodyPartExamined": "BRAIN",
  "ConsistencyInfo": "N4_VE11C_LATEST_20160120",
  "ConversionSoftware": "dcm2niix",
  "ConversionSoftwareVersion": "v1.0.20201102",
  "DerivedVendorReportedEchoSpacing": 0.00049,
  "DeviceSerialNumber": "66112",
  "DwellTime": 2e-06,
  "EchoTime": 0.0272,
  "EchoTrainLength": 82,
  "EffectiveEchoSpacing": 0.00049,
  "FlipAngle": 44,
  "ImageComments": "Unaliased MB8/PE3",
  "ImageOrientationPatientDICOM": [0.99909, 0.0150797, 0.0398905, -0.013602, 0.999221, -0.0370585],
  "ImageType": [
    "ORIGINAL",
    "PRIMARY",
    "M",
    "MB",
    "ND",
    "NORM",
    "MOSAIC"
],
  "ImagingFrequency": 123.252,
  "InPlanePhaseEncodingDirectionDICOM": "COL",
  "InstitutionAddress": "Maynard 3,Hanover,NH,US,03755",
  "InstitutionName": "Dartmouth College - PBS",
  "InstitutionalDepartmentName": "Department",
  "MRAcquisitionType": "2D",
  "MagneticFieldStrength": 3,
  "Manufacturer": "Siemens",
  "ManufacturersModelName": "Prisma",
  "Modality": "MR",
  "MultibandAccelerationFactor": 8,
  "PartialFourier": 1,
  "PatientPosition": "HFS",
  "PercentPhaseFOV": 100,
  "PercentSampling": 100,
  "PhaseEncodingDirection": "j-",
  "PhaseEncodingSteps": 82,
  "PhaseResolution": 1,
  "PixelBandwidth": 3050,
  "ProcedureStepDescription": "Wager_Wager^1076_spacetop",
  "ProtocolName": "func_run-06_task-social_acq-ap-mb8",
  "PulseSequenceDetails": "%CustomerSeq%\\cmrr_mbep2d_bold",
  "ReceiveCoilActiveElements": "HEA;HEP",
  "ReceiveCoilName": "Head_32",
  "ReconMatrixPE": 82,
  "RepetitionTime": 0.46,
  "SAR": 0.0811933,
  "ScanOptions": "FS",
  "ScanningSequence": "EP",
  "SequenceName": "epfid2d1_82",
  "SequenceVariant": "SK\\SS",
  "SeriesDescription": "func_run-06_task-social_acq-ap-mb8",
  "SeriesNumber": 29,
  "ShimSetting": [4148, -7773, -7264, 563, -73, -248, 27, 66],
  "SliceThickness": 2.7,
  "SliceTiming": [0, 0.25, 0.0625, 0.3125, 0.125, 0.3775, 0.1875, 0, 0.25, 0.0625, 0.3125, 0.125, 0.3775, 0.1875, 0, 0.25, 0.0625, 0.3125, 0.125, 0.3775, 0.1875, 0, 0.25, 0.0625, 0.3125, 0.125, 0.3775, 0.1875, 0, 0.25, 0.0625, 0.3125, 0.125, 0.3775, 0.1875, 0, 0.25, 0.0625, 0.3125, 0.125, 0.3775, 0.1875, 0, 0.25, 0.0625, 0.3125, 0.125, 0.3775, 0.1875, 0, 0.25, 0.0625, 0.3125, 0.125, 0.3775, 0.1875],
  "SoftwareVersions": "syngo MR E11",
  "SpacingBetweenSlices": 2.7,
  "StationName": "AWP66112",
  "TaskName": "social",
  "TotalReadoutTime": 0.03969,
  "TxRefAmp": 221.102,
  "WipMemBlock": "9b5416b7-d4da-4750-9bd6-117c21e28a25||Sequence: R016 ve11c/master r/e634e98; Dec 19 2017 11:00:25 by eja",
  "dcmmeta_affine": [
    [-2.6804862022399902, -0.0364932082593441, 0.10912913084030151, 108.32516479492188],
    [-0.04045766219496727, 2.680835723876953, -0.09850195795297623, -78.27371978759766],
    [0.10702318698167801, 0.09942527115345001, 2.6959948539733887, -70.72284698486328],
    [0.0, 0.0, 0.0, 1.0]
],
  "dcmmeta_reorient_transform": [
    [0.0, -1.0, 0.0, 81.0],
    [1.0, 0.0, 0.0, 0.0],
    [0.0, 0.0, 1.0, 0.0],
    [0.0, 0.0, 0.0, 1.0]
],
  "dcmmeta_shape": [82, 82, 56, 872],
  "dcmmeta_slice_dim": 2,
  "dcmmeta_version": 0.6,
  "global": {
    "const": {
      "AccessionNumber": "A003492",
      "AcquisitionMatrix": [82, 0, 0, 82],
      "AngioFlag": "N",
      "BitsAllocated": 16,
      "BitsStored": 16,
      "BodyPartExamined": "BRAIN",
      "Columns": 656,
      "EchoNumbers": 1,
      "EchoTime": 27.2,
      "EchoTrainLength": 82,
      "FlipAngle": 44.0,
      "HighBit": 15,
      "ImageOrientationPatient": [0.9990902635259, 0.01507967432356, 0.03989045938634, -0.0136020133446, 0.99922052227147, -0.0370585092051],
      "ImagePositionPatient": [-864.19518691275, -919.88513193708, -64.849999672245],
      "ImageType": [
        "ORIGINAL",
        "PRIMARY",
        "M",
        "MB",
        "ND",
        "NORM",
        "MOSAIC"
],
      "ImagedNucleus": "1H",
      "ImagingFrequency": 123.252159,
      "InPlanePhaseEncodingDirection": "COL",
      "MRAcquisitionType": "2D",
      "MagneticFieldStrength": 3.0,
      "Manufacturer": "SIEMENS",
      "ManufacturerModelName": "Prisma",
      "Modality": "MR",
      "NumberOfAverages": 1.0,
      "NumberOfPhaseEncodingSteps": 82,
      "PercentPhaseFieldOfView": 100.0,
      "PercentSampling": 100.0,
      "PerformedProcedureStepStartTime": "150309.808000",
      "PhotometricInterpretation": "MONOCHROME2",
      "PixelBandwidth": 3050.0,
      "PixelRepresentation": 0,
      "PixelSpacing": [2.6829268932343, 2.6829268932343],
      "ProtocolName": "func_run-06_task-social_acq-ap-mb8",
      "RepetitionTime": 460.0,
      "Rows": 656,
      "SAR": 0.081193317766,
      "SamplesPerPixel": 1,
      "ScanOptions": "FS",
      "ScanningSequence": "EP",
      "SequenceName": "epfid2d1_82",
      "SequenceVariant": [
        "SK",
        "SS"
],
      "SeriesDescription": "func_run-06_task-social_acq-ap-mb8",
      "SeriesNumber": 29,
      "SeriesTime": "162852.873000",
      "SliceLocation": -63.384029499367,
      "SliceThickness": 2.7000000476837,
      "SmallestImagePixelValue": 0,
      "SoftwareVersions": "syngo MR E11",
      "SpacingBetweenSlices": 2.7000000699606,
      "SpecificCharacterSet": "ISO_IR 100",
      "StudyID": "1",
      "StudyTime": "150309.731000",
      "TransmitCoilName": "Body",
      "VariableFlipAngleFlag": "N",
      "WindowCenterWidthExplanation": "Algo1",
      "dBdt": 0.0},
    "slices": {}
  },
  "time": {
    "samples": {
      "AcquisitionNumber": [1, 2, 3, 4, 5, 6, 7, 8, 9, 10, 11, 12, 13, 14, 15, 16, 17, 18, 19, 20, 21, 22, 23, 24, 25, 26, 27, 28, 29, 30, 31, 32, 33, 34, 35, 36, 37, 38, 39, 40, 41, 42, 43, 44, 45, 46, 47, 48, 49, 50, 51, 52, 53, 54, 55, 56, 57, 58, 59, 60, 61, 62, 63, 64, 65, 66, 67, 68, 69, 70, 71, 72, 73, 74, 75, 76, 77, 78, 79, 80, 81, 82, 83, 84, 85, 86, 87, 88, 89, 90, 91, 92, 93, 94, 95, 96, 97, 98, 99, 100, 101, 102, 103, 104, 105, 106, 107, 108, 109, 110, 111, 112, 113, 114, 115, 116, 117, 118, 119, 120, 121, 122, 123, 124, 125, 126, 127, 128, 129, 130, 131, 132, 133, 134, 135, 136, 137, 138, 139, 140, 141, 142, 143, 144, 145, 146, 147, 148, 149, 150, 151, 152, 153, 154, 155, 156, 157, 158, 159, 160, 161, 162, 163, 164, 165, 166, 167, 168, 169, 170, 171, 172, 173, 174, 175, 176, 177, 178, 179, 180, 181, 182, 183, 184, 185, 186, 187, 188, 189, 190, 191, 192, 193, 194, 195, 196, 197, 198, 199, 200, 201, 202, 203, 204, 205, 206, 207, 208, 209, 210, 211, 212, 213, 214, 215, 216, 217, 218, 219, 220, 221, 222, 223, 224, 225, 226, 227, 228, 229, 230, 231, 232, 233, 234, 235, 236, 237, 238, 239, 240, 241, 242, 243, 244, 245, 246, 247, 248, 249, 250, 251, 252, 253, 254, 255, 256, 257, 258, 259, 260, 261, 262, 263, 264, 265, 266, 267, 268, 269, 270, 271, 272, 273, 274, 275, 276, 277, 278, 279, 280, 281, 282, 283, 284, 285, 286, 287, 288, 289, 290, 291, 292, 293, 294, 295, 296, 297, 298, 299, 300, 301, 302, 303, 304, 305, 306, 307, 308, 309, 310, 311, 312, 313, 314, 315, 316, 317, 318, 319, 320, 321, 322, 323, 324, 325, 326, 327, 328, 329, 330, 331, 332, 333, 334, 335, 336, 337, 338, 339, 340, 341, 342, 343, 344, 345, 346, 347, 348, 349, 350, 351, 352, 353, 354, 355, 356, 357, 358, 359, 360, 361, 362, 363, 364, 365, 366, 367, 368, 369, 370, 371, 372, 373, 374, 375, 376, 377, 378, 379, 380, 381, 382, 383, 384, 385, 386, 387, 388, 389, 390, 391, 392, 393, 394, 395, 396, 397, 398, 399, 400, 401, 402, 403, 404, 405, 406, 407, 408, 409, 410, 411, 412, 413, 414, 415, 416, 417, 418, 419, 420, 421, 422, 423, 424, 425, 426, 427, 428, 429, 430, 431, 432, 433, 434, 435, 436, 437, 438, 439, 440, 441, 442, 443, 444, 445, 446, 447, 448, 449, 450, 451, 452, 453, 454, 455, 456, 457, 458, 459, 460, 461, 462, 463, 464, 465, 466, 467, 468, 469, 470, 471, 472, 473, 474, 475, 476, 477, 478, 479, 480, 481, 482, 483, 484, 485, 486, 487, 488, 489, 490, 491, 492, 493, 494, 495, 496, 497, 498, 499, 500, 501, 502, 503, 504, 505, 506, 507, 508, 509, 510, 511, 512, 513, 514, 515, 516, 517, 518, 519, 520, 521, 522, 523, 524, 525, 526, 527, 528, 529, 530, 531, 532, 533, 534, 535, 536, 537, 538, 539, 540, 541, 542, 543, 544, 545, 546, 547, 548, 549, 550, 551, 552, 553, 554, 555, 556, 557, 558, 559, 560, 561, 562, 563, 564, 565, 566, 567, 568, 569, 570, 571, 572, 573, 574, 575, 576, 577, 578, 579, 580, 581, 582, 583, 584, 585, 586, 587, 588, 589, 590, 591, 592, 593, 594, 595, 596, 597, 598, 599, 600, 601, 602, 603, 604, 605, 606, 607, 608, 609, 610, 611, 612, 613, 614, 615, 616, 617, 618, 619, 620, 621, 622, 623, 624, 625, 626, 627, 628, 629, 630, 631, 632, 633, 634, 635, 636, 637, 638, 639, 640, 641, 642, 643, 644, 645, 646, 647, 648, 649, 650, 651, 652, 653, 654, 655, 656, 657, 658, 659, 660, 661, 662, 663, 664, 665, 666, 667, 668, 669, 670, 671, 672, 673, 674, 675, 676, 677, 678, 679, 680, 681, 682, 683, 684, 685, 686, 687, 688, 689, 690, 691, 692, 693, 694, 695, 696, 697, 698, 699, 700, 701, 702, 703, 704, 705, 706, 707, 708, 709, 710, 711, 712, 713, 714, 715, 716, 717, 718, 719, 720, 721, 722, 723, 724, 725, 726, 727, 728, 729, 730, 731, 732, 733, 734, 735, 736, 737, 738, 739, 740, 741, 742, 743, 744, 745, 746, 747, 748, 749, 750, 751, 752, 753, 754, 755, 756, 757, 758, 759, 760, 761, 762, 763, 764, 765, 766, 767, 768, 769, 770, 771, 772, 773, 774, 775, 776, 777, 778, 779, 780, 781, 782, 783, 784, 785, 786, 787, 788, 789, 790, 791, 792, 793, 794, 795, 796, 797, 798, 799, 800, 801, 802, 803, 804, 805, 806, 807, 808, 809, 810, 811, 812, 813, 814, 815, 816, 817, 818, 819, 820, 821, 822, 823, 824, 825, 826, 827, 828, 829, 830, 831, 832, 833, 834, 835, 836, 837, 838, 839, 840, 841, 842, 843, 844, 845, 846, 847, 848, 849, 850, 851, 852, 853, 854, 855, 856, 857, 858, 859, 860, 861, 862, 863, 864, 865, 866, 867, 868, 869, 870, 871, 872],
      "AcquisitionTime": ["162837.512500", "162837.972500", "162838.432500", "162838.892500", "162839.352500", "162839.812500", "162840.272500", "162840.732500", "162841.192500", "162841.652500", "162842.112500", "162842.572500", "162843.032500", "162843.492500", "162843.952500", "162844.412500", "162844.872500", "162845.332500", "162845.792500", "162846.252500", "162846.712500", "162847.172500", "162847.632500", "162848.092500", "162848.552500", "162849.012500", "162849.472500", "162849.932500", "162850.392500", "162850.852500", "162851.312500", "162851.772500", "162852.232500", "162852.692500", "162853.152500", "162853.612500", "162854.072500", "162854.532500", "162854.992500", "162855.452500", "162855.912500", "162856.372500", "162856.832500", "162857.292500", "162857.752500", "162858.212500", "162858.672500", "162859.132500", "162859.592500", "162900.052500", "162900.512500", "162900.972500", "162901.432500", "162901.892500", "162902.352500", "162902.812500", "162903.272500", "162903.732500", "162904.192500", "162904.652500", "162905.112500", "162905.572500", "162906.032500", "162906.492500", "162906.952500", "162907.412500", "162907.872500", "162908.332500", "162908.792500", "162909.252500", "162909.712500", "162910.172500", "162910.632500", "162911.092500", "162911.552500", "162912.012500", "162912.472500", "162912.932500", "162913.392500", "162913.852500", "162914.312500", "162914.772500", "162915.232500", "162915.692500", "162916.152500", "162916.612500", "162917.072500", "162917.532500", "162917.992500", "162918.452500", "162918.912500", "162919.372500", "162919.832500", "162920.292500", "162920.752500", "162921.212500", "162921.672500", "162922.132500", "162922.592500", "162923.052500", "162923.512500", "162923.972500", "162924.432500", "162924.892500", "162925.352500", "162925.812500", "162926.272500", "162926.732500", "162927.192500", "162927.652500", "162928.112500", "162928.572500", "162929.032500", "162929.492500", "162929.952500", "162930.412500", "162930.872500", "162931.332500", "162931.792500", "162932.252500", "162932.712500", "162933.172500", "162933.632500", "162934.092500", "162934.552500", "162935.012500", "162935.472500", "162935.932500", "162936.392500", "162936.852500", "162937.312500", "162937.772500", "162938.232500", "162938.692500", "162939.152500", "162939.612500", "162940.072500", "162940.532500", "162940.992500", "162941.452500", "162941.912500", "162942.372500", "162942.832500", "162943.292500", "162943.752500", "162944.212500", "162944.672500", "162945.132500", "162945.592500", "162946.052500", "162946.512500", "162946.972500", "162947.432500", "162947.892500", "162948.352500", "162948.812500", "162949.272500", "162949.732500", "162950.192500", "162950.652500", "162951.112500", "162951.572500", "162952.032500", "162952.492500", "162952.952500", "162953.412500", "162953.872500", "162954.332500", "162954.792500", "162955.252500", "162955.712500", "162956.172500", "162956.632500", "162957.092500", "162957.552500", "162958.012500", "162958.472500", "162958.932500", "162959.392500", "162959.852500", "163000.312500", "163000.772500", "163001.232500", "163001.692500", "163002.152500", "163002.612500", "163003.072500", "163003.532500", "163003.992500", "163004.452500", "163004.912500", "163005.372500", "163005.832500", "163006.292500", "163006.752500", "163007.212500", "163007.672500", "163008.132500", "163008.592500", "163009.052500", "163009.512500", "163009.972500", "163010.432500", "163010.892500", "163011.352500", "163011.812500", "163012.272500", "163012.732500", "163013.192500", "163013.652500", "163014.112500", "163014.572500", "163015.032500", "163015.492500", "163015.952500", "163016.412500", "163016.872500", "163017.332500", "163017.792500", "163018.252500", "163018.712500", "163019.172500", "163019.632500", "163020.092500", "163020.552500", "163021.012500", "163021.472500", "163021.932500", "163022.392500", "163022.852500", "163023.312500", "163023.772500", "163024.232500", "163024.692500", "163025.152500", "163025.612500", "163026.072500", "163026.532500", "163026.992500", "163027.452500", "163027.912500", "163028.372500", "163028.832500", "163029.292500", "163029.752500", "163030.212500", "163030.672500", "163031.132500", "163031.592500", "163032.052500", "163032.512500", "163032.972500", "163033.432500", "163033.892500", "163034.352500", "163034.812500", "163035.272500", "163035.732500", "163036.192500", "163036.652500", "163037.112500", "163037.572500", "163038.032500", "163038.492500", "163038.952500", "163039.412500", "163039.872500", "163040.332500", "163040.792500", "163041.252500", "163041.712500", "163042.172500", "163042.632500", "163043.092500", "163043.552500", "163044.012500", "163044.472500", "163044.932500", "163045.392500", "163045.852500", "163046.312500", "163046.772500", "163047.232500", "163047.692500", "163048.152500", "163048.612500", "163049.072500", "163049.532500", "163049.992500", "163050.452500", "163050.912500", "163051.372500", "163051.832500", "163052.292500", "163052.752500", "163053.212500", "163053.672500", "163054.132500", "163054.592500", "163055.052500", "163055.512500", "163055.972500", "163056.432500", "163056.892500", "163057.352500", "163057.812500", "163058.272500", "163058.732500", "163059.192500", "163059.652500", "163100.112500", "163100.572500", "163101.032500", "163101.492500", "163101.952500", "163102.412500", "163102.872500", "163103.332500", "163103.792500", "163104.252500", "163104.712500", "163105.172500", "163105.632500", "163106.092500", "163106.552500", "163107.012500", "163107.472500", "163107.932500", "163108.392500", "163108.852500", "163109.312500", "163109.772500", "163110.232500", "163110.692500", "163111.152500", "163111.612500", "163112.072500", "163112.532500", "163112.992500", "163113.452500", "163113.912500", "163114.372500", "163114.832500", "163115.292500", "163115.752500", "163116.212500", "163116.672500", "163117.132500", "163117.592500", "163118.052500", "163118.512500", "163118.972500", "163119.432500", "163119.892500", "163120.352500", "163120.812500", "163121.272500", "163121.732500", "163122.192500", "163122.652500", "163123.112500", "163123.572500", "163124.032500", "163124.492500", "163124.952500", "163125.412500", "163125.872500", "163126.332500", "163126.792500", "163127.252500", "163127.712500", "163128.172500", "163128.632500", "163129.092500", "163129.552500", "163130.012500", "163130.472500", "163130.932500", "163131.392500", "163131.852500", "163132.312500", "163132.772500", "163133.232500", "163133.692500", "163134.152500", "163134.612500", "163135.072500", "163135.532500", "163135.992500", "163136.452500", "163136.912500", "163137.372500", "163137.832500", "163138.292500", "163138.752500", "163139.212500", "163139.672500", "163140.132500", "163140.592500", "163141.052500", "163141.512500", "163141.972500", "163142.432500", "163142.892500", "163143.352500", "163143.812500", "163144.272500", "163144.732500", "163145.192500", "163145.652500", "163146.112500", "163146.572500", "163147.032500", "163147.492500", "163147.952500", "163148.412500", "163148.872500", "163149.332500", "163149.792500", "163150.252500", "163150.712500", "163151.172500", "163151.632500", "163152.092500", "163152.552500", "163153.012500", "163153.472500", "163153.932500", "163154.392500", "163154.852500", "163155.312500", "163155.772500", "163156.232500", "163156.692500", "163157.152500", "163157.612500", "163158.072500", "163158.532500", "163158.992500", "163159.452500", "163159.912500", "163200.372500", "163200.832500", "163201.292500", "163201.752500", "163202.212500", "163202.672500", "163203.132500", "163203.592500", "163204.052500", "163204.512500", "163204.972500", "163205.432500", "163205.892500", "163206.352500", "163206.812500", "163207.272500", "163207.732500", "163208.192500", "163208.652500", "163209.112500", "163209.572500", "163210.032500", "163210.492500", "163210.952500", "163211.412500", "163211.872500", "163212.332500", "163212.792500", "163213.252500", "163213.712500", "163214.172500", "163214.632500", "163215.092500", "163215.552500", "163216.012500", "163216.472500", "163216.932500", "163217.392500", "163217.852500", "163218.312500", "163218.772500", "163219.232500", "163219.692500", "163220.152500", "163220.612500", "163221.072500", "163221.532500", "163221.992500", "163222.452500", "163222.912500", "163223.372500", "163223.832500", "163224.292500", "163224.752500", "163225.212500", "163225.672500", "163226.132500", "163226.592500", "163227.052500", "163227.512500", "163227.972500", "163228.432500", "163228.892500", "163229.352500", "163229.812500", "163230.272500", "163230.732500", "163231.192500", "163231.652500", "163232.112500", "163232.572500", "163233.032500", "163233.492500", "163233.952500", "163234.412500", "163234.872500", "163235.332500", "163235.792500", "163236.252500", "163236.712500", "163237.172500", "163237.632500", "163238.092500", "163238.552500", "163239.012500", "163239.472500", "163239.932500", "163240.392500", "163240.852500", "163241.312500", "163241.772500", "163242.232500", "163242.692500", "163243.152500", "163243.612500", "163244.072500", "163244.532500", "163244.992500", "163245.452500", "163245.912500", "163246.372500", "163246.832500", "163247.292500", "163247.752500", "163248.212500", "163248.672500", "163249.132500", "163249.592500", "163250.052500", "163250.512500", "163250.972500", "163251.432500", "163251.892500", "163252.352500", "163252.812500", "163253.272500", "163253.732500", "163254.192500", "163254.652500", "163255.112500", "163255.572500", "163256.032500", "163256.492500", "163256.952500", "163257.412500", "163257.872500", "163258.332500", "163258.792500", "163259.252500", "163259.712500", "163300.172500", "163300.632500", "163301.092500", "163301.552500", "163302.012500", "163302.472500", "163302.932500", "163303.392500", "163303.852500", "163304.312500", "163304.772500", "163305.232500", "163305.692500", "163306.152500", "163306.612500", "163307.072500", "163307.532500", "163307.992500", "163308.452500", "163308.912500", "163309.372500", "163309.832500", "163310.292500", "163310.752500", "163311.212500", "163311.672500", "163312.132500", "163312.592500", "163313.052500", "163313.512500", "163313.972500", "163314.432500", "163314.892500", "163315.352500", "163315.812500", "163316.272500", "163316.732500", "163317.192500", "163317.652500", "163318.112500", "163318.572500", "163319.032500", "163319.492500", "163319.952500", "163320.412500", "163320.872500", "163321.332500", "163321.792500", "163322.252500", "163322.712500", "163323.172500", "163323.632500", "163324.092500", "163324.552500", "163325.012500", "163325.472500", "163325.932500", "163326.392500", "163326.852500", "163327.312500", "163327.772500", "163328.232500", "163328.692500", "163329.152500", "163329.612500", "163330.072500", "163330.532500", "163330.992500", "163331.452500", "163331.912500", "163332.372500", "163332.832500", "163333.292500", "163333.752500", "163334.212500", "163334.672500", "163335.132500", "163335.592500", "163336.052500", "163336.512500", "163336.972500", "163337.432500", "163337.892500", "163338.352500", "163338.812500", "163339.272500", "163339.732500", "163340.192500", "163340.652500", "163341.112500", "163341.572500", "163342.032500", "163342.492500", "163342.952500", "163343.412500", "163343.872500", "163344.332500", "163344.792500", "163345.252500", "163345.712500", "163346.172500", "163346.632500", "163347.092500", "163347.552500", "163348.012500", "163348.472500", "163348.932500", "163349.392500", "163349.852500", "163350.312500", "163350.772500", "163351.232500", "163351.692500", "163352.152500", "163352.612500", "163353.072500", "163353.532500", "163353.992500", "163354.452500", "163354.912500", "163355.372500", "163355.832500", "163356.292500", "163356.752500", "163357.212500", "163357.672500", "163358.132500", "163358.592500", "163359.052500", "163359.512500", "163359.972500", "163400.432500", "163400.892500", "163401.352500", "163401.812500", "163402.272500", "163402.732500", "163403.192500", "163403.652500", "163404.112500", "163404.572500", "163405.032500", "163405.492500", "163405.952500", "163406.412500", "163406.872500", "163407.332500", "163407.792500", "163408.252500", "163408.712500", "163409.172500", "163409.632500", "163410.092500", "163410.552500", "163411.012500", "163411.472500", "163411.932500", "163412.392500", "163412.852500", "163413.312500", "163413.772500", "163414.232500", "163414.692500", "163415.152500", "163415.612500", "163416.072500", "163416.532500", "163416.992500", "163417.452500", "163417.912500", "163418.372500", "163418.832500", "163419.292500", "163419.752500", "163420.212500", "163420.672500", "163421.132500", "163421.592500", "163422.052500", "163422.512500", "163422.972500", "163423.432500", "163423.892500", "163424.352500", "163424.812500", "163425.272500", "163425.732500", "163426.192500", "163426.652500", "163427.112500", "163427.572500", "163428.032500", "163428.492500", "163428.952500", "163429.412500", "163429.872500", "163430.332500", "163430.792500", "163431.252500", "163431.712500", "163432.172500", "163432.632500", "163433.092500", "163433.552500", "163434.012500", "163434.472500", "163434.932500", "163435.392500", "163435.852500", "163436.312500", "163436.772500", "163437.232500", "163437.692500", "163438.152500", "163438.612500", "163439.072500", "163439.532500", "163439.992500", "163440.452500", "163440.912500", "163441.372500", "163441.832500", "163442.292500", "163442.752500", "163443.212500", "163443.672500", "163444.132500", "163444.592500", "163445.052500", "163445.512500", "163445.972500", "163446.432500", "163446.892500", "163447.352500", "163447.812500", "163448.272500", "163448.732500", "163449.192500", "163449.652500", "163450.112500", "163450.572500", "163451.032500", "163451.492500", "163451.952500", "163452.412500", "163452.872500", "163453.332500", "163453.792500", "163454.252500", "163454.712500", "163455.172500", "163455.632500", "163456.092500", "163456.552500", "163457.012500", "163457.472500", "163457.932500", "163458.392500", "163458.852500", "163459.312500", "163459.772500", "163500.232500", "163500.692500", "163501.152500", "163501.612500", "163502.072500", "163502.532500", "163502.992500", "163503.452500", "163503.912500", "163504.372500", "163504.832500", "163505.292500", "163505.752500", "163506.212500", "163506.672500", "163507.132500", "163507.592500", "163508.052500", "163508.512500", "163508.972500", "163509.432500", "163509.892500", "163510.352500", "163510.812500", "163511.272500", "163511.732500", "163512.192500", "163512.652500", "163513.112500", "163513.572500", "163514.032500", "163514.492500", "163514.952500", "163515.412500", "163515.872500", "163516.332500", "163516.792500", "163517.252500", "163517.712500", "163518.172500"],
