{
  "AcquisitionMatrixPE": 82,
  "AcquisitionNumber": 1,
  "AcquisitionTime": "10:03:27.220000",
  "BandwidthPerPixelPhaseEncode": 24.888,
  "BaseResolution": 82,
  "BodyPartExamined": "BRAIN",
  "ConsistencyInfo": "N4_VE11C_LATEST_20160120",
  "ConversionSoftware": "dcm2niix",
  "ConversionSoftwareVersion": "v1.0.20201102",
  "DerivedVendorReportedEchoSpacing": 0.00049,
  "DeviceSerialNumber": "66112",
  "DwellTime": 2e-06,
  "EchoTime": 0.0272,
  "EchoTrainLength": 82,
  "EffectiveEchoSpacing": 0.00049,
  "FlipAngle": 44,
  "ImageComments": "Unaliased MB8/PE3",
  "ImageOrientationPatientDICOM": [0.99441, -0.0728334, 0.0764442, 0.0831534, 0.986383, -0.141894],
  "ImageType": [
    "ORIGINAL",
    "PRIMARY",
    "M",
    "MB",
    "ND",
    "NORM",
    "MOSAIC"
],
  "ImagingFrequency": 123.252,
  "InPlanePhaseEncodingDirectionDICOM": "COL",
  "InstitutionAddress": "Maynard 3,Hanover,NH,US,03755",
  "InstitutionName": "Dartmouth College - PBS",
  "InstitutionalDepartmentName": "Department",
  "MRAcquisitionType": "2D",
  "MagneticFieldStrength": 3,
  "Manufacturer": "Siemens",
  "ManufacturersModelName": "Prisma",
  "Modality": "MR",
  "MultibandAccelerationFactor": 8,
  "PartialFourier": 1,
  "PatientPosition": "HFS",
  "PercentPhaseFOV": 100,
  "PercentSampling": 100,
  "PhaseEncodingDirection": "j-",
  "PhaseEncodingSteps": 82,
  "PhaseResolution": 1,
  "PixelBandwidth": 3050,
  "ProcedureStepDescription": "Wager_Wager^1076_spacetop",
  "ProtocolName": "func_run-01_task-social_acq-ap-mb8",
  "PulseSequenceDetails": "%CustomerSeq%\\cmrr_mbep2d_bold",
  "ReceiveCoilActiveElements": "HEA;HEP",
  "ReceiveCoilName": "Head_32",
  "ReconMatrixPE": 82,
  "RepetitionTime": 0.46,
  "SAR": 0.0881417,
  "ScanOptions": "FS",
  "ScanningSequence": "EP",
  "SequenceName": "epfid2d1_82",
  "SequenceVariant": "SK\\SS",
  "SeriesDescription": "func_run-01_task-social_acq-ap-mb8",
  "SeriesNumber": 12,
  "ShimSetting": [4144, -7698, -7356, 569, -70, -88, -41, 104],
  "SliceThickness": 2.7,
  "SliceTiming": [0, 0.25, 0.0625, 0.3125, 0.125, 0.375, 0.1875, 0, 0.25, 0.0625, 0.3125, 0.125, 0.375, 0.1875, 0, 0.25, 0.0625, 0.3125, 0.125, 0.375, 0.1875, 0, 0.25, 0.0625, 0.3125, 0.125, 0.375, 0.1875, 0, 0.25, 0.0625, 0.3125, 0.125, 0.375, 0.1875, 0, 0.25, 0.0625, 0.3125, 0.125, 0.375, 0.1875, 0, 0.25, 0.0625, 0.3125, 0.125, 0.375, 0.1875, 0, 0.25, 0.0625, 0.3125, 0.125, 0.375, 0.1875],
  "SoftwareVersions": "syngo MR E11",
  "SpacingBetweenSlices": 2.7,
  "StationName": "AWP66112",
  "TaskName": "social",
  "TotalReadoutTime": 0.03969,
  "TxRefAmp": 241.983,
  "WipMemBlock": "39d4930d-09ba-48b8-8311-920d7ed55ef3||Sequence: R016 ve11c/master r/e634e98; Dec 19 2017 11:00:25 by eja",
  "dcmmeta_affine": [
    [-2.6679298877716064, 0.22309450805187225, 0.1756853610277176, 99.65391540527344],
    [0.19540666043758392, 2.6463937759399414, -0.39813491702079773, -103.42015838623047],
    [0.20509420335292816, 0.3806910812854767, 2.6646995544433594, -119.4517822265625],
    [0.0, 0.0, 0.0, 1.0]
],
  "dcmmeta_reorient_transform": [
    [0.0, -1.0, 0.0, 81.0],
    [1.0, 0.0, 0.0, 0.0],
    [0.0, 0.0, 1.0, 0.0],
    [0.0, 0.0, 0.0, 1.0]
],
  "dcmmeta_shape": [82, 82, 56, 872],
  "dcmmeta_slice_dim": 2,
  "dcmmeta_version": 0.6,
  "global": {
    "const": {
      "AccessionNumber": "A003476",
      "AcquisitionMatrix": [82, 0, 0, 82],
      "AngioFlag": "N",
      "BitsAllocated": 16,
      "BitsStored": 16,
      "BodyPartExamined": "BRAIN",
      "Columns": 656,
      "EchoNumbers": 1,
      "EchoTime": 27.2,
      "EchoTrainLength": 82,
      "FlipAngle": 44.0,
      "HighBit": 15,
      "ImageOrientationPatient": [0.99441016787183, -0.0728333876851, 0.07644419972397, 0.08315340506405, 0.9863831004618, -0.1418939404965],
      "ImagePositionPatient": [-947.44854480947, -814.37103203557, -38.219503846591],
      "ImageType": [
        "ORIGINAL",
        "PRIMARY",
        "M",
        "MB",
        "ND",
        "NORM",
        "MOSAIC"
],
      "ImagedNucleus": "1H",
      "ImagingFrequency": 123.2522,
      "InPlanePhaseEncodingDirection": "COL",
      "MRAcquisitionType": "2D",
      "MagneticFieldStrength": 3.0,
      "Manufacturer": "SIEMENS",
      "ManufacturerModelName": "Prisma",
      "Modality": "MR",
      "NumberOfAverages": 1.0,
      "NumberOfPhaseEncodingSteps": 82,
      "PercentPhaseFieldOfView": 100.0,
      "PercentSampling": 100.0,
      "PerformedProcedureStepStartTime": "091228.159000",
      "PhotometricInterpretation": "MONOCHROME2",
      "PixelBandwidth": 3050.0,
      "PixelRepresentation": 0,
      "PixelSpacing": [2.6829268932343, 2.6829268932343],
      "ProtocolName": "func_run-01_task-social_acq-ap-mb8",
      "RepetitionTime": 460.0,
      "Rows": 656,
      "SAR": 0.08814165708643,
      "SamplesPerPixel": 1,
      "ScanOptions": "FS",
      "ScanningSequence": "EP",
      "SequenceName": "epfid2d1_82",
      "SequenceVariant": [
        "SK",
        "SS"
],
      "SeriesDescription": "func_run-01_task-social_acq-ap-mb8",
      "SeriesNumber": 12,
      "SeriesTime": "100345.409000",
      "SliceLocation": -96.155626372108,
      "SliceThickness": 2.7000000476837,
      "SmallestImagePixelValue": 0,
      "SoftwareVersions": "syngo MR E11",
      "SpacingBetweenSlices": 2.7000000172216,
      "SpecificCharacterSet": "ISO_IR 100",
      "StudyID": "1",
      "StudyTime": "091228.036000",
      "TransmitCoilName": "Body",
      "VariableFlipAngleFlag": "N",
      "WindowCenterWidthExplanation": "Algo1",
      "dBdt": 0.0},
    "slices": {}
  },
  "time": {
    "samples": {
      "AcquisitionNumber": [1, 2, 3, 4, 5, 6, 7, 8, 9, 10, 11, 12, 13, 14, 15, 16, 17, 18, 19, 20, 21, 22, 23, 24, 25, 26, 27, 28, 29, 30, 31, 32, 33, 34, 35, 36, 37, 38, 39, 40, 41, 42, 43, 44, 45, 46, 47, 48, 49, 50, 51, 52, 53, 54, 55, 56, 57, 58, 59, 60, 61, 62, 63, 64, 65, 66, 67, 68, 69, 70, 71, 72, 73, 74, 75, 76, 77, 78, 79, 80, 81, 82, 83, 84, 85, 86, 87, 88, 89, 90, 91, 92, 93, 94, 95, 96, 97, 98, 99, 100, 101, 102, 103, 104, 105, 106, 107, 108, 109, 110, 111, 112, 113, 114, 115, 116, 117, 118, 119, 120, 121, 122, 123, 124, 125, 126, 127, 128, 129, 130, 131, 132, 133, 134, 135, 136, 137, 138, 139, 140, 141, 142, 143, 144, 145, 146, 147, 148, 149, 150, 151, 152, 153, 154, 155, 156, 157, 158, 159, 160, 161, 162, 163, 164, 165, 166, 167, 168, 169, 170, 171, 172, 173, 174, 175, 176, 177, 178, 179, 180, 181, 182, 183, 184, 185, 186, 187, 188, 189, 190, 191, 192, 193, 194, 195, 196, 197, 198, 199, 200, 201, 202, 203, 204, 205, 206, 207, 208, 209, 210, 211, 212, 213, 214, 215, 216, 217, 218, 219, 220, 221, 222, 223, 224, 225, 226, 227, 228, 229, 230, 231, 232, 233, 234, 235, 236, 237, 238, 239, 240, 241, 242, 243, 244, 245, 246, 247, 248, 249, 250, 251, 252, 253, 254, 255, 256, 257, 258, 259, 260, 261, 262, 263, 264, 265, 266, 267, 268, 269, 270, 271, 272, 273, 274, 275, 276, 277, 278, 279, 280, 281, 282, 283, 284, 285, 286, 287, 288, 289, 290, 291, 292, 293, 294, 295, 296, 297, 298, 299, 300, 301, 302, 303, 304, 305, 306, 307, 308, 309, 310, 311, 312, 313, 314, 315, 316, 317, 318, 319, 320, 321, 322, 323, 324, 325, 326, 327, 328, 329, 330, 331, 332, 333, 334, 335, 336, 337, 338, 339, 340, 341, 342, 343, 344, 345, 346, 347, 348, 349, 350, 351, 352, 353, 354, 355, 356, 357, 358, 359, 360, 361, 362, 363, 364, 365, 366, 367, 368, 369, 370, 371, 372, 373, 374, 375, 376, 377, 378, 379, 380, 381, 382, 383, 384, 385, 386, 387, 388, 389, 390, 391, 392, 393, 394, 395, 396, 397, 398, 399, 400, 401, 402, 403, 404, 405, 406, 407, 408, 409, 410, 411, 412, 413, 414, 415, 416, 417, 418, 419, 420, 421, 422, 423, 424, 425, 426, 427, 428, 429, 430, 431, 432, 433, 434, 435, 436, 437, 438, 439, 440, 441, 442, 443, 444, 445, 446, 447, 448, 449, 450, 451, 452, 453, 454, 455, 456, 457, 458, 459, 460, 461, 462, 463, 464, 465, 466, 467, 468, 469, 470, 471, 472, 473, 474, 475, 476, 477, 478, 479, 480, 481, 482, 483, 484, 485, 486, 487, 488, 489, 490, 491, 492, 493, 494, 495, 496, 497, 498, 499, 500, 501, 502, 503, 504, 505, 506, 507, 508, 509, 510, 511, 512, 513, 514, 515, 516, 517, 518, 519, 520, 521, 522, 523, 524, 525, 526, 527, 528, 529, 530, 531, 532, 533, 534, 535, 536, 537, 538, 539, 540, 541, 542, 543, 544, 545, 546, 547, 548, 549, 550, 551, 552, 553, 554, 555, 556, 557, 558, 559, 560, 561, 562, 563, 564, 565, 566, 567, 568, 569, 570, 571, 572, 573, 574, 575, 576, 577, 578, 579, 580, 581, 582, 583, 584, 585, 586, 587, 588, 589, 590, 591, 592, 593, 594, 595, 596, 597, 598, 599, 600, 601, 602, 603, 604, 605, 606, 607, 608, 609, 610, 611, 612, 613, 614, 615, 616, 617, 618, 619, 620, 621, 622, 623, 624, 625, 626, 627, 628, 629, 630, 631, 632, 633, 634, 635, 636, 637, 638, 639, 640, 641, 642, 643, 644, 645, 646, 647, 648, 649, 650, 651, 652, 653, 654, 655, 656, 657, 658, 659, 660, 661, 662, 663, 664, 665, 666, 667, 668, 669, 670, 671, 672, 673, 674, 675, 676, 677, 678, 679, 680, 681, 682, 683, 684, 685, 686, 687, 688, 689, 690, 691, 692, 693, 694, 695, 696, 697, 698, 699, 700, 701, 702, 703, 704, 705, 706, 707, 708, 709, 710, 711, 712, 713, 714, 715, 716, 717, 718, 719, 720, 721, 722, 723, 724, 725, 726, 727, 728, 729, 730, 731, 732, 733, 734, 735, 736, 737, 738, 739, 740, 741, 742, 743, 744, 745, 746, 747, 748, 749, 750, 751, 752, 753, 754, 755, 756, 757, 758, 759, 760, 761, 762, 763, 764, 765, 766, 767, 768, 769, 770, 771, 772, 773, 774, 775, 776, 777, 778, 779, 780, 781, 782, 783, 784, 785, 786, 787, 788, 789, 790, 791, 792, 793, 794, 795, 796, 797, 798, 799, 800, 801, 802, 803, 804, 805, 806, 807, 808, 809, 810, 811, 812, 813, 814, 815, 816, 817, 818, 819, 820, 821, 822, 823, 824, 825, 826, 827, 828, 829, 830, 831, 832, 833, 834, 835, 836, 837, 838, 839, 840, 841, 842, 843, 844, 845, 846, 847, 848, 849, 850, 851, 852, 853, 854, 855, 856, 857, 858, 859, 860, 861, 862, 863, 864, 865, 866, 867, 868, 869, 870, 871, 872],
      "AcquisitionTime": ["100327.220000", "100327.680000", "100328.140000", "100328.600000", "100329.060000", "100329.520000", "100329.980000", "100330.440000", "100330.900000", "100331.360000", "100331.820000", "100332.280000", "100332.740000", "100333.200000", "100333.660000", "100334.120000", "100334.580000", "100335.040000", "100335.500000", "100335.960000", "100336.420000", "100336.880000", "100337.340000", "100337.800000", "100338.260000", "100338.720000", "100339.180000", "100339.640000", "100340.100000", "100340.560000", "100341.020000", "100341.480000", "100341.940000", "100342.400000", "100342.860000", "100343.320000", "100343.780000", "100344.240000", "100344.700000", "100345.160000", "100345.620000", "100346.080000", "100346.540000", "100347.000000", "100347.460000", "100347.920000", "100348.380000", "100348.840000", "100349.300000", "100349.760000", "100350.220000", "100350.680000", "100351.140000", "100351.600000", "100352.060000", "100352.520000", "100352.980000", "100353.440000", "100353.900000", "100354.360000", "100354.820000", "100355.280000", "100355.740000", "100356.200000", "100356.660000", "100357.120000", "100357.580000", "100358.040000", "100358.500000", "100358.960000", "100359.420000", "100359.880000", "100400.340000", "100400.800000", "100401.260000", "100401.720000", "100402.180000", "100402.640000", "100403.100000", "100403.560000", "100404.020000", "100404.480000", "100404.940000", "100405.400000", "100405.860000", "100406.320000", "100406.780000", "100407.240000", "100407.700000", "100408.160000", "100408.620000", "100409.080000", "100409.540000", "100410.000000", "100410.460000", "100410.920000", "100411.380000", "100411.840000", "100412.300000", "100412.760000", "100413.220000", "100413.680000", "100414.140000", "100414.600000", "100415.060000", "100415.520000", "100415.980000", "100416.440000", "100416.900000", "100417.360000", "100417.820000", "100418.280000", "100418.740000", "100419.200000", "100419.660000", "100420.120000", "100420.580000", "100421.040000", "100421.500000", "100421.960000", "100422.420000", "100422.880000", "100423.340000", "100423.800000", "100424.260000", "100424.720000", "100425.180000", "100425.640000", "100426.100000", "100426.560000", "100427.020000", "100427.480000", "100427.940000", "100428.400000", "100428.860000", "100429.320000", "100429.780000", "100430.240000", "100430.700000", "100431.160000", "100431.620000", "100432.080000", "100432.540000", "100433.000000", "100433.460000", "100433.920000", "100434.380000", "100434.840000", "100435.300000", "100435.760000", "100436.220000", "100436.680000", "100437.140000", "100437.600000", "100438.060000", "100438.520000", "100438.980000", "100439.440000", "100439.900000", "100440.360000", "100440.820000", "100441.280000", "100441.740000", "100442.200000", "100442.660000", "100443.120000", "100443.580000", "100444.040000", "100444.500000", "100444.960000", "100445.420000", "100445.880000", "100446.340000", "100446.800000", "100447.260000", "100447.720000", "100448.180000", "100448.640000", "100449.100000", "100449.560000", "100450.020000", "100450.480000", "100450.940000", "100451.400000", "100451.860000", "100452.320000", "100452.780000", "100453.240000", "100453.700000", "100454.160000", "100454.620000", "100455.080000", "100455.540000", "100456.000000", "100456.460000", "100456.920000", "100457.380000", "100457.840000", "100458.300000", "100458.760000", "100459.220000", "100459.680000", "100500.140000", "100500.600000", "100501.060000", "100501.520000", "100501.980000", "100502.440000", "100502.900000", "100503.360000", "100503.820000", "100504.280000", "100504.740000", "100505.200000", "100505.660000", "100506.120000", "100506.580000", "100507.040000", "100507.500000", "100507.960000", "100508.420000", "100508.880000", "100509.340000", "100509.800000", "100510.260000", "100510.720000", "100511.180000", "100511.640000", "100512.100000", "100512.560000", "100513.020000", "100513.480000", "100513.940000", "100514.400000", "100514.860000", "100515.320000", "100515.780000", "100516.240000", "100516.700000", "100517.160000", "100517.620000", "100518.080000", "100518.540000", "100519.000000", "100519.460000", "100519.920000", "100520.380000", "100520.840000", "100521.300000", "100521.760000", "100522.220000", "100522.680000", "100523.140000", "100523.600000", "100524.060000", "100524.520000", "100524.980000", "100525.440000", "100525.900000", "100526.360000", "100526.820000", "100527.280000", "100527.740000", "100528.200000", "100528.660000", "100529.120000", "100529.580000", "100530.040000", "100530.500000", "100530.960000", "100531.420000", "100531.880000", "100532.340000", "100532.800000", "100533.260000", "100533.720000", "100534.180000", "100534.640000", "100535.100000", "100535.560000", "100536.020000", "100536.480000", "100536.940000", "100537.400000", "100537.860000", "100538.320000", "100538.780000", "100539.240000", "100539.700000", "100540.160000", "100540.620000", "100541.080000", "100541.540000", "100542.000000", "100542.460000", "100542.920000", "100543.380000", "100543.840000", "100544.300000", "100544.760000", "100545.220000", "100545.680000", "100546.140000", "100546.600000", "100547.060000", "100547.520000", "100547.980000", "100548.440000", "100548.900000", "100549.360000", "100549.820000", "100550.280000", "100550.740000", "100551.200000", "100551.660000", "100552.120000", "100552.580000", "100553.040000", "100553.500000", "100553.960000", "100554.420000", "100554.880000", "100555.340000", "100555.800000", "100556.260000", "100556.720000", "100557.180000", "100557.640000", "100558.100000", "100558.560000", "100559.020000", "100559.480000", "100559.940000", "100600.400000", "100600.860000", "100601.320000", "100601.780000", "100602.240000", "100602.700000", "100603.160000", "100603.620000", "100604.080000", "100604.540000", "100605.000000", "100605.460000", "100605.920000", "100606.380000", "100606.840000", "100607.300000", "100607.760000", "100608.220000", "100608.680000", "100609.140000", "100609.600000", "100610.060000", "100610.520000", "100610.980000", "100611.440000", "100611.900000", "100612.360000", "100612.820000", "100613.280000", "100613.740000", "100614.200000", "100614.660000", "100615.120000", "100615.580000", "100616.040000", "100616.500000", "100616.960000", "100617.420000", "100617.880000", "100618.340000", "100618.800000", "100619.260000", "100619.720000", "100620.180000", "100620.640000", "100621.100000", "100621.560000", "100622.020000", "100622.480000", "100622.940000", "100623.400000", "100623.860000", "100624.320000", "100624.780000", "100625.240000", "100625.700000", "100626.160000", "100626.620000", "100627.080000", "100627.540000", "100628.000000", "100628.460000", "100628.920000", "100629.380000", "100629.840000", "100630.300000", "100630.760000", "100631.220000", "100631.680000", "100632.140000", "100632.600000", "100633.060000", "100633.520000", "100633.980000", "100634.440000", "100634.900000", "100635.360000", "100635.820000", "100636.280000", "100636.740000", "100637.200000", "100637.660000", "100638.120000", "100638.580000", "100639.040000", "100639.500000", "100639.960000", "100640.420000", "100640.880000", "100641.340000", "100641.800000", "100642.260000", "100642.720000", "100643.180000", "100643.640000", "100644.100000", "100644.560000", "100645.020000", "100645.480000", "100645.940000", "100646.400000", "100646.860000", "100647.320000", "100647.780000", "100648.240000", "100648.700000", "100649.160000", "100649.620000", "100650.080000", "100650.540000", "100651.000000", "100651.460000", "100651.920000", "100652.380000", "100652.840000", "100653.300000", "100653.760000", "100654.220000", "100654.680000", "100655.140000", "100655.600000", "100656.060000", "100656.520000", "100656.980000", "100657.440000", "100657.900000", "100658.360000", "100658.820000", "100659.280000", "100659.740000", "100700.200000", "100700.660000", "100701.120000", "100701.580000", "100702.040000", "100702.500000", "100702.960000", "100703.420000", "100703.880000", "100704.340000", "100704.800000", "100705.260000", "100705.720000", "100706.180000", "100706.640000", "100707.100000", "100707.560000", "100708.020000", "100708.480000", "100708.940000", "100709.400000", "100709.860000", "100710.320000", "100710.780000", "100711.240000", "100711.700000", "100712.160000", "100712.620000", "100713.080000", "100713.540000", "100714.000000", "100714.460000", "100714.920000", "100715.380000", "100715.840000", "100716.300000", "100716.760000", "100717.220000", "100717.680000", "100718.140000", "100718.600000", "100719.060000", "100719.520000", "100719.980000", "100720.440000", "100720.900000", "100721.360000", "100721.820000", "100722.280000", "100722.740000", "100723.200000", "100723.660000", "100724.120000", "100724.580000", "100725.040000", "100725.500000", "100725.960000", "100726.420000", "100726.880000", "100727.340000", "100727.800000", "100728.260000", "100728.720000", "100729.180000", "100729.640000", "100730.100000", "100730.560000", "100731.020000", "100731.480000", "100731.940000", "100732.400000", "100732.860000", "100733.320000", "100733.780000", "100734.240000", "100734.700000", "100735.160000", "100735.620000", "100736.080000", "100736.540000", "100737.000000", "100737.460000", "100737.920000", "100738.380000", "100738.840000", "100739.300000", "100739.760000", "100740.220000", "100740.680000", "100741.140000", "100741.600000", "100742.060000", "100742.520000", "100742.980000", "100743.440000", "100743.900000", "100744.360000", "100744.820000", "100745.280000", "100745.740000", "100746.200000", "100746.660000", "100747.120000", "100747.580000", "100748.040000", "100748.500000", "100748.960000", "100749.420000", "100749.880000", "100750.340000", "100750.800000", "100751.260000", "100751.720000", "100752.180000", "100752.640000", "100753.100000", "100753.560000", "100754.020000", "100754.480000", "100754.940000", "100755.400000", "100755.860000", "100756.320000", "100756.780000", "100757.240000", "100757.700000", "100758.160000", "100758.620000", "100759.080000", "100759.540000", "100800.000000", "100800.460000", "100800.920000", "100801.380000", "100801.840000", "100802.300000", "100802.760000", "100803.220000", "100803.680000", "100804.140000", "100804.600000", "100805.060000", "100805.520000", "100805.980000", "100806.440000", "100806.900000", "100807.360000", "100807.820000", "100808.280000", "100808.740000", "100809.200000", "100809.660000", "100810.120000", "100810.580000", "100811.040000", "100811.500000", "100811.960000", "100812.420000", "100812.880000", "100813.340000", "100813.800000", "100814.260000", "100814.720000", "100815.180000", "100815.640000", "100816.100000", "100816.560000", "100817.020000", "100817.480000", "100817.940000", "100818.400000", "100818.860000", "100819.320000", "100819.780000", "100820.240000", "100820.700000", "100821.160000", "100821.620000", "100822.080000", "100822.540000", "100823.000000", "100823.460000", "100823.920000", "100824.380000", "100824.840000", "100825.300000", "100825.760000", "100826.220000", "100826.680000", "100827.140000", "100827.600000", "100828.060000", "100828.520000", "100828.980000", "100829.440000", "100829.900000", "100830.360000", "100830.820000", "100831.280000", "100831.740000", "100832.200000", "100832.660000", "100833.120000", "100833.580000", "100834.040000", "100834.500000", "100834.960000", "100835.420000", "100835.880000", "100836.340000", "100836.800000", "100837.260000", "100837.720000", "100838.180000", "100838.640000", "100839.100000", "100839.560000", "100840.020000", "100840.480000", "100840.940000", "100841.400000", "100841.860000", "100842.320000", "100842.780000", "100843.240000", "100843.700000", "100844.160000", "100844.620000", "100845.080000", "100845.540000", "100846.000000", "100846.460000", "100846.920000", "100847.380000", "100847.840000", "100848.300000", "100848.760000", "100849.220000", "100849.680000", "100850.140000", "100850.600000", "100851.060000", "100851.520000", "100851.980000", "100852.440000", "100852.900000", "100853.360000", "100853.820000", "100854.280000", "100854.740000", "100855.200000", "100855.660000", "100856.120000", "100856.580000", "100857.040000", "100857.500000", "100857.960000", "100858.420000", "100858.880000", "100859.340000", "100859.800000", "100900.260000", "100900.720000", "100901.180000", "100901.640000", "100902.100000", "100902.560000", "100903.020000", "100903.480000", "100903.940000", "100904.400000", "100904.860000", "100905.320000", "100905.780000", "100906.240000", "100906.700000", "100907.160000", "100907.620000", "100908.080000", "100908.540000", "100909.000000", "100909.460000", "100909.920000", "100910.380000", "100910.840000", "100911.300000", "100911.760000", "100912.220000", "100912.680000", "100913.140000", "100913.600000", "100914.060000", "100914.520000", "100914.980000", "100915.440000", "100915.900000", "100916.360000", "100916.820000", "100917.280000", "100917.740000", "100918.200000", "100918.660000", "100919.120000", "100919.580000", "100920.040000", "100920.500000", "100920.960000", "100921.420000", "100921.880000", "100922.340000", "100922.800000", "100923.260000", "100923.720000", "100924.180000", "100924.640000", "100925.100000", "100925.560000", "100926.020000", "100926.480000", "100926.940000", "100927.400000", "100927.860000", "100928.320000", "100928.780000", "100929.240000", "100929.700000", "100930.160000", "100930.620000", "100931.080000", "100931.540000", "100932.000000", "100932.460000", "100932.920000", "100933.380000", "100933.840000", "100934.300000", "100934.760000", "100935.220000", "100935.680000", "100936.140000", "100936.600000", "100937.060000", "100937.520000", "100937.980000", "100938.440000", "100938.900000", "100939.360000", "100939.820000", "100940.280000", "100940.740000", "100941.200000", "100941.660000", "100942.120000", "100942.580000", "100943.040000", "100943.500000", "100943.960000", "100944.420000", "100944.880000", "100945.340000", "100945.800000", "100946.260000", "100946.720000", "100947.180000", "100947.640000", "100948.100000", "100948.560000", "100949.020000", "100949.480000", "100949.940000", "100950.400000", "100950.860000", "100951.320000", "100951.780000", "100952.240000", "100952.700000", "100953.160000", "100953.620000", "100954.080000", "100954.540000", "100955.000000", "100955.460000", "100955.920000", "100956.380000", "100956.840000", "100957.300000", "100957.760000", "100958.220000", "100958.680000", "100959.140000", "100959.600000", "101000.060000", "101000.520000", "101000.980000", "101001.440000", "101001.900000", "101002.360000", "101002.820000", "101003.280000", "101003.740000", "101004.200000", "101004.660000", "101005.120000", "101005.580000", "101006.040000", "101006.500000", "101006.960000", "101007.420000", "101007.880000"],
