{
  "AcquisitionMatrixPE": 82,
  "AcquisitionNumber": 1,
  "AcquisitionTime": "11:26:41.705000",
  "BandwidthPerPixelPhaseEncode": 24.888,
  "BaseResolution": 82,
  "BodyPartExamined": "BRAIN",
  "ConsistencyInfo": "N4_VE11C_LATEST_20160120",
  "ConversionSoftware": "dcm2niix",
  "ConversionSoftwareVersion": "v1.0.20201102",
  "DerivedVendorReportedEchoSpacing": 0.00049,
  "DeviceSerialNumber": "66112",
  "DwellTime": 2e-06,
  "EchoTime": 0.0272,
  "EchoTrainLength": 82,
  "EffectiveEchoSpacing": 0.00049,
  "FlipAngle": 44,
  "ImageComments": "Unaliased MB8/PE3",
  "ImageOrientationPatientDICOM": [0.992456, -0.105567, 0.0623372, 0.115358, 0.976267, -0.183293],
  "ImageType": [
    "ORIGINAL",
    "PRIMARY",
    "M",
    "MB",
    "ND",
    "NORM",
    "MOSAIC"
],
  "ImagingFrequency": 123.252,
  "InPlanePhaseEncodingDirectionDICOM": "COL",
  "InstitutionAddress": "Maynard 3,Hanover,NH,US,03755",
  "InstitutionName": "Dartmouth College - PBS",
  "InstitutionalDepartmentName": "Department",
  "MRAcquisitionType": "2D",
  "MagneticFieldStrength": 3,
  "Manufacturer": "Siemens",
  "ManufacturersModelName": "Prisma",
  "Modality": "MR",
  "MultibandAccelerationFactor": 8,
  "PartialFourier": 1,
  "PatientPosition": "HFS",
  "PercentPhaseFOV": 100,
  "PercentSampling": 100,
  "PhaseEncodingDirection": "j-",
  "PhaseEncodingSteps": 82,
  "PhaseResolution": 1,
  "PixelBandwidth": 3050,
  "ProcedureStepDescription": "Wager_Wager^1076_spacetop",
  "ProtocolName": "func_run-03_task-alignvideo_acq-ap-mb8",
  "PulseSequenceDetails": "%CustomerSeq%\\cmrr_mbep2d_bold",
  "ReceiveCoilActiveElements": "HEA;HEP",
  "ReceiveCoilName": "Head_32",
  "ReconMatrixPE": 82,
  "RepetitionTime": 0.46,
  "SAR": 0.0882411,
  "ScanOptions": "FS",
  "ScanningSequence": "EP",
  "SequenceName": "epfid2d1_82",
  "SequenceVariant": "SK\\SS",
  "SeriesDescription": "func_run-03_task-alignvideo_acq-ap-mb8",
  "SeriesNumber": 36,
  "ShimSetting": [4144, -7699, -7353, 580, -71, -66, -42, 104],
  "SliceThickness": 2.7,
  "SliceTiming": [0, 0.25, 0.0625, 0.3125, 0.125, 0.375, 0.1875, 0, 0.25, 0.0625, 0.3125, 0.125, 0.375, 0.1875, 0, 0.25, 0.0625, 0.3125, 0.125, 0.375, 0.1875, 0, 0.25, 0.0625, 0.3125, 0.125, 0.375, 0.1875, 0, 0.25, 0.0625, 0.3125, 0.125, 0.375, 0.1875, 0, 0.25, 0.0625, 0.3125, 0.125, 0.375, 0.1875, 0, 0.25, 0.0625, 0.3125, 0.125, 0.375, 0.1875, 0, 0.25, 0.0625, 0.3125, 0.125, 0.375, 0.1875],
  "SoftwareVersions": "syngo MR E11",
  "SpacingBetweenSlices": 2.7,
  "StationName": "AWP66112",
  "TaskName": "alignvideo",
  "TotalReadoutTime": 0.03969,
  "TxRefAmp": 241.983,
  "WipMemBlock": "37b4d0e0-dfc1-4b2f-8e1f-46505a982644||Sequence: R016 ve11c/master r/e634e98; Dec 19 2017 11:00:25 by eja",
  "dcmmeta_affine": [
    [-2.6626880168914795, 0.30949652194976807, 0.11207158863544464, 98.20816802978516],
    [0.2832287847995758, 2.6192517280578613, -0.5105735659599304, -106.0328598022461],
    [0.16724608838558197, 0.49176153540611267, 2.6489157676696777, -118.85113525390625],
    [0.0, 0.0, 0.0, 1.0]
],
  "dcmmeta_reorient_transform": [
    [0.0, -1.0, 0.0, 81.0],
    [1.0, 0.0, 0.0, 0.0],
    [0.0, 0.0, 1.0, 0.0],
    [0.0, 0.0, 0.0, 1.0]
],
  "dcmmeta_shape": [82, 82, 56, 1065],
  "dcmmeta_slice_dim": 2,
  "dcmmeta_version": 0.6,
  "global": {
    "const": {
      "AccessionNumber": "A003476",
      "AcquisitionMatrix": [82, 0, 0, 82],
      "AngioFlag": "N",
      "BitsAllocated": 16,
      "BitsStored": 16,
      "BodyPartExamined": "BRAIN",
      "Columns": 656,
      "EchoNumbers": 1,
      "EchoTime": 27.2,
      "EchoTrainLength": 82,
      "FlipAngle": 44.0,
      "HighBit": 15,
      "ImageOrientationPatient": [0.99245637988196, -0.1055670890507, 0.0623371778392, 0.11535779198986, 0.97626650146782, -0.1832929293208],
      "ImagePositionPatient": [-976.29431851999, -776.56508577452, 14.117478331311],
      "ImageType": [
        "ORIGINAL",
        "PRIMARY",
        "M",
        "MB",
        "ND",
        "NORM",
        "MOSAIC"
],
      "ImagedNucleus": "1H",
      "ImagingFrequency": 123.252218,
      "InPlanePhaseEncodingDirection": "COL",
      "MRAcquisitionType": "2D",
      "MagneticFieldStrength": 3.0,
      "Manufacturer": "SIEMENS",
      "ManufacturerModelName": "Prisma",
      "Modality": "MR",
      "NumberOfAverages": 1.0,
      "NumberOfPhaseEncodingSteps": 82,
      "PercentPhaseFieldOfView": 100.0,
      "PercentSampling": 100.0,
      "PerformedProcedureStepStartTime": "091228.159000",
      "PhotometricInterpretation": "MONOCHROME2",
      "PixelBandwidth": 3050.0,
      "PixelRepresentation": 0,
      "PixelSpacing": [2.6829268932343, 2.6829268932343],
      "ProtocolName": "func_run-03_task-alignvideo_acq-ap-mb8",
      "RepetitionTime": 460.0,
      "Rows": 656,
      "SAR": 0.088241083119,
      "SamplesPerPixel": 1,
      "ScanOptions": "FS",
      "ScanningSequence": "EP",
      "SequenceName": "epfid2d1_82",
      "SequenceVariant": [
        "SK",
        "SS"
],
      "SeriesDescription": "func_run-03_task-alignvideo_acq-ap-mb8",
      "SeriesNumber": 36,
      "SeriesTime": "112705.417000",
      "SliceLocation": -92.47508345352,
      "SliceThickness": 2.7000000476837,
      "SmallestImagePixelValue": 0,
      "SoftwareVersions": "syngo MR E11",
      "SpacingBetweenSlices": 2.6999999069356,
      "SpecificCharacterSet": "ISO_IR 100",
      "StudyID": "1",
      "StudyTime": "091228.036000",
      "TransmitCoilName": "Body",
      "VariableFlipAngleFlag": "N",
      "WindowCenterWidthExplanation": "Algo1",
      "dBdt": 0.0},
    "slices": {}
  },
  "time": {
    "samples": {
      "AcquisitionNumber": [1, 2, 3, 4, 5, 6, 7, 8, 9, 10, 11, 12, 13, 14, 15, 16, 17, 18, 19, 20, 21, 22, 23, 24, 25, 26, 27, 28, 29, 30, 31, 32, 33, 34, 35, 36, 37, 38, 39, 40, 41, 42, 43, 44, 45, 46, 47, 48, 49, 50, 51, 52, 53, 54, 55, 56, 57, 58, 59, 60, 61, 62, 63, 64, 65, 66, 67, 68, 69, 70, 71, 72, 73, 74, 75, 76, 77, 78, 79, 80, 81, 82, 83, 84, 85, 86, 87, 88, 89, 90, 91, 92, 93, 94, 95, 96, 97, 98, 99, 100, 101, 102, 103, 104, 105, 106, 107, 108, 109, 110, 111, 112, 113, 114, 115, 116, 117, 118, 119, 120, 121, 122, 123, 124, 125, 126, 127, 128, 129, 130, 131, 132, 133, 134, 135, 136, 137, 138, 139, 140, 141, 142, 143, 144, 145, 146, 147, 148, 149, 150, 151, 152, 153, 154, 155, 156, 157, 158, 159, 160, 161, 162, 163, 164, 165, 166, 167, 168, 169, 170, 171, 172, 173, 174, 175, 176, 177, 178, 179, 180, 181, 182, 183, 184, 185, 186, 187, 188, 189, 190, 191, 192, 193, 194, 195, 196, 197, 198, 199, 200, 201, 202, 203, 204, 205, 206, 207, 208, 209, 210, 211, 212, 213, 214, 215, 216, 217, 218, 219, 220, 221, 222, 223, 224, 225, 226, 227, 228, 229, 230, 231, 232, 233, 234, 235, 236, 237, 238, 239, 240, 241, 242, 243, 244, 245, 246, 247, 248, 249, 250, 251, 252, 253, 254, 255, 256, 257, 258, 259, 260, 261, 262, 263, 264, 265, 266, 267, 268, 269, 270, 271, 272, 273, 274, 275, 276, 277, 278, 279, 280, 281, 282, 283, 284, 285, 286, 287, 288, 289, 290, 291, 292, 293, 294, 295, 296, 297, 298, 299, 300, 301, 302, 303, 304, 305, 306, 307, 308, 309, 310, 311, 312, 313, 314, 315, 316, 317, 318, 319, 320, 321, 322, 323, 324, 325, 326, 327, 328, 329, 330, 331, 332, 333, 334, 335, 336, 337, 338, 339, 340, 341, 342, 343, 344, 345, 346, 347, 348, 349, 350, 351, 352, 353, 354, 355, 356, 357, 358, 359, 360, 361, 362, 363, 364, 365, 366, 367, 368, 369, 370, 371, 372, 373, 374, 375, 376, 377, 378, 379, 380, 381, 382, 383, 384, 385, 386, 387, 388, 389, 390, 391, 392, 393, 394, 395, 396, 397, 398, 399, 400, 401, 402, 403, 404, 405, 406, 407, 408, 409, 410, 411, 412, 413, 414, 415, 416, 417, 418, 419, 420, 421, 422, 423, 424, 425, 426, 427, 428, 429, 430, 431, 432, 433, 434, 435, 436, 437, 438, 439, 440, 441, 442, 443, 444, 445, 446, 447, 448, 449, 450, 451, 452, 453, 454, 455, 456, 457, 458, 459, 460, 461, 462, 463, 464, 465, 466, 467, 468, 469, 470, 471, 472, 473, 474, 475, 476, 477, 478, 479, 480, 481, 482, 483, 484, 485, 486, 487, 488, 489, 490, 491, 492, 493, 494, 495, 496, 497, 498, 499, 500, 501, 502, 503, 504, 505, 506, 507, 508, 509, 510, 511, 512, 513, 514, 515, 516, 517, 518, 519, 520, 521, 522, 523, 524, 525, 526, 527, 528, 529, 530, 531, 532, 533, 534, 535, 536, 537, 538, 539, 540, 541, 542, 543, 544, 545, 546, 547, 548, 549, 550, 551, 552, 553, 554, 555, 556, 557, 558, 559, 560, 561, 562, 563, 564, 565, 566, 567, 568, 569, 570, 571, 572, 573, 574, 575, 576, 577, 578, 579, 580, 581, 582, 583, 584, 585, 586, 587, 588, 589, 590, 591, 592, 593, 594, 595, 596, 597, 598, 599, 600, 601, 602, 603, 604, 605, 606, 607, 608, 609, 610, 611, 612, 613, 614, 615, 616, 617, 618, 619, 620, 621, 622, 623, 624, 625, 626, 627, 628, 629, 630, 631, 632, 633, 634, 635, 636, 637, 638, 639, 640, 641, 642, 643, 644, 645, 646, 647, 648, 649, 650, 651, 652, 653, 654, 655, 656, 657, 658, 659, 660, 661, 662, 663, 664, 665, 666, 667, 668, 669, 670, 671, 672, 673, 674, 675, 676, 677, 678, 679, 680, 681, 682, 683, 684, 685, 686, 687, 688, 689, 690, 691, 692, 693, 694, 695, 696, 697, 698, 699, 700, 701, 702, 703, 704, 705, 706, 707, 708, 709, 710, 711, 712, 713, 714, 715, 716, 717, 718, 719, 720, 721, 722, 723, 724, 725, 726, 727, 728, 729, 730, 731, 732, 733, 734, 735, 736, 737, 738, 739, 740, 741, 742, 743, 744, 745, 746, 747, 748, 749, 750, 751, 752, 753, 754, 755, 756, 757, 758, 759, 760, 761, 762, 763, 764, 765, 766, 767, 768, 769, 770, 771, 772, 773, 774, 775, 776, 777, 778, 779, 780, 781, 782, 783, 784, 785, 786, 787, 788, 789, 790, 791, 792, 793, 794, 795, 796, 797, 798, 799, 800, 801, 802, 803, 804, 805, 806, 807, 808, 809, 810, 811, 812, 813, 814, 815, 816, 817, 818, 819, 820, 821, 822, 823, 824, 825, 826, 827, 828, 829, 830, 831, 832, 833, 834, 835, 836, 837, 838, 839, 840, 841, 842, 843, 844, 845, 846, 847, 848, 849, 850, 851, 852, 853, 854, 855, 856, 857, 858, 859, 860, 861, 862, 863, 864, 865, 866, 867, 868, 869, 870, 871, 872, 873, 874, 875, 876, 877, 878, 879, 880, 881, 882, 883, 884, 885, 886, 887, 888, 889, 890, 891, 892, 893, 894, 895, 896, 897, 898, 899, 900, 901, 902, 903, 904, 905, 906, 907, 908, 909, 910, 911, 912, 913, 914, 915, 916, 917, 918, 919, 920, 921, 922, 923, 924, 925, 926, 927, 928, 929, 930, 931, 932, 933, 934, 935, 936, 937, 938, 939, 940, 941, 942, 943, 944, 945, 946, 947, 948, 949, 950, 951, 952, 953, 954, 955, 956, 957, 958, 959, 960, 961, 962, 963, 964, 965, 966, 967, 968, 969, 970, 971, 972, 973, 974, 975, 976, 977, 978, 979, 980, 981, 982, 983, 984, 985, 986, 987, 988, 989, 990, 991, 992, 993, 994, 995, 996, 997, 998, 999, 1000, 1001, 1002, 1003, 1004, 1005, 1006, 1007, 1008, 1009, 1010, 1011, 1012, 1013, 1014, 1015, 1016, 1017, 1018, 1019, 1020, 1021, 1022, 1023, 1024, 1025, 1026, 1027, 1028, 1029, 1030, 1031, 1032, 1033, 1034, 1035, 1036, 1037, 1038, 1039, 1040, 1041, 1042, 1043, 1044, 1045, 1046, 1047, 1048, 1049, 1050, 1051, 1052, 1053, 1054, 1055, 1056, 1057, 1058, 1059, 1060, 1061, 1062, 1063, 1064, 1065],
      "AcquisitionTime": ["112641.705000", "112642.165000", "112642.625000", "112643.085000", "112643.545000", "112644.005000", "112644.465000", "112644.925000", "112645.385000", "112645.845000", "112646.305000", "112646.765000", "112647.225000", "112647.685000", "112648.145000", "112648.605000", "112649.065000", "112649.525000", "112649.985000", "112650.445000", "112650.905000", "112651.365000", "112651.825000", "112652.285000", "112652.745000", "112653.205000", "112653.665000", "112654.125000", "112654.585000", "112655.045000", "112655.505000", "112655.965000", "112656.425000", "112656.885000", "112657.345000", "112657.805000", "112658.265000", "112658.725000", "112659.185000", "112659.645000", "112700.105000", "112700.565000", "112701.025000", "112701.485000", "112701.945000", "112702.405000", "112702.865000", "112703.325000", "112703.785000", "112704.245000", "112704.705000", "112705.165000", "112705.625000", "112706.085000", "112706.545000", "112707.005000", "112707.465000", "112707.925000", "112708.385000", "112708.845000", "112709.305000", "112709.765000", "112710.225000", "112710.685000", "112711.145000", "112711.605000", "112712.065000", "112712.525000", "112712.985000", "112713.445000", "112713.905000", "112714.365000", "112714.825000", "112715.285000", "112715.745000", "112716.205000", "112716.665000", "112717.125000", "112717.585000", "112718.045000", "112718.505000", "112718.965000", "112719.425000", "112719.885000", "112720.345000", "112720.805000", "112721.265000", "112721.725000", "112722.185000", "112722.645000", "112723.105000", "112723.565000", "112724.025000", "112724.485000", "112724.945000", "112725.405000", "112725.865000", "112726.325000", "112726.785000", "112727.245000", "112727.705000", "112728.165000", "112728.625000", "112729.085000", "112729.545000", "112730.005000", "112730.465000", "112730.925000", "112731.385000", "112731.845000", "112732.305000", "112732.765000", "112733.225000", "112733.685000", "112734.145000", "112734.605000", "112735.065000", "112735.525000", "112735.985000", "112736.445000", "112736.905000", "112737.365000", "112737.825000", "112738.285000", "112738.745000", "112739.205000", "112739.665000", "112740.125000", "112740.585000", "112741.045000", "112741.505000", "112741.965000", "112742.425000", "112742.885000", "112743.345000", "112743.805000", "112744.265000", "112744.725000", "112745.185000", "112745.645000", "112746.105000", "112746.565000", "112747.025000", "112747.485000", "112747.945000", "112748.405000", "112748.865000", "112749.325000", "112749.785000", "112750.245000", "112750.705000", "112751.165000", "112751.625000", "112752.085000", "112752.545000", "112753.005000", "112753.465000", "112753.925000", "112754.385000", "112754.845000", "112755.305000", "112755.765000", "112756.225000", "112756.685000", "112757.145000", "112757.605000", "112758.065000", "112758.525000", "112758.985000", "112759.445000", "112759.905000", "112800.365000", "112800.825000", "112801.285000", "112801.745000", "112802.205000", "112802.665000", "112803.125000", "112803.585000", "112804.045000", "112804.505000", "112804.965000", "112805.425000", "112805.885000", "112806.345000", "112806.805000", "112807.265000", "112807.725000", "112808.185000", "112808.645000", "112809.105000", "112809.565000", "112810.025000", "112810.485000", "112810.945000", "112811.405000", "112811.865000", "112812.325000", "112812.785000", "112813.245000", "112813.705000", "112814.165000", "112814.625000", "112815.085000", "112815.545000", "112816.005000", "112816.465000", "112816.925000", "112817.385000", "112817.845000", "112818.305000", "112818.765000", "112819.225000", "112819.685000", "112820.145000", "112820.605000", "112821.065000", "112821.525000", "112821.985000", "112822.445000", "112822.905000", "112823.365000", "112823.825000", "112824.285000", "112824.745000", "112825.205000", "112825.665000", "112826.125000", "112826.585000", "112827.045000", "112827.505000", "112827.965000", "112828.425000", "112828.885000", "112829.345000", "112829.805000", "112830.265000", "112830.725000", "112831.185000", "112831.645000", "112832.105000", "112832.565000", "112833.025000", "112833.485000", "112833.945000", "112834.405000", "112834.865000", "112835.325000", "112835.785000", "112836.245000", "112836.705000", "112837.165000", "112837.625000", "112838.085000", "112838.545000", "112839.005000", "112839.465000", "112839.925000", "112840.385000", "112840.845000", "112841.305000", "112841.765000", "112842.225000", "112842.685000", "112843.145000", "112843.605000", "112844.065000", "112844.525000", "112844.985000", "112845.445000", "112845.905000", "112846.365000", "112846.825000", "112847.285000", "112847.745000", "112848.205000", "112848.665000", "112849.125000", "112849.585000", "112850.045000", "112850.505000", "112850.965000", "112851.425000", "112851.885000", "112852.345000", "112852.805000", "112853.265000", "112853.725000", "112854.185000", "112854.645000", "112855.105000", "112855.565000", "112856.025000", "112856.485000", "112856.945000", "112857.405000", "112857.865000", "112858.325000", "112858.785000", "112859.245000", "112859.705000", "112900.165000", "112900.625000", "112901.085000", "112901.545000", "112902.005000", "112902.465000", "112902.925000", "112903.385000", "112903.845000", "112904.305000", "112904.765000", "112905.225000", "112905.685000", "112906.145000", "112906.605000", "112907.065000", "112907.525000", "112907.985000", "112908.445000", "112908.905000", "112909.365000", "112909.825000", "112910.285000", "112910.745000", "112911.205000", "112911.665000", "112912.125000", "112912.585000", "112913.045000", "112913.505000", "112913.965000", "112914.425000", "112914.885000", "112915.345000", "112915.805000", "112916.265000", "112916.725000", "112917.185000", "112917.645000", "112918.105000", "112918.565000", "112919.025000", "112919.485000", "112919.945000", "112920.405000", "112920.865000", "112921.325000", "112921.785000", "112922.245000", "112922.705000", "112923.165000", "112923.625000", "112924.085000", "112924.545000", "112925.005000", "112925.465000", "112925.925000", "112926.385000", "112926.845000", "112927.305000", "112927.765000", "112928.225000", "112928.685000", "112929.145000", "112929.605000", "112930.065000", "112930.525000", "112930.985000", "112931.445000", "112931.905000", "112932.365000", "112932.825000", "112933.285000", "112933.745000", "112934.205000", "112934.665000", "112935.125000", "112935.585000", "112936.045000", "112936.505000", "112936.965000", "112937.425000", "112937.885000", "112938.345000", "112938.805000", "112939.265000", "112939.725000", "112940.185000", "112940.645000", "112941.105000", "112941.565000", "112942.025000", "112942.485000", "112942.945000", "112943.405000", "112943.865000", "112944.325000", "112944.785000", "112945.245000", "112945.705000", "112946.165000", "112946.625000", "112947.085000", "112947.545000", "112948.005000", "112948.465000", "112948.925000", "112949.385000", "112949.845000", "112950.305000", "112950.765000", "112951.225000", "112951.685000", "112952.145000", "112952.605000", "112953.065000", "112953.525000", "112953.985000", "112954.445000", "112954.905000", "112955.365000", "112955.825000", "112956.285000", "112956.745000", "112957.205000", "112957.665000", "112958.125000", "112958.585000", "112959.045000", "112959.505000", "112959.965000", "113000.425000", "113000.885000", "113001.345000", "113001.805000", "113002.265000", "113002.725000", "113003.185000", "113003.645000", "113004.105000", "113004.565000", "113005.025000", "113005.485000", "113005.945000", "113006.405000", "113006.865000", "113007.325000", "113007.785000", "113008.245000", "113008.705000", "113009.165000", "113009.625000", "113010.085000", "113010.545000", "113011.005000", "113011.465000", "113011.925000", "113012.385000", "113012.845000", "113013.305000", "113013.765000", "113014.225000", "113014.685000", "113015.145000", "113015.605000", "113016.065000", "113016.525000", "113016.985000", "113017.445000", "113017.905000", "113018.365000", "113018.825000", "113019.285000", "113019.745000", "113020.205000", "113020.665000", "113021.125000", "113021.585000", "113022.045000", "113022.505000", "113022.965000", "113023.425000", "113023.885000", "113024.345000", "113024.805000", "113025.265000", "113025.725000", "113026.185000", "113026.645000", "113027.105000", "113027.565000", "113028.025000", "113028.485000", "113028.945000", "113029.405000", "113029.865000", "113030.325000", "113030.785000", "113031.245000", "113031.705000", "113032.165000", "113032.625000", "113033.085000", "113033.545000", "113034.005000", "113034.465000", "113034.925000", "113035.385000", "113035.845000", "113036.305000", "113036.765000", "113037.225000", "113037.685000", "113038.145000", "113038.605000", "113039.065000", "113039.525000", "113039.985000", "113040.445000", "113040.905000", "113041.365000", "113041.825000", "113042.285000", "113042.745000", "113043.205000", "113043.665000", "113044.125000", "113044.585000", "113045.045000", "113045.505000", "113045.965000", "113046.425000", "113046.885000", "113047.345000", "113047.805000", "113048.265000", "113048.725000", "113049.185000", "113049.645000", "113050.105000", "113050.565000", "113051.025000", "113051.485000", "113051.945000", "113052.405000", "113052.865000", "113053.325000", "113053.785000", "113054.245000", "113054.705000", "113055.165000", "113055.625000", "113056.085000", "113056.545000", "113057.005000", "113057.465000", "113057.925000", "113058.385000", "113058.845000", "113059.305000", "113059.765000", "113100.225000", "113100.685000", "113101.145000", "113101.605000", "113102.065000", "113102.525000", "113102.985000", "113103.445000", "113103.905000", "113104.365000", "113104.825000", "113105.285000", "113105.745000", "113106.205000", "113106.665000", "113107.125000", "113107.585000", "113108.045000", "113108.505000", "113108.965000", "113109.425000", "113109.885000", "113110.345000", "113110.805000", "113111.265000", "113111.725000", "113112.185000", "113112.645000", "113113.105000", "113113.565000", "113114.025000", "113114.485000", "113114.945000", "113115.405000", "113115.865000", "113116.325000", "113116.785000", "113117.245000", "113117.705000", "113118.165000", "113118.625000", "113119.085000", "113119.545000", "113120.005000", "113120.465000", "113120.925000", "113121.385000", "113121.845000", "113122.305000", "113122.765000", "113123.225000", "113123.685000", "113124.145000", "113124.605000", "113125.065000", "113125.525000", "113125.985000", "113126.445000", "113126.905000", "113127.365000", "113127.825000", "113128.285000", "113128.745000", "113129.205000", "113129.665000", "113130.125000", "113130.585000", "113131.045000", "113131.505000", "113131.965000", "113132.425000", "113132.885000", "113133.345000", "113133.805000", "113134.265000", "113134.725000", "113135.185000", "113135.645000", "113136.105000", "113136.565000", "113137.025000", "113137.485000", "113137.945000", "113138.405000", "113138.865000", "113139.325000", "113139.785000", "113140.245000", "113140.705000", "113141.165000", "113141.625000", "113142.085000", "113142.545000", "113143.005000", "113143.465000", "113143.925000", "113144.385000", "113144.845000", "113145.305000", "113145.765000", "113146.225000", "113146.685000", "113147.145000", "113147.605000", "113148.065000", "113148.525000", "113148.985000", "113149.445000", "113149.905000", "113150.365000", "113150.825000", "113151.285000", "113151.745000", "113152.205000", "113152.665000", "113153.125000", "113153.585000", "113154.045000", "113154.505000", "113154.965000", "113155.425000", "113155.885000", "113156.345000", "113156.805000", "113157.265000", "113157.725000", "113158.185000", "113158.645000", "113159.105000", "113159.565000", "113200.025000", "113200.485000", "113200.945000", "113201.405000", "113201.865000", "113202.325000", "113202.785000", "113203.245000", "113203.705000", "113204.165000", "113204.625000", "113205.085000", "113205.545000", "113206.005000", "113206.465000", "113206.925000", "113207.385000", "113207.845000", "113208.305000", "113208.765000", "113209.225000", "113209.685000", "113210.145000", "113210.605000", "113211.065000", "113211.525000", "113211.985000", "113212.445000", "113212.905000", "113213.365000", "113213.825000", "113214.285000", "113214.745000", "113215.205000", "113215.665000", "113216.125000", "113216.585000", "113217.045000", "113217.505000", "113217.965000", "113218.425000", "113218.885000", "113219.345000", "113219.805000", "113220.265000", "113220.725000", "113221.185000", "113221.645000", "113222.105000", "113222.565000", "113223.025000", "113223.485000", "113223.945000", "113224.405000", "113224.865000", "113225.325000", "113225.785000", "113226.245000", "113226.705000", "113227.165000", "113227.625000", "113228.085000", "113228.545000", "113229.005000", "113229.465000", "113229.925000", "113230.385000", "113230.845000", "113231.305000", "113231.765000", "113232.225000", "113232.685000", "113233.145000", "113233.605000", "113234.065000", "113234.525000", "113234.985000", "113235.445000", "113235.905000", "113236.365000", "113236.825000", "113237.285000", "113237.745000", "113238.205000", "113238.665000", "113239.125000", "113239.585000", "113240.045000", "113240.505000", "113240.965000", "113241.425000", "113241.885000", "113242.345000", "113242.805000", "113243.265000", "113243.725000", "113244.185000", "113244.645000", "113245.105000", "113245.565000", "113246.025000", "113246.485000", "113246.945000", "113247.405000", "113247.865000", "113248.325000", "113248.785000", "113249.245000", "113249.705000", "113250.165000", "113250.625000", "113251.085000", "113251.545000", "113252.005000", "113252.465000", "113252.925000", "113253.385000", "113253.845000", "113254.305000", "113254.765000", "113255.225000", "113255.685000", "113256.145000", "113256.605000", "113257.065000", "113257.525000", "113257.985000", "113258.445000", "113258.905000", "113259.365000", "113259.825000", "113300.285000", "113300.745000", "113301.205000", "113301.665000", "113302.125000", "113302.585000", "113303.045000", "113303.505000", "113303.965000", "113304.425000", "113304.885000", "113305.345000", "113305.805000", "113306.265000", "113306.725000", "113307.185000", "113307.645000", "113308.105000", "113308.565000", "113309.025000", "113309.485000", "113309.945000", "113310.405000", "113310.865000", "113311.325000", "113311.785000", "113312.245000", "113312.705000", "113313.165000", "113313.625000", "113314.085000", "113314.545000", "113315.005000", "113315.465000", "113315.925000", "113316.385000", "113316.845000", "113317.305000", "113317.765000", "113318.225000", "113318.685000", "113319.145000", "113319.605000", "113320.065000", "113320.525000", "113320.985000", "113321.445000", "113321.905000", "113322.365000", "113322.825000", "113323.285000", "113323.745000", "113324.205000", "113324.665000", "113325.125000", "113325.585000", "113326.045000", "113326.505000", "113326.965000", "113327.425000", "113327.885000", "113328.345000", "113328.805000", "113329.265000", "113329.725000", "113330.185000", "113330.645000", "113331.105000", "113331.565000", "113332.025000", "113332.485000", "113332.945000", "113333.405000", "113333.865000", "113334.325000", "113334.785000", "113335.245000", "113335.705000", "113336.165000", "113336.625000", "113337.085000", "113337.545000", "113338.005000", "113338.465000", "113338.925000", "113339.385000", "113339.845000", "113340.305000", "113340.765000", "113341.225000", "113341.685000", "113342.145000", "113342.605000", "113343.065000", "113343.525000", "113343.985000", "113344.445000", "113344.905000", "113345.365000", "113345.825000", "113346.285000", "113346.745000", "113347.205000", "113347.665000", "113348.125000", "113348.585000", "113349.045000", "113349.505000", "113349.965000", "113350.425000", "113350.885000", "113351.345000", "113351.805000", "113352.265000", "113352.725000", "113353.185000", "113353.645000", "113354.105000", "113354.565000", "113355.025000", "113355.485000", "113355.945000", "113356.405000", "113356.865000", "113357.325000", "113357.785000", "113358.245000", "113358.705000", "113359.165000", "113359.625000", "113400.085000", "113400.545000", "113401.005000", "113401.465000", "113401.925000", "113402.385000", "113402.845000", "113403.305000", "113403.765000", "113404.225000", "113404.685000", "113405.145000", "113405.605000", "113406.065000", "113406.525000", "113406.985000", "113407.445000", "113407.905000", "113408.365000", "113408.825000", "113409.285000", "113409.745000", "113410.205000", "113410.665000", "113411.125000", "113411.585000", "113412.045000", "113412.505000", "113412.965000", "113413.425000", "113413.885000", "113414.345000", "113414.805000", "113415.265000", "113415.725000", "113416.185000", "113416.645000", "113417.105000", "113417.565000", "113418.025000", "113418.485000", "113418.945000", "113419.405000", "113419.865000", "113420.325000", "113420.785000", "113421.245000", "113421.705000", "113422.165000", "113422.625000", "113423.085000", "113423.545000", "113424.005000", "113424.465000", "113424.925000", "113425.385000", "113425.845000", "113426.305000", "113426.765000", "113427.225000", "113427.685000", "113428.145000", "113428.605000", "113429.065000", "113429.525000", "113429.985000", "113430.445000", "113430.905000", "113431.365000", "113431.825000", "113432.285000", "113432.745000", "113433.205000", "113433.665000", "113434.125000", "113434.585000", "113435.045000", "113435.505000", "113435.965000", "113436.425000", "113436.885000", "113437.345000", "113437.805000", "113438.265000", "113438.725000", "113439.185000", "113439.645000", "113440.105000", "113440.565000", "113441.025000", "113441.485000", "113441.945000", "113442.405000", "113442.865000", "113443.325000", "113443.785000", "113444.245000", "113444.705000", "113445.165000", "113445.625000", "113446.085000", "113446.545000", "113447.005000", "113447.465000", "113447.925000", "113448.385000", "113448.845000", "113449.305000", "113449.765000", "113450.225000", "113450.685000", "113451.145000"],
