{
  "AcquisitionMatrixPE": 82,
  "AcquisitionNumber": 1,
  "AcquisitionTime": "10:34:22.945000",
  "BandwidthPerPixelPhaseEncode": 24.888,
  "BaseResolution": 82,
  "BodyPartExamined": "BRAIN",
  "ConsistencyInfo": "N4_VE11C_LATEST_20160120",
  "ConversionSoftware": "dcm2niix",
  "ConversionSoftwareVersion": "v1.0.20201102",
  "DerivedVendorReportedEchoSpacing": 0.00049,
  "DeviceSerialNumber": "66112",
  "DwellTime": 2e-06,
  "EchoTime": 0.0272,
  "EchoTrainLength": 82,
  "EffectiveEchoSpacing": 0.00049,
  "FlipAngle": 44,
  "ImageComments": "Unaliased MB8/PE3",
  "ImageOrientationPatientDICOM": [0.99441, -0.0728334, 0.0764442, 0.0831534, 0.986383, -0.141894],
  "ImageType": [
    "ORIGINAL",
    "PRIMARY",
    "M",
    "MB",
    "ND",
    "NORM",
    "MOSAIC"
],
  "ImagingFrequency": 123.252,
  "InPlanePhaseEncodingDirectionDICOM": "COL",
  "InstitutionAddress": "Maynard 3,Hanover,NH,US,03755",
  "InstitutionName": "Dartmouth College - PBS",
  "InstitutionalDepartmentName": "Department",
  "MRAcquisitionType": "2D",
  "MagneticFieldStrength": 3,
  "Manufacturer": "Siemens",
  "ManufacturersModelName": "Prisma",
  "Modality": "MR",
  "MultibandAccelerationFactor": 8,
  "PartialFourier": 1,
  "PatientPosition": "HFS",
  "PercentPhaseFOV": 100,
  "PercentSampling": 100,
  "PhaseEncodingDirection": "j-",
  "PhaseEncodingSteps": 82,
  "PhaseResolution": 1,
  "PixelBandwidth": 3050,
  "ProcedureStepDescription": "Wager_Wager^1076_spacetop",
  "ProtocolName": "func_run-05_task-social_acq-ap-mb8",
  "PulseSequenceDetails": "%CustomerSeq%\\cmrr_mbep2d_bold",
  "ReceiveCoilActiveElements": "HEA;HEP",
  "ReceiveCoilName": "Head_32",
  "ReconMatrixPE": 82,
  "RepetitionTime": 0.46,
  "SAR": 0.0881417,
  "ScanOptions": "FS",
  "ScanningSequence": "EP",
  "SequenceName": "epfid2d1_82",
  "SequenceVariant": "SK\\SS",
  "SeriesDescription": "func_run-05_task-social_acq-ap-mb8",
  "SeriesNumber": 20,
  "ShimSetting": [4144, -7698, -7356, 569, -70, -88, -41, 104],
  "SliceThickness": 2.7,
  "SliceTiming": [0, 0.25, 0.0625, 0.3125, 0.125, 0.375, 0.1875, 0, 0.25, 0.0625, 0.3125, 0.125, 0.375, 0.1875, 0, 0.25, 0.0625, 0.3125, 0.125, 0.375, 0.1875, 0, 0.25, 0.0625, 0.3125, 0.125, 0.375, 0.1875, 0, 0.25, 0.0625, 0.3125, 0.125, 0.375, 0.1875, 0, 0.25, 0.0625, 0.3125, 0.125, 0.375, 0.1875, 0, 0.25, 0.0625, 0.3125, 0.125, 0.375, 0.1875, 0, 0.25, 0.0625, 0.3125, 0.125, 0.375, 0.1875],
  "SoftwareVersions": "syngo MR E11",
  "SpacingBetweenSlices": 2.7,
  "StationName": "AWP66112",
  "TaskName": "social",
  "TotalReadoutTime": 0.03969,
  "TxRefAmp": 241.983,
  "WipMemBlock": "b0a5ea37-62b9-42e1-a102-77b213d7f7b1||Sequence: R016 ve11c/master r/e634e98; Dec 19 2017 11:00:25 by eja",
  "dcmmeta_affine": [
    [-2.6679298877716064, 0.22309450805187225, 0.1756853610277176, 99.65391540527344],
    [0.19540666043758392, 2.6463937759399414, -0.39813491702079773, -103.42015838623047],
    [0.20509420335292816, 0.3806910812854767, 2.6646995544433594, -119.4517822265625],
    [0.0, 0.0, 0.0, 1.0]
],
  "dcmmeta_reorient_transform": [
    [0.0, -1.0, 0.0, 81.0],
    [1.0, 0.0, 0.0, 0.0],
    [0.0, 0.0, 1.0, 0.0],
    [0.0, 0.0, 0.0, 1.0]
],
  "dcmmeta_shape": [82, 82, 56, 872],
  "dcmmeta_slice_dim": 2,
  "dcmmeta_version": 0.6,
  "global": {
    "const": {
      "AccessionNumber": "A003476",
      "AcquisitionMatrix": [82, 0, 0, 82],
      "AngioFlag": "N",
      "BitsAllocated": 16,
      "BitsStored": 16,
      "BodyPartExamined": "BRAIN",
      "Columns": 656,
      "EchoNumbers": 1,
      "EchoTime": 27.2,
      "EchoTrainLength": 82,
      "FlipAngle": 44.0,
      "HighBit": 15,
      "ImageOrientationPatient": [0.99441016787183, -0.0728333876851, 0.07644419972397, 0.08315340506405, 0.9863831004618, -0.1418939404965],
      "ImagePositionPatient": [-947.44854480947, -814.37103203557, -38.219503846591],
      "ImageType": [
        "ORIGINAL",
        "PRIMARY",
        "M",
        "MB",
        "ND",
        "NORM",
        "MOSAIC"
],
      "ImagedNucleus": "1H",
      "ImagingFrequency": 123.252214,
      "InPlanePhaseEncodingDirection": "COL",
      "MRAcquisitionType": "2D",
      "MagneticFieldStrength": 3.0,
      "Manufacturer": "SIEMENS",
      "ManufacturerModelName": "Prisma",
      "Modality": "MR",
      "NumberOfAverages": 1.0,
      "NumberOfPhaseEncodingSteps": 82,
      "PercentPhaseFieldOfView": 100.0,
      "PercentSampling": 100.0,
      "PerformedProcedureStepStartTime": "091228.159000",
      "PhotometricInterpretation": "MONOCHROME2",
      "PixelBandwidth": 3050.0,
      "PixelRepresentation": 0,
      "PixelSpacing": [2.6829268932343, 2.6829268932343],
      "ProtocolName": "func_run-05_task-social_acq-ap-mb8",
      "RepetitionTime": 460.0,
      "Rows": 656,
      "SAR": 0.08814165708643,
      "SamplesPerPixel": 1,
      "ScanOptions": "FS",
      "ScanningSequence": "EP",
      "SequenceName": "epfid2d1_82",
      "SequenceVariant": [
        "SK",
        "SS"
],
      "SeriesDescription": "func_run-05_task-social_acq-ap-mb8",
      "SeriesNumber": 20,
      "SeriesTime": "103445.272000",
      "SliceLocation": -96.155626372108,
      "SliceThickness": 2.7000000476837,
      "SmallestImagePixelValue": 0,
      "SoftwareVersions": "syngo MR E11",
      "SpacingBetweenSlices": 2.7000000172216,
      "SpecificCharacterSet": "ISO_IR 100",
      "StudyID": "1",
      "StudyTime": "091228.036000",
      "TransmitCoilName": "Body",
      "VariableFlipAngleFlag": "N",
      "WindowCenterWidthExplanation": "Algo1",
      "dBdt": 0.0},
    "slices": {}
  },
  "time": {
    "samples": {
      "AcquisitionNumber": [1, 2, 3, 4, 5, 6, 7, 8, 9, 10, 11, 12, 13, 14, 15, 16, 17, 18, 19, 20, 21, 22, 23, 24, 25, 26, 27, 28, 29, 30, 31, 32, 33, 34, 35, 36, 37, 38, 39, 40, 41, 42, 43, 44, 45, 46, 47, 48, 49, 50, 51, 52, 53, 54, 55, 56, 57, 58, 59, 60, 61, 62, 63, 64, 65, 66, 67, 68, 69, 70, 71, 72, 73, 74, 75, 76, 77, 78, 79, 80, 81, 82, 83, 84, 85, 86, 87, 88, 89, 90, 91, 92, 93, 94, 95, 96, 97, 98, 99, 100, 101, 102, 103, 104, 105, 106, 107, 108, 109, 110, 111, 112, 113, 114, 115, 116, 117, 118, 119, 120, 121, 122, 123, 124, 125, 126, 127, 128, 129, 130, 131, 132, 133, 134, 135, 136, 137, 138, 139, 140, 141, 142, 143, 144, 145, 146, 147, 148, 149, 150, 151, 152, 153, 154, 155, 156, 157, 158, 159, 160, 161, 162, 163, 164, 165, 166, 167, 168, 169, 170, 171, 172, 173, 174, 175, 176, 177, 178, 179, 180, 181, 182, 183, 184, 185, 186, 187, 188, 189, 190, 191, 192, 193, 194, 195, 196, 197, 198, 199, 200, 201, 202, 203, 204, 205, 206, 207, 208, 209, 210, 211, 212, 213, 214, 215, 216, 217, 218, 219, 220, 221, 222, 223, 224, 225, 226, 227, 228, 229, 230, 231, 232, 233, 234, 235, 236, 237, 238, 239, 240, 241, 242, 243, 244, 245, 246, 247, 248, 249, 250, 251, 252, 253, 254, 255, 256, 257, 258, 259, 260, 261, 262, 263, 264, 265, 266, 267, 268, 269, 270, 271, 272, 273, 274, 275, 276, 277, 278, 279, 280, 281, 282, 283, 284, 285, 286, 287, 288, 289, 290, 291, 292, 293, 294, 295, 296, 297, 298, 299, 300, 301, 302, 303, 304, 305, 306, 307, 308, 309, 310, 311, 312, 313, 314, 315, 316, 317, 318, 319, 320, 321, 322, 323, 324, 325, 326, 327, 328, 329, 330, 331, 332, 333, 334, 335, 336, 337, 338, 339, 340, 341, 342, 343, 344, 345, 346, 347, 348, 349, 350, 351, 352, 353, 354, 355, 356, 357, 358, 359, 360, 361, 362, 363, 364, 365, 366, 367, 368, 369, 370, 371, 372, 373, 374, 375, 376, 377, 378, 379, 380, 381, 382, 383, 384, 385, 386, 387, 388, 389, 390, 391, 392, 393, 394, 395, 396, 397, 398, 399, 400, 401, 402, 403, 404, 405, 406, 407, 408, 409, 410, 411, 412, 413, 414, 415, 416, 417, 418, 419, 420, 421, 422, 423, 424, 425, 426, 427, 428, 429, 430, 431, 432, 433, 434, 435, 436, 437, 438, 439, 440, 441, 442, 443, 444, 445, 446, 447, 448, 449, 450, 451, 452, 453, 454, 455, 456, 457, 458, 459, 460, 461, 462, 463, 464, 465, 466, 467, 468, 469, 470, 471, 472, 473, 474, 475, 476, 477, 478, 479, 480, 481, 482, 483, 484, 485, 486, 487, 488, 489, 490, 491, 492, 493, 494, 495, 496, 497, 498, 499, 500, 501, 502, 503, 504, 505, 506, 507, 508, 509, 510, 511, 512, 513, 514, 515, 516, 517, 518, 519, 520, 521, 522, 523, 524, 525, 526, 527, 528, 529, 530, 531, 532, 533, 534, 535, 536, 537, 538, 539, 540, 541, 542, 543, 544, 545, 546, 547, 548, 549, 550, 551, 552, 553, 554, 555, 556, 557, 558, 559, 560, 561, 562, 563, 564, 565, 566, 567, 568, 569, 570, 571, 572, 573, 574, 575, 576, 577, 578, 579, 580, 581, 582, 583, 584, 585, 586, 587, 588, 589, 590, 591, 592, 593, 594, 595, 596, 597, 598, 599, 600, 601, 602, 603, 604, 605, 606, 607, 608, 609, 610, 611, 612, 613, 614, 615, 616, 617, 618, 619, 620, 621, 622, 623, 624, 625, 626, 627, 628, 629, 630, 631, 632, 633, 634, 635, 636, 637, 638, 639, 640, 641, 642, 643, 644, 645, 646, 647, 648, 649, 650, 651, 652, 653, 654, 655, 656, 657, 658, 659, 660, 661, 662, 663, 664, 665, 666, 667, 668, 669, 670, 671, 672, 673, 674, 675, 676, 677, 678, 679, 680, 681, 682, 683, 684, 685, 686, 687, 688, 689, 690, 691, 692, 693, 694, 695, 696, 697, 698, 699, 700, 701, 702, 703, 704, 705, 706, 707, 708, 709, 710, 711, 712, 713, 714, 715, 716, 717, 718, 719, 720, 721, 722, 723, 724, 725, 726, 727, 728, 729, 730, 731, 732, 733, 734, 735, 736, 737, 738, 739, 740, 741, 742, 743, 744, 745, 746, 747, 748, 749, 750, 751, 752, 753, 754, 755, 756, 757, 758, 759, 760, 761, 762, 763, 764, 765, 766, 767, 768, 769, 770, 771, 772, 773, 774, 775, 776, 777, 778, 779, 780, 781, 782, 783, 784, 785, 786, 787, 788, 789, 790, 791, 792, 793, 794, 795, 796, 797, 798, 799, 800, 801, 802, 803, 804, 805, 806, 807, 808, 809, 810, 811, 812, 813, 814, 815, 816, 817, 818, 819, 820, 821, 822, 823, 824, 825, 826, 827, 828, 829, 830, 831, 832, 833, 834, 835, 836, 837, 838, 839, 840, 841, 842, 843, 844, 845, 846, 847, 848, 849, 850, 851, 852, 853, 854, 855, 856, 857, 858, 859, 860, 861, 862, 863, 864, 865, 866, 867, 868, 869, 870, 871, 872],
      "AcquisitionTime": ["103422.945000", "103423.405000", "103423.865000", "103424.325000", "103424.785000", "103425.245000", "103425.705000", "103426.165000", "103426.625000", "103427.085000", "103427.545000", "103428.005000", "103428.465000", "103428.925000", "103429.385000", "103429.845000", "103430.305000", "103430.765000", "103431.225000", "103431.685000", "103432.145000", "103432.605000", "103433.065000", "103433.525000", "103433.985000", "103434.445000", "103434.905000", "103435.365000", "103435.825000", "103436.285000", "103436.745000", "103437.205000", "103437.665000", "103438.125000", "103438.585000", "103439.045000", "103439.505000", "103439.965000", "103440.425000", "103440.885000", "103441.345000", "103441.805000", "103442.265000", "103442.725000", "103443.185000", "103443.645000", "103444.105000", "103444.565000", "103445.025000", "103445.485000", "103445.945000", "103446.405000", "103446.865000", "103447.325000", "103447.785000", "103448.245000", "103448.705000", "103449.165000", "103449.625000", "103450.085000", "103450.545000", "103451.005000", "103451.465000", "103451.925000", "103452.385000", "103452.845000", "103453.305000", "103453.765000", "103454.225000", "103454.685000", "103455.145000", "103455.605000", "103456.065000", "103456.525000", "103456.985000", "103457.445000", "103457.905000", "103458.365000", "103458.825000", "103459.285000", "103459.745000", "103500.205000", "103500.665000", "103501.125000", "103501.585000", "103502.045000", "103502.505000", "103502.965000", "103503.425000", "103503.885000", "103504.345000", "103504.805000", "103505.265000", "103505.725000", "103506.185000", "103506.645000", "103507.105000", "103507.565000", "103508.025000", "103508.485000", "103508.945000", "103509.405000", "103509.865000", "103510.325000", "103510.785000", "103511.245000", "103511.705000", "103512.165000", "103512.625000", "103513.085000", "103513.545000", "103514.005000", "103514.465000", "103514.925000", "103515.385000", "103515.845000", "103516.305000", "103516.765000", "103517.225000", "103517.685000", "103518.145000", "103518.605000", "103519.065000", "103519.525000", "103519.985000", "103520.445000", "103520.905000", "103521.365000", "103521.825000", "103522.285000", "103522.745000", "103523.205000", "103523.665000", "103524.125000", "103524.585000", "103525.045000", "103525.505000", "103525.965000", "103526.425000", "103526.885000", "103527.345000", "103527.805000", "103528.265000", "103528.725000", "103529.185000", "103529.645000", "103530.105000", "103530.565000", "103531.025000", "103531.485000", "103531.945000", "103532.405000", "103532.865000", "103533.325000", "103533.785000", "103534.245000", "103534.705000", "103535.165000", "103535.625000", "103536.085000", "103536.545000", "103537.005000", "103537.465000", "103537.925000", "103538.385000", "103538.845000", "103539.305000", "103539.765000", "103540.225000", "103540.685000", "103541.145000", "103541.605000", "103542.065000", "103542.525000", "103542.985000", "103543.445000", "103543.905000", "103544.365000", "103544.825000", "103545.285000", "103545.745000", "103546.205000", "103546.665000", "103547.125000", "103547.585000", "103548.045000", "103548.505000", "103548.965000", "103549.425000", "103549.885000", "103550.345000", "103550.805000", "103551.265000", "103551.725000", "103552.185000", "103552.645000", "103553.105000", "103553.565000", "103554.025000", "103554.485000", "103554.945000", "103555.405000", "103555.865000", "103556.325000", "103556.785000", "103557.245000", "103557.705000", "103558.165000", "103558.625000", "103559.085000", "103559.545000", "103600.005000", "103600.465000", "103600.925000", "103601.385000", "103601.845000", "103602.305000", "103602.765000", "103603.225000", "103603.685000", "103604.145000", "103604.605000", "103605.065000", "103605.525000", "103605.985000", "103606.445000", "103606.905000", "103607.365000", "103607.825000", "103608.285000", "103608.745000", "103609.205000", "103609.665000", "103610.125000", "103610.585000", "103611.045000", "103611.505000", "103611.965000", "103612.425000", "103612.885000", "103613.345000", "103613.805000", "103614.265000", "103614.725000", "103615.185000", "103615.645000", "103616.105000", "103616.565000", "103617.025000", "103617.485000", "103617.945000", "103618.405000", "103618.865000", "103619.325000", "103619.785000", "103620.245000", "103620.705000", "103621.165000", "103621.625000", "103622.085000", "103622.545000", "103623.005000", "103623.465000", "103623.925000", "103624.385000", "103624.845000", "103625.305000", "103625.765000", "103626.225000", "103626.685000", "103627.145000", "103627.605000", "103628.065000", "103628.525000", "103628.985000", "103629.445000", "103629.905000", "103630.365000", "103630.825000", "103631.285000", "103631.745000", "103632.205000", "103632.665000", "103633.125000", "103633.585000", "103634.045000", "103634.505000", "103634.965000", "103635.425000", "103635.885000", "103636.345000", "103636.805000", "103637.265000", "103637.725000", "103638.185000", "103638.645000", "103639.105000", "103639.565000", "103640.025000", "103640.485000", "103640.945000", "103641.405000", "103641.865000", "103642.325000", "103642.785000", "103643.245000", "103643.705000", "103644.165000", "103644.625000", "103645.085000", "103645.545000", "103646.005000", "103646.465000", "103646.925000", "103647.385000", "103647.845000", "103648.305000", "103648.765000", "103649.225000", "103649.685000", "103650.145000", "103650.605000", "103651.065000", "103651.525000", "103651.985000", "103652.445000", "103652.905000", "103653.365000", "103653.825000", "103654.285000", "103654.745000", "103655.205000", "103655.665000", "103656.125000", "103656.585000", "103657.045000", "103657.505000", "103657.965000", "103658.425000", "103658.885000", "103659.345000", "103659.805000", "103700.265000", "103700.725000", "103701.185000", "103701.645000", "103702.105000", "103702.565000", "103703.025000", "103703.485000", "103703.945000", "103704.405000", "103704.865000", "103705.325000", "103705.785000", "103706.245000", "103706.705000", "103707.165000", "103707.625000", "103708.085000", "103708.545000", "103709.005000", "103709.465000", "103709.925000", "103710.385000", "103710.845000", "103711.305000", "103711.765000", "103712.225000", "103712.685000", "103713.145000", "103713.605000", "103714.065000", "103714.525000", "103714.985000", "103715.445000", "103715.905000", "103716.365000", "103716.825000", "103717.285000", "103717.745000", "103718.205000", "103718.665000", "103719.125000", "103719.585000", "103720.045000", "103720.505000", "103720.965000", "103721.425000", "103721.885000", "103722.345000", "103722.805000", "103723.265000", "103723.725000", "103724.185000", "103724.645000", "103725.105000", "103725.565000", "103726.025000", "103726.485000", "103726.945000", "103727.405000", "103727.865000", "103728.325000", "103728.785000", "103729.245000", "103729.705000", "103730.165000", "103730.625000", "103731.085000", "103731.545000", "103732.005000", "103732.465000", "103732.925000", "103733.385000", "103733.845000", "103734.305000", "103734.765000", "103735.225000", "103735.685000", "103736.145000", "103736.605000", "103737.065000", "103737.525000", "103737.985000", "103738.445000", "103738.905000", "103739.365000", "103739.825000", "103740.285000", "103740.745000", "103741.205000", "103741.665000", "103742.125000", "103742.585000", "103743.045000", "103743.505000", "103743.965000", "103744.425000", "103744.885000", "103745.345000", "103745.805000", "103746.265000", "103746.725000", "103747.185000", "103747.645000", "103748.105000", "103748.565000", "103749.025000", "103749.485000", "103749.945000", "103750.405000", "103750.865000", "103751.325000", "103751.785000", "103752.245000", "103752.705000", "103753.165000", "103753.625000", "103754.085000", "103754.545000", "103755.005000", "103755.465000", "103755.925000", "103756.385000", "103756.845000", "103757.305000", "103757.765000", "103758.225000", "103758.685000", "103759.145000", "103759.605000", "103800.065000", "103800.525000", "103800.985000", "103801.445000", "103801.905000", "103802.365000", "103802.825000", "103803.285000", "103803.745000", "103804.205000", "103804.665000", "103805.125000", "103805.585000", "103806.045000", "103806.505000", "103806.965000", "103807.425000", "103807.885000", "103808.345000", "103808.805000", "103809.265000", "103809.725000", "103810.185000", "103810.645000", "103811.105000", "103811.565000", "103812.025000", "103812.485000", "103812.945000", "103813.405000", "103813.865000", "103814.325000", "103814.785000", "103815.245000", "103815.705000", "103816.165000", "103816.625000", "103817.085000", "103817.545000", "103818.005000", "103818.465000", "103818.925000", "103819.385000", "103819.845000", "103820.305000", "103820.765000", "103821.225000", "103821.685000", "103822.145000", "103822.605000", "103823.065000", "103823.525000", "103823.985000", "103824.445000", "103824.905000", "103825.365000", "103825.825000", "103826.285000", "103826.745000", "103827.205000", "103827.665000", "103828.125000", "103828.585000", "103829.045000", "103829.505000", "103829.965000", "103830.425000", "103830.885000", "103831.345000", "103831.805000", "103832.265000", "103832.725000", "103833.185000", "103833.645000", "103834.105000", "103834.565000", "103835.025000", "103835.485000", "103835.945000", "103836.405000", "103836.865000", "103837.325000", "103837.785000", "103838.245000", "103838.705000", "103839.165000", "103839.625000", "103840.085000", "103840.545000", "103841.005000", "103841.465000", "103841.925000", "103842.385000", "103842.845000", "103843.305000", "103843.765000", "103844.225000", "103844.685000", "103845.145000", "103845.605000", "103846.065000", "103846.525000", "103846.985000", "103847.445000", "103847.905000", "103848.365000", "103848.825000", "103849.285000", "103849.745000", "103850.205000", "103850.665000", "103851.125000", "103851.585000", "103852.045000", "103852.505000", "103852.965000", "103853.425000", "103853.885000", "103854.345000", "103854.805000", "103855.265000", "103855.725000", "103856.185000", "103856.645000", "103857.105000", "103857.565000", "103858.025000", "103858.485000", "103858.945000", "103859.405000", "103859.865000", "103900.325000", "103900.785000", "103901.245000", "103901.705000", "103902.165000", "103902.625000", "103903.085000", "103903.545000", "103904.005000", "103904.465000", "103904.925000", "103905.385000", "103905.845000", "103906.305000", "103906.765000", "103907.225000", "103907.685000", "103908.145000", "103908.605000", "103909.065000", "103909.525000", "103909.985000", "103910.445000", "103910.905000", "103911.365000", "103911.825000", "103912.285000", "103912.745000", "103913.205000", "103913.665000", "103914.125000", "103914.585000", "103915.045000", "103915.505000", "103915.965000", "103916.425000", "103916.885000", "103917.345000", "103917.805000", "103918.265000", "103918.725000", "103919.185000", "103919.645000", "103920.105000", "103920.565000", "103921.025000", "103921.485000", "103921.945000", "103922.405000", "103922.865000", "103923.325000", "103923.785000", "103924.245000", "103924.705000", "103925.165000", "103925.625000", "103926.085000", "103926.545000", "103927.005000", "103927.465000", "103927.925000", "103928.385000", "103928.845000", "103929.305000", "103929.765000", "103930.225000", "103930.685000", "103931.145000", "103931.605000", "103932.065000", "103932.525000", "103932.985000", "103933.445000", "103933.905000", "103934.365000", "103934.825000", "103935.285000", "103935.745000", "103936.205000", "103936.665000", "103937.125000", "103937.585000", "103938.045000", "103938.505000", "103938.965000", "103939.425000", "103939.885000", "103940.345000", "103940.805000", "103941.265000", "103941.725000", "103942.185000", "103942.645000", "103943.105000", "103943.565000", "103944.025000", "103944.485000", "103944.945000", "103945.405000", "103945.865000", "103946.325000", "103946.785000", "103947.245000", "103947.705000", "103948.165000", "103948.625000", "103949.085000", "103949.545000", "103950.005000", "103950.465000", "103950.925000", "103951.385000", "103951.845000", "103952.305000", "103952.765000", "103953.225000", "103953.685000", "103954.145000", "103954.605000", "103955.065000", "103955.525000", "103955.985000", "103956.445000", "103956.905000", "103957.365000", "103957.825000", "103958.285000", "103958.745000", "103959.205000", "103959.665000", "104000.125000", "104000.585000", "104001.045000", "104001.505000", "104001.965000", "104002.425000", "104002.885000", "104003.345000", "104003.805000", "104004.265000", "104004.725000", "104005.185000", "104005.645000", "104006.105000", "104006.565000", "104007.025000", "104007.485000", "104007.945000", "104008.405000", "104008.865000", "104009.325000", "104009.785000", "104010.245000", "104010.705000", "104011.165000", "104011.625000", "104012.085000", "104012.545000", "104013.005000", "104013.465000", "104013.925000", "104014.385000", "104014.845000", "104015.305000", "104015.765000", "104016.225000", "104016.685000", "104017.145000", "104017.605000", "104018.065000", "104018.525000", "104018.985000", "104019.445000", "104019.905000", "104020.365000", "104020.825000", "104021.285000", "104021.745000", "104022.205000", "104022.665000", "104023.125000", "104023.585000", "104024.045000", "104024.505000", "104024.965000", "104025.425000", "104025.885000", "104026.345000", "104026.805000", "104027.265000", "104027.725000", "104028.185000", "104028.645000", "104029.105000", "104029.565000", "104030.025000", "104030.485000", "104030.945000", "104031.405000", "104031.865000", "104032.325000", "104032.785000", "104033.245000", "104033.705000", "104034.165000", "104034.625000", "104035.085000", "104035.545000", "104036.005000", "104036.465000", "104036.925000", "104037.385000", "104037.845000", "104038.305000", "104038.765000", "104039.225000", "104039.685000", "104040.145000", "104040.605000", "104041.065000", "104041.525000", "104041.985000", "104042.445000", "104042.905000", "104043.365000", "104043.825000", "104044.285000", "104044.745000", "104045.205000", "104045.665000", "104046.125000", "104046.585000", "104047.045000", "104047.505000", "104047.965000", "104048.425000", "104048.885000", "104049.345000", "104049.805000", "104050.265000", "104050.725000", "104051.185000", "104051.645000", "104052.105000", "104052.565000", "104053.025000", "104053.485000", "104053.945000", "104054.405000", "104054.865000", "104055.325000", "104055.785000", "104056.245000", "104056.705000", "104057.165000", "104057.625000", "104058.085000", "104058.545000", "104059.005000", "104059.465000", "104059.925000", "104100.385000", "104100.845000", "104101.305000", "104101.765000", "104102.225000", "104102.685000", "104103.145000", "104103.605000"],
