{
  "AcquisitionMatrixPE": 82,
  "AcquisitionNumber": 1,
  "AcquisitionTime": "10:25:30.905000",
  "BandwidthPerPixelPhaseEncode": 24.888,
  "BaseResolution": 82,
  "BodyPartExamined": "BRAIN",
  "ConsistencyInfo": "N4_VE11C_LATEST_20160120",
  "ConversionSoftware": "dcm2niix",
  "ConversionSoftwareVersion": "v1.0.20201102",
  "DerivedVendorReportedEchoSpacing": 0.00049,
  "DeviceSerialNumber": "66112",
  "DwellTime": 2e-06,
  "EchoTime": 0.0272,
  "EchoTrainLength": 82,
  "EffectiveEchoSpacing": 0.00049,
  "FlipAngle": 44,
  "ImageComments": "Unaliased MB8/PE3",
  "ImageOrientationPatientDICOM": [0.99441, -0.0728334, 0.0764442, 0.0831534, 0.986383, -0.141894],
  "ImageType": [
    "ORIGINAL",
    "PRIMARY",
    "M",
    "MB",
    "ND",
    "NORM",
    "MOSAIC"
],
  "ImagingFrequency": 123.252,
  "InPlanePhaseEncodingDirectionDICOM": "COL",
  "InstitutionAddress": "Maynard 3,Hanover,NH,US,03755",
  "InstitutionName": "Dartmouth College - PBS",
  "InstitutionalDepartmentName": "Department",
  "MRAcquisitionType": "2D",
  "MagneticFieldStrength": 3,
  "Manufacturer": "Siemens",
  "ManufacturersModelName": "Prisma",
  "Modality": "MR",
  "MultibandAccelerationFactor": 8,
  "PartialFourier": 1,
  "PatientPosition": "HFS",
  "PercentPhaseFOV": 100,
  "PercentSampling": 100,
  "PhaseEncodingDirection": "j-",
  "PhaseEncodingSteps": 82,
  "PhaseResolution": 1,
  "PixelBandwidth": 3050,
  "ProcedureStepDescription": "Wager_Wager^1076_spacetop",
  "ProtocolName": "func_run-04_task-social_acq-ap-mb8",
  "PulseSequenceDetails": "%CustomerSeq%\\cmrr_mbep2d_bold",
  "ReceiveCoilActiveElements": "HEA;HEP",
  "ReceiveCoilName": "Head_32",
  "ReconMatrixPE": 82,
  "RepetitionTime": 0.46,
  "SAR": 0.0881417,
  "ScanOptions": "FS",
  "ScanningSequence": "EP",
  "SequenceName": "epfid2d1_82",
  "SequenceVariant": "SK\\SS",
  "SeriesDescription": "func_run-04_task-social_acq-ap-mb8",
  "SeriesNumber": 18,
  "ShimSetting": [4144, -7698, -7356, 569, -70, -88, -41, 104],
  "SliceThickness": 2.7,
  "SliceTiming": [0, 0.2525, 0.0625, 0.315, 0.125, 0.3775, 0.1875, 0, 0.2525, 0.0625, 0.315, 0.125, 0.3775, 0.1875, 0, 0.2525, 0.0625, 0.315, 0.125, 0.3775, 0.1875, 0, 0.2525, 0.0625, 0.315, 0.125, 0.3775, 0.1875, 0, 0.2525, 0.0625, 0.315, 0.125, 0.3775, 0.1875, 0, 0.2525, 0.0625, 0.315, 0.125, 0.3775, 0.1875, 0, 0.2525, 0.0625, 0.315, 0.125, 0.3775, 0.1875, 0, 0.2525, 0.0625, 0.315, 0.125, 0.3775, 0.1875],
  "SoftwareVersions": "syngo MR E11",
  "SpacingBetweenSlices": 2.7,
  "StationName": "AWP66112",
  "TaskName": "social",
  "TotalReadoutTime": 0.03969,
  "TxRefAmp": 241.983,
  "WipMemBlock": "95757e1f-f36c-4c73-b98a-f2bf06b3fe95||Sequence: R016 ve11c/master r/e634e98; Dec 19 2017 11:00:25 by eja",
  "dcmmeta_affine": [
    [-2.6679298877716064, 0.22309450805187225, 0.1756853610277176, 99.65391540527344],
    [0.19540666043758392, 2.6463937759399414, -0.39813491702079773, -103.42015838623047],
    [0.20509420335292816, 0.3806910812854767, 2.6646995544433594, -119.4517822265625],
    [0.0, 0.0, 0.0, 1.0]
],
  "dcmmeta_reorient_transform": [
    [0.0, -1.0, 0.0, 81.0],
    [1.0, 0.0, 0.0, 0.0],
    [0.0, 0.0, 1.0, 0.0],
    [0.0, 0.0, 0.0, 1.0]
],
  "dcmmeta_shape": [82, 82, 56, 872],
  "dcmmeta_slice_dim": 2,
  "dcmmeta_version": 0.6,
  "global": {
    "const": {
      "AccessionNumber": "A003476",
      "AcquisitionMatrix": [82, 0, 0, 82],
      "AngioFlag": "N",
      "BitsAllocated": 16,
      "BitsStored": 16,
      "BodyPartExamined": "BRAIN",
      "Columns": 656,
      "EchoNumbers": 1,
      "EchoTime": 27.2,
      "EchoTrainLength": 82,
      "FlipAngle": 44.0,
      "HighBit": 15,
      "ImageOrientationPatient": [0.99441016787183, -0.0728333876851, 0.07644419972397, 0.08315340506405, 0.9863831004618, -0.1418939404965],
      "ImagePositionPatient": [-947.44854480947, -814.37103203557, -38.219503846591],
      "ImageType": [
        "ORIGINAL",
        "PRIMARY",
        "M",
        "MB",
        "ND",
        "NORM",
        "MOSAIC"
],
      "ImagedNucleus": "1H",
      "ImagingFrequency": 123.252213,
      "InPlanePhaseEncodingDirection": "COL",
      "MRAcquisitionType": "2D",
      "MagneticFieldStrength": 3.0,
      "Manufacturer": "SIEMENS",
      "ManufacturerModelName": "Prisma",
      "Modality": "MR",
      "NumberOfAverages": 1.0,
      "NumberOfPhaseEncodingSteps": 82,
      "PercentPhaseFieldOfView": 100.0,
      "PercentSampling": 100.0,
      "PerformedProcedureStepStartTime": "091228.159000",
      "PhotometricInterpretation": "MONOCHROME2",
      "PixelBandwidth": 3050.0,
      "PixelRepresentation": 0,
      "PixelSpacing": [2.6829268932343, 2.6829268932343],
      "ProtocolName": "func_run-04_task-social_acq-ap-mb8",
      "RepetitionTime": 460.0,
      "Rows": 656,
      "SAR": 0.08814165708643,
      "SamplesPerPixel": 1,
      "ScanOptions": "FS",
      "ScanningSequence": "EP",
      "SequenceName": "epfid2d1_82",
      "SequenceVariant": [
        "SK",
        "SS"
],
      "SeriesDescription": "func_run-04_task-social_acq-ap-mb8",
      "SeriesNumber": 18,
      "SeriesTime": "102545.409000",
      "SliceLocation": -96.155626372108,
      "SliceThickness": 2.7000000476837,
      "SmallestImagePixelValue": 0,
      "SoftwareVersions": "syngo MR E11",
      "SpacingBetweenSlices": 2.7000000172216,
      "SpecificCharacterSet": "ISO_IR 100",
      "StudyID": "1",
      "StudyTime": "091228.036000",
      "TransmitCoilName": "Body",
      "VariableFlipAngleFlag": "N",
      "WindowCenterWidthExplanation": "Algo1",
      "dBdt": 0.0},
    "slices": {}
  },
  "time": {
    "samples": {
      "AcquisitionNumber": [1, 2, 3, 4, 5, 6, 7, 8, 9, 10, 11, 12, 13, 14, 15, 16, 17, 18, 19, 20, 21, 22, 23, 24, 25, 26, 27, 28, 29, 30, 31, 32, 33, 34, 35, 36, 37, 38, 39, 40, 41, 42, 43, 44, 45, 46, 47, 48, 49, 50, 51, 52, 53, 54, 55, 56, 57, 58, 59, 60, 61, 62, 63, 64, 65, 66, 67, 68, 69, 70, 71, 72, 73, 74, 75, 76, 77, 78, 79, 80, 81, 82, 83, 84, 85, 86, 87, 88, 89, 90, 91, 92, 93, 94, 95, 96, 97, 98, 99, 100, 101, 102, 103, 104, 105, 106, 107, 108, 109, 110, 111, 112, 113, 114, 115, 116, 117, 118, 119, 120, 121, 122, 123, 124, 125, 126, 127, 128, 129, 130, 131, 132, 133, 134, 135, 136, 137, 138, 139, 140, 141, 142, 143, 144, 145, 146, 147, 148, 149, 150, 151, 152, 153, 154, 155, 156, 157, 158, 159, 160, 161, 162, 163, 164, 165, 166, 167, 168, 169, 170, 171, 172, 173, 174, 175, 176, 177, 178, 179, 180, 181, 182, 183, 184, 185, 186, 187, 188, 189, 190, 191, 192, 193, 194, 195, 196, 197, 198, 199, 200, 201, 202, 203, 204, 205, 206, 207, 208, 209, 210, 211, 212, 213, 214, 215, 216, 217, 218, 219, 220, 221, 222, 223, 224, 225, 226, 227, 228, 229, 230, 231, 232, 233, 234, 235, 236, 237, 238, 239, 240, 241, 242, 243, 244, 245, 246, 247, 248, 249, 250, 251, 252, 253, 254, 255, 256, 257, 258, 259, 260, 261, 262, 263, 264, 265, 266, 267, 268, 269, 270, 271, 272, 273, 274, 275, 276, 277, 278, 279, 280, 281, 282, 283, 284, 285, 286, 287, 288, 289, 290, 291, 292, 293, 294, 295, 296, 297, 298, 299, 300, 301, 302, 303, 304, 305, 306, 307, 308, 309, 310, 311, 312, 313, 314, 315, 316, 317, 318, 319, 320, 321, 322, 323, 324, 325, 326, 327, 328, 329, 330, 331, 332, 333, 334, 335, 336, 337, 338, 339, 340, 341, 342, 343, 344, 345, 346, 347, 348, 349, 350, 351, 352, 353, 354, 355, 356, 357, 358, 359, 360, 361, 362, 363, 364, 365, 366, 367, 368, 369, 370, 371, 372, 373, 374, 375, 376, 377, 378, 379, 380, 381, 382, 383, 384, 385, 386, 387, 388, 389, 390, 391, 392, 393, 394, 395, 396, 397, 398, 399, 400, 401, 402, 403, 404, 405, 406, 407, 408, 409, 410, 411, 412, 413, 414, 415, 416, 417, 418, 419, 420, 421, 422, 423, 424, 425, 426, 427, 428, 429, 430, 431, 432, 433, 434, 435, 436, 437, 438, 439, 440, 441, 442, 443, 444, 445, 446, 447, 448, 449, 450, 451, 452, 453, 454, 455, 456, 457, 458, 459, 460, 461, 462, 463, 464, 465, 466, 467, 468, 469, 470, 471, 472, 473, 474, 475, 476, 477, 478, 479, 480, 481, 482, 483, 484, 485, 486, 487, 488, 489, 490, 491, 492, 493, 494, 495, 496, 497, 498, 499, 500, 501, 502, 503, 504, 505, 506, 507, 508, 509, 510, 511, 512, 513, 514, 515, 516, 517, 518, 519, 520, 521, 522, 523, 524, 525, 526, 527, 528, 529, 530, 531, 532, 533, 534, 535, 536, 537, 538, 539, 540, 541, 542, 543, 544, 545, 546, 547, 548, 549, 550, 551, 552, 553, 554, 555, 556, 557, 558, 559, 560, 561, 562, 563, 564, 565, 566, 567, 568, 569, 570, 571, 572, 573, 574, 575, 576, 577, 578, 579, 580, 581, 582, 583, 584, 585, 586, 587, 588, 589, 590, 591, 592, 593, 594, 595, 596, 597, 598, 599, 600, 601, 602, 603, 604, 605, 606, 607, 608, 609, 610, 611, 612, 613, 614, 615, 616, 617, 618, 619, 620, 621, 622, 623, 624, 625, 626, 627, 628, 629, 630, 631, 632, 633, 634, 635, 636, 637, 638, 639, 640, 641, 642, 643, 644, 645, 646, 647, 648, 649, 650, 651, 652, 653, 654, 655, 656, 657, 658, 659, 660, 661, 662, 663, 664, 665, 666, 667, 668, 669, 670, 671, 672, 673, 674, 675, 676, 677, 678, 679, 680, 681, 682, 683, 684, 685, 686, 687, 688, 689, 690, 691, 692, 693, 694, 695, 696, 697, 698, 699, 700, 701, 702, 703, 704, 705, 706, 707, 708, 709, 710, 711, 712, 713, 714, 715, 716, 717, 718, 719, 720, 721, 722, 723, 724, 725, 726, 727, 728, 729, 730, 731, 732, 733, 734, 735, 736, 737, 738, 739, 740, 741, 742, 743, 744, 745, 746, 747, 748, 749, 750, 751, 752, 753, 754, 755, 756, 757, 758, 759, 760, 761, 762, 763, 764, 765, 766, 767, 768, 769, 770, 771, 772, 773, 774, 775, 776, 777, 778, 779, 780, 781, 782, 783, 784, 785, 786, 787, 788, 789, 790, 791, 792, 793, 794, 795, 796, 797, 798, 799, 800, 801, 802, 803, 804, 805, 806, 807, 808, 809, 810, 811, 812, 813, 814, 815, 816, 817, 818, 819, 820, 821, 822, 823, 824, 825, 826, 827, 828, 829, 830, 831, 832, 833, 834, 835, 836, 837, 838, 839, 840, 841, 842, 843, 844, 845, 846, 847, 848, 849, 850, 851, 852, 853, 854, 855, 856, 857, 858, 859, 860, 861, 862, 863, 864, 865, 866, 867, 868, 869, 870, 871, 872],
      "AcquisitionTime": ["102530.905000", "102531.365000", "102531.825000", "102532.285000", "102532.745000", "102533.205000", "102533.665000", "102534.125000", "102534.585000", "102535.045000", "102535.505000", "102535.965000", "102536.425000", "102536.885000", "102537.345000", "102537.805000", "102538.265000", "102538.725000", "102539.185000", "102539.645000", "102540.105000", "102540.565000", "102541.025000", "102541.485000", "102541.945000", "102542.405000", "102542.865000", "102543.325000", "102543.785000", "102544.245000", "102544.705000", "102545.165000", "102545.625000", "102546.085000", "102546.545000", "102547.005000", "102547.465000", "102547.925000", "102548.385000", "102548.845000", "102549.305000", "102549.765000", "102550.225000", "102550.685000", "102551.145000", "102551.605000", "102552.065000", "102552.525000", "102552.985000", "102553.445000", "102553.905000", "102554.365000", "102554.825000", "102555.285000", "102555.745000", "102556.205000", "102556.665000", "102557.125000", "102557.585000", "102558.045000", "102558.505000", "102558.965000", "102559.425000", "102559.885000", "102600.345000", "102600.805000", "102601.265000", "102601.725000", "102602.185000", "102602.645000", "102603.105000", "102603.565000", "102604.025000", "102604.485000", "102604.945000", "102605.405000", "102605.865000", "102606.325000", "102606.785000", "102607.245000", "102607.705000", "102608.165000", "102608.625000", "102609.085000", "102609.545000", "102610.005000", "102610.465000", "102610.925000", "102611.385000", "102611.845000", "102612.305000", "102612.765000", "102613.225000", "102613.685000", "102614.145000", "102614.605000", "102615.065000", "102615.525000", "102615.985000", "102616.445000", "102616.905000", "102617.365000", "102617.825000", "102618.285000", "102618.745000", "102619.205000", "102619.665000", "102620.125000", "102620.585000", "102621.045000", "102621.505000", "102621.965000", "102622.425000", "102622.885000", "102623.345000", "102623.805000", "102624.265000", "102624.725000", "102625.185000", "102625.645000", "102626.105000", "102626.565000", "102627.025000", "102627.485000", "102627.945000", "102628.405000", "102628.865000", "102629.325000", "102629.785000", "102630.245000", "102630.705000", "102631.165000", "102631.625000", "102632.085000", "102632.545000", "102633.005000", "102633.465000", "102633.925000", "102634.385000", "102634.845000", "102635.305000", "102635.765000", "102636.225000", "102636.685000", "102637.145000", "102637.605000", "102638.065000", "102638.525000", "102638.985000", "102639.445000", "102639.905000", "102640.365000", "102640.825000", "102641.285000", "102641.745000", "102642.205000", "102642.665000", "102643.125000", "102643.585000", "102644.045000", "102644.505000", "102644.965000", "102645.425000", "102645.885000", "102646.345000", "102646.805000", "102647.265000", "102647.725000", "102648.185000", "102648.645000", "102649.105000", "102649.565000", "102650.025000", "102650.485000", "102650.945000", "102651.405000", "102651.865000", "102652.325000", "102652.785000", "102653.245000", "102653.705000", "102654.165000", "102654.625000", "102655.085000", "102655.545000", "102656.005000", "102656.465000", "102656.925000", "102657.385000", "102657.845000", "102658.305000", "102658.765000", "102659.225000", "102659.685000", "102700.145000", "102700.605000", "102701.065000", "102701.525000", "102701.985000", "102702.445000", "102702.905000", "102703.365000", "102703.825000", "102704.285000", "102704.745000", "102705.205000", "102705.665000", "102706.125000", "102706.585000", "102707.045000", "102707.505000", "102707.965000", "102708.425000", "102708.885000", "102709.345000", "102709.805000", "102710.265000", "102710.725000", "102711.185000", "102711.645000", "102712.105000", "102712.565000", "102713.025000", "102713.485000", "102713.945000", "102714.405000", "102714.865000", "102715.325000", "102715.785000", "102716.245000", "102716.705000", "102717.165000", "102717.625000", "102718.085000", "102718.545000", "102719.005000", "102719.465000", "102719.925000", "102720.385000", "102720.845000", "102721.305000", "102721.765000", "102722.225000", "102722.685000", "102723.145000", "102723.605000", "102724.065000", "102724.525000", "102724.985000", "102725.445000", "102725.905000", "102726.365000", "102726.825000", "102727.285000", "102727.745000", "102728.205000", "102728.665000", "102729.125000", "102729.585000", "102730.045000", "102730.505000", "102730.965000", "102731.425000", "102731.885000", "102732.345000", "102732.805000", "102733.265000", "102733.725000", "102734.185000", "102734.645000", "102735.105000", "102735.565000", "102736.025000", "102736.485000", "102736.945000", "102737.405000", "102737.865000", "102738.325000", "102738.785000", "102739.245000", "102739.705000", "102740.165000", "102740.625000", "102741.085000", "102741.545000", "102742.005000", "102742.465000", "102742.925000", "102743.385000", "102743.845000", "102744.305000", "102744.765000", "102745.225000", "102745.685000", "102746.145000", "102746.605000", "102747.065000", "102747.525000", "102747.985000", "102748.445000", "102748.905000", "102749.365000", "102749.825000", "102750.285000", "102750.745000", "102751.205000", "102751.665000", "102752.125000", "102752.585000", "102753.045000", "102753.505000", "102753.965000", "102754.425000", "102754.885000", "102755.345000", "102755.805000", "102756.265000", "102756.725000", "102757.185000", "102757.645000", "102758.105000", "102758.565000", "102759.025000", "102759.485000", "102759.945000", "102800.405000", "102800.865000", "102801.325000", "102801.785000", "102802.245000", "102802.705000", "102803.165000", "102803.625000", "102804.085000", "102804.545000", "102805.005000", "102805.465000", "102805.925000", "102806.385000", "102806.845000", "102807.305000", "102807.765000", "102808.225000", "102808.685000", "102809.145000", "102809.605000", "102810.065000", "102810.525000", "102810.985000", "102811.445000", "102811.905000", "102812.365000", "102812.825000", "102813.285000", "102813.745000", "102814.205000", "102814.665000", "102815.125000", "102815.585000", "102816.045000", "102816.505000", "102816.965000", "102817.425000", "102817.885000", "102818.345000", "102818.805000", "102819.265000", "102819.725000", "102820.185000", "102820.645000", "102821.105000", "102821.565000", "102822.025000", "102822.485000", "102822.945000", "102823.405000", "102823.865000", "102824.325000", "102824.785000", "102825.245000", "102825.705000", "102826.165000", "102826.625000", "102827.085000", "102827.545000", "102828.005000", "102828.465000", "102828.925000", "102829.385000", "102829.845000", "102830.305000", "102830.765000", "102831.225000", "102831.685000", "102832.145000", "102832.605000", "102833.065000", "102833.525000", "102833.985000", "102834.445000", "102834.905000", "102835.365000", "102835.825000", "102836.285000", "102836.745000", "102837.205000", "102837.665000", "102838.125000", "102838.585000", "102839.045000", "102839.505000", "102839.965000", "102840.425000", "102840.885000", "102841.345000", "102841.805000", "102842.265000", "102842.725000", "102843.185000", "102843.645000", "102844.105000", "102844.565000", "102845.025000", "102845.485000", "102845.945000", "102846.405000", "102846.865000", "102847.325000", "102847.785000", "102848.245000", "102848.705000", "102849.165000", "102849.625000", "102850.085000", "102850.545000", "102851.005000", "102851.465000", "102851.925000", "102852.385000", "102852.845000", "102853.305000", "102853.765000", "102854.225000", "102854.685000", "102855.145000", "102855.605000", "102856.065000", "102856.525000", "102856.985000", "102857.445000", "102857.905000", "102858.365000", "102858.825000", "102859.285000", "102859.745000", "102900.205000", "102900.665000", "102901.125000", "102901.585000", "102902.045000", "102902.505000", "102902.965000", "102903.425000", "102903.885000", "102904.345000", "102904.805000", "102905.265000", "102905.725000", "102906.185000", "102906.645000", "102907.105000", "102907.565000", "102908.025000", "102908.485000", "102908.945000", "102909.405000", "102909.865000", "102910.325000", "102910.785000", "102911.245000", "102911.705000", "102912.165000", "102912.625000", "102913.085000", "102913.545000", "102914.005000", "102914.465000", "102914.925000", "102915.385000", "102915.845000", "102916.305000", "102916.765000", "102917.225000", "102917.685000", "102918.145000", "102918.605000", "102919.065000", "102919.525000", "102919.985000", "102920.445000", "102920.905000", "102921.365000", "102921.825000", "102922.285000", "102922.745000", "102923.205000", "102923.665000", "102924.125000", "102924.585000", "102925.045000", "102925.505000", "102925.965000", "102926.425000", "102926.885000", "102927.345000", "102927.805000", "102928.265000", "102928.725000", "102929.185000", "102929.645000", "102930.105000", "102930.565000", "102931.025000", "102931.485000", "102931.945000", "102932.405000", "102932.865000", "102933.325000", "102933.785000", "102934.245000", "102934.705000", "102935.165000", "102935.625000", "102936.085000", "102936.545000", "102937.005000", "102937.465000", "102937.925000", "102938.385000", "102938.845000", "102939.305000", "102939.765000", "102940.225000", "102940.685000", "102941.145000", "102941.605000", "102942.065000", "102942.525000", "102942.985000", "102943.445000", "102943.905000", "102944.365000", "102944.825000", "102945.285000", "102945.745000", "102946.205000", "102946.665000", "102947.125000", "102947.585000", "102948.045000", "102948.505000", "102948.965000", "102949.425000", "102949.885000", "102950.345000", "102950.805000", "102951.265000", "102951.725000", "102952.185000", "102952.645000", "102953.105000", "102953.565000", "102954.025000", "102954.485000", "102954.945000", "102955.405000", "102955.865000", "102956.325000", "102956.785000", "102957.245000", "102957.705000", "102958.165000", "102958.625000", "102959.085000", "102959.545000", "103000.005000", "103000.465000", "103000.925000", "103001.385000", "103001.845000", "103002.305000", "103002.765000", "103003.225000", "103003.685000", "103004.145000", "103004.605000", "103005.065000", "103005.525000", "103005.985000", "103006.445000", "103006.905000", "103007.365000", "103007.825000", "103008.285000", "103008.745000", "103009.205000", "103009.665000", "103010.125000", "103010.585000", "103011.045000", "103011.505000", "103011.965000", "103012.425000", "103012.885000", "103013.345000", "103013.805000", "103014.265000", "103014.725000", "103015.185000", "103015.645000", "103016.105000", "103016.565000", "103017.025000", "103017.485000", "103017.945000", "103018.405000", "103018.865000", "103019.325000", "103019.785000", "103020.245000", "103020.705000", "103021.165000", "103021.625000", "103022.085000", "103022.545000", "103023.005000", "103023.465000", "103023.925000", "103024.385000", "103024.845000", "103025.305000", "103025.765000", "103026.225000", "103026.685000", "103027.145000", "103027.605000", "103028.065000", "103028.525000", "103028.985000", "103029.445000", "103029.905000", "103030.365000", "103030.825000", "103031.285000", "103031.745000", "103032.205000", "103032.665000", "103033.125000", "103033.585000", "103034.045000", "103034.505000", "103034.965000", "103035.425000", "103035.885000", "103036.345000", "103036.805000", "103037.265000", "103037.725000", "103038.185000", "103038.645000", "103039.105000", "103039.565000", "103040.025000", "103040.485000", "103040.945000", "103041.405000", "103041.865000", "103042.325000", "103042.785000", "103043.245000", "103043.705000", "103044.165000", "103044.625000", "103045.085000", "103045.545000", "103046.005000", "103046.465000", "103046.925000", "103047.385000", "103047.845000", "103048.305000", "103048.765000", "103049.225000", "103049.685000", "103050.145000", "103050.605000", "103051.065000", "103051.525000", "103051.985000", "103052.445000", "103052.905000", "103053.365000", "103053.825000", "103054.285000", "103054.745000", "103055.205000", "103055.665000", "103056.125000", "103056.585000", "103057.045000", "103057.505000", "103057.965000", "103058.425000", "103058.885000", "103059.345000", "103059.805000", "103100.265000", "103100.725000", "103101.185000", "103101.645000", "103102.105000", "103102.565000", "103103.025000", "103103.485000", "103103.945000", "103104.405000", "103104.865000", "103105.325000", "103105.785000", "103106.245000", "103106.705000", "103107.165000", "103107.625000", "103108.085000", "103108.545000", "103109.005000", "103109.465000", "103109.925000", "103110.385000", "103110.845000", "103111.305000", "103111.765000", "103112.225000", "103112.685000", "103113.145000", "103113.605000", "103114.065000", "103114.525000", "103114.985000", "103115.445000", "103115.905000", "103116.365000", "103116.825000", "103117.285000", "103117.745000", "103118.205000", "103118.665000", "103119.125000", "103119.585000", "103120.045000", "103120.505000", "103120.965000", "103121.425000", "103121.885000", "103122.345000", "103122.805000", "103123.265000", "103123.725000", "103124.185000", "103124.645000", "103125.105000", "103125.565000", "103126.025000", "103126.485000", "103126.945000", "103127.405000", "103127.865000", "103128.325000", "103128.785000", "103129.245000", "103129.705000", "103130.165000", "103130.625000", "103131.085000", "103131.545000", "103132.005000", "103132.465000", "103132.925000", "103133.385000", "103133.845000", "103134.305000", "103134.765000", "103135.225000", "103135.685000", "103136.145000", "103136.605000", "103137.065000", "103137.525000", "103137.985000", "103138.445000", "103138.905000", "103139.365000", "103139.825000", "103140.285000", "103140.745000", "103141.205000", "103141.665000", "103142.125000", "103142.585000", "103143.045000", "103143.505000", "103143.965000", "103144.425000", "103144.885000", "103145.345000", "103145.805000", "103146.265000", "103146.725000", "103147.185000", "103147.645000", "103148.105000", "103148.565000", "103149.025000", "103149.485000", "103149.945000", "103150.405000", "103150.865000", "103151.325000", "103151.785000", "103152.245000", "103152.705000", "103153.165000", "103153.625000", "103154.085000", "103154.545000", "103155.005000", "103155.465000", "103155.925000", "103156.385000", "103156.845000", "103157.305000", "103157.765000", "103158.225000", "103158.685000", "103159.145000", "103159.605000", "103200.065000", "103200.525000", "103200.985000", "103201.445000", "103201.905000", "103202.365000", "103202.825000", "103203.285000", "103203.745000", "103204.205000", "103204.665000", "103205.125000", "103205.585000", "103206.045000", "103206.505000", "103206.965000", "103207.425000", "103207.885000", "103208.345000", "103208.805000", "103209.265000", "103209.725000", "103210.185000", "103210.645000", "103211.105000", "103211.565000"],
