{
  "AcquisitionMatrixPE": 82,
  "AcquisitionNumber": 1,
  "AcquisitionTime": "10:18:12.357500",
  "BandwidthPerPixelPhaseEncode": 24.888,
  "BaseResolution": 82,
  "BodyPartExamined": "BRAIN",
  "ConsistencyInfo": "N4_VE11C_LATEST_20160120",
  "ConversionSoftware": "dcm2niix",
  "ConversionSoftwareVersion": "v1.0.20201102",
  "DerivedVendorReportedEchoSpacing": 0.00049,
  "DeviceSerialNumber": "66112",
  "DwellTime": 2e-06,
  "EchoTime": 0.0272,
  "EchoTrainLength": 82,
  "EffectiveEchoSpacing": 0.00049,
  "FlipAngle": 44,
  "ImageComments": "Unaliased MB8/PE3",
  "ImageOrientationPatientDICOM": [0.99441, -0.0728334, 0.0764442, 0.0831534, 0.986383, -0.141894],
  "ImageType": [
    "ORIGINAL",
    "PRIMARY",
    "M",
    "MB",
    "ND",
    "NORM",
    "MOSAIC"
],
  "ImagingFrequency": 123.252,
  "InPlanePhaseEncodingDirectionDICOM": "COL",
  "InstitutionAddress": "Maynard 3,Hanover,NH,US,03755",
  "InstitutionName": "Dartmouth College - PBS",
  "InstitutionalDepartmentName": "Department",
  "MRAcquisitionType": "2D",
  "MagneticFieldStrength": 3,
  "Manufacturer": "Siemens",
  "ManufacturersModelName": "Prisma",
  "Modality": "MR",
  "MultibandAccelerationFactor": 8,
  "PartialFourier": 1,
  "PatientPosition": "HFS",
  "PercentPhaseFOV": 100,
  "PercentSampling": 100,
  "PhaseEncodingDirection": "j-",
  "PhaseEncodingSteps": 82,
  "PhaseResolution": 1,
  "PixelBandwidth": 3050,
  "ProcedureStepDescription": "Wager_Wager^1076_spacetop",
  "ProtocolName": "func_run-03_task-social_acq-ap-mb8",
  "PulseSequenceDetails": "%CustomerSeq%\\cmrr_mbep2d_bold",
  "ReceiveCoilActiveElements": "HEA;HEP",
  "ReceiveCoilName": "Head_32",
  "ReconMatrixPE": 82,
  "RepetitionTime": 0.46,
  "SAR": 0.0881417,
  "ScanOptions": "FS",
  "ScanningSequence": "EP",
  "SequenceName": "epfid2d1_82",
  "SequenceVariant": "SK\\SS",
  "SeriesDescription": "func_run-03_task-social_acq-ap-mb8",
  "SeriesNumber": 16,
  "ShimSetting": [4144, -7698, -7356, 569, -70, -88, -41, 104],
  "SliceThickness": 2.7,
  "SliceTiming": [0, 0.2525, 0.0625, 0.315, 0.125, 0.3775, 0.1875, 0, 0.2525, 0.0625, 0.315, 0.125, 0.3775, 0.1875, 0, 0.2525, 0.0625, 0.315, 0.125, 0.3775, 0.1875, 0, 0.2525, 0.0625, 0.315, 0.125, 0.3775, 0.1875, 0, 0.2525, 0.0625, 0.315, 0.125, 0.3775, 0.1875, 0, 0.2525, 0.0625, 0.315, 0.125, 0.3775, 0.1875, 0, 0.2525, 0.0625, 0.315, 0.125, 0.3775, 0.1875, 0, 0.2525, 0.0625, 0.315, 0.125, 0.3775, 0.1875],
  "SoftwareVersions": "syngo MR E11",
  "SpacingBetweenSlices": 2.7,
  "StationName": "AWP66112",
  "TaskName": "social",
  "TotalReadoutTime": 0.03969,
  "TxRefAmp": 241.983,
  "WipMemBlock": "f89433f3-2d29-4272-ade5-da81dd0a0e71||Sequence: R016 ve11c/master r/e634e98; Dec 19 2017 11:00:25 by eja",
  "dcmmeta_affine": [
    [-2.6679298877716064, 0.22309450805187225, 0.1756853610277176, 99.65391540527344],
    [0.19540666043758392, 2.6463937759399414, -0.39813491702079773, -103.42015838623047],
    [0.20509420335292816, 0.3806910812854767, 2.6646995544433594, -119.4517822265625],
    [0.0, 0.0, 0.0, 1.0]
],
  "dcmmeta_reorient_transform": [
    [0.0, -1.0, 0.0, 81.0],
    [1.0, 0.0, 0.0, 0.0],
    [0.0, 0.0, 1.0, 0.0],
    [0.0, 0.0, 0.0, 1.0]
],
  "dcmmeta_shape": [82, 82, 56, 872],
  "dcmmeta_slice_dim": 2,
  "dcmmeta_version": 0.6,
  "global": {
    "const": {
      "AccessionNumber": "A003476",
      "AcquisitionMatrix": [82, 0, 0, 82],
      "AngioFlag": "N",
      "BitsAllocated": 16,
      "BitsStored": 16,
      "BodyPartExamined": "BRAIN",
      "Columns": 656,
      "EchoNumbers": 1,
      "EchoTime": 27.2,
      "EchoTrainLength": 82,
      "FlipAngle": 44.0,
      "HighBit": 15,
      "ImageOrientationPatient": [0.99441016787183, -0.0728333876851, 0.07644419972397, 0.08315340506405, 0.9863831004618, -0.1418939404965],
      "ImagePositionPatient": [-947.44854480947, -814.37103203557, -38.219503846591],
      "ImageType": [
        "ORIGINAL",
        "PRIMARY",
        "M",
        "MB",
        "ND",
        "NORM",
        "MOSAIC"
],
      "ImagedNucleus": "1H",
      "ImagingFrequency": 123.252206,
      "InPlanePhaseEncodingDirection": "COL",
      "MRAcquisitionType": "2D",
      "MagneticFieldStrength": 3.0,
      "Manufacturer": "SIEMENS",
      "ManufacturerModelName": "Prisma",
      "Modality": "MR",
      "NumberOfAverages": 1.0,
      "NumberOfPhaseEncodingSteps": 82,
      "PercentPhaseFieldOfView": 100.0,
      "PercentSampling": 100.0,
      "PerformedProcedureStepStartTime": "091228.159000",
      "PhotometricInterpretation": "MONOCHROME2",
      "PixelBandwidth": 3050.0,
      "PixelRepresentation": 0,
      "PixelSpacing": [2.6829268932343, 2.6829268932343],
      "ProtocolName": "func_run-03_task-social_acq-ap-mb8",
      "RepetitionTime": 460.0,
      "Rows": 656,
      "SAR": 0.08814165708643,
      "SamplesPerPixel": 1,
      "ScanOptions": "FS",
      "ScanningSequence": "EP",
      "SequenceName": "epfid2d1_82",
      "SequenceVariant": [
        "SK",
        "SS"
],
      "SeriesDescription": "func_run-03_task-social_acq-ap-mb8",
      "SeriesNumber": 16,
      "SeriesTime": "101825.346000",
      "SliceLocation": -96.155626372108,
      "SliceThickness": 2.7000000476837,
      "SmallestImagePixelValue": 0,
      "SoftwareVersions": "syngo MR E11",
      "SpacingBetweenSlices": 2.7000000172216,
      "SpecificCharacterSet": "ISO_IR 100",
      "StudyID": "1",
      "StudyTime": "091228.036000",
      "TransmitCoilName": "Body",
      "VariableFlipAngleFlag": "N",
      "WindowCenterWidthExplanation": "Algo1",
      "dBdt": 0.0},
    "slices": {}
  },
  "time": {
    "samples": {
      "AcquisitionNumber": [1, 2, 3, 4, 5, 6, 7, 8, 9, 10, 11, 12, 13, 14, 15, 16, 17, 18, 19, 20, 21, 22, 23, 24, 25, 26, 27, 28, 29, 30, 31, 32, 33, 34, 35, 36, 37, 38, 39, 40, 41, 42, 43, 44, 45, 46, 47, 48, 49, 50, 51, 52, 53, 54, 55, 56, 57, 58, 59, 60, 61, 62, 63, 64, 65, 66, 67, 68, 69, 70, 71, 72, 73, 74, 75, 76, 77, 78, 79, 80, 81, 82, 83, 84, 85, 86, 87, 88, 89, 90, 91, 92, 93, 94, 95, 96, 97, 98, 99, 100, 101, 102, 103, 104, 105, 106, 107, 108, 109, 110, 111, 112, 113, 114, 115, 116, 117, 118, 119, 120, 121, 122, 123, 124, 125, 126, 127, 128, 129, 130, 131, 132, 133, 134, 135, 136, 137, 138, 139, 140, 141, 142, 143, 144, 145, 146, 147, 148, 149, 150, 151, 152, 153, 154, 155, 156, 157, 158, 159, 160, 161, 162, 163, 164, 165, 166, 167, 168, 169, 170, 171, 172, 173, 174, 175, 176, 177, 178, 179, 180, 181, 182, 183, 184, 185, 186, 187, 188, 189, 190, 191, 192, 193, 194, 195, 196, 197, 198, 199, 200, 201, 202, 203, 204, 205, 206, 207, 208, 209, 210, 211, 212, 213, 214, 215, 216, 217, 218, 219, 220, 221, 222, 223, 224, 225, 226, 227, 228, 229, 230, 231, 232, 233, 234, 235, 236, 237, 238, 239, 240, 241, 242, 243, 244, 245, 246, 247, 248, 249, 250, 251, 252, 253, 254, 255, 256, 257, 258, 259, 260, 261, 262, 263, 264, 265, 266, 267, 268, 269, 270, 271, 272, 273, 274, 275, 276, 277, 278, 279, 280, 281, 282, 283, 284, 285, 286, 287, 288, 289, 290, 291, 292, 293, 294, 295, 296, 297, 298, 299, 300, 301, 302, 303, 304, 305, 306, 307, 308, 309, 310, 311, 312, 313, 314, 315, 316, 317, 318, 319, 320, 321, 322, 323, 324, 325, 326, 327, 328, 329, 330, 331, 332, 333, 334, 335, 336, 337, 338, 339, 340, 341, 342, 343, 344, 345, 346, 347, 348, 349, 350, 351, 352, 353, 354, 355, 356, 357, 358, 359, 360, 361, 362, 363, 364, 365, 366, 367, 368, 369, 370, 371, 372, 373, 374, 375, 376, 377, 378, 379, 380, 381, 382, 383, 384, 385, 386, 387, 388, 389, 390, 391, 392, 393, 394, 395, 396, 397, 398, 399, 400, 401, 402, 403, 404, 405, 406, 407, 408, 409, 410, 411, 412, 413, 414, 415, 416, 417, 418, 419, 420, 421, 422, 423, 424, 425, 426, 427, 428, 429, 430, 431, 432, 433, 434, 435, 436, 437, 438, 439, 440, 441, 442, 443, 444, 445, 446, 447, 448, 449, 450, 451, 452, 453, 454, 455, 456, 457, 458, 459, 460, 461, 462, 463, 464, 465, 466, 467, 468, 469, 470, 471, 472, 473, 474, 475, 476, 477, 478, 479, 480, 481, 482, 483, 484, 485, 486, 487, 488, 489, 490, 491, 492, 493, 494, 495, 496, 497, 498, 499, 500, 501, 502, 503, 504, 505, 506, 507, 508, 509, 510, 511, 512, 513, 514, 515, 516, 517, 518, 519, 520, 521, 522, 523, 524, 525, 526, 527, 528, 529, 530, 531, 532, 533, 534, 535, 536, 537, 538, 539, 540, 541, 542, 543, 544, 545, 546, 547, 548, 549, 550, 551, 552, 553, 554, 555, 556, 557, 558, 559, 560, 561, 562, 563, 564, 565, 566, 567, 568, 569, 570, 571, 572, 573, 574, 575, 576, 577, 578, 579, 580, 581, 582, 583, 584, 585, 586, 587, 588, 589, 590, 591, 592, 593, 594, 595, 596, 597, 598, 599, 600, 601, 602, 603, 604, 605, 606, 607, 608, 609, 610, 611, 612, 613, 614, 615, 616, 617, 618, 619, 620, 621, 622, 623, 624, 625, 626, 627, 628, 629, 630, 631, 632, 633, 634, 635, 636, 637, 638, 639, 640, 641, 642, 643, 644, 645, 646, 647, 648, 649, 650, 651, 652, 653, 654, 655, 656, 657, 658, 659, 660, 661, 662, 663, 664, 665, 666, 667, 668, 669, 670, 671, 672, 673, 674, 675, 676, 677, 678, 679, 680, 681, 682, 683, 684, 685, 686, 687, 688, 689, 690, 691, 692, 693, 694, 695, 696, 697, 698, 699, 700, 701, 702, 703, 704, 705, 706, 707, 708, 709, 710, 711, 712, 713, 714, 715, 716, 717, 718, 719, 720, 721, 722, 723, 724, 725, 726, 727, 728, 729, 730, 731, 732, 733, 734, 735, 736, 737, 738, 739, 740, 741, 742, 743, 744, 745, 746, 747, 748, 749, 750, 751, 752, 753, 754, 755, 756, 757, 758, 759, 760, 761, 762, 763, 764, 765, 766, 767, 768, 769, 770, 771, 772, 773, 774, 775, 776, 777, 778, 779, 780, 781, 782, 783, 784, 785, 786, 787, 788, 789, 790, 791, 792, 793, 794, 795, 796, 797, 798, 799, 800, 801, 802, 803, 804, 805, 806, 807, 808, 809, 810, 811, 812, 813, 814, 815, 816, 817, 818, 819, 820, 821, 822, 823, 824, 825, 826, 827, 828, 829, 830, 831, 832, 833, 834, 835, 836, 837, 838, 839, 840, 841, 842, 843, 844, 845, 846, 847, 848, 849, 850, 851, 852, 853, 854, 855, 856, 857, 858, 859, 860, 861, 862, 863, 864, 865, 866, 867, 868, 869, 870, 871, 872],
      "AcquisitionTime": ["101812.357500", "101812.817500", "101813.277500", "101813.737500", "101814.197500", "101814.657500", "101815.117500", "101815.577500", "101816.037500", "101816.497500", "101816.957500", "101817.417500", "101817.877500", "101818.337500", "101818.797500", "101819.257500", "101819.717500", "101820.177500", "101820.637500", "101821.097500", "101821.557500", "101822.017500", "101822.477500", "101822.937500", "101823.397500", "101823.857500", "101824.317500", "101824.777500", "101825.237500", "101825.697500", "101826.157500", "101826.617500", "101827.077500", "101827.537500", "101827.997500", "101828.457500", "101828.917500", "101829.377500", "101829.837500", "101830.297500", "101830.757500", "101831.217500", "101831.677500", "101832.137500", "101832.597500", "101833.057500", "101833.517500", "101833.977500", "101834.437500", "101834.897500", "101835.357500", "101835.817500", "101836.277500", "101836.737500", "101837.197500", "101837.657500", "101838.117500", "101838.577500", "101839.037500", "101839.497500", "101839.957500", "101840.417500", "101840.877500", "101841.337500", "101841.797500", "101842.257500", "101842.717500", "101843.177500", "101843.637500", "101844.097500", "101844.557500", "101845.017500", "101845.477500", "101845.937500", "101846.397500", "101846.857500", "101847.317500", "101847.777500", "101848.237500", "101848.697500", "101849.157500", "101849.617500", "101850.077500", "101850.537500", "101850.997500", "101851.457500", "101851.917500", "101852.377500", "101852.837500", "101853.297500", "101853.757500", "101854.217500", "101854.677500", "101855.137500", "101855.597500", "101856.057500", "101856.517500", "101856.977500", "101857.437500", "101857.897500", "101858.357500", "101858.817500", "101859.277500", "101859.737500", "101900.197500", "101900.657500", "101901.117500", "101901.577500", "101902.037500", "101902.497500", "101902.957500", "101903.417500", "101903.877500", "101904.337500", "101904.797500", "101905.257500", "101905.717500", "101906.177500", "101906.637500", "101907.097500", "101907.557500", "101908.017500", "101908.477500", "101908.937500", "101909.397500", "101909.857500", "101910.317500", "101910.777500", "101911.237500", "101911.697500", "101912.157500", "101912.617500", "101913.077500", "101913.537500", "101913.997500", "101914.457500", "101914.917500", "101915.377500", "101915.837500", "101916.297500", "101916.757500", "101917.217500", "101917.677500", "101918.137500", "101918.597500", "101919.057500", "101919.517500", "101919.977500", "101920.437500", "101920.897500", "101921.357500", "101921.817500", "101922.277500", "101922.737500", "101923.197500", "101923.657500", "101924.117500", "101924.577500", "101925.037500", "101925.497500", "101925.957500", "101926.417500", "101926.877500", "101927.337500", "101927.797500", "101928.257500", "101928.717500", "101929.177500", "101929.637500", "101930.097500", "101930.557500", "101931.017500", "101931.477500", "101931.937500", "101932.397500", "101932.857500", "101933.317500", "101933.777500", "101934.237500", "101934.697500", "101935.157500", "101935.617500", "101936.077500", "101936.537500", "101936.997500", "101937.457500", "101937.917500", "101938.377500", "101938.837500", "101939.297500", "101939.757500", "101940.217500", "101940.677500", "101941.137500", "101941.597500", "101942.057500", "101942.517500", "101942.977500", "101943.437500", "101943.897500", "101944.357500", "101944.817500", "101945.277500", "101945.737500", "101946.197500", "101946.657500", "101947.117500", "101947.577500", "101948.037500", "101948.497500", "101948.957500", "101949.417500", "101949.877500", "101950.337500", "101950.797500", "101951.257500", "101951.717500", "101952.177500", "101952.637500", "101953.097500", "101953.557500", "101954.017500", "101954.477500", "101954.937500", "101955.397500", "101955.857500", "101956.317500", "101956.777500", "101957.237500", "101957.697500", "101958.157500", "101958.617500", "101959.077500", "101959.537500", "101959.997500", "102000.457500", "102000.917500", "102001.377500", "102001.837500", "102002.297500", "102002.757500", "102003.217500", "102003.677500", "102004.137500", "102004.597500", "102005.057500", "102005.517500", "102005.977500", "102006.437500", "102006.897500", "102007.357500", "102007.817500", "102008.277500", "102008.737500", "102009.197500", "102009.657500", "102010.117500", "102010.577500", "102011.037500", "102011.497500", "102011.957500", "102012.417500", "102012.877500", "102013.337500", "102013.797500", "102014.257500", "102014.717500", "102015.177500", "102015.637500", "102016.097500", "102016.557500", "102017.017500", "102017.477500", "102017.937500", "102018.397500", "102018.857500", "102019.317500", "102019.777500", "102020.237500", "102020.697500", "102021.157500", "102021.617500", "102022.077500", "102022.537500", "102022.997500", "102023.457500", "102023.917500", "102024.377500", "102024.837500", "102025.297500", "102025.757500", "102026.217500", "102026.677500", "102027.137500", "102027.597500", "102028.057500", "102028.517500", "102028.977500", "102029.437500", "102029.897500", "102030.357500", "102030.817500", "102031.277500", "102031.737500", "102032.197500", "102032.657500", "102033.117500", "102033.577500", "102034.037500", "102034.497500", "102034.957500", "102035.417500", "102035.877500", "102036.337500", "102036.797500", "102037.257500", "102037.717500", "102038.177500", "102038.637500", "102039.097500", "102039.557500", "102040.017500", "102040.477500", "102040.937500", "102041.397500", "102041.857500", "102042.317500", "102042.777500", "102043.237500", "102043.697500", "102044.157500", "102044.617500", "102045.077500", "102045.537500", "102045.997500", "102046.457500", "102046.917500", "102047.377500", "102047.837500", "102048.297500", "102048.757500", "102049.217500", "102049.677500", "102050.137500", "102050.597500", "102051.057500", "102051.517500", "102051.977500", "102052.437500", "102052.897500", "102053.357500", "102053.817500", "102054.277500", "102054.737500", "102055.197500", "102055.657500", "102056.117500", "102056.577500", "102057.037500", "102057.497500", "102057.957500", "102058.417500", "102058.877500", "102059.337500", "102059.797500", "102100.257500", "102100.717500", "102101.177500", "102101.637500", "102102.097500", "102102.557500", "102103.017500", "102103.477500", "102103.937500", "102104.397500", "102104.857500", "102105.317500", "102105.777500", "102106.237500", "102106.697500", "102107.157500", "102107.617500", "102108.077500", "102108.537500", "102108.997500", "102109.457500", "102109.917500", "102110.377500", "102110.837500", "102111.297500", "102111.757500", "102112.217500", "102112.677500", "102113.137500", "102113.597500", "102114.057500", "102114.517500", "102114.977500", "102115.437500", "102115.897500", "102116.357500", "102116.817500", "102117.277500", "102117.737500", "102118.197500", "102118.657500", "102119.117500", "102119.577500", "102120.037500", "102120.497500", "102120.957500", "102121.417500", "102121.877500", "102122.337500", "102122.797500", "102123.257500", "102123.717500", "102124.177500", "102124.637500", "102125.097500", "102125.557500", "102126.017500", "102126.477500", "102126.937500", "102127.397500", "102127.857500", "102128.317500", "102128.777500", "102129.237500", "102129.697500", "102130.157500", "102130.617500", "102131.077500", "102131.537500", "102131.997500", "102132.457500", "102132.917500", "102133.377500", "102133.837500", "102134.297500", "102134.757500", "102135.217500", "102135.677500", "102136.137500", "102136.597500", "102137.057500", "102137.517500", "102137.977500", "102138.437500", "102138.897500", "102139.357500", "102139.817500", "102140.277500", "102140.737500", "102141.197500", "102141.657500", "102142.117500", "102142.577500", "102143.037500", "102143.497500", "102143.957500", "102144.417500", "102144.877500", "102145.337500", "102145.797500", "102146.257500", "102146.717500", "102147.177500", "102147.637500", "102148.097500", "102148.557500", "102149.017500", "102149.477500", "102149.937500", "102150.397500", "102150.857500", "102151.317500", "102151.777500", "102152.237500", "102152.697500", "102153.157500", "102153.617500", "102154.077500", "102154.537500", "102154.997500", "102155.457500", "102155.917500", "102156.377500", "102156.837500", "102157.297500", "102157.757500", "102158.217500", "102158.677500", "102159.137500", "102159.597500", "102200.057500", "102200.517500", "102200.977500", "102201.437500", "102201.897500", "102202.357500", "102202.817500", "102203.277500", "102203.737500", "102204.197500", "102204.657500", "102205.117500", "102205.577500", "102206.037500", "102206.497500", "102206.957500", "102207.417500", "102207.877500", "102208.337500", "102208.797500", "102209.257500", "102209.717500", "102210.177500", "102210.637500", "102211.097500", "102211.557500", "102212.017500", "102212.477500", "102212.937500", "102213.397500", "102213.857500", "102214.317500", "102214.777500", "102215.237500", "102215.697500", "102216.157500", "102216.617500", "102217.077500", "102217.537500", "102217.997500", "102218.457500", "102218.917500", "102219.377500", "102219.837500", "102220.297500", "102220.757500", "102221.217500", "102221.677500", "102222.137500", "102222.597500", "102223.057500", "102223.517500", "102223.977500", "102224.437500", "102224.897500", "102225.357500", "102225.817500", "102226.277500", "102226.737500", "102227.197500", "102227.657500", "102228.117500", "102228.577500", "102229.037500", "102229.497500", "102229.957500", "102230.417500", "102230.877500", "102231.337500", "102231.797500", "102232.257500", "102232.717500", "102233.177500", "102233.637500", "102234.097500", "102234.557500", "102235.017500", "102235.477500", "102235.937500", "102236.397500", "102236.857500", "102237.317500", "102237.777500", "102238.237500", "102238.697500", "102239.157500", "102239.617500", "102240.077500", "102240.537500", "102240.997500", "102241.457500", "102241.917500", "102242.377500", "102242.837500", "102243.297500", "102243.757500", "102244.217500", "102244.677500", "102245.137500", "102245.597500", "102246.057500", "102246.517500", "102246.977500", "102247.437500", "102247.897500", "102248.357500", "102248.817500", "102249.277500", "102249.737500", "102250.197500", "102250.657500", "102251.117500", "102251.577500", "102252.037500", "102252.497500", "102252.957500", "102253.417500", "102253.877500", "102254.337500", "102254.797500", "102255.257500", "102255.717500", "102256.177500", "102256.637500", "102257.097500", "102257.557500", "102258.017500", "102258.477500", "102258.937500", "102259.397500", "102259.857500", "102300.317500", "102300.777500", "102301.237500", "102301.697500", "102302.157500", "102302.617500", "102303.077500", "102303.537500", "102303.997500", "102304.457500", "102304.917500", "102305.377500", "102305.837500", "102306.297500", "102306.757500", "102307.217500", "102307.677500", "102308.137500", "102308.597500", "102309.057500", "102309.517500", "102309.977500", "102310.437500", "102310.897500", "102311.357500", "102311.817500", "102312.277500", "102312.737500", "102313.197500", "102313.657500", "102314.117500", "102314.577500", "102315.037500", "102315.497500", "102315.957500", "102316.417500", "102316.877500", "102317.337500", "102317.797500", "102318.257500", "102318.717500", "102319.177500", "102319.637500", "102320.097500", "102320.557500", "102321.017500", "102321.477500", "102321.937500", "102322.397500", "102322.857500", "102323.317500", "102323.777500", "102324.237500", "102324.697500", "102325.157500", "102325.617500", "102326.077500", "102326.537500", "102326.997500", "102327.457500", "102327.917500", "102328.377500", "102328.837500", "102329.297500", "102329.757500", "102330.217500", "102330.677500", "102331.137500", "102331.597500", "102332.057500", "102332.517500", "102332.977500", "102333.437500", "102333.897500", "102334.357500", "102334.817500", "102335.277500", "102335.737500", "102336.197500", "102336.657500", "102337.117500", "102337.577500", "102338.037500", "102338.497500", "102338.957500", "102339.417500", "102339.877500", "102340.337500", "102340.797500", "102341.257500", "102341.717500", "102342.177500", "102342.637500", "102343.097500", "102343.557500", "102344.017500", "102344.477500", "102344.937500", "102345.397500", "102345.857500", "102346.317500", "102346.777500", "102347.237500", "102347.697500", "102348.157500", "102348.617500", "102349.077500", "102349.537500", "102349.997500", "102350.457500", "102350.917500", "102351.377500", "102351.837500", "102352.297500", "102352.757500", "102353.217500", "102353.677500", "102354.137500", "102354.597500", "102355.057500", "102355.517500", "102355.977500", "102356.437500", "102356.897500", "102357.357500", "102357.817500", "102358.277500", "102358.737500", "102359.197500", "102359.657500", "102400.117500", "102400.577500", "102401.037500", "102401.497500", "102401.957500", "102402.417500", "102402.877500", "102403.337500", "102403.797500", "102404.257500", "102404.717500", "102405.177500", "102405.637500", "102406.097500", "102406.557500", "102407.017500", "102407.477500", "102407.937500", "102408.397500", "102408.857500", "102409.317500", "102409.777500", "102410.237500", "102410.697500", "102411.157500", "102411.617500", "102412.077500", "102412.537500", "102412.997500", "102413.457500", "102413.917500", "102414.377500", "102414.837500", "102415.297500", "102415.757500", "102416.217500", "102416.677500", "102417.137500", "102417.597500", "102418.057500", "102418.517500", "102418.977500", "102419.437500", "102419.897500", "102420.357500", "102420.817500", "102421.277500", "102421.737500", "102422.197500", "102422.657500", "102423.117500", "102423.577500", "102424.037500", "102424.497500", "102424.957500", "102425.417500", "102425.877500", "102426.337500", "102426.797500", "102427.257500", "102427.717500", "102428.177500", "102428.637500", "102429.097500", "102429.557500", "102430.017500", "102430.477500", "102430.937500", "102431.397500", "102431.857500", "102432.317500", "102432.777500", "102433.237500", "102433.697500", "102434.157500", "102434.617500", "102435.077500", "102435.537500", "102435.997500", "102436.457500", "102436.917500", "102437.377500", "102437.837500", "102438.297500", "102438.757500", "102439.217500", "102439.677500", "102440.137500", "102440.597500", "102441.057500", "102441.517500", "102441.977500", "102442.437500", "102442.897500", "102443.357500", "102443.817500", "102444.277500", "102444.737500", "102445.197500", "102445.657500", "102446.117500", "102446.577500", "102447.037500", "102447.497500", "102447.957500", "102448.417500", "102448.877500", "102449.337500", "102449.797500", "102450.257500", "102450.717500", "102451.177500", "102451.637500", "102452.097500", "102452.557500", "102453.017500"],
