{
  "AcquisitionMatrixPE": 82,
  "AcquisitionNumber": 1,
  "AcquisitionTime": "13:20:20.817500",
  "BandwidthPerPixelPhaseEncode": 24.888,
  "BaseResolution": 82,
  "BodyPartExamined": "BRAIN",
  "ConsistencyInfo": "N4_VE11E_LATEST_20181129",
  "ConversionSoftware": "dcm2niix",
  "ConversionSoftwareVersion": "v1.0.20201102",
  "DerivedVendorReportedEchoSpacing": 0.00049,
  "DeviceSerialNumber": "66112",
  "DwellTime": 2e-06,
  "EchoTime": 0.0272,
  "EchoTrainLength": 82,
  "EffectiveEchoSpacing": 0.00049,
  "FlipAngle": 44,
  "ImageComments": "Unaliased MB8/PE3",
  "ImageOrientationPatientDICOM": [0.999312, 0.0205425, 0.0308868, -0.0249462, 0.988413, 0.149724],
  "ImageType": [
    "ORIGINAL",
    "PRIMARY",
    "M",
    "MB",
    "ND",
    "NORM",
    "MOSAIC"
],
  "ImagingFrequency": 123.259,
  "InPlanePhaseEncodingDirectionDICOM": "COL",
  "InstitutionAddress": "Maynard 3,Hanover,NH,US,03755",
  "InstitutionName": "Dartmouth College - PBS",
  "InstitutionalDepartmentName": "Department",
  "MRAcquisitionType": "2D",
  "MagneticFieldStrength": 3,
  "Manufacturer": "Siemens",
  "ManufacturersModelName": "Prisma",
  "Modality": "MR",
  "MultibandAccelerationFactor": 8,
  "PartialFourier": 1,
  "PatientPosition": "HFS",
  "PercentPhaseFOV": 100,
  "PercentSampling": 100,
  "PhaseEncodingDirection": "j-",
  "PhaseEncodingSteps": 82,
  "PhaseResolution": 1,
  "PixelBandwidth": 3050,
  "ProcedureStepDescription": "Wager_Wager^1076_spacetop",
  "ProtocolName": "func_run-01_task-faces_acq-ap-mb8",
  "PulseSequenceDetails": "%CustomerSeq%\\cmrr_mbep2d_bold",
  "ReceiveCoilActiveElements": "HEA;HEP",
  "ReceiveCoilName": "Head_32",
  "ReconMatrixPE": 82,
  "RepetitionTime": 0.46,
  "SAR": 0.0862041,
  "ScanOptions": "FS",
  "ScanningSequence": "EP",
  "SequenceName": "epfid2d1_82",
  "SequenceVariant": "SK\\SS",
  "SeriesDescription": "func_run-01_task-faces_acq-ap-mb8",
  "SeriesNumber": 18,
  "ShimSetting": [4222, -7804, -7218, 292, -55, -65, -107, 80],
  "SliceThickness": 2.7,
  "SliceTiming": [0, 0.25, 0.0625, 0.3125, 0.125, 0.3775, 0.1875, 0, 0.25, 0.0625, 0.3125, 0.125, 0.3775, 0.1875, 0, 0.25, 0.0625, 0.3125, 0.125, 0.3775, 0.1875, 0, 0.25, 0.0625, 0.3125, 0.125, 0.3775, 0.1875, 0, 0.25, 0.0625, 0.3125, 0.125, 0.3775, 0.1875, 0, 0.25, 0.0625, 0.3125, 0.125, 0.3775, 0.1875, 0, 0.25, 0.0625, 0.3125, 0.125, 0.3775, 0.1875, 0, 0.25, 0.0625, 0.3125, 0.125, 0.3775, 0.1875],
  "SoftwareVersions": "syngo MR E11",
  "SpacingBetweenSlices": 2.7,
  "StationName": "AWP66112",
  "TaskName": "faces",
  "TotalReadoutTime": 0.03969,
  "TxRefAmp": 218.424,
  "WipMemBlock": "8c2b51f3-2b65-4386-80a3-834280f5f477||Sequence: R016 ve11e/master r/434b28f1; Aug  7 2019 18:53:46 by eja",
  "dcmmeta_affine": [
    [-2.6810803413391113, -0.06692880392074585, 0.07412362843751907, 120.0682373046875],
    [-0.055114131420850754, 2.6518397331237793, 0.4060581624507904, -104.01276397705078],
    [0.08286702632904053, -0.4016997516155243, 2.668262243270874, -49.03840637207031],
    [0.0, 0.0, 0.0, 1.0]
],
  "dcmmeta_reorient_transform": [
    [0.0, -1.0, 0.0, 81.0],
    [1.0, 0.0, 0.0, 0.0],
    [0.0, 0.0, 1.0, 0.0],
    [0.0, 0.0, 0.0, 1.0]
],
  "dcmmeta_shape": [82, 82, 56, 914],
  "dcmmeta_slice_dim": 2,
  "dcmmeta_version": 0.6,
  "global": {
    "const": {
      "AccessionNumber": "A004717",
      "AcquisitionMatrix": [82, 0, 0, 82],
      "AngioFlag": "N",
      "BitsAllocated": 16,
      "BitsStored": 16,
      "BodyPartExamined": "BRAIN",
      "Columns": 656,
      "EchoNumbers": 1,
      "EchoTime": 27.2,
      "EchoTrainLength": 82,
      "FlipAngle": 44.0,
      "HighBit": 15,
      "ImageOrientationPatient": [0.99931176796888, 0.02054253899688, 0.03088680123415, -0.0249461907202, 0.98841301001283, 0.14972444424987],
      "ImagePositionPatient": [-864.90851623697, -887.68205281619, -220.64674686121],
      "ImageType": [
        "ORIGINAL",
        "PRIMARY",
        "M",
        "MB",
        "ND",
        "NORM",
        "MOSAIC"
],
      "ImagedNucleus": "1H",
      "ImagingFrequency": 123.25908,
      "InPlanePhaseEncodingDirection": "COL",
      "MRAcquisitionType": "2D",
      "MagneticFieldStrength": 3.0,
      "Manufacturer": "SIEMENS",
      "ManufacturerModelName": "Prisma",
      "Modality": "MR",
      "NumberOfAverages": 1.0,
      "NumberOfPhaseEncodingSteps": 82,
      "PercentPhaseFieldOfView": 100.0,
      "PercentSampling": 100.0,
      "PerformedProcedureStepStartTime": "122807.605000",
      "PhotometricInterpretation": "MONOCHROME2",
      "PixelBandwidth": 3050.0,
      "PixelRepresentation": 0,
      "PixelSpacing": [2.6829268932343, 2.6829268932343],
      "ProtocolName": "func_run-01_task-faces_acq-ap-mb8",
      "RepetitionTime": 460.0,
      "Rows": 656,
      "SAR": 0.08620413207918,
      "SamplesPerPixel": 1,
      "ScanOptions": "FS",
      "ScanningSequence": "EP",
      "SequenceName": "epfid2d1_82",
      "SequenceVariant": [
        "SK",
        "SS"
],
      "SeriesDescription": "func_run-01_task-faces_acq-ap-mb8",
      "SeriesNumber": 18,
      "SeriesTime": "132048.777000",
      "SliceLocation": -60.80839101021,
      "SliceThickness": 2.7000000476837,
      "SmallestImagePixelValue": 0,
      "SoftwareVersions": "syngo MR E11",
      "SpacingBetweenSlices": 2.7000000693213,
      "SpecificCharacterSet": "ISO_IR 100",
      "StudyID": "1",
      "StudyTime": "122807.433000",
      "TransmitCoilName": "Body",
      "VariableFlipAngleFlag": "N",
      "WindowCenterWidthExplanation": "Algo1"
    },
    "slices": {}
  },
  "time": {
    "samples": {
      "AcquisitionNumber": [1, 2, 3, 4, 5, 6, 7, 8, 9, 10, 11, 12, 13, 14, 15, 16, 17, 18, 19, 20, 21, 22, 23, 24, 25, 26, 27, 28, 29, 30, 31, 32, 33, 34, 35, 36, 37, 38, 39, 40, 41, 42, 43, 44, 45, 46, 47, 48, 49, 50, 51, 52, 53, 54, 55, 56, 57, 58, 59, 60, 61, 62, 63, 64, 65, 66, 67, 68, 69, 70, 71, 72, 73, 74, 75, 76, 77, 78, 79, 80, 81, 82, 83, 84, 85, 86, 87, 88, 89, 90, 91, 92, 93, 94, 95, 96, 97, 98, 99, 100, 101, 102, 103, 104, 105, 106, 107, 108, 109, 110, 111, 112, 113, 114, 115, 116, 117, 118, 119, 120, 121, 122, 123, 124, 125, 126, 127, 128, 129, 130, 131, 132, 133, 134, 135, 136, 137, 138, 139, 140, 141, 142, 143, 144, 145, 146, 147, 148, 149, 150, 151, 152, 153, 154, 155, 156, 157, 158, 159, 160, 161, 162, 163, 164, 165, 166, 167, 168, 169, 170, 171, 172, 173, 174, 175, 176, 177, 178, 179, 180, 181, 182, 183, 184, 185, 186, 187, 188, 189, 190, 191, 192, 193, 194, 195, 196, 197, 198, 199, 200, 201, 202, 203, 204, 205, 206, 207, 208, 209, 210, 211, 212, 213, 214, 215, 216, 217, 218, 219, 220, 221, 222, 223, 224, 225, 226, 227, 228, 229, 230, 231, 232, 233, 234, 235, 236, 237, 238, 239, 240, 241, 242, 243, 244, 245, 246, 247, 248, 249, 250, 251, 252, 253, 254, 255, 256, 257, 258, 259, 260, 261, 262, 263, 264, 265, 266, 267, 268, 269, 270, 271, 272, 273, 274, 275, 276, 277, 278, 279, 280, 281, 282, 283, 284, 285, 286, 287, 288, 289, 290, 291, 292, 293, 294, 295, 296, 297, 298, 299, 300, 301, 302, 303, 304, 305, 306, 307, 308, 309, 310, 311, 312, 313, 314, 315, 316, 317, 318, 319, 320, 321, 322, 323, 324, 325, 326, 327, 328, 329, 330, 331, 332, 333, 334, 335, 336, 337, 338, 339, 340, 341, 342, 343, 344, 345, 346, 347, 348, 349, 350, 351, 352, 353, 354, 355, 356, 357, 358, 359, 360, 361, 362, 363, 364, 365, 366, 367, 368, 369, 370, 371, 372, 373, 374, 375, 376, 377, 378, 379, 380, 381, 382, 383, 384, 385, 386, 387, 388, 389, 390, 391, 392, 393, 394, 395, 396, 397, 398, 399, 400, 401, 402, 403, 404, 405, 406, 407, 408, 409, 410, 411, 412, 413, 414, 415, 416, 417, 418, 419, 420, 421, 422, 423, 424, 425, 426, 427, 428, 429, 430, 431, 432, 433, 434, 435, 436, 437, 438, 439, 440, 441, 442, 443, 444, 445, 446, 447, 448, 449, 450, 451, 452, 453, 454, 455, 456, 457, 458, 459, 460, 461, 462, 463, 464, 465, 466, 467, 468, 469, 470, 471, 472, 473, 474, 475, 476, 477, 478, 479, 480, 481, 482, 483, 484, 485, 486, 487, 488, 489, 490, 491, 492, 493, 494, 495, 496, 497, 498, 499, 500, 501, 502, 503, 504, 505, 506, 507, 508, 509, 510, 511, 512, 513, 514, 515, 516, 517, 518, 519, 520, 521, 522, 523, 524, 525, 526, 527, 528, 529, 530, 531, 532, 533, 534, 535, 536, 537, 538, 539, 540, 541, 542, 543, 544, 545, 546, 547, 548, 549, 550, 551, 552, 553, 554, 555, 556, 557, 558, 559, 560, 561, 562, 563, 564, 565, 566, 567, 568, 569, 570, 571, 572, 573, 574, 575, 576, 577, 578, 579, 580, 581, 582, 583, 584, 585, 586, 587, 588, 589, 590, 591, 592, 593, 594, 595, 596, 597, 598, 599, 600, 601, 602, 603, 604, 605, 606, 607, 608, 609, 610, 611, 612, 613, 614, 615, 616, 617, 618, 619, 620, 621, 622, 623, 624, 625, 626, 627, 628, 629, 630, 631, 632, 633, 634, 635, 636, 637, 638, 639, 640, 641, 642, 643, 644, 645, 646, 647, 648, 649, 650, 651, 652, 653, 654, 655, 656, 657, 658, 659, 660, 661, 662, 663, 664, 665, 666, 667, 668, 669, 670, 671, 672, 673, 674, 675, 676, 677, 678, 679, 680, 681, 682, 683, 684, 685, 686, 687, 688, 689, 690, 691, 692, 693, 694, 695, 696, 697, 698, 699, 700, 701, 702, 703, 704, 705, 706, 707, 708, 709, 710, 711, 712, 713, 714, 715, 716, 717, 718, 719, 720, 721, 722, 723, 724, 725, 726, 727, 728, 729, 730, 731, 732, 733, 734, 735, 736, 737, 738, 739, 740, 741, 742, 743, 744, 745, 746, 747, 748, 749, 750, 751, 752, 753, 754, 755, 756, 757, 758, 759, 760, 761, 762, 763, 764, 765, 766, 767, 768, 769, 770, 771, 772, 773, 774, 775, 776, 777, 778, 779, 780, 781, 782, 783, 784, 785, 786, 787, 788, 789, 790, 791, 792, 793, 794, 795, 796, 797, 798, 799, 800, 801, 802, 803, 804, 805, 806, 807, 808, 809, 810, 811, 812, 813, 814, 815, 816, 817, 818, 819, 820, 821, 822, 823, 824, 825, 826, 827, 828, 829, 830, 831, 832, 833, 834, 835, 836, 837, 838, 839, 840, 841, 842, 843, 844, 845, 846, 847, 848, 849, 850, 851, 852, 853, 854, 855, 856, 857, 858, 859, 860, 861, 862, 863, 864, 865, 866, 867, 868, 869, 870, 871, 872, 873, 874, 875, 876, 877, 878, 879, 880, 881, 882, 883, 884, 885, 886, 887, 888, 889, 890, 891, 892, 893, 894, 895, 896, 897, 898, 899, 900, 901, 902, 903, 904, 905, 906, 907, 908, 909, 910, 911, 912, 913, 914],
      "AcquisitionTime": ["132020.817500", "132021.277500", "132021.737500", "132022.197500", "132022.657500", "132023.117500", "132023.577500", "132024.037500", "132024.497500", "132024.957500", "132025.417500", "132025.877500", "132026.337500", "132026.797500", "132027.257500", "132027.717500", "132028.177500", "132028.637500", "132029.097500", "132029.557500", "132030.017500", "132030.477500", "132030.937500", "132031.397500", "132031.857500", "132032.317500", "132032.777500", "132033.237500", "132033.697500", "132034.157500", "132034.617500", "132035.077500", "132035.537500", "132035.997500", "132036.457500", "132036.917500", "132037.377500", "132037.837500", "132038.297500", "132038.757500", "132039.217500", "132039.677500", "132040.137500", "132040.597500", "132041.057500", "132041.517500", "132041.977500", "132042.437500", "132042.897500", "132043.357500", "132043.817500", "132044.277500", "132044.737500", "132045.197500", "132045.657500", "132046.117500", "132046.577500", "132047.037500", "132047.497500", "132047.957500", "132048.417500", "132048.877500", "132049.337500", "132049.797500", "132050.257500", "132050.717500", "132051.177500", "132051.637500", "132052.097500", "132052.557500", "132053.017500", "132053.477500", "132053.937500", "132054.397500", "132054.857500", "132055.317500", "132055.777500", "132056.237500", "132056.697500", "132057.157500", "132057.617500", "132058.077500", "132058.537500", "132058.997500", "132059.457500", "132059.917500", "132100.377500", "132100.837500", "132101.297500", "132101.757500", "132102.217500", "132102.677500", "132103.137500", "132103.597500", "132104.057500", "132104.517500", "132104.977500", "132105.437500", "132105.897500", "132106.357500", "132106.817500", "132107.277500", "132107.737500", "132108.197500", "132108.657500", "132109.117500", "132109.577500", "132110.037500", "132110.497500", "132110.957500", "132111.417500", "132111.877500", "132112.337500", "132112.797500", "132113.257500", "132113.717500", "132114.177500", "132114.637500", "132115.097500", "132115.557500", "132116.017500", "132116.477500", "132116.937500", "132117.397500", "132117.857500", "132118.317500", "132118.777500", "132119.237500", "132119.697500", "132120.157500", "132120.617500", "132121.077500", "132121.537500", "132121.997500", "132122.457500", "132122.917500", "132123.377500", "132123.837500", "132124.297500", "132124.757500", "132125.217500", "132125.677500", "132126.137500", "132126.597500", "132127.057500", "132127.517500", "132127.977500", "132128.437500", "132128.897500", "132129.357500", "132129.817500", "132130.277500", "132130.737500", "132131.197500", "132131.657500", "132132.117500", "132132.577500", "132133.037500", "132133.497500", "132133.957500", "132134.417500", "132134.877500", "132135.337500", "132135.797500", "132136.257500", "132136.717500", "132137.177500", "132137.637500", "132138.097500", "132138.557500", "132139.017500", "132139.477500", "132139.937500", "132140.397500", "132140.857500", "132141.317500", "132141.777500", "132142.237500", "132142.697500", "132143.157500", "132143.617500", "132144.077500", "132144.537500", "132144.997500", "132145.457500", "132145.917500", "132146.377500", "132146.837500", "132147.297500", "132147.757500", "132148.217500", "132148.677500", "132149.137500", "132149.597500", "132150.057500", "132150.517500", "132150.977500", "132151.437500", "132151.897500", "132152.357500", "132152.817500", "132153.277500", "132153.737500", "132154.197500", "132154.657500", "132155.117500", "132155.577500", "132156.037500", "132156.497500", "132156.957500", "132157.417500", "132157.877500", "132158.337500", "132158.797500", "132159.257500", "132159.717500", "132200.177500", "132200.637500", "132201.097500", "132201.557500", "132202.017500", "132202.477500", "132202.937500", "132203.397500", "132203.857500", "132204.317500", "132204.777500", "132205.237500", "132205.697500", "132206.157500", "132206.617500", "132207.077500", "132207.537500", "132207.997500", "132208.457500", "132208.917500", "132209.377500", "132209.837500", "132210.297500", "132210.757500", "132211.217500", "132211.677500", "132212.137500", "132212.597500", "132213.057500", "132213.517500", "132213.977500", "132214.437500", "132214.897500", "132215.357500", "132215.817500", "132216.277500", "132216.737500", "132217.197500", "132217.657500", "132218.117500", "132218.577500", "132219.037500", "132219.497500", "132219.957500", "132220.417500", "132220.877500", "132221.337500", "132221.797500", "132222.257500", "132222.717500", "132223.177500", "132223.637500", "132224.097500", "132224.557500", "132225.017500", "132225.477500", "132225.937500", "132226.397500", "132226.857500", "132227.317500", "132227.777500", "132228.237500", "132228.697500", "132229.157500", "132229.617500", "132230.077500", "132230.537500", "132230.997500", "132231.457500", "132231.917500", "132232.377500", "132232.837500", "132233.297500", "132233.757500", "132234.217500", "132234.677500", "132235.137500", "132235.597500", "132236.057500", "132236.517500", "132236.977500", "132237.437500", "132237.897500", "132238.357500", "132238.817500", "132239.277500", "132239.737500", "132240.197500", "132240.657500", "132241.117500", "132241.577500", "132242.037500", "132242.497500", "132242.957500", "132243.417500", "132243.877500", "132244.337500", "132244.797500", "132245.257500", "132245.717500", "132246.177500", "132246.637500", "132247.097500", "132247.557500", "132248.017500", "132248.477500", "132248.937500", "132249.397500", "132249.857500", "132250.317500", "132250.777500", "132251.237500", "132251.697500", "132252.157500", "132252.617500", "132253.077500", "132253.537500", "132253.997500", "132254.457500", "132254.917500", "132255.377500", "132255.837500", "132256.297500", "132256.757500", "132257.217500", "132257.677500", "132258.137500", "132258.597500", "132259.057500", "132259.517500", "132259.977500", "132300.437500", "132300.897500", "132301.357500", "132301.817500", "132302.277500", "132302.737500", "132303.197500", "132303.657500", "132304.117500", "132304.577500", "132305.037500", "132305.497500", "132305.957500", "132306.417500", "132306.877500", "132307.337500", "132307.797500", "132308.257500", "132308.717500", "132309.177500", "132309.637500", "132310.097500", "132310.557500", "132311.017500", "132311.477500", "132311.937500", "132312.397500", "132312.857500", "132313.317500", "132313.777500", "132314.237500", "132314.697500", "132315.157500", "132315.617500", "132316.077500", "132316.537500", "132316.997500", "132317.457500", "132317.917500", "132318.377500", "132318.837500", "132319.297500", "132319.757500", "132320.217500", "132320.677500", "132321.137500", "132321.597500", "132322.057500", "132322.517500", "132322.977500", "132323.437500", "132323.897500", "132324.357500", "132324.817500", "132325.277500", "132325.737500", "132326.197500", "132326.657500", "132327.117500", "132327.577500", "132328.037500", "132328.497500", "132328.957500", "132329.417500", "132329.877500", "132330.337500", "132330.797500", "132331.257500", "132331.717500", "132332.177500", "132332.637500", "132333.097500", "132333.557500", "132334.017500", "132334.477500", "132334.937500", "132335.397500", "132335.857500", "132336.317500", "132336.777500", "132337.237500", "132337.697500", "132338.157500", "132338.617500", "132339.077500", "132339.537500", "132339.997500", "132340.457500", "132340.917500", "132341.377500", "132341.837500", "132342.297500", "132342.757500", "132343.217500", "132343.677500", "132344.137500", "132344.597500", "132345.057500", "132345.517500", "132345.977500", "132346.437500", "132346.897500", "132347.357500", "132347.817500", "132348.277500", "132348.737500", "132349.197500", "132349.657500", "132350.117500", "132350.577500", "132351.037500", "132351.497500", "132351.957500", "132352.417500", "132352.877500", "132353.337500", "132353.797500", "132354.257500", "132354.717500", "132355.177500", "132355.637500", "132356.097500", "132356.557500", "132357.017500", "132357.477500", "132357.937500", "132358.397500", "132358.857500", "132359.317500", "132359.777500", "132400.237500", "132400.697500", "132401.157500", "132401.617500", "132402.077500", "132402.537500", "132402.997500", "132403.457500", "132403.917500", "132404.377500", "132404.837500", "132405.297500", "132405.757500", "132406.217500", "132406.677500", "132407.137500", "132407.597500", "132408.057500", "132408.517500", "132408.977500", "132409.437500", "132409.897500", "132410.357500", "132410.817500", "132411.277500", "132411.737500", "132412.197500", "132412.657500", "132413.117500", "132413.577500", "132414.037500", "132414.497500", "132414.957500", "132415.417500", "132415.877500", "132416.337500", "132416.797500", "132417.257500", "132417.717500", "132418.177500", "132418.637500", "132419.097500", "132419.557500", "132420.017500", "132420.477500", "132420.937500", "132421.397500", "132421.857500", "132422.317500", "132422.777500", "132423.237500", "132423.697500", "132424.157500", "132424.617500", "132425.077500", "132425.537500", "132425.997500", "132426.457500", "132426.917500", "132427.377500", "132427.837500", "132428.297500", "132428.757500", "132429.217500", "132429.677500", "132430.137500", "132430.597500", "132431.057500", "132431.517500", "132431.977500", "132432.437500", "132432.897500", "132433.357500", "132433.817500", "132434.277500", "132434.737500", "132435.197500", "132435.657500", "132436.117500", "132436.577500", "132437.037500", "132437.497500", "132437.957500", "132438.417500", "132438.877500", "132439.337500", "132439.797500", "132440.257500", "132440.717500", "132441.177500", "132441.637500", "132442.097500", "132442.557500", "132443.017500", "132443.477500", "132443.937500", "132444.397500", "132444.857500", "132445.317500", "132445.777500", "132446.237500", "132446.697500", "132447.157500", "132447.617500", "132448.077500", "132448.537500", "132448.997500", "132449.457500", "132449.917500", "132450.377500", "132450.837500", "132451.297500", "132451.757500", "132452.217500", "132452.677500", "132453.137500", "132453.597500", "132454.057500", "132454.517500", "132454.977500", "132455.437500", "132455.897500", "132456.357500", "132456.817500", "132457.277500", "132457.737500", "132458.197500", "132458.657500", "132459.117500", "132459.577500", "132500.037500", "132500.497500", "132500.957500", "132501.417500", "132501.877500", "132502.337500", "132502.797500", "132503.257500", "132503.717500", "132504.177500", "132504.637500", "132505.097500", "132505.557500", "132506.017500", "132506.477500", "132506.937500", "132507.397500", "132507.857500", "132508.317500", "132508.777500", "132509.237500", "132509.697500", "132510.157500", "132510.617500", "132511.077500", "132511.537500", "132511.997500", "132512.457500", "132512.917500", "132513.377500", "132513.837500", "132514.297500", "132514.757500", "132515.217500", "132515.677500", "132516.137500", "132516.597500", "132517.057500", "132517.517500", "132517.977500", "132518.437500", "132518.897500", "132519.357500", "132519.817500", "132520.277500", "132520.737500", "132521.197500", "132521.657500", "132522.117500", "132522.577500", "132523.037500", "132523.497500", "132523.957500", "132524.417500", "132524.877500", "132525.337500", "132525.797500", "132526.257500", "132526.717500", "132527.177500", "132527.637500", "132528.097500", "132528.557500", "132529.017500", "132529.477500", "132529.937500", "132530.397500", "132530.857500", "132531.317500", "132531.777500", "132532.237500", "132532.697500", "132533.157500", "132533.617500", "132534.077500", "132534.537500", "132534.997500", "132535.457500", "132535.917500", "132536.377500", "132536.837500", "132537.297500", "132537.757500", "132538.217500", "132538.677500", "132539.137500", "132539.597500", "132540.057500", "132540.517500", "132540.977500", "132541.437500", "132541.897500", "132542.357500", "132542.817500", "132543.277500", "132543.737500", "132544.197500", "132544.657500", "132545.117500", "132545.577500", "132546.037500", "132546.497500", "132546.957500", "132547.417500", "132547.877500", "132548.337500", "132548.797500", "132549.257500", "132549.717500", "132550.177500", "132550.637500", "132551.097500", "132551.557500", "132552.017500", "132552.477500", "132552.937500", "132553.397500", "132553.857500", "132554.317500", "132554.777500", "132555.237500", "132555.697500", "132556.157500", "132556.617500", "132557.077500", "132557.537500", "132557.997500", "132558.457500", "132558.917500", "132559.377500", "132559.837500", "132600.297500", "132600.757500", "132601.217500", "132601.677500", "132602.137500", "132602.597500", "132603.057500", "132603.517500", "132603.977500", "132604.437500", "132604.897500", "132605.357500", "132605.817500", "132606.277500", "132606.737500", "132607.197500", "132607.657500", "132608.117500", "132608.577500", "132609.037500", "132609.497500", "132609.957500", "132610.417500", "132610.877500", "132611.337500", "132611.797500", "132612.257500", "132612.717500", "132613.177500", "132613.637500", "132614.097500", "132614.557500", "132615.017500", "132615.477500", "132615.937500", "132616.397500", "132616.857500", "132617.317500", "132617.777500", "132618.237500", "132618.697500", "132619.157500", "132619.617500", "132620.077500", "132620.537500", "132620.997500", "132621.457500", "132621.917500", "132622.377500", "132622.837500", "132623.297500", "132623.757500", "132624.217500", "132624.677500", "132625.137500", "132625.597500", "132626.057500", "132626.517500", "132626.977500", "132627.437500", "132627.897500", "132628.357500", "132628.817500", "132629.277500", "132629.737500", "132630.197500", "132630.657500", "132631.117500", "132631.577500", "132632.037500", "132632.497500", "132632.957500", "132633.417500", "132633.877500", "132634.337500", "132634.797500", "132635.257500", "132635.717500", "132636.177500", "132636.637500", "132637.097500", "132637.557500", "132638.017500", "132638.477500", "132638.937500", "132639.397500", "132639.857500", "132640.317500", "132640.777500", "132641.237500", "132641.697500", "132642.157500", "132642.617500", "132643.077500", "132643.537500", "132643.997500", "132644.457500", "132644.917500", "132645.377500", "132645.837500", "132646.297500", "132646.757500", "132647.217500", "132647.677500", "132648.137500", "132648.597500", "132649.057500", "132649.517500", "132649.977500", "132650.437500", "132650.897500", "132651.357500", "132651.817500", "132652.277500", "132652.737500", "132653.197500", "132653.657500", "132654.117500", "132654.577500", "132655.037500", "132655.497500", "132655.957500", "132656.417500", "132656.877500", "132657.337500", "132657.797500", "132658.257500", "132658.717500", "132659.177500", "132659.637500", "132700.097500", "132700.557500", "132701.017500", "132701.477500", "132701.937500", "132702.397500", "132702.857500", "132703.317500", "132703.777500", "132704.237500", "132704.697500", "132705.157500", "132705.617500", "132706.077500", "132706.537500", "132706.997500", "132707.457500", "132707.917500", "132708.377500", "132708.837500", "132709.297500", "132709.757500", "132710.217500", "132710.677500", "132711.137500", "132711.597500", "132712.057500", "132712.517500", "132712.977500", "132713.437500", "132713.897500", "132714.357500", "132714.817500", "132715.277500", "132715.737500", "132716.197500", "132716.657500", "132717.117500", "132717.577500", "132718.037500", "132718.497500", "132718.957500", "132719.417500", "132719.877500", "132720.337500", "132720.797500"],
