{
  "AcquisitionMatrixPE": 82,
  "AcquisitionNumber": 1,
  "AcquisitionTime": "14:07:11.760000",
  "BandwidthPerPixelPhaseEncode": 24.888,
  "BaseResolution": 82,
  "BodyPartExamined": "BRAIN",
  "ConsistencyInfo": "N4_VE11E_LATEST_20181129",
  "ConversionSoftware": "dcm2niix",
  "ConversionSoftwareVersion": "v1.0.20201102",
  "DerivedVendorReportedEchoSpacing": 0.00049,
  "DeviceSerialNumber": "66112",
  "DwellTime": 2e-06,
  "EchoTime": 0.0272,
  "EchoTrainLength": 82,
  "EffectiveEchoSpacing": 0.00049,
  "FlipAngle": 44,
  "ImageComments": "Unaliased MB8/PE3",
  "ImageOrientationPatientDICOM": [0.999987, 0.00510396, 3.54646e-05, -0.00506143, 0.990709, 0.135904],
  "ImageType": [
    "ORIGINAL",
    "PRIMARY",
    "M",
    "MB",
    "ND",
    "NORM",
    "MOSAIC"
],
  "ImagingFrequency": 123.259,
  "InPlanePhaseEncodingDirectionDICOM": "COL",
  "InstitutionAddress": "Maynard 3,Hanover,NH,US,03755",
  "InstitutionName": "Dartmouth College - PBS",
  "InstitutionalDepartmentName": "Department",
  "MRAcquisitionType": "2D",
  "MagneticFieldStrength": 3,
  "Manufacturer": "Siemens",
  "ManufacturersModelName": "Prisma",
  "Modality": "MR",
  "MultibandAccelerationFactor": 8,
  "PartialFourier": 1,
  "PatientPosition": "HFS",
  "PercentPhaseFOV": 100,
  "PercentSampling": 100,
  "PhaseEncodingDirection": "j-",
  "PhaseEncodingSteps": 82,
  "PhaseResolution": 1,
  "PixelBandwidth": 3050,
  "ProcedureStepDescription": "Wager_Wager^1076_spacetop",
  "ProtocolName": "func_run-03_task-alignvideo_acq-ap-mb8",
  "PulseSequenceDetails": "%CustomerSeq%\\cmrr_mbep2d_bold",
  "ReceiveCoilActiveElements": "HEA;HEP",
  "ReceiveCoilName": "Head_32",
  "ReconMatrixPE": 82,
  "RepetitionTime": 0.46,
  "SAR": 0.0863122,
  "ScanOptions": "FS",
  "ScanningSequence": "EP",
  "SequenceName": "epfid2d1_82",
  "SequenceVariant": "SK\\SS",
  "SeriesDescription": "func_run-03_task-alignvideo_acq-ap-mb8",
  "SeriesNumber": 34,
  "ShimSetting": [4222, -7805, -7218, 295, -56, -67, -109, 79],
  "SliceThickness": 2.7,
  "SliceTiming": [0, 0.25, 0.0625, 0.3125, 0.125, 0.375, 0.1875, 0, 0.25, 0.0625, 0.3125, 0.125, 0.375, 0.1875, 0, 0.25, 0.0625, 0.3125, 0.125, 0.375, 0.1875, 0, 0.25, 0.0625, 0.3125, 0.125, 0.375, 0.1875, 0, 0.25, 0.0625, 0.3125, 0.125, 0.375, 0.1875, 0, 0.25, 0.0625, 0.3125, 0.125, 0.375, 0.1875, 0, 0.25, 0.0625, 0.3125, 0.125, 0.375, 0.1875, 0, 0.25, 0.0625, 0.3125, 0.125, 0.375, 0.1875],
  "SoftwareVersions": "syngo MR E11",
  "SpacingBetweenSlices": 2.7,
  "StationName": "AWP66112",
  "TaskName": "alignvideo",
  "TotalReadoutTime": 0.03969,
  "TxRefAmp": 218.424,
  "WipMemBlock": "e0a680ba-6eb4-4593-86c0-0d06dc7ee0cd||Sequence: R016 ve11e/master r/434b28f1; Aug  7 2019 18:53:46 by eja",
  "dcmmeta_affine": [
    [-2.682891845703125, -0.013579441234469414, -0.0017779843183234334, 120.77582550048828],
    [-0.013693558983504772, 2.6580002307891846, 0.3669358789920807, -106.96479797363281],
    [9.514882549410686e-05, -0.3646198809146881, 2.6749494075775146, -47.553775787353516],
    [0.0, 0.0, 0.0, 1.0]
],
  "dcmmeta_reorient_transform": [
    [0.0, -1.0, 0.0, 81.0],
    [1.0, 0.0, 0.0, 0.0],
    [0.0, 0.0, 1.0, 0.0],
    [0.0, 0.0, 0.0, 1.0]
],
  "dcmmeta_shape": [82, 82, 56, 831],
  "dcmmeta_slice_dim": 2,
  "dcmmeta_version": 0.6,
  "global": {
    "const": {
      "AccessionNumber": "A004717",
      "AcquisitionMatrix": [82, 0, 0, 82],
      "AngioFlag": "N",
      "BitsAllocated": 16,
      "BitsStored": 16,
      "BodyPartExamined": "BRAIN",
      "Columns": 656,
      "EchoNumbers": 1,
      "EchoTime": 27.2,
      "EchoTrainLength": 82,
      "FlipAngle": 44.0,
      "HighBit": 15,
      "ImageOrientationPatient": [0.99998697406874, 0.00510396268756, 3.54645616e-05, -0.0050614280458, 0.99070911326388, 0.13590377052179],
      "ImagePositionPatient": [-885.76857692084, -875.10930066613, -181.76119998307],
      "ImageType": [
        "ORIGINAL",
        "PRIMARY",
        "M",
        "MB",
        "ND",
        "NORM",
        "MOSAIC"
],
      "ImagedNucleus": "1H",
      "ImagingFrequency": 123.259103,
      "InPlanePhaseEncodingDirection": "COL",
      "MRAcquisitionType": "2D",
      "MagneticFieldStrength": 3.0,
      "Manufacturer": "SIEMENS",
      "ManufacturerModelName": "Prisma",
      "Modality": "MR",
      "NumberOfAverages": 1.0,
      "NumberOfPhaseEncodingSteps": 82,
      "PercentPhaseFieldOfView": 100.0,
      "PercentSampling": 100.0,
      "PerformedProcedureStepStartTime": "122807.605000",
      "PhotometricInterpretation": "MONOCHROME2",
      "PixelBandwidth": 3050.0,
      "PixelRepresentation": 0,
      "PixelSpacing": [2.6829268932343, 2.6829268932343],
      "ProtocolName": "func_run-03_task-alignvideo_acq-ap-mb8",
      "RepetitionTime": 460.0,
      "Rows": 656,
      "SAR": 0.08631217601682,
      "SamplesPerPixel": 1,
      "ScanOptions": "FS",
      "ScanningSequence": "EP",
      "SequenceName": "epfid2d1_82",
      "SequenceVariant": [
        "SK",
        "SS"
],
      "SeriesDescription": "func_run-03_task-alignvideo_acq-ap-mb8",
      "SeriesNumber": 34,
      "SeriesTime": "140728.678000",
      "SliceLocation": -61.728855533727,
      "SliceThickness": 2.7000000476837,
      "SmallestImagePixelValue": 0,
      "SoftwareVersions": "syngo MR E11",
      "SpacingBetweenSlices": 2.6999999255416,
      "SpecificCharacterSet": "ISO_IR 100",
      "StudyID": "1",
      "StudyTime": "122807.433000",
      "TransmitCoilName": "Body",
      "VariableFlipAngleFlag": "N",
      "WindowCenterWidthExplanation": "Algo1"
    },
    "slices": {}
  },
  "time": {
    "samples": {
      "AcquisitionNumber": [1, 2, 3, 4, 5, 6, 7, 8, 9, 10, 11, 12, 13, 14, 15, 16, 17, 18, 19, 20, 21, 22, 23, 24, 25, 26, 27, 28, 29, 30, 31, 32, 33, 34, 35, 36, 37, 38, 39, 40, 41, 42, 43, 44, 45, 46, 47, 48, 49, 50, 51, 52, 53, 54, 55, 56, 57, 58, 59, 60, 61, 62, 63, 64, 65, 66, 67, 68, 69, 70, 71, 72, 73, 74, 75, 76, 77, 78, 79, 80, 81, 82, 83, 84, 85, 86, 87, 88, 89, 90, 91, 92, 93, 94, 95, 96, 97, 98, 99, 100, 101, 102, 103, 104, 105, 106, 107, 108, 109, 110, 111, 112, 113, 114, 115, 116, 117, 118, 119, 120, 121, 122, 123, 124, 125, 126, 127, 128, 129, 130, 131, 132, 133, 134, 135, 136, 137, 138, 139, 140, 141, 142, 143, 144, 145, 146, 147, 148, 149, 150, 151, 152, 153, 154, 155, 156, 157, 158, 159, 160, 161, 162, 163, 164, 165, 166, 167, 168, 169, 170, 171, 172, 173, 174, 175, 176, 177, 178, 179, 180, 181, 182, 183, 184, 185, 186, 187, 188, 189, 190, 191, 192, 193, 194, 195, 196, 197, 198, 199, 200, 201, 202, 203, 204, 205, 206, 207, 208, 209, 210, 211, 212, 213, 214, 215, 216, 217, 218, 219, 220, 221, 222, 223, 224, 225, 226, 227, 228, 229, 230, 231, 232, 233, 234, 235, 236, 237, 238, 239, 240, 241, 242, 243, 244, 245, 246, 247, 248, 249, 250, 251, 252, 253, 254, 255, 256, 257, 258, 259, 260, 261, 262, 263, 264, 265, 266, 267, 268, 269, 270, 271, 272, 273, 274, 275, 276, 277, 278, 279, 280, 281, 282, 283, 284, 285, 286, 287, 288, 289, 290, 291, 292, 293, 294, 295, 296, 297, 298, 299, 300, 301, 302, 303, 304, 305, 306, 307, 308, 309, 310, 311, 312, 313, 314, 315, 316, 317, 318, 319, 320, 321, 322, 323, 324, 325, 326, 327, 328, 329, 330, 331, 332, 333, 334, 335, 336, 337, 338, 339, 340, 341, 342, 343, 344, 345, 346, 347, 348, 349, 350, 351, 352, 353, 354, 355, 356, 357, 358, 359, 360, 361, 362, 363, 364, 365, 366, 367, 368, 369, 370, 371, 372, 373, 374, 375, 376, 377, 378, 379, 380, 381, 382, 383, 384, 385, 386, 387, 388, 389, 390, 391, 392, 393, 394, 395, 396, 397, 398, 399, 400, 401, 402, 403, 404, 405, 406, 407, 408, 409, 410, 411, 412, 413, 414, 415, 416, 417, 418, 419, 420, 421, 422, 423, 424, 425, 426, 427, 428, 429, 430, 431, 432, 433, 434, 435, 436, 437, 438, 439, 440, 441, 442, 443, 444, 445, 446, 447, 448, 449, 450, 451, 452, 453, 454, 455, 456, 457, 458, 459, 460, 461, 462, 463, 464, 465, 466, 467, 468, 469, 470, 471, 472, 473, 474, 475, 476, 477, 478, 479, 480, 481, 482, 483, 484, 485, 486, 487, 488, 489, 490, 491, 492, 493, 494, 495, 496, 497, 498, 499, 500, 501, 502, 503, 504, 505, 506, 507, 508, 509, 510, 511, 512, 513, 514, 515, 516, 517, 518, 519, 520, 521, 522, 523, 524, 525, 526, 527, 528, 529, 530, 531, 532, 533, 534, 535, 536, 537, 538, 539, 540, 541, 542, 543, 544, 545, 546, 547, 548, 549, 550, 551, 552, 553, 554, 555, 556, 557, 558, 559, 560, 561, 562, 563, 564, 565, 566, 567, 568, 569, 570, 571, 572, 573, 574, 575, 576, 577, 578, 579, 580, 581, 582, 583, 584, 585, 586, 587, 588, 589, 590, 591, 592, 593, 594, 595, 596, 597, 598, 599, 600, 601, 602, 603, 604, 605, 606, 607, 608, 609, 610, 611, 612, 613, 614, 615, 616, 617, 618, 619, 620, 621, 622, 623, 624, 625, 626, 627, 628, 629, 630, 631, 632, 633, 634, 635, 636, 637, 638, 639, 640, 641, 642, 643, 644, 645, 646, 647, 648, 649, 650, 651, 652, 653, 654, 655, 656, 657, 658, 659, 660, 661, 662, 663, 664, 665, 666, 667, 668, 669, 670, 671, 672, 673, 674, 675, 676, 677, 678, 679, 680, 681, 682, 683, 684, 685, 686, 687, 688, 689, 690, 691, 692, 693, 694, 695, 696, 697, 698, 699, 700, 701, 702, 703, 704, 705, 706, 707, 708, 709, 710, 711, 712, 713, 714, 715, 716, 717, 718, 719, 720, 721, 722, 723, 724, 725, 726, 727, 728, 729, 730, 731, 732, 733, 734, 735, 736, 737, 738, 739, 740, 741, 742, 743, 744, 745, 746, 747, 748, 749, 750, 751, 752, 753, 754, 755, 756, 757, 758, 759, 760, 761, 762, 763, 764, 765, 766, 767, 768, 769, 770, 771, 772, 773, 774, 775, 776, 777, 778, 779, 780, 781, 782, 783, 784, 785, 786, 787, 788, 789, 790, 791, 792, 793, 794, 795, 796, 797, 798, 799, 800, 801, 802, 803, 804, 805, 806, 807, 808, 809, 810, 811, 812, 813, 814, 815, 816, 817, 818, 819, 820, 821, 822, 823, 824, 825, 826, 827, 828, 829, 830, 831],
      "AcquisitionTime": ["140711.760000", "140712.220000", "140712.680000", "140713.140000", "140713.600000", "140714.060000", "140714.520000", "140714.980000", "140715.440000", "140715.900000", "140716.360000", "140716.820000", "140717.280000", "140717.740000", "140718.200000", "140718.660000", "140719.120000", "140719.580000", "140720.040000", "140720.500000", "140720.960000", "140721.420000", "140721.880000", "140722.340000", "140722.800000", "140723.260000", "140723.720000", "140724.180000", "140724.640000", "140725.100000", "140725.560000", "140726.020000", "140726.480000", "140726.940000", "140727.400000", "140727.860000", "140728.320000", "140728.780000", "140729.240000", "140729.700000", "140730.160000", "140730.620000", "140731.080000", "140731.540000", "140732.000000", "140732.460000", "140732.920000", "140733.380000", "140733.840000", "140734.300000", "140734.760000", "140735.220000", "140735.680000", "140736.140000", "140736.600000", "140737.060000", "140737.520000", "140737.980000", "140738.440000", "140738.900000", "140739.360000", "140739.820000", "140740.280000", "140740.740000", "140741.200000", "140741.660000", "140742.120000", "140742.580000", "140743.040000", "140743.500000", "140743.960000", "140744.420000", "140744.880000", "140745.340000", "140745.800000", "140746.260000", "140746.720000", "140747.180000", "140747.640000", "140748.100000", "140748.560000", "140749.020000", "140749.480000", "140749.940000", "140750.400000", "140750.860000", "140751.320000", "140751.780000", "140752.240000", "140752.700000", "140753.160000", "140753.620000", "140754.080000", "140754.540000", "140755.000000", "140755.460000", "140755.920000", "140756.380000", "140756.840000", "140757.300000", "140757.760000", "140758.220000", "140758.680000", "140759.140000", "140759.600000", "140800.060000", "140800.520000", "140800.980000", "140801.440000", "140801.900000", "140802.360000", "140802.820000", "140803.280000", "140803.740000", "140804.200000", "140804.660000", "140805.120000", "140805.580000", "140806.040000", "140806.500000", "140806.960000", "140807.420000", "140807.880000", "140808.340000", "140808.800000", "140809.260000", "140809.720000", "140810.180000", "140810.640000", "140811.100000", "140811.560000", "140812.020000", "140812.480000", "140812.940000", "140813.400000", "140813.860000", "140814.320000", "140814.780000", "140815.240000", "140815.700000", "140816.160000", "140816.620000", "140817.080000", "140817.540000", "140818.000000", "140818.460000", "140818.920000", "140819.380000", "140819.840000", "140820.300000", "140820.760000", "140821.220000", "140821.680000", "140822.140000", "140822.600000", "140823.060000", "140823.520000", "140823.980000", "140824.440000", "140824.900000", "140825.360000", "140825.820000", "140826.280000", "140826.740000", "140827.200000", "140827.660000", "140828.120000", "140828.580000", "140829.040000", "140829.500000", "140829.960000", "140830.420000", "140830.880000", "140831.340000", "140831.800000", "140832.260000", "140832.720000", "140833.180000", "140833.640000", "140834.100000", "140834.560000", "140835.020000", "140835.480000", "140835.940000", "140836.400000", "140836.860000", "140837.320000", "140837.780000", "140838.240000", "140838.700000", "140839.160000", "140839.620000", "140840.080000", "140840.540000", "140841.000000", "140841.460000", "140841.920000", "140842.380000", "140842.840000", "140843.300000", "140843.760000", "140844.220000", "140844.680000", "140845.140000", "140845.600000", "140846.060000", "140846.520000", "140846.980000", "140847.440000", "140847.900000", "140848.360000", "140848.820000", "140849.280000", "140849.740000", "140850.200000", "140850.660000", "140851.120000", "140851.580000", "140852.040000", "140852.500000", "140852.960000", "140853.420000", "140853.880000", "140854.340000", "140854.800000", "140855.260000", "140855.720000", "140856.180000", "140856.640000", "140857.100000", "140857.560000", "140858.020000", "140858.480000", "140858.940000", "140859.400000", "140859.860000", "140900.320000", "140900.780000", "140901.240000", "140901.700000", "140902.160000", "140902.620000", "140903.080000", "140903.540000", "140904.000000", "140904.460000", "140904.920000", "140905.380000", "140905.840000", "140906.300000", "140906.760000", "140907.220000", "140907.680000", "140908.140000", "140908.600000", "140909.060000", "140909.520000", "140909.980000", "140910.440000", "140910.900000", "140911.360000", "140911.820000", "140912.280000", "140912.740000", "140913.200000", "140913.660000", "140914.120000", "140914.580000", "140915.040000", "140915.500000", "140915.960000", "140916.420000", "140916.880000", "140917.340000", "140917.800000", "140918.260000", "140918.720000", "140919.180000", "140919.640000", "140920.100000", "140920.560000", "140921.020000", "140921.480000", "140921.940000", "140922.400000", "140922.860000", "140923.320000", "140923.780000", "140924.240000", "140924.700000", "140925.160000", "140925.620000", "140926.080000", "140926.540000", "140927.000000", "140927.460000", "140927.920000", "140928.380000", "140928.840000", "140929.300000", "140929.760000", "140930.220000", "140930.680000", "140931.140000", "140931.600000", "140932.060000", "140932.520000", "140932.980000", "140933.440000", "140933.900000", "140934.360000", "140934.820000", "140935.280000", "140935.740000", "140936.200000", "140936.660000", "140937.120000", "140937.580000", "140938.040000", "140938.500000", "140938.960000", "140939.420000", "140939.880000", "140940.340000", "140940.800000", "140941.260000", "140941.720000", "140942.180000", "140942.640000", "140943.100000", "140943.560000", "140944.020000", "140944.480000", "140944.940000", "140945.400000", "140945.860000", "140946.320000", "140946.780000", "140947.240000", "140947.700000", "140948.160000", "140948.620000", "140949.080000", "140949.540000", "140950.000000", "140950.460000", "140950.920000", "140951.380000", "140951.840000", "140952.300000", "140952.760000", "140953.220000", "140953.680000", "140954.140000", "140954.600000", "140955.060000", "140955.520000", "140955.980000", "140956.440000", "140956.900000", "140957.360000", "140957.820000", "140958.280000", "140958.740000", "140959.200000", "140959.660000", "141000.120000", "141000.580000", "141001.040000", "141001.500000", "141001.960000", "141002.420000", "141002.880000", "141003.340000", "141003.800000", "141004.260000", "141004.720000", "141005.180000", "141005.640000", "141006.100000", "141006.560000", "141007.020000", "141007.480000", "141007.940000", "141008.400000", "141008.860000", "141009.320000", "141009.780000", "141010.240000", "141010.700000", "141011.160000", "141011.620000", "141012.080000", "141012.540000", "141013.000000", "141013.460000", "141013.920000", "141014.380000", "141014.840000", "141015.300000", "141015.760000", "141016.220000", "141016.680000", "141017.140000", "141017.600000", "141018.060000", "141018.520000", "141018.980000", "141019.440000", "141019.900000", "141020.360000", "141020.820000", "141021.280000", "141021.740000", "141022.200000", "141022.660000", "141023.120000", "141023.580000", "141024.040000", "141024.500000", "141024.960000", "141025.420000", "141025.880000", "141026.340000", "141026.800000", "141027.260000", "141027.720000", "141028.180000", "141028.640000", "141029.100000", "141029.560000", "141030.020000", "141030.480000", "141030.940000", "141031.400000", "141031.860000", "141032.320000", "141032.780000", "141033.240000", "141033.700000", "141034.160000", "141034.620000", "141035.080000", "141035.540000", "141036.000000", "141036.460000", "141036.920000", "141037.380000", "141037.840000", "141038.300000", "141038.760000", "141039.220000", "141039.680000", "141040.140000", "141040.600000", "141041.060000", "141041.520000", "141041.980000", "141042.440000", "141042.900000", "141043.360000", "141043.820000", "141044.280000", "141044.740000", "141045.200000", "141045.660000", "141046.120000", "141046.580000", "141047.040000", "141047.500000", "141047.960000", "141048.420000", "141048.880000", "141049.340000", "141049.800000", "141050.260000", "141050.720000", "141051.180000", "141051.640000", "141052.100000", "141052.560000", "141053.020000", "141053.480000", "141053.940000", "141054.400000", "141054.860000", "141055.320000", "141055.780000", "141056.240000", "141056.700000", "141057.160000", "141057.620000", "141058.080000", "141058.540000", "141059.000000", "141059.460000", "141059.920000", "141100.380000", "141100.840000", "141101.300000", "141101.760000", "141102.220000", "141102.680000", "141103.140000", "141103.600000", "141104.060000", "141104.520000", "141104.980000", "141105.440000", "141105.900000", "141106.360000", "141106.820000", "141107.280000", "141107.740000", "141108.200000", "141108.660000", "141109.120000", "141109.580000", "141110.040000", "141110.500000", "141110.960000", "141111.420000", "141111.880000", "141112.340000", "141112.800000", "141113.260000", "141113.720000", "141114.180000", "141114.640000", "141115.100000", "141115.560000", "141116.020000", "141116.480000", "141116.940000", "141117.400000", "141117.860000", "141118.320000", "141118.780000", "141119.240000", "141119.700000", "141120.160000", "141120.620000", "141121.080000", "141121.540000", "141122.000000", "141122.460000", "141122.920000", "141123.380000", "141123.840000", "141124.300000", "141124.760000", "141125.220000", "141125.680000", "141126.140000", "141126.600000", "141127.060000", "141127.520000", "141127.980000", "141128.440000", "141128.900000", "141129.360000", "141129.820000", "141130.280000", "141130.740000", "141131.200000", "141131.660000", "141132.120000", "141132.580000", "141133.040000", "141133.500000", "141133.960000", "141134.420000", "141134.880000", "141135.340000", "141135.800000", "141136.260000", "141136.720000", "141137.180000", "141137.640000", "141138.100000", "141138.560000", "141139.020000", "141139.480000", "141139.940000", "141140.400000", "141140.860000", "141141.320000", "141141.780000", "141142.240000", "141142.700000", "141143.160000", "141143.620000", "141144.080000", "141144.540000", "141145.000000", "141145.460000", "141145.920000", "141146.380000", "141146.840000", "141147.300000", "141147.760000", "141148.220000", "141148.680000", "141149.140000", "141149.600000", "141150.060000", "141150.520000", "141150.980000", "141151.440000", "141151.900000", "141152.360000", "141152.820000", "141153.280000", "141153.740000", "141154.200000", "141154.660000", "141155.120000", "141155.580000", "141156.040000", "141156.500000", "141156.960000", "141157.420000", "141157.880000", "141158.340000", "141158.800000", "141159.260000", "141159.720000", "141200.180000", "141200.640000", "141201.100000", "141201.560000", "141202.020000", "141202.480000", "141202.940000", "141203.400000", "141203.860000", "141204.320000", "141204.780000", "141205.240000", "141205.700000", "141206.160000", "141206.620000", "141207.080000", "141207.540000", "141208.000000", "141208.460000", "141208.920000", "141209.380000", "141209.840000", "141210.300000", "141210.760000", "141211.220000", "141211.680000", "141212.140000", "141212.600000", "141213.060000", "141213.520000", "141213.980000", "141214.440000", "141214.900000", "141215.360000", "141215.820000", "141216.280000", "141216.740000", "141217.200000", "141217.660000", "141218.120000", "141218.580000", "141219.040000", "141219.500000", "141219.960000", "141220.420000", "141220.880000", "141221.340000", "141221.800000", "141222.260000", "141222.720000", "141223.180000", "141223.640000", "141224.100000", "141224.560000", "141225.020000", "141225.480000", "141225.940000", "141226.400000", "141226.860000", "141227.320000", "141227.780000", "141228.240000", "141228.700000", "141229.160000", "141229.620000", "141230.080000", "141230.540000", "141231.000000", "141231.460000", "141231.920000", "141232.380000", "141232.840000", "141233.300000", "141233.760000", "141234.220000", "141234.680000", "141235.140000", "141235.600000", "141236.060000", "141236.520000", "141236.980000", "141237.440000", "141237.900000", "141238.360000", "141238.820000", "141239.280000", "141239.740000", "141240.200000", "141240.660000", "141241.120000", "141241.580000", "141242.040000", "141242.500000", "141242.960000", "141243.420000", "141243.880000", "141244.340000", "141244.800000", "141245.260000", "141245.720000", "141246.180000", "141246.640000", "141247.100000", "141247.560000", "141248.020000", "141248.480000", "141248.940000", "141249.400000", "141249.860000", "141250.320000", "141250.780000", "141251.240000", "141251.700000", "141252.160000", "141252.620000", "141253.080000", "141253.540000", "141254.000000", "141254.460000", "141254.920000", "141255.380000", "141255.840000", "141256.300000", "141256.760000", "141257.220000", "141257.680000", "141258.140000", "141258.600000", "141259.060000", "141259.520000", "141259.980000", "141300.440000", "141300.900000", "141301.360000", "141301.820000", "141302.280000", "141302.740000", "141303.200000", "141303.660000", "141304.120000", "141304.580000", "141305.040000", "141305.500000", "141305.960000", "141306.420000", "141306.880000", "141307.340000", "141307.800000", "141308.260000", "141308.720000", "141309.180000", "141309.640000", "141310.100000", "141310.560000", "141311.020000", "141311.480000", "141311.940000", "141312.400000", "141312.860000", "141313.320000", "141313.780000", "141314.240000", "141314.700000", "141315.160000", "141315.620000", "141316.080000", "141316.540000", "141317.000000", "141317.460000", "141317.920000", "141318.380000", "141318.840000", "141319.300000", "141319.760000", "141320.220000", "141320.680000", "141321.140000", "141321.600000", "141322.060000", "141322.520000", "141322.980000", "141323.440000", "141323.900000", "141324.360000", "141324.820000", "141325.280000", "141325.740000", "141326.200000", "141326.660000", "141327.120000", "141327.580000", "141328.040000", "141328.500000", "141328.960000", "141329.420000", "141329.880000", "141330.340000", "141330.800000", "141331.260000", "141331.720000", "141332.180000", "141332.640000", "141333.100000", "141333.560000"],
