{
  "AcquisitionMatrixPE": 82,
  "AcquisitionNumber": 1,
  "AcquisitionTime": "17:46:12.475000",
  "BandwidthPerPixelPhaseEncode": 24.888,
  "BaseResolution": 82,
  "BodyPartExamined": "BRAIN",
  "ConsistencyInfo": "N4_VE11E_LATEST_20181129",
  "ConversionSoftware": "dcm2niix",
  "ConversionSoftwareVersion": "v1.0.20201102",
  "DerivedVendorReportedEchoSpacing": 0.00049,
  "DeviceSerialNumber": "66112",
  "DwellTime": 2e-06,
  "EchoTime": 0.0272,
  "EchoTrainLength": 82,
  "EffectiveEchoSpacing": 0.00049,
  "FlipAngle": 44,
  "ImageComments": "Unaliased MB8/PE3",
  "ImageOrientationPatientDICOM": [0.998775, 0.0186096, 0.0458505, -0.0203982, 0.999037, 0.0388556],
  "ImageType": [
    "ORIGINAL",
    "PRIMARY",
    "M",
    "MB",
    "ND",
    "NORM",
    "MOSAIC"
],
  "ImagingFrequency": 123.252,
  "InPlanePhaseEncodingDirectionDICOM": "COL",
  "InstitutionAddress": "Maynard 3,Hanover,NH,US,03755",
  "InstitutionName": "Dartmouth College - PBS",
  "InstitutionalDepartmentName": "Department",
  "MRAcquisitionType": "2D",
  "MagneticFieldStrength": 3,
  "Manufacturer": "Siemens",
  "ManufacturersModelName": "Prisma",
  "Modality": "MR",
  "MultibandAccelerationFactor": 8,
  "PartialFourier": 1,
  "PatientPosition": "HFS",
  "PercentPhaseFOV": 100,
  "PercentSampling": 100,
  "PhaseEncodingDirection": "j-",
  "PhaseEncodingSteps": 82,
  "PhaseResolution": 1,
  "PixelBandwidth": 3050,
  "ProcedureStepDescription": "Wager_Wager^1076_spacetop",
  "ProtocolName": "func_run-03_task-alignvideo_acq-ap-mb8",
  "PulseSequenceDetails": "%CustomerSeq%\\cmrr_mbep2d_bold",
  "ReceiveCoilActiveElements": "HEA;HEP",
  "ReceiveCoilName": "Head_32",
  "ReconMatrixPE": 82,
  "RepetitionTime": 0.46,
  "SAR": 0.0911858,
  "ScanOptions": "FS",
  "ScanningSequence": "EP",
  "SequenceName": "epfid2d1_82",
  "SequenceVariant": "SK\\SS",
  "SeriesDescription": "func_run-03_task-alignvideo_acq-ap-mb8",
  "SeriesNumber": 34,
  "ShimSetting": [4146, -7782, -7260, 526, -61, -226, 66, 72],
  "SliceThickness": 2.7,
  "SliceTiming": [0, 0.2525, 0.065, 0.315, 0.1275, 0.3775, 0.19, 0, 0.2525, 0.065, 0.315, 0.1275, 0.3775, 0.19, 0, 0.2525, 0.065, 0.315, 0.1275, 0.3775, 0.19, 0, 0.2525, 0.065, 0.315, 0.1275, 0.3775, 0.19, 0, 0.2525, 0.065, 0.315, 0.1275, 0.3775, 0.19, 0, 0.2525, 0.065, 0.315, 0.1275, 0.3775, 0.19, 0, 0.2525, 0.065, 0.315, 0.1275, 0.3775, 0.19, 0, 0.2525, 0.065, 0.315, 0.1275, 0.3775, 0.19],
  "SoftwareVersions": "syngo MR E11",
  "SpacingBetweenSlices": 2.7,
  "StationName": "AWP66112",
  "TaskName": "alignvideo",
  "TotalReadoutTime": 0.03969,
  "TxRefAmp": 249.475,
  "WipMemBlock": "8d013d28-c0ff-4971-b37b-8ad51c72597e||Sequence: R016 ve11e/master r/434b28f1; Aug  7 2019 18:53:46 by eja",
  "dcmmeta_affine": [
    [-2.679640293121338, -0.05472690612077713, 0.12172488868236542, 114.71493530273438],
    [-0.04992818832397461, 2.680342197418213, 0.10730694979429245, -93.63619232177734],
    [0.12301367521286011, -0.10424685478210449, 2.6951193809509277, -54.604217529296875],
    [0.0, 0.0, 0.0, 1.0]
],
  "dcmmeta_reorient_transform": [
    [0.0, -1.0, 0.0, 81.0],
    [1.0, 0.0, 0.0, 0.0],
    [0.0, 0.0, 1.0, 0.0],
    [0.0, 0.0, 0.0, 1.0]
],
  "dcmmeta_shape": [82, 82, 56, 1016],
  "dcmmeta_slice_dim": 2,
  "dcmmeta_version": 0.6,
  "global": {
    "const": {
      "AccessionNumber": "A003974",
      "AcquisitionMatrix": [82, 0, 0, 82],
      "AngioFlag": "N",
      "BitsAllocated": 16,
      "BitsStored": 16,
      "BodyPartExamined": "BRAIN",
      "Columns": 656,
      "EchoNumbers": 1,
      "EchoTime": 27.2,
      "EchoTrainLength": 82,
      "FlipAngle": 44.0,
      "HighBit": 15,
      "ImageOrientationPatient": [0.99877495462645, 0.01860959721437, 0.04585054964175, -0.0203982103636, 0.99903661187358, 0.03885564502268],
      "ImagePositionPatient": [-863.63216448536, -907.05912853999, -128.27198286706],
      "ImageType": [
        "ORIGINAL",
        "PRIMARY",
        "M",
        "MB",
        "ND",
        "NORM",
        "MOSAIC"
],
      "ImagedNucleus": "1H",
      "ImagingFrequency": 123.252195,
      "InPlanePhaseEncodingDirection": "COL",
      "MRAcquisitionType": "2D",
      "MagneticFieldStrength": 3.0,
      "Manufacturer": "SIEMENS",
      "ManufacturerModelName": "Prisma",
      "Modality": "MR",
      "NumberOfAverages": 1.0,
      "NumberOfPhaseEncodingSteps": 82,
      "PercentPhaseFieldOfView": 100.0,
      "PercentSampling": 100.0,
      "PerformedProcedureStepStartTime": "161039.773000",
      "PhotometricInterpretation": "MONOCHROME2",
      "PixelBandwidth": 3050.0,
      "PixelRepresentation": 0,
      "PixelSpacing": [2.6829268932343, 2.6829268932343],
      "ProtocolName": "func_run-03_task-alignvideo_acq-ap-mb8",
      "RepetitionTime": 460.0,
      "Rows": 656,
      "SAR": 0.09118582338175,
      "SamplesPerPixel": 1,
      "ScanOptions": "FS",
      "ScanningSequence": "EP",
      "SequenceName": "epfid2d1_82",
      "SequenceVariant": [
        "SK",
        "SS"
],
      "SeriesDescription": "func_run-03_task-alignvideo_acq-ap-mb8",
      "SeriesNumber": 34,
      "SeriesTime": "174633.855000",
      "SliceLocation": -53.055196714264,
      "SliceThickness": 2.7000000476837,
      "SmallestImagePixelValue": 0,
      "SoftwareVersions": "syngo MR E11",
      "SpacingBetweenSlices": 2.7000000639019,
      "SpecificCharacterSet": "ISO_IR 100",
      "StudyID": "1",
      "StudyTime": "161039.662000",
      "TransmitCoilName": "Body",
      "VariableFlipAngleFlag": "N",
      "WindowCenterWidthExplanation": "Algo1"
    },
    "slices": {}
  },
  "time": {
    "samples": {
      "AcquisitionNumber": [1, 2, 3, 4, 5, 6, 7, 8, 9, 10, 11, 12, 13, 14, 15, 16, 17, 18, 19, 20, 21, 22, 23, 24, 25, 26, 27, 28, 29, 30, 31, 32, 33, 34, 35, 36, 37, 38, 39, 40, 41, 42, 43, 44, 45, 46, 47, 48, 49, 50, 51, 52, 53, 54, 55, 56, 57, 58, 59, 60, 61, 62, 63, 64, 65, 66, 67, 68, 69, 70, 71, 72, 73, 74, 75, 76, 77, 78, 79, 80, 81, 82, 83, 84, 85, 86, 87, 88, 89, 90, 91, 92, 93, 94, 95, 96, 97, 98, 99, 100, 101, 102, 103, 104, 105, 106, 107, 108, 109, 110, 111, 112, 113, 114, 115, 116, 117, 118, 119, 120, 121, 122, 123, 124, 125, 126, 127, 128, 129, 130, 131, 132, 133, 134, 135, 136, 137, 138, 139, 140, 141, 142, 143, 144, 145, 146, 147, 148, 149, 150, 151, 152, 153, 154, 155, 156, 157, 158, 159, 160, 161, 162, 163, 164, 165, 166, 167, 168, 169, 170, 171, 172, 173, 174, 175, 176, 177, 178, 179, 180, 181, 182, 183, 184, 185, 186, 187, 188, 189, 190, 191, 192, 193, 194, 195, 196, 197, 198, 199, 200, 201, 202, 203, 204, 205, 206, 207, 208, 209, 210, 211, 212, 213, 214, 215, 216, 217, 218, 219, 220, 221, 222, 223, 224, 225, 226, 227, 228, 229, 230, 231, 232, 233, 234, 235, 236, 237, 238, 239, 240, 241, 242, 243, 244, 245, 246, 247, 248, 249, 250, 251, 252, 253, 254, 255, 256, 257, 258, 259, 260, 261, 262, 263, 264, 265, 266, 267, 268, 269, 270, 271, 272, 273, 274, 275, 276, 277, 278, 279, 280, 281, 282, 283, 284, 285, 286, 287, 288, 289, 290, 291, 292, 293, 294, 295, 296, 297, 298, 299, 300, 301, 302, 303, 304, 305, 306, 307, 308, 309, 310, 311, 312, 313, 314, 315, 316, 317, 318, 319, 320, 321, 322, 323, 324, 325, 326, 327, 328, 329, 330, 331, 332, 333, 334, 335, 336, 337, 338, 339, 340, 341, 342, 343, 344, 345, 346, 347, 348, 349, 350, 351, 352, 353, 354, 355, 356, 357, 358, 359, 360, 361, 362, 363, 364, 365, 366, 367, 368, 369, 370, 371, 372, 373, 374, 375, 376, 377, 378, 379, 380, 381, 382, 383, 384, 385, 386, 387, 388, 389, 390, 391, 392, 393, 394, 395, 396, 397, 398, 399, 400, 401, 402, 403, 404, 405, 406, 407, 408, 409, 410, 411, 412, 413, 414, 415, 416, 417, 418, 419, 420, 421, 422, 423, 424, 425, 426, 427, 428, 429, 430, 431, 432, 433, 434, 435, 436, 437, 438, 439, 440, 441, 442, 443, 444, 445, 446, 447, 448, 449, 450, 451, 452, 453, 454, 455, 456, 457, 458, 459, 460, 461, 462, 463, 464, 465, 466, 467, 468, 469, 470, 471, 472, 473, 474, 475, 476, 477, 478, 479, 480, 481, 482, 483, 484, 485, 486, 487, 488, 489, 490, 491, 492, 493, 494, 495, 496, 497, 498, 499, 500, 501, 502, 503, 504, 505, 506, 507, 508, 509, 510, 511, 512, 513, 514, 515, 516, 517, 518, 519, 520, 521, 522, 523, 524, 525, 526, 527, 528, 529, 530, 531, 532, 533, 534, 535, 536, 537, 538, 539, 540, 541, 542, 543, 544, 545, 546, 547, 548, 549, 550, 551, 552, 553, 554, 555, 556, 557, 558, 559, 560, 561, 562, 563, 564, 565, 566, 567, 568, 569, 570, 571, 572, 573, 574, 575, 576, 577, 578, 579, 580, 581, 582, 583, 584, 585, 586, 587, 588, 589, 590, 591, 592, 593, 594, 595, 596, 597, 598, 599, 600, 601, 602, 603, 604, 605, 606, 607, 608, 609, 610, 611, 612, 613, 614, 615, 616, 617, 618, 619, 620, 621, 622, 623, 624, 625, 626, 627, 628, 629, 630, 631, 632, 633, 634, 635, 636, 637, 638, 639, 640, 641, 642, 643, 644, 645, 646, 647, 648, 649, 650, 651, 652, 653, 654, 655, 656, 657, 658, 659, 660, 661, 662, 663, 664, 665, 666, 667, 668, 669, 670, 671, 672, 673, 674, 675, 676, 677, 678, 679, 680, 681, 682, 683, 684, 685, 686, 687, 688, 689, 690, 691, 692, 693, 694, 695, 696, 697, 698, 699, 700, 701, 702, 703, 704, 705, 706, 707, 708, 709, 710, 711, 712, 713, 714, 715, 716, 717, 718, 719, 720, 721, 722, 723, 724, 725, 726, 727, 728, 729, 730, 731, 732, 733, 734, 735, 736, 737, 738, 739, 740, 741, 742, 743, 744, 745, 746, 747, 748, 749, 750, 751, 752, 753, 754, 755, 756, 757, 758, 759, 760, 761, 762, 763, 764, 765, 766, 767, 768, 769, 770, 771, 772, 773, 774, 775, 776, 777, 778, 779, 780, 781, 782, 783, 784, 785, 786, 787, 788, 789, 790, 791, 792, 793, 794, 795, 796, 797, 798, 799, 800, 801, 802, 803, 804, 805, 806, 807, 808, 809, 810, 811, 812, 813, 814, 815, 816, 817, 818, 819, 820, 821, 822, 823, 824, 825, 826, 827, 828, 829, 830, 831, 832, 833, 834, 835, 836, 837, 838, 839, 840, 841, 842, 843, 844, 845, 846, 847, 848, 849, 850, 851, 852, 853, 854, 855, 856, 857, 858, 859, 860, 861, 862, 863, 864, 865, 866, 867, 868, 869, 870, 871, 872, 873, 874, 875, 876, 877, 878, 879, 880, 881, 882, 883, 884, 885, 886, 887, 888, 889, 890, 891, 892, 893, 894, 895, 896, 897, 898, 899, 900, 901, 902, 903, 904, 905, 906, 907, 908, 909, 910, 911, 912, 913, 914, 915, 916, 917, 918, 919, 920, 921, 922, 923, 924, 925, 926, 927, 928, 929, 930, 931, 932, 933, 934, 935, 936, 937, 938, 939, 940, 941, 942, 943, 944, 945, 946, 947, 948, 949, 950, 951, 952, 953, 954, 955, 956, 957, 958, 959, 960, 961, 962, 963, 964, 965, 966, 967, 968, 969, 970, 971, 972, 973, 974, 975, 976, 977, 978, 979, 980, 981, 982, 983, 984, 985, 986, 987, 988, 989, 990, 991, 992, 993, 994, 995, 996, 997, 998, 999, 1000, 1001, 1002, 1003, 1004, 1005, 1006, 1007, 1008, 1009, 1010, 1011, 1012, 1013, 1014, 1015, 1016],
      "AcquisitionTime": ["174612.475000", "174612.935000", "174613.395000", "174613.855000", "174614.315000", "174614.775000", "174615.235000", "174615.695000", "174616.155000", "174616.615000", "174617.075000", "174617.535000", "174617.995000", "174618.455000", "174618.915000", "174619.375000", "174619.835000", "174620.295000", "174620.755000", "174621.215000", "174621.675000", "174622.135000", "174622.595000", "174623.055000", "174623.515000", "174623.975000", "174624.435000", "174624.895000", "174625.355000", "174625.815000", "174626.275000", "174626.735000", "174627.195000", "174627.655000", "174628.115000", "174628.575000", "174629.035000", "174629.495000", "174629.955000", "174630.415000", "174630.875000", "174631.335000", "174631.795000", "174632.255000", "174632.715000", "174633.175000", "174633.635000", "174634.095000", "174634.555000", "174635.015000", "174635.475000", "174635.935000", "174636.395000", "174636.855000", "174637.315000", "174637.775000", "174638.235000", "174638.695000", "174639.155000", "174639.615000", "174640.075000", "174640.535000", "174640.995000", "174641.455000", "174641.915000", "174642.375000", "174642.835000", "174643.295000", "174643.755000", "174644.215000", "174644.675000", "174645.135000", "174645.595000", "174646.055000", "174646.515000", "174646.975000", "174647.435000", "174647.895000", "174648.355000", "174648.815000", "174649.275000", "174649.735000", "174650.195000", "174650.655000", "174651.115000", "174651.575000", "174652.035000", "174652.495000", "174652.955000", "174653.415000", "174653.875000", "174654.335000", "174654.795000", "174655.255000", "174655.715000", "174656.175000", "174656.635000", "174657.095000", "174657.555000", "174658.015000", "174658.475000", "174658.935000", "174659.395000", "174659.855000", "174700.315000", "174700.775000", "174701.235000", "174701.695000", "174702.155000", "174702.615000", "174703.075000", "174703.535000", "174703.995000", "174704.455000", "174704.915000", "174705.375000", "174705.835000", "174706.295000", "174706.755000", "174707.215000", "174707.675000", "174708.135000", "174708.595000", "174709.055000", "174709.515000", "174709.975000", "174710.435000", "174710.895000", "174711.355000", "174711.815000", "174712.275000", "174712.735000", "174713.195000", "174713.655000", "174714.115000", "174714.575000", "174715.035000", "174715.495000", "174715.955000", "174716.415000", "174716.875000", "174717.335000", "174717.795000", "174718.255000", "174718.715000", "174719.175000", "174719.635000", "174720.095000", "174720.555000", "174721.015000", "174721.475000", "174721.935000", "174722.395000", "174722.855000", "174723.315000", "174723.775000", "174724.235000", "174724.695000", "174725.155000", "174725.615000", "174726.075000", "174726.535000", "174726.995000", "174727.455000", "174727.915000", "174728.375000", "174728.835000", "174729.295000", "174729.755000", "174730.215000", "174730.675000", "174731.135000", "174731.595000", "174732.055000", "174732.515000", "174732.975000", "174733.435000", "174733.895000", "174734.355000", "174734.815000", "174735.275000", "174735.735000", "174736.195000", "174736.655000", "174737.115000", "174737.575000", "174738.035000", "174738.495000", "174738.955000", "174739.415000", "174739.875000", "174740.335000", "174740.795000", "174741.255000", "174741.715000", "174742.175000", "174742.635000", "174743.095000", "174743.555000", "174744.015000", "174744.475000", "174744.935000", "174745.395000", "174745.855000", "174746.315000", "174746.775000", "174747.235000", "174747.695000", "174748.155000", "174748.615000", "174749.075000", "174749.535000", "174749.995000", "174750.455000", "174750.915000", "174751.375000", "174751.835000", "174752.295000", "174752.755000", "174753.215000", "174753.675000", "174754.135000", "174754.595000", "174755.055000", "174755.515000", "174755.975000", "174756.435000", "174756.895000", "174757.355000", "174757.815000", "174758.275000", "174758.735000", "174759.195000", "174759.655000", "174800.115000", "174800.575000", "174801.035000", "174801.495000", "174801.955000", "174802.415000", "174802.875000", "174803.335000", "174803.795000", "174804.255000", "174804.715000", "174805.175000", "174805.635000", "174806.095000", "174806.555000", "174807.015000", "174807.475000", "174807.935000", "174808.395000", "174808.855000", "174809.315000", "174809.775000", "174810.235000", "174810.695000", "174811.155000", "174811.615000", "174812.075000", "174812.535000", "174812.995000", "174813.455000", "174813.915000", "174814.375000", "174814.835000", "174815.295000", "174815.755000", "174816.215000", "174816.675000", "174817.135000", "174817.595000", "174818.055000", "174818.515000", "174818.975000", "174819.435000", "174819.895000", "174820.355000", "174820.815000", "174821.275000", "174821.735000", "174822.195000", "174822.655000", "174823.115000", "174823.575000", "174824.035000", "174824.495000", "174824.955000", "174825.415000", "174825.875000", "174826.335000", "174826.795000", "174827.255000", "174827.715000", "174828.175000", "174828.635000", "174829.095000", "174829.555000", "174830.015000", "174830.475000", "174830.935000", "174831.395000", "174831.855000", "174832.315000", "174832.775000", "174833.235000", "174833.695000", "174834.155000", "174834.615000", "174835.075000", "174835.535000", "174835.995000", "174836.455000", "174836.915000", "174837.375000", "174837.835000", "174838.295000", "174838.755000", "174839.215000", "174839.675000", "174840.135000", "174840.595000", "174841.055000", "174841.515000", "174841.975000", "174842.435000", "174842.895000", "174843.355000", "174843.815000", "174844.275000", "174844.735000", "174845.195000", "174845.655000", "174846.115000", "174846.575000", "174847.035000", "174847.495000", "174847.955000", "174848.415000", "174848.875000", "174849.335000", "174849.795000", "174850.255000", "174850.715000", "174851.175000", "174851.635000", "174852.095000", "174852.555000", "174853.015000", "174853.475000", "174853.935000", "174854.395000", "174854.855000", "174855.315000", "174855.775000", "174856.235000", "174856.695000", "174857.155000", "174857.615000", "174858.075000", "174858.535000", "174858.995000", "174859.455000", "174859.915000", "174900.375000", "174900.835000", "174901.295000", "174901.755000", "174902.215000", "174902.675000", "174903.135000", "174903.595000", "174904.055000", "174904.515000", "174904.975000", "174905.435000", "174905.895000", "174906.355000", "174906.815000", "174907.275000", "174907.735000", "174908.195000", "174908.655000", "174909.115000", "174909.575000", "174910.035000", "174910.495000", "174910.955000", "174911.415000", "174911.875000", "174912.335000", "174912.795000", "174913.255000", "174913.715000", "174914.175000", "174914.635000", "174915.095000", "174915.555000", "174916.015000", "174916.475000", "174916.935000", "174917.395000", "174917.855000", "174918.315000", "174918.775000", "174919.235000", "174919.695000", "174920.155000", "174920.615000", "174921.075000", "174921.535000", "174921.995000", "174922.455000", "174922.915000", "174923.375000", "174923.835000", "174924.295000", "174924.755000", "174925.215000", "174925.675000", "174926.135000", "174926.595000", "174927.055000", "174927.515000", "174927.975000", "174928.435000", "174928.895000", "174929.355000", "174929.815000", "174930.275000", "174930.735000", "174931.195000", "174931.655000", "174932.115000", "174932.575000", "174933.035000", "174933.495000", "174933.955000", "174934.415000", "174934.875000", "174935.335000", "174935.795000", "174936.255000", "174936.715000", "174937.175000", "174937.635000", "174938.095000", "174938.555000", "174939.015000", "174939.475000", "174939.935000", "174940.395000", "174940.855000", "174941.315000", "174941.775000", "174942.235000", "174942.695000", "174943.155000", "174943.615000", "174944.075000", "174944.535000", "174944.995000", "174945.455000", "174945.915000", "174946.375000", "174946.835000", "174947.295000", "174947.755000", "174948.215000", "174948.675000", "174949.135000", "174949.595000", "174950.055000", "174950.515000", "174950.975000", "174951.435000", "174951.895000", "174952.355000", "174952.815000", "174953.275000", "174953.735000", "174954.195000", "174954.655000", "174955.115000", "174955.575000", "174956.035000", "174956.495000", "174956.955000", "174957.415000", "174957.875000", "174958.335000", "174958.795000", "174959.255000", "174959.715000", "175000.175000", "175000.635000", "175001.095000", "175001.555000", "175002.015000", "175002.475000", "175002.935000", "175003.395000", "175003.855000", "175004.315000", "175004.775000", "175005.235000", "175005.695000", "175006.155000", "175006.615000", "175007.075000", "175007.535000", "175007.995000", "175008.455000", "175008.915000", "175009.375000", "175009.835000", "175010.295000", "175010.755000", "175011.215000", "175011.675000", "175012.135000", "175012.595000", "175013.055000", "175013.515000", "175013.975000", "175014.435000", "175014.895000", "175015.355000", "175015.815000", "175016.275000", "175016.735000", "175017.195000", "175017.655000", "175018.115000", "175018.575000", "175019.035000", "175019.495000", "175019.955000", "175020.415000", "175020.875000", "175021.335000", "175021.795000", "175022.255000", "175022.715000", "175023.175000", "175023.635000", "175024.095000", "175024.555000", "175025.015000", "175025.475000", "175025.935000", "175026.395000", "175026.855000", "175027.315000", "175027.775000", "175028.235000", "175028.695000", "175029.155000", "175029.615000", "175030.075000", "175030.535000", "175030.995000", "175031.455000", "175031.915000", "175032.375000", "175032.835000", "175033.295000", "175033.755000", "175034.215000", "175034.675000", "175035.135000", "175035.595000", "175036.055000", "175036.515000", "175036.975000", "175037.435000", "175037.895000", "175038.355000", "175038.815000", "175039.275000", "175039.735000", "175040.195000", "175040.655000", "175041.115000", "175041.575000", "175042.035000", "175042.495000", "175042.955000", "175043.415000", "175043.875000", "175044.335000", "175044.795000", "175045.255000", "175045.715000", "175046.175000", "175046.635000", "175047.095000", "175047.555000", "175048.015000", "175048.475000", "175048.935000", "175049.395000", "175049.855000", "175050.315000", "175050.775000", "175051.235000", "175051.695000", "175052.155000", "175052.615000", "175053.075000", "175053.535000", "175053.995000", "175054.455000", "175054.915000", "175055.375000", "175055.835000", "175056.295000", "175056.755000", "175057.215000", "175057.675000", "175058.135000", "175058.595000", "175059.055000", "175059.515000", "175059.975000", "175100.435000", "175100.895000", "175101.355000", "175101.815000", "175102.275000", "175102.735000", "175103.195000", "175103.655000", "175104.115000", "175104.575000", "175105.035000", "175105.495000", "175105.955000", "175106.415000", "175106.875000", "175107.335000", "175107.795000", "175108.255000", "175108.715000", "175109.175000", "175109.635000", "175110.095000", "175110.555000", "175111.015000", "175111.475000", "175111.935000", "175112.395000", "175112.855000", "175113.315000", "175113.775000", "175114.235000", "175114.695000", "175115.155000", "175115.615000", "175116.075000", "175116.535000", "175116.995000", "175117.455000", "175117.915000", "175118.375000", "175118.835000", "175119.295000", "175119.755000", "175120.215000", "175120.675000", "175121.135000", "175121.595000", "175122.055000", "175122.515000", "175122.975000", "175123.435000", "175123.895000", "175124.355000", "175124.815000", "175125.275000", "175125.735000", "175126.195000", "175126.655000", "175127.115000", "175127.575000", "175128.035000", "175128.495000", "175128.955000", "175129.415000", "175129.875000", "175130.335000", "175130.795000", "175131.255000", "175131.715000", "175132.175000", "175132.635000", "175133.095000", "175133.555000", "175134.015000", "175134.475000", "175134.935000", "175135.395000", "175135.855000", "175136.315000", "175136.775000", "175137.235000", "175137.695000", "175138.155000", "175138.615000", "175139.075000", "175139.535000", "175139.995000", "175140.455000", "175140.915000", "175141.375000", "175141.835000", "175142.295000", "175142.755000", "175143.215000", "175143.675000", "175144.135000", "175144.595000", "175145.055000", "175145.515000", "175145.975000", "175146.435000", "175146.895000", "175147.355000", "175147.815000", "175148.275000", "175148.735000", "175149.195000", "175149.655000", "175150.115000", "175150.575000", "175151.035000", "175151.495000", "175151.955000", "175152.415000", "175152.875000", "175153.335000", "175153.795000", "175154.255000", "175154.715000", "175155.175000", "175155.635000", "175156.095000", "175156.555000", "175157.015000", "175157.475000", "175157.935000", "175158.395000", "175158.855000", "175159.315000", "175159.775000", "175200.235000", "175200.695000", "175201.155000", "175201.615000", "175202.075000", "175202.535000", "175202.995000", "175203.455000", "175203.915000", "175204.375000", "175204.835000", "175205.295000", "175205.755000", "175206.215000", "175206.675000", "175207.135000", "175207.595000", "175208.055000", "175208.515000", "175208.975000", "175209.435000", "175209.895000", "175210.355000", "175210.815000", "175211.275000", "175211.735000", "175212.195000", "175212.655000", "175213.115000", "175213.575000", "175214.035000", "175214.495000", "175214.955000", "175215.415000", "175215.875000", "175216.335000", "175216.795000", "175217.255000", "175217.715000", "175218.175000", "175218.635000", "175219.095000", "175219.555000", "175220.015000", "175220.475000", "175220.935000", "175221.395000", "175221.855000", "175222.315000", "175222.775000", "175223.235000", "175223.695000", "175224.155000", "175224.615000", "175225.075000", "175225.535000", "175225.995000", "175226.455000", "175226.915000", "175227.375000", "175227.835000", "175228.295000", "175228.755000", "175229.215000", "175229.675000", "175230.135000", "175230.595000", "175231.055000", "175231.515000", "175231.975000", "175232.435000", "175232.895000", "175233.355000", "175233.815000", "175234.275000", "175234.735000", "175235.195000", "175235.655000", "175236.115000", "175236.575000", "175237.035000", "175237.495000", "175237.955000", "175238.415000", "175238.875000", "175239.335000", "175239.795000", "175240.255000", "175240.715000", "175241.175000", "175241.635000", "175242.095000", "175242.555000", "175243.015000", "175243.475000", "175243.935000", "175244.395000", "175244.855000", "175245.315000", "175245.775000", "175246.235000", "175246.695000", "175247.155000", "175247.615000", "175248.075000", "175248.535000", "175248.995000", "175249.455000", "175249.915000", "175250.375000", "175250.835000", "175251.295000", "175251.755000", "175252.215000", "175252.675000", "175253.135000", "175253.595000", "175254.055000", "175254.515000", "175254.975000", "175255.435000", "175255.895000", "175256.355000", "175256.815000", "175257.275000", "175257.735000", "175258.195000", "175258.655000", "175259.115000", "175259.575000", "175300.035000", "175300.495000", "175300.955000", "175301.415000", "175301.875000", "175302.335000", "175302.795000", "175303.255000", "175303.715000", "175304.175000", "175304.635000", "175305.095000", "175305.555000", "175306.015000", "175306.475000", "175306.935000", "175307.395000", "175307.855000", "175308.315000", "175308.775000", "175309.235000", "175309.695000", "175310.155000", "175310.615000", "175311.075000", "175311.535000", "175311.995000", "175312.455000", "175312.915000", "175313.375000", "175313.835000", "175314.295000", "175314.755000", "175315.215000", "175315.675000", "175316.135000", "175316.595000", "175317.055000", "175317.515000", "175317.975000", "175318.435000", "175318.895000", "175319.355000", "175319.815000", "175320.275000", "175320.735000", "175321.195000", "175321.655000", "175322.115000", "175322.575000", "175323.035000", "175323.495000", "175323.955000", "175324.415000", "175324.875000", "175325.335000", "175325.795000", "175326.255000", "175326.715000", "175327.175000", "175327.635000", "175328.095000", "175328.555000", "175329.015000", "175329.475000", "175329.935000", "175330.395000", "175330.855000", "175331.315000", "175331.775000", "175332.235000", "175332.695000", "175333.155000", "175333.615000", "175334.075000", "175334.535000", "175334.995000", "175335.455000", "175335.915000", "175336.375000", "175336.835000", "175337.295000", "175337.755000", "175338.215000", "175338.675000", "175339.135000", "175339.595000", "175340.055000", "175340.515000", "175340.975000", "175341.435000", "175341.895000", "175342.355000", "175342.815000", "175343.275000", "175343.735000", "175344.195000", "175344.655000", "175345.115000", "175345.575000", "175346.035000", "175346.495000", "175346.955000", "175347.415000", "175347.875000", "175348.335000", "175348.795000", "175349.255000", "175349.715000", "175350.175000", "175350.635000", "175351.095000", "175351.555000", "175352.015000", "175352.475000", "175352.935000", "175353.395000", "175353.855000", "175354.315000", "175354.775000", "175355.235000", "175355.695000", "175356.155000", "175356.615000", "175357.075000", "175357.535000", "175357.995000", "175358.455000", "175358.915000", "175359.375000"],
