{
  "AcquisitionMatrixPE": 82,
  "AcquisitionNumber": 1,
  "AcquisitionTime": "18:07:39.147500",
  "BandwidthPerPixelPhaseEncode": 24.888,
  "BaseResolution": 82,
  "BodyPartExamined": "BRAIN",
  "ConsistencyInfo": "N4_VE11E_LATEST_20181129",
  "ConversionSoftware": "dcm2niix",
  "ConversionSoftwareVersion": "v1.0.20201102",
  "DerivedVendorReportedEchoSpacing": 0.00049,
  "DeviceSerialNumber": "66112",
  "DwellTime": 2e-06,
  "EchoTime": 0.0272,
  "EchoTrainLength": 82,
  "EffectiveEchoSpacing": 0.00049,
  "FlipAngle": 44,
  "ImageComments": "Unaliased MB8/PE3",
  "ImageOrientationPatientDICOM": [0.99935, -0.00892469, 0.0349279, 0.00418602, 0.991045, 0.13346],
  "ImageType": [
    "ORIGINAL",
    "PRIMARY",
    "M",
    "MB",
    "ND",
    "NORM",
    "MOSAIC"
],
  "ImagingFrequency": 123.259,
  "InPlanePhaseEncodingDirectionDICOM": "COL",
  "InstitutionAddress": "Maynard 3,Hanover,NH,US,03755",
  "InstitutionName": "Dartmouth College - PBS",
  "InstitutionalDepartmentName": "Department",
  "MRAcquisitionType": "2D",
  "MagneticFieldStrength": 3,
  "Manufacturer": "Siemens",
  "ManufacturersModelName": "Prisma",
  "Modality": "MR",
  "MultibandAccelerationFactor": 8,
  "PartialFourier": 1,
  "PatientPosition": "HFS",
  "PercentPhaseFOV": 100,
  "PercentSampling": 100,
  "PhaseEncodingDirection": "j-",
  "PhaseEncodingSteps": 82,
  "PhaseResolution": 1,
  "PixelBandwidth": 3050,
  "ProcedureStepDescription": "Wager_Wager^1076_spacetop",
  "ProtocolName": "func_run-01_task-alignvideo_acq-ap-mb8",
  "PulseSequenceDetails": "%CustomerSeq%\\cmrr_mbep2d_bold",
  "ReceiveCoilActiveElements": "HEA;HEP",
  "ReceiveCoilName": "Head_32",
  "ReconMatrixPE": 82,
  "RepetitionTime": 0.46,
  "SAR": 0.085057,
  "ScanOptions": "FS",
  "ScanningSequence": "EP",
  "SequenceName": "epfid2d1_82",
  "SequenceVariant": "SK\\SS",
  "SeriesDescription": "func_run-01_task-alignvideo_acq-ap-mb8",
  "SeriesNumber": 30,
  "ShimSetting": [4225, -7818, -7219, 427, -199, 70, 194, 108],
  "SliceThickness": 2.7,
  "SliceTiming": [0, 0.25, 0.0625, 0.3125, 0.125, 0.3775, 0.1875, 0, 0.25, 0.0625, 0.3125, 0.125, 0.3775, 0.1875, 0, 0.25, 0.0625, 0.3125, 0.125, 0.3775, 0.1875, 0, 0.25, 0.0625, 0.3125, 0.125, 0.3775, 0.1875, 0, 0.25, 0.0625, 0.3125, 0.125, 0.3775, 0.1875, 0, 0.25, 0.0625, 0.3125, 0.125, 0.3775, 0.1875, 0, 0.25, 0.0625, 0.3125, 0.125, 0.3775, 0.1875, 0, 0.25, 0.0625, 0.3125, 0.125, 0.3775, 0.1875],
  "SoftwareVersions": "syngo MR E11",
  "SpacingBetweenSlices": 2.7,
  "StationName": "AWP66112",
  "TaskName": "alignvideo",
  "TotalReadoutTime": 0.03969,
  "TxRefAmp": 221.671,
  "WipMemBlock": "fefc494e-976e-473d-9cfd-86c2f5b38f46||Sequence: R016 ve11e/master r/434b28f1; Aug  7 2019 18:53:46 by eja",
  "dcmmeta_affine": [
    [-2.681182861328125, 0.011230777949094772, 0.09667690843343735, 107.25578308105469],
    [0.023944290354847908, 2.658902406692505, 0.35971248149871826, -121.2751235961914],
    [0.09370911121368408, -0.35806289315223694, 2.6741840839385986, -58.13999557495117],
    [0.0, 0.0, 0.0, 1.0]
],
  "dcmmeta_reorient_transform": [
    [0.0, -1.0, 0.0, 81.0],
    [1.0, 0.0, 0.0, 0.0],
    [0.0, 0.0, 1.0, 0.0],
    [0.0, 0.0, 0.0, 1.0]
],
  "dcmmeta_shape": [82, 82, 56, 839],
  "dcmmeta_slice_dim": 2,
  "dcmmeta_version": 0.6,
  "global": {
    "const": {
      "AccessionNumber": "A004813",
      "AcquisitionMatrix": [82, 0, 0, 82],
      "AngioFlag": "N",
      "BitsAllocated": 16,
      "BitsStored": 16,
      "BodyPartExamined": "BRAIN",
      "Columns": 656,
      "EchoNumbers": 1,
      "EchoTime": 27.2,
      "EchoTrainLength": 82,
      "FlipAngle": 44.0,
      "HighBit": 15,
      "ImageOrientationPatient": [0.99934998318879, -0.0089246895579, 0.03492794034672, 0.00418601729981, 0.99104538635838, 0.13345980457404],
      "ImagePositionPatient": [-880.88821315415, -850.32891784928, -216.80165668525],
      "ImageType": [
        "ORIGINAL",
        "PRIMARY",
        "M",
        "MB",
        "ND",
        "NORM",
        "MOSAIC"
],
      "ImagedNucleus": "1H",
      "ImagingFrequency": 123.259091,
      "InPlanePhaseEncodingDirection": "COL",
      "MRAcquisitionType": "2D",
      "MagneticFieldStrength": 3.0,
      "Manufacturer": "SIEMENS",
      "ManufacturerModelName": "Prisma",
      "Modality": "MR",
      "NumberOfAverages": 1.0,
      "NumberOfPhaseEncodingSteps": 82,
      "PercentPhaseFieldOfView": 100.0,
      "PercentSampling": 100.0,
      "PerformedProcedureStepStartTime": "165345.895000",
      "PhotometricInterpretation": "MONOCHROME2",
      "PixelBandwidth": 3050.0,
      "PixelRepresentation": 0,
      "PixelSpacing": [2.6829268932343, 2.6829268932343],
      "ProtocolName": "func_run-01_task-alignvideo_acq-ap-mb8",
      "RepetitionTime": 460.0,
      "Rows": 656,
      "SAR": 0.08505695159078,
      "SamplesPerPixel": 1,
      "ScanOptions": "FS",
      "ScanningSequence": "EP",
      "SequenceName": "epfid2d1_82",
      "SequenceVariant": [
        "SK",
        "SS"
],
      "SeriesDescription": "func_run-01_task-alignvideo_acq-ap-mb8",
      "SeriesNumber": 30,
      "SeriesTime": "180805.684000",
      "SliceLocation": -69.900766105166,
      "SliceThickness": 2.7000000476837,
      "SmallestImagePixelValue": 0,
      "SoftwareVersions": "syngo MR E11",
      "SpacingBetweenSlices": 2.6999999887783,
      "SpecificCharacterSet": "ISO_IR 100",
      "StudyID": "1",
      "StudyTime": "165345.805000",
      "TransmitCoilName": "Body",
      "VariableFlipAngleFlag": "N",
      "WindowCenterWidthExplanation": "Algo1"
    },
    "slices": {}
  },
  "time": {
    "samples": {
      "AcquisitionNumber": [1, 2, 3, 4, 5, 6, 7, 8, 9, 10, 11, 12, 13, 14, 15, 16, 17, 18, 19, 20, 21, 22, 23, 24, 25, 26, 27, 28, 29, 30, 31, 32, 33, 34, 35, 36, 37, 38, 39, 40, 41, 42, 43, 44, 45, 46, 47, 48, 49, 50, 51, 52, 53, 54, 55, 56, 57, 58, 59, 60, 61, 62, 63, 64, 65, 66, 67, 68, 69, 70, 71, 72, 73, 74, 75, 76, 77, 78, 79, 80, 81, 82, 83, 84, 85, 86, 87, 88, 89, 90, 91, 92, 93, 94, 95, 96, 97, 98, 99, 100, 101, 102, 103, 104, 105, 106, 107, 108, 109, 110, 111, 112, 113, 114, 115, 116, 117, 118, 119, 120, 121, 122, 123, 124, 125, 126, 127, 128, 129, 130, 131, 132, 133, 134, 135, 136, 137, 138, 139, 140, 141, 142, 143, 144, 145, 146, 147, 148, 149, 150, 151, 152, 153, 154, 155, 156, 157, 158, 159, 160, 161, 162, 163, 164, 165, 166, 167, 168, 169, 170, 171, 172, 173, 174, 175, 176, 177, 178, 179, 180, 181, 182, 183, 184, 185, 186, 187, 188, 189, 190, 191, 192, 193, 194, 195, 196, 197, 198, 199, 200, 201, 202, 203, 204, 205, 206, 207, 208, 209, 210, 211, 212, 213, 214, 215, 216, 217, 218, 219, 220, 221, 222, 223, 224, 225, 226, 227, 228, 229, 230, 231, 232, 233, 234, 235, 236, 237, 238, 239, 240, 241, 242, 243, 244, 245, 246, 247, 248, 249, 250, 251, 252, 253, 254, 255, 256, 257, 258, 259, 260, 261, 262, 263, 264, 265, 266, 267, 268, 269, 270, 271, 272, 273, 274, 275, 276, 277, 278, 279, 280, 281, 282, 283, 284, 285, 286, 287, 288, 289, 290, 291, 292, 293, 294, 295, 296, 297, 298, 299, 300, 301, 302, 303, 304, 305, 306, 307, 308, 309, 310, 311, 312, 313, 314, 315, 316, 317, 318, 319, 320, 321, 322, 323, 324, 325, 326, 327, 328, 329, 330, 331, 332, 333, 334, 335, 336, 337, 338, 339, 340, 341, 342, 343, 344, 345, 346, 347, 348, 349, 350, 351, 352, 353, 354, 355, 356, 357, 358, 359, 360, 361, 362, 363, 364, 365, 366, 367, 368, 369, 370, 371, 372, 373, 374, 375, 376, 377, 378, 379, 380, 381, 382, 383, 384, 385, 386, 387, 388, 389, 390, 391, 392, 393, 394, 395, 396, 397, 398, 399, 400, 401, 402, 403, 404, 405, 406, 407, 408, 409, 410, 411, 412, 413, 414, 415, 416, 417, 418, 419, 420, 421, 422, 423, 424, 425, 426, 427, 428, 429, 430, 431, 432, 433, 434, 435, 436, 437, 438, 439, 440, 441, 442, 443, 444, 445, 446, 447, 448, 449, 450, 451, 452, 453, 454, 455, 456, 457, 458, 459, 460, 461, 462, 463, 464, 465, 466, 467, 468, 469, 470, 471, 472, 473, 474, 475, 476, 477, 478, 479, 480, 481, 482, 483, 484, 485, 486, 487, 488, 489, 490, 491, 492, 493, 494, 495, 496, 497, 498, 499, 500, 501, 502, 503, 504, 505, 506, 507, 508, 509, 510, 511, 512, 513, 514, 515, 516, 517, 518, 519, 520, 521, 522, 523, 524, 525, 526, 527, 528, 529, 530, 531, 532, 533, 534, 535, 536, 537, 538, 539, 540, 541, 542, 543, 544, 545, 546, 547, 548, 549, 550, 551, 552, 553, 554, 555, 556, 557, 558, 559, 560, 561, 562, 563, 564, 565, 566, 567, 568, 569, 570, 571, 572, 573, 574, 575, 576, 577, 578, 579, 580, 581, 582, 583, 584, 585, 586, 587, 588, 589, 590, 591, 592, 593, 594, 595, 596, 597, 598, 599, 600, 601, 602, 603, 604, 605, 606, 607, 608, 609, 610, 611, 612, 613, 614, 615, 616, 617, 618, 619, 620, 621, 622, 623, 624, 625, 626, 627, 628, 629, 630, 631, 632, 633, 634, 635, 636, 637, 638, 639, 640, 641, 642, 643, 644, 645, 646, 647, 648, 649, 650, 651, 652, 653, 654, 655, 656, 657, 658, 659, 660, 661, 662, 663, 664, 665, 666, 667, 668, 669, 670, 671, 672, 673, 674, 675, 676, 677, 678, 679, 680, 681, 682, 683, 684, 685, 686, 687, 688, 689, 690, 691, 692, 693, 694, 695, 696, 697, 698, 699, 700, 701, 702, 703, 704, 705, 706, 707, 708, 709, 710, 711, 712, 713, 714, 715, 716, 717, 718, 719, 720, 721, 722, 723, 724, 725, 726, 727, 728, 729, 730, 731, 732, 733, 734, 735, 736, 737, 738, 739, 740, 741, 742, 743, 744, 745, 746, 747, 748, 749, 750, 751, 752, 753, 754, 755, 756, 757, 758, 759, 760, 761, 762, 763, 764, 765, 766, 767, 768, 769, 770, 771, 772, 773, 774, 775, 776, 777, 778, 779, 780, 781, 782, 783, 784, 785, 786, 787, 788, 789, 790, 791, 792, 793, 794, 795, 796, 797, 798, 799, 800, 801, 802, 803, 804, 805, 806, 807, 808, 809, 810, 811, 812, 813, 814, 815, 816, 817, 818, 819, 820, 821, 822, 823, 824, 825, 826, 827, 828, 829, 830, 831, 832, 833, 834, 835, 836, 837, 838, 839],
      "AcquisitionTime": ["180739.147500", "180739.607500", "180740.067500", "180740.527500", "180740.987500", "180741.447500", "180741.907500", "180742.367500", "180742.827500", "180743.287500", "180743.747500", "180744.207500", "180744.667500", "180745.127500", "180745.587500", "180746.047500", "180746.507500", "180746.967500", "180747.427500", "180747.887500", "180748.347500", "180748.807500", "180749.267500", "180749.727500", "180750.187500", "180750.647500", "180751.107500", "180751.567500", "180752.027500", "180752.487500", "180752.947500", "180753.407500", "180753.867500", "180754.327500", "180754.787500", "180755.247500", "180755.707500", "180756.167500", "180756.627500", "180757.087500", "180757.547500", "180758.007500", "180758.467500", "180758.927500", "180759.387500", "180759.847500", "180800.307500", "180800.767500", "180801.227500", "180801.687500", "180802.147500", "180802.607500", "180803.067500", "180803.527500", "180803.987500", "180804.447500", "180804.907500", "180805.367500", "180805.827500", "180806.287500", "180806.747500", "180807.207500", "180807.667500", "180808.127500", "180808.587500", "180809.047500", "180809.507500", "180809.967500", "180810.427500", "180810.887500", "180811.347500", "180811.807500", "180812.267500", "180812.727500", "180813.187500", "180813.647500", "180814.107500", "180814.567500", "180815.027500", "180815.487500", "180815.947500", "180816.407500", "180816.867500", "180817.327500", "180817.787500", "180818.247500", "180818.707500", "180819.167500", "180819.627500", "180820.087500", "180820.547500", "180821.007500", "180821.467500", "180821.927500", "180822.387500", "180822.847500", "180823.307500", "180823.767500", "180824.227500", "180824.687500", "180825.147500", "180825.607500", "180826.067500", "180826.527500", "180826.987500", "180827.447500", "180827.907500", "180828.367500", "180828.827500", "180829.287500", "180829.747500", "180830.207500", "180830.667500", "180831.127500", "180831.587500", "180832.047500", "180832.507500", "180832.967500", "180833.427500", "180833.887500", "180834.347500", "180834.807500", "180835.267500", "180835.727500", "180836.187500", "180836.647500", "180837.107500", "180837.567500", "180838.027500", "180838.487500", "180838.947500", "180839.407500", "180839.867500", "180840.327500", "180840.787500", "180841.247500", "180841.707500", "180842.167500", "180842.627500", "180843.087500", "180843.547500", "180844.007500", "180844.467500", "180844.927500", "180845.387500", "180845.847500", "180846.307500", "180846.767500", "180847.227500", "180847.687500", "180848.147500", "180848.607500", "180849.067500", "180849.527500", "180849.987500", "180850.447500", "180850.907500", "180851.367500", "180851.827500", "180852.287500", "180852.747500", "180853.207500", "180853.667500", "180854.127500", "180854.587500", "180855.047500", "180855.507500", "180855.967500", "180856.427500", "180856.887500", "180857.347500", "180857.807500", "180858.267500", "180858.727500", "180859.187500", "180859.647500", "180900.107500", "180900.567500", "180901.027500", "180901.487500", "180901.947500", "180902.407500", "180902.867500", "180903.327500", "180903.787500", "180904.247500", "180904.707500", "180905.167500", "180905.627500", "180906.087500", "180906.547500", "180907.007500", "180907.467500", "180907.927500", "180908.387500", "180908.847500", "180909.307500", "180909.767500", "180910.227500", "180910.687500", "180911.147500", "180911.607500", "180912.067500", "180912.527500", "180912.987500", "180913.447500", "180913.907500", "180914.367500", "180914.827500", "180915.287500", "180915.747500", "180916.207500", "180916.667500", "180917.127500", "180917.587500", "180918.047500", "180918.507500", "180918.967500", "180919.427500", "180919.887500", "180920.347500", "180920.807500", "180921.267500", "180921.727500", "180922.187500", "180922.647500", "180923.107500", "180923.567500", "180924.027500", "180924.487500", "180924.947500", "180925.407500", "180925.867500", "180926.327500", "180926.787500", "180927.247500", "180927.707500", "180928.167500", "180928.627500", "180929.087500", "180929.547500", "180930.007500", "180930.467500", "180930.927500", "180931.387500", "180931.847500", "180932.307500", "180932.767500", "180933.227500", "180933.687500", "180934.147500", "180934.607500", "180935.067500", "180935.527500", "180935.987500", "180936.447500", "180936.907500", "180937.367500", "180937.827500", "180938.287500", "180938.747500", "180939.207500", "180939.667500", "180940.127500", "180940.587500", "180941.047500", "180941.507500", "180941.967500", "180942.427500", "180942.887500", "180943.347500", "180943.807500", "180944.267500", "180944.727500", "180945.187500", "180945.647500", "180946.107500", "180946.567500", "180947.027500", "180947.487500", "180947.947500", "180948.407500", "180948.867500", "180949.327500", "180949.787500", "180950.247500", "180950.707500", "180951.167500", "180951.627500", "180952.087500", "180952.547500", "180953.007500", "180953.467500", "180953.927500", "180954.387500", "180954.847500", "180955.307500", "180955.767500", "180956.227500", "180956.687500", "180957.147500", "180957.607500", "180958.067500", "180958.527500", "180958.987500", "180959.447500", "180959.907500", "181000.367500", "181000.827500", "181001.287500", "181001.747500", "181002.207500", "181002.667500", "181003.127500", "181003.587500", "181004.047500", "181004.507500", "181004.967500", "181005.427500", "181005.887500", "181006.347500", "181006.807500", "181007.267500", "181007.727500", "181008.187500", "181008.647500", "181009.107500", "181009.567500", "181010.027500", "181010.487500", "181010.947500", "181011.407500", "181011.867500", "181012.327500", "181012.787500", "181013.247500", "181013.707500", "181014.167500", "181014.627500", "181015.087500", "181015.547500", "181016.007500", "181016.467500", "181016.927500", "181017.387500", "181017.847500", "181018.307500", "181018.767500", "181019.227500", "181019.687500", "181020.147500", "181020.607500", "181021.067500", "181021.527500", "181021.987500", "181022.447500", "181022.907500", "181023.367500", "181023.827500", "181024.287500", "181024.747500", "181025.207500", "181025.667500", "181026.127500", "181026.587500", "181027.047500", "181027.507500", "181027.967500", "181028.427500", "181028.887500", "181029.347500", "181029.807500", "181030.267500", "181030.727500", "181031.187500", "181031.647500", "181032.107500", "181032.567500", "181033.027500", "181033.487500", "181033.947500", "181034.407500", "181034.867500", "181035.327500", "181035.787500", "181036.247500", "181036.707500", "181037.167500", "181037.627500", "181038.087500", "181038.547500", "181039.007500", "181039.467500", "181039.927500", "181040.387500", "181040.847500", "181041.307500", "181041.767500", "181042.227500", "181042.687500", "181043.147500", "181043.607500", "181044.067500", "181044.527500", "181044.987500", "181045.447500", "181045.907500", "181046.367500", "181046.827500", "181047.287500", "181047.747500", "181048.207500", "181048.667500", "181049.127500", "181049.587500", "181050.047500", "181050.507500", "181050.967500", "181051.427500", "181051.887500", "181052.347500", "181052.807500", "181053.267500", "181053.727500", "181054.187500", "181054.647500", "181055.107500", "181055.567500", "181056.027500", "181056.487500", "181056.947500", "181057.407500", "181057.867500", "181058.327500", "181058.787500", "181059.247500", "181059.707500", "181100.167500", "181100.627500", "181101.087500", "181101.547500", "181102.007500", "181102.467500", "181102.927500", "181103.387500", "181103.847500", "181104.307500", "181104.767500", "181105.227500", "181105.687500", "181106.147500", "181106.607500", "181107.067500", "181107.527500", "181107.987500", "181108.447500", "181108.907500", "181109.367500", "181109.827500", "181110.287500", "181110.747500", "181111.207500", "181111.667500", "181112.127500", "181112.587500", "181113.047500", "181113.507500", "181113.967500", "181114.427500", "181114.887500", "181115.347500", "181115.807500", "181116.267500", "181116.727500", "181117.187500", "181117.647500", "181118.107500", "181118.567500", "181119.027500", "181119.487500", "181119.947500", "181120.407500", "181120.867500", "181121.327500", "181121.787500", "181122.247500", "181122.707500", "181123.167500", "181123.627500", "181124.087500", "181124.547500", "181125.007500", "181125.467500", "181125.927500", "181126.387500", "181126.847500", "181127.307500", "181127.767500", "181128.227500", "181128.687500", "181129.147500", "181129.607500", "181130.067500", "181130.527500", "181130.987500", "181131.447500", "181131.907500", "181132.367500", "181132.827500", "181133.287500", "181133.747500", "181134.207500", "181134.667500", "181135.127500", "181135.587500", "181136.047500", "181136.507500", "181136.967500", "181137.427500", "181137.887500", "181138.347500", "181138.807500", "181139.267500", "181139.727500", "181140.187500", "181140.647500", "181141.107500", "181141.567500", "181142.027500", "181142.487500", "181142.947500", "181143.407500", "181143.867500", "181144.327500", "181144.787500", "181145.247500", "181145.707500", "181146.167500", "181146.627500", "181147.087500", "181147.547500", "181148.007500", "181148.467500", "181148.927500", "181149.387500", "181149.847500", "181150.307500", "181150.767500", "181151.227500", "181151.687500", "181152.147500", "181152.607500", "181153.067500", "181153.527500", "181153.987500", "181154.447500", "181154.907500", "181155.367500", "181155.827500", "181156.287500", "181156.747500", "181157.207500", "181157.667500", "181158.127500", "181158.587500", "181159.047500", "181159.507500", "181159.967500", "181200.427500", "181200.887500", "181201.347500", "181201.807500", "181202.267500", "181202.727500", "181203.187500", "181203.647500", "181204.107500", "181204.567500", "181205.027500", "181205.487500", "181205.947500", "181206.407500", "181206.867500", "181207.327500", "181207.787500", "181208.247500", "181208.707500", "181209.167500", "181209.627500", "181210.087500", "181210.547500", "181211.007500", "181211.467500", "181211.927500", "181212.387500", "181212.847500", "181213.307500", "181213.767500", "181214.227500", "181214.687500", "181215.147500", "181215.607500", "181216.067500", "181216.527500", "181216.987500", "181217.447500", "181217.907500", "181218.367500", "181218.827500", "181219.287500", "181219.747500", "181220.207500", "181220.667500", "181221.127500", "181221.587500", "181222.047500", "181222.507500", "181222.967500", "181223.427500", "181223.887500", "181224.347500", "181224.807500", "181225.267500", "181225.727500", "181226.187500", "181226.647500", "181227.107500", "181227.567500", "181228.027500", "181228.487500", "181228.947500", "181229.407500", "181229.867500", "181230.327500", "181230.787500", "181231.247500", "181231.707500", "181232.167500", "181232.627500", "181233.087500", "181233.547500", "181234.007500", "181234.467500", "181234.927500", "181235.387500", "181235.847500", "181236.307500", "181236.767500", "181237.227500", "181237.687500", "181238.147500", "181238.607500", "181239.067500", "181239.527500", "181239.987500", "181240.447500", "181240.907500", "181241.367500", "181241.827500", "181242.287500", "181242.747500", "181243.207500", "181243.667500", "181244.127500", "181244.587500", "181245.047500", "181245.507500", "181245.967500", "181246.427500", "181246.887500", "181247.347500", "181247.807500", "181248.267500", "181248.727500", "181249.187500", "181249.647500", "181250.107500", "181250.567500", "181251.027500", "181251.487500", "181251.947500", "181252.407500", "181252.867500", "181253.327500", "181253.787500", "181254.247500", "181254.707500", "181255.167500", "181255.627500", "181256.087500", "181256.547500", "181257.007500", "181257.467500", "181257.927500", "181258.387500", "181258.847500", "181259.307500", "181259.767500", "181300.227500", "181300.687500", "181301.147500", "181301.607500", "181302.067500", "181302.527500", "181302.987500", "181303.447500", "181303.907500", "181304.367500", "181304.827500", "181305.287500", "181305.747500", "181306.207500", "181306.667500", "181307.127500", "181307.587500", "181308.047500", "181308.507500", "181308.967500", "181309.427500", "181309.887500", "181310.347500", "181310.807500", "181311.267500", "181311.727500", "181312.187500", "181312.647500", "181313.107500", "181313.567500", "181314.027500", "181314.487500", "181314.947500", "181315.407500", "181315.867500", "181316.327500", "181316.787500", "181317.247500", "181317.707500", "181318.167500", "181318.627500", "181319.087500", "181319.547500", "181320.007500", "181320.467500", "181320.927500", "181321.387500", "181321.847500", "181322.307500", "181322.767500", "181323.227500", "181323.687500", "181324.147500", "181324.607500", "181325.067500", "181325.527500", "181325.987500", "181326.447500", "181326.907500", "181327.367500", "181327.827500", "181328.287500", "181328.747500", "181329.207500", "181329.667500", "181330.127500", "181330.587500", "181331.047500", "181331.507500", "181331.967500", "181332.427500", "181332.887500", "181333.347500", "181333.807500", "181334.267500", "181334.727500", "181335.187500", "181335.647500", "181336.107500", "181336.567500", "181337.027500", "181337.487500", "181337.947500", "181338.407500", "181338.867500", "181339.327500", "181339.787500", "181340.247500", "181340.707500", "181341.167500", "181341.627500", "181342.087500", "181342.547500", "181343.007500", "181343.467500", "181343.927500", "181344.387500", "181344.847500", "181345.307500", "181345.767500", "181346.227500", "181346.687500", "181347.147500", "181347.607500", "181348.067500", "181348.527500", "181348.987500", "181349.447500", "181349.907500", "181350.367500", "181350.827500", "181351.287500", "181351.747500", "181352.207500", "181352.667500", "181353.127500", "181353.587500", "181354.047500", "181354.507500", "181354.967500", "181355.427500", "181355.887500", "181356.347500", "181356.807500", "181357.267500", "181357.727500", "181358.187500", "181358.647500", "181359.107500", "181359.567500", "181400.027500", "181400.487500", "181400.947500", "181401.407500", "181401.867500", "181402.327500", "181402.787500", "181403.247500", "181403.707500", "181404.167500", "181404.627500"],
