{
  "AcquisitionMatrixPE": 82,
  "AcquisitionNumber": 1,
  "AcquisitionTime": "17:49:57.135000",
  "BandwidthPerPixelPhaseEncode": 24.888,
  "BaseResolution": 82,
  "BodyPartExamined": "BRAIN",
  "ConsistencyInfo": "N4_VE11E_LATEST_20181129",
  "ConversionSoftware": "dcm2niix",
  "ConversionSoftwareVersion": "v1.0.20201102",
  "DerivedVendorReportedEchoSpacing": 0.00049,
  "DeviceSerialNumber": "66112",
  "DwellTime": 2e-06,
  "EchoTime": 0.0272,
  "EchoTrainLength": 82,
  "EffectiveEchoSpacing": 0.00049,
  "FlipAngle": 44,
  "ImageComments": "Unaliased MB8/PE3",
  "ImageOrientationPatientDICOM": [0.998797, -0.0346636, 0.03469, 0.0289457, 0.987716, 0.153557],
  "ImageType": [
    "ORIGINAL",
    "PRIMARY",
    "M",
    "MB",
    "ND",
    "NORM",
    "MOSAIC"
],
  "ImagingFrequency": 123.259,
  "InPlanePhaseEncodingDirectionDICOM": "COL",
  "InstitutionAddress": "Maynard 3,Hanover,NH,US,03755",
  "InstitutionName": "Dartmouth College - PBS",
  "InstitutionalDepartmentName": "Department",
  "MRAcquisitionType": "2D",
  "MagneticFieldStrength": 3,
  "Manufacturer": "Siemens",
  "ManufacturersModelName": "Prisma",
  "Modality": "MR",
  "MultibandAccelerationFactor": 8,
  "PartialFourier": 1,
  "PatientPosition": "HFS",
  "PercentPhaseFOV": 100,
  "PercentSampling": 100,
  "PhaseEncodingDirection": "j-",
  "PhaseEncodingSteps": 82,
  "PhaseResolution": 1,
  "PixelBandwidth": 3050,
  "ProcedureStepDescription": "Wager_Wager^1076_spacetop",
  "ProtocolName": "func_run-02_task-faces_acq-ap-mb8",
  "PulseSequenceDetails": "%CustomerSeq%\\cmrr_mbep2d_bold",
  "ReceiveCoilActiveElements": "HEA;HEP",
  "ReceiveCoilName": "Head_32",
  "ReconMatrixPE": 82,
  "RepetitionTime": 0.46,
  "SAR": 0.085102,
  "ScanOptions": "FS",
  "ScanningSequence": "EP",
  "SequenceName": "epfid2d1_82",
  "SequenceVariant": "SK\\SS",
  "SeriesDescription": "func_run-02_task-faces_acq-ap-mb8",
  "SeriesNumber": 20,
  "ShimSetting": [4225, -7817, -7219, 422, -199, 78, 194, 109],
  "SliceThickness": 2.7,
  "SliceTiming": [0, 0.2525, 0.065, 0.315, 0.1275, 0.3775, 0.19, 0, 0.2525, 0.065, 0.315, 0.1275, 0.3775, 0.19, 0, 0.2525, 0.065, 0.315, 0.1275, 0.3775, 0.19, 0, 0.2525, 0.065, 0.315, 0.1275, 0.3775, 0.19, 0, 0.2525, 0.065, 0.315, 0.1275, 0.3775, 0.19, 0, 0.2525, 0.065, 0.315, 0.1275, 0.3775, 0.19, 0, 0.2525, 0.065, 0.315, 0.1275, 0.3775, 0.19, 0, 0.2525, 0.065, 0.315, 0.1275, 0.3775, 0.19],
  "SoftwareVersions": "syngo MR E11",
  "SpacingBetweenSlices": 2.7,
  "StationName": "AWP66112",
  "TaskName": "faces",
  "TotalReadoutTime": 0.03969,
  "TxRefAmp": 221.671,
  "WipMemBlock": "1e700561-b844-41d7-b539-de88ca8eefcf||Sequence: R016 ve11e/master r/434b28f1; Aug  7 2019 18:53:46 by eja",
  "dcmmeta_affine": [
    [-2.6796987056732178, 0.07765930891036987, 0.10688399523496628, 104.65399932861328],
    [0.0929999053478241, 2.6499693393707275, 0.41139256954193115, -125.14073181152344],
    [0.09307068586349487, -0.41198089718818665, 2.666332960128784, -54.12971496582031],
    [0.0, 0.0, 0.0, 1.0]
],
  "dcmmeta_reorient_transform": [
    [0.0, -1.0, 0.0, 81.0],
    [1.0, 0.0, 0.0, 0.0],
    [0.0, 0.0, 1.0, 0.0],
    [0.0, 0.0, 0.0, 1.0]
],
  "dcmmeta_shape": [82, 82, 56, 914],
  "dcmmeta_slice_dim": 2,
  "dcmmeta_version": 0.6,
  "global": {
    "const": {
      "AccessionNumber": "A004813",
      "AcquisitionMatrix": [82, 0, 0, 82],
      "AngioFlag": "N",
      "BitsAllocated": 16,
      "BitsStored": 16,
      "BodyPartExamined": "BRAIN",
      "Columns": 656,
      "EchoNumbers": 1,
      "EchoTime": 27.2,
      "EchoTrainLength": 82,
      "FlipAngle": 44.0,
      "HighBit": 15,
      "ImageOrientationPatient": [0.99879679616804, -0.034663599744, 0.03468998151119, 0.02894574098616, 0.98771582057017, 0.15355651036072],
      "ImagePositionPatient": [-902.30617615, -823.35701390419, -232.44996947019],
      "ImageType": [
        "ORIGINAL",
        "PRIMARY",
        "M",
        "MB",
        "ND",
        "NORM",
        "MOSAIC"
],
      "ImagedNucleus": "1H",
      "ImagingFrequency": 123.259083,
      "InPlanePhaseEncodingDirection": "COL",
      "MRAcquisitionType": "2D",
      "MagneticFieldStrength": 3.0,
      "Manufacturer": "SIEMENS",
      "ManufacturerModelName": "Prisma",
      "Modality": "MR",
      "NumberOfAverages": 1.0,
      "NumberOfPhaseEncodingSteps": 82,
      "PercentPhaseFieldOfView": 100.0,
      "PercentSampling": 100.0,
      "PerformedProcedureStepStartTime": "165345.895000",
      "PhotometricInterpretation": "MONOCHROME2",
      "PixelBandwidth": 3050.0,
      "PixelRepresentation": 0,
      "PixelSpacing": [2.6829268932343, 2.6829268932343],
      "ProtocolName": "func_run-02_task-faces_acq-ap-mb8",
      "RepetitionTime": 460.0,
      "Rows": 656,
      "SAR": 0.08510198244625,
      "SamplesPerPixel": 1,
      "ScanOptions": "FS",
      "ScanningSequence": "EP",
      "SequenceName": "epfid2d1_82",
      "SequenceVariant": [
        "SK",
        "SS"
],
      "SeriesDescription": "func_run-02_task-faces_acq-ap-mb8",
      "SeriesNumber": 20,
      "SeriesTime": "175025.791000",
      "SliceLocation": -68.379251495343,
      "SliceThickness": 2.7000000476837,
      "SmallestImagePixelValue": 0,
      "SoftwareVersions": "syngo MR E11",
      "SpacingBetweenSlices": 2.6999999545478,
      "SpecificCharacterSet": "ISO_IR 100",
      "StudyID": "1",
      "StudyTime": "165345.805000",
      "TransmitCoilName": "Body",
      "VariableFlipAngleFlag": "N",
      "WindowCenterWidthExplanation": "Algo1"
    },
    "slices": {}
  },
  "time": {
    "samples": {
      "AcquisitionNumber": [1, 2, 3, 4, 5, 6, 7, 8, 9, 10, 11, 12, 13, 14, 15, 16, 17, 18, 19, 20, 21, 22, 23, 24, 25, 26, 27, 28, 29, 30, 31, 32, 33, 34, 35, 36, 37, 38, 39, 40, 41, 42, 43, 44, 45, 46, 47, 48, 49, 50, 51, 52, 53, 54, 55, 56, 57, 58, 59, 60, 61, 62, 63, 64, 65, 66, 67, 68, 69, 70, 71, 72, 73, 74, 75, 76, 77, 78, 79, 80, 81, 82, 83, 84, 85, 86, 87, 88, 89, 90, 91, 92, 93, 94, 95, 96, 97, 98, 99, 100, 101, 102, 103, 104, 105, 106, 107, 108, 109, 110, 111, 112, 113, 114, 115, 116, 117, 118, 119, 120, 121, 122, 123, 124, 125, 126, 127, 128, 129, 130, 131, 132, 133, 134, 135, 136, 137, 138, 139, 140, 141, 142, 143, 144, 145, 146, 147, 148, 149, 150, 151, 152, 153, 154, 155, 156, 157, 158, 159, 160, 161, 162, 163, 164, 165, 166, 167, 168, 169, 170, 171, 172, 173, 174, 175, 176, 177, 178, 179, 180, 181, 182, 183, 184, 185, 186, 187, 188, 189, 190, 191, 192, 193, 194, 195, 196, 197, 198, 199, 200, 201, 202, 203, 204, 205, 206, 207, 208, 209, 210, 211, 212, 213, 214, 215, 216, 217, 218, 219, 220, 221, 222, 223, 224, 225, 226, 227, 228, 229, 230, 231, 232, 233, 234, 235, 236, 237, 238, 239, 240, 241, 242, 243, 244, 245, 246, 247, 248, 249, 250, 251, 252, 253, 254, 255, 256, 257, 258, 259, 260, 261, 262, 263, 264, 265, 266, 267, 268, 269, 270, 271, 272, 273, 274, 275, 276, 277, 278, 279, 280, 281, 282, 283, 284, 285, 286, 287, 288, 289, 290, 291, 292, 293, 294, 295, 296, 297, 298, 299, 300, 301, 302, 303, 304, 305, 306, 307, 308, 309, 310, 311, 312, 313, 314, 315, 316, 317, 318, 319, 320, 321, 322, 323, 324, 325, 326, 327, 328, 329, 330, 331, 332, 333, 334, 335, 336, 337, 338, 339, 340, 341, 342, 343, 344, 345, 346, 347, 348, 349, 350, 351, 352, 353, 354, 355, 356, 357, 358, 359, 360, 361, 362, 363, 364, 365, 366, 367, 368, 369, 370, 371, 372, 373, 374, 375, 376, 377, 378, 379, 380, 381, 382, 383, 384, 385, 386, 387, 388, 389, 390, 391, 392, 393, 394, 395, 396, 397, 398, 399, 400, 401, 402, 403, 404, 405, 406, 407, 408, 409, 410, 411, 412, 413, 414, 415, 416, 417, 418, 419, 420, 421, 422, 423, 424, 425, 426, 427, 428, 429, 430, 431, 432, 433, 434, 435, 436, 437, 438, 439, 440, 441, 442, 443, 444, 445, 446, 447, 448, 449, 450, 451, 452, 453, 454, 455, 456, 457, 458, 459, 460, 461, 462, 463, 464, 465, 466, 467, 468, 469, 470, 471, 472, 473, 474, 475, 476, 477, 478, 479, 480, 481, 482, 483, 484, 485, 486, 487, 488, 489, 490, 491, 492, 493, 494, 495, 496, 497, 498, 499, 500, 501, 502, 503, 504, 505, 506, 507, 508, 509, 510, 511, 512, 513, 514, 515, 516, 517, 518, 519, 520, 521, 522, 523, 524, 525, 526, 527, 528, 529, 530, 531, 532, 533, 534, 535, 536, 537, 538, 539, 540, 541, 542, 543, 544, 545, 546, 547, 548, 549, 550, 551, 552, 553, 554, 555, 556, 557, 558, 559, 560, 561, 562, 563, 564, 565, 566, 567, 568, 569, 570, 571, 572, 573, 574, 575, 576, 577, 578, 579, 580, 581, 582, 583, 584, 585, 586, 587, 588, 589, 590, 591, 592, 593, 594, 595, 596, 597, 598, 599, 600, 601, 602, 603, 604, 605, 606, 607, 608, 609, 610, 611, 612, 613, 614, 615, 616, 617, 618, 619, 620, 621, 622, 623, 624, 625, 626, 627, 628, 629, 630, 631, 632, 633, 634, 635, 636, 637, 638, 639, 640, 641, 642, 643, 644, 645, 646, 647, 648, 649, 650, 651, 652, 653, 654, 655, 656, 657, 658, 659, 660, 661, 662, 663, 664, 665, 666, 667, 668, 669, 670, 671, 672, 673, 674, 675, 676, 677, 678, 679, 680, 681, 682, 683, 684, 685, 686, 687, 688, 689, 690, 691, 692, 693, 694, 695, 696, 697, 698, 699, 700, 701, 702, 703, 704, 705, 706, 707, 708, 709, 710, 711, 712, 713, 714, 715, 716, 717, 718, 719, 720, 721, 722, 723, 724, 725, 726, 727, 728, 729, 730, 731, 732, 733, 734, 735, 736, 737, 738, 739, 740, 741, 742, 743, 744, 745, 746, 747, 748, 749, 750, 751, 752, 753, 754, 755, 756, 757, 758, 759, 760, 761, 762, 763, 764, 765, 766, 767, 768, 769, 770, 771, 772, 773, 774, 775, 776, 777, 778, 779, 780, 781, 782, 783, 784, 785, 786, 787, 788, 789, 790, 791, 792, 793, 794, 795, 796, 797, 798, 799, 800, 801, 802, 803, 804, 805, 806, 807, 808, 809, 810, 811, 812, 813, 814, 815, 816, 817, 818, 819, 820, 821, 822, 823, 824, 825, 826, 827, 828, 829, 830, 831, 832, 833, 834, 835, 836, 837, 838, 839, 840, 841, 842, 843, 844, 845, 846, 847, 848, 849, 850, 851, 852, 853, 854, 855, 856, 857, 858, 859, 860, 861, 862, 863, 864, 865, 866, 867, 868, 869, 870, 871, 872, 873, 874, 875, 876, 877, 878, 879, 880, 881, 882, 883, 884, 885, 886, 887, 888, 889, 890, 891, 892, 893, 894, 895, 896, 897, 898, 899, 900, 901, 902, 903, 904, 905, 906, 907, 908, 909, 910, 911, 912, 913, 914],
      "AcquisitionTime": ["174957.135000", "174957.595000", "174958.055000", "174958.515000", "174958.975000", "174959.435000", "174959.895000", "175000.355000", "175000.815000", "175001.275000", "175001.735000", "175002.195000", "175002.655000", "175003.115000", "175003.575000", "175004.035000", "175004.495000", "175004.955000", "175005.415000", "175005.875000", "175006.335000", "175006.795000", "175007.255000", "175007.715000", "175008.175000", "175008.635000", "175009.095000", "175009.555000", "175010.015000", "175010.475000", "175010.935000", "175011.395000", "175011.855000", "175012.315000", "175012.775000", "175013.235000", "175013.695000", "175014.155000", "175014.615000", "175015.075000", "175015.535000", "175015.995000", "175016.455000", "175016.915000", "175017.375000", "175017.835000", "175018.295000", "175018.755000", "175019.215000", "175019.675000", "175020.135000", "175020.595000", "175021.055000", "175021.515000", "175021.975000", "175022.435000", "175022.895000", "175023.355000", "175023.815000", "175024.275000", "175024.735000", "175025.195000", "175025.655000", "175026.115000", "175026.575000", "175027.035000", "175027.495000", "175027.955000", "175028.415000", "175028.875000", "175029.335000", "175029.795000", "175030.255000", "175030.715000", "175031.175000", "175031.635000", "175032.095000", "175032.555000", "175033.015000", "175033.475000", "175033.935000", "175034.395000", "175034.855000", "175035.315000", "175035.775000", "175036.235000", "175036.695000", "175037.155000", "175037.615000", "175038.075000", "175038.535000", "175038.995000", "175039.455000", "175039.915000", "175040.375000", "175040.835000", "175041.295000", "175041.755000", "175042.215000", "175042.675000", "175043.135000", "175043.595000", "175044.055000", "175044.515000", "175044.975000", "175045.435000", "175045.895000", "175046.355000", "175046.815000", "175047.275000", "175047.735000", "175048.195000", "175048.655000", "175049.115000", "175049.575000", "175050.035000", "175050.495000", "175050.955000", "175051.415000", "175051.875000", "175052.335000", "175052.795000", "175053.255000", "175053.715000", "175054.175000", "175054.635000", "175055.095000", "175055.555000", "175056.015000", "175056.475000", "175056.935000", "175057.395000", "175057.855000", "175058.315000", "175058.775000", "175059.235000", "175059.695000", "175100.155000", "175100.615000", "175101.075000", "175101.535000", "175101.995000", "175102.455000", "175102.915000", "175103.375000", "175103.835000", "175104.295000", "175104.755000", "175105.215000", "175105.675000", "175106.135000", "175106.595000", "175107.055000", "175107.515000", "175107.975000", "175108.435000", "175108.895000", "175109.355000", "175109.815000", "175110.275000", "175110.735000", "175111.195000", "175111.655000", "175112.115000", "175112.575000", "175113.035000", "175113.495000", "175113.955000", "175114.415000", "175114.875000", "175115.335000", "175115.795000", "175116.255000", "175116.715000", "175117.175000", "175117.635000", "175118.095000", "175118.555000", "175119.015000", "175119.475000", "175119.935000", "175120.395000", "175120.855000", "175121.315000", "175121.775000", "175122.235000", "175122.695000", "175123.155000", "175123.615000", "175124.075000", "175124.535000", "175124.995000", "175125.455000", "175125.915000", "175126.375000", "175126.835000", "175127.295000", "175127.755000", "175128.215000", "175128.675000", "175129.135000", "175129.595000", "175130.055000", "175130.515000", "175130.975000", "175131.435000", "175131.895000", "175132.355000", "175132.815000", "175133.275000", "175133.735000", "175134.195000", "175134.655000", "175135.115000", "175135.575000", "175136.035000", "175136.495000", "175136.955000", "175137.415000", "175137.875000", "175138.335000", "175138.795000", "175139.255000", "175139.715000", "175140.175000", "175140.635000", "175141.095000", "175141.555000", "175142.015000", "175142.475000", "175142.935000", "175143.395000", "175143.855000", "175144.315000", "175144.775000", "175145.235000", "175145.695000", "175146.155000", "175146.615000", "175147.075000", "175147.535000", "175147.995000", "175148.455000", "175148.915000", "175149.375000", "175149.835000", "175150.295000", "175150.755000", "175151.215000", "175151.675000", "175152.135000", "175152.595000", "175153.055000", "175153.515000", "175153.975000", "175154.435000", "175154.895000", "175155.355000", "175155.815000", "175156.275000", "175156.735000", "175157.195000", "175157.655000", "175158.115000", "175158.575000", "175159.035000", "175159.495000", "175159.955000", "175200.415000", "175200.875000", "175201.335000", "175201.795000", "175202.255000", "175202.715000", "175203.175000", "175203.635000", "175204.095000", "175204.555000", "175205.015000", "175205.475000", "175205.935000", "175206.395000", "175206.855000", "175207.315000", "175207.775000", "175208.235000", "175208.695000", "175209.155000", "175209.615000", "175210.075000", "175210.535000", "175210.995000", "175211.455000", "175211.915000", "175212.375000", "175212.835000", "175213.295000", "175213.755000", "175214.215000", "175214.675000", "175215.135000", "175215.595000", "175216.055000", "175216.515000", "175216.975000", "175217.435000", "175217.895000", "175218.355000", "175218.815000", "175219.275000", "175219.735000", "175220.195000", "175220.655000", "175221.115000", "175221.575000", "175222.035000", "175222.495000", "175222.955000", "175223.415000", "175223.875000", "175224.335000", "175224.795000", "175225.255000", "175225.715000", "175226.175000", "175226.635000", "175227.095000", "175227.555000", "175228.015000", "175228.475000", "175228.935000", "175229.395000", "175229.855000", "175230.315000", "175230.775000", "175231.235000", "175231.695000", "175232.155000", "175232.615000", "175233.075000", "175233.535000", "175233.995000", "175234.455000", "175234.915000", "175235.375000", "175235.835000", "175236.295000", "175236.755000", "175237.215000", "175237.675000", "175238.135000", "175238.595000", "175239.055000", "175239.515000", "175239.975000", "175240.435000", "175240.895000", "175241.355000", "175241.815000", "175242.275000", "175242.735000", "175243.195000", "175243.655000", "175244.115000", "175244.575000", "175245.035000", "175245.495000", "175245.955000", "175246.415000", "175246.875000", "175247.335000", "175247.795000", "175248.255000", "175248.715000", "175249.175000", "175249.635000", "175250.095000", "175250.555000", "175251.015000", "175251.475000", "175251.935000", "175252.395000", "175252.855000", "175253.315000", "175253.775000", "175254.235000", "175254.695000", "175255.155000", "175255.615000", "175256.075000", "175256.535000", "175256.995000", "175257.455000", "175257.915000", "175258.375000", "175258.835000", "175259.295000", "175259.755000", "175300.215000", "175300.675000", "175301.135000", "175301.595000", "175302.055000", "175302.515000", "175302.975000", "175303.435000", "175303.895000", "175304.355000", "175304.815000", "175305.275000", "175305.735000", "175306.195000", "175306.655000", "175307.115000", "175307.575000", "175308.035000", "175308.495000", "175308.955000", "175309.415000", "175309.875000", "175310.335000", "175310.795000", "175311.255000", "175311.715000", "175312.175000", "175312.635000", "175313.095000", "175313.555000", "175314.015000", "175314.475000", "175314.935000", "175315.395000", "175315.855000", "175316.315000", "175316.775000", "175317.235000", "175317.695000", "175318.155000", "175318.615000", "175319.075000", "175319.535000", "175319.995000", "175320.455000", "175320.915000", "175321.375000", "175321.835000", "175322.295000", "175322.755000", "175323.215000", "175323.675000", "175324.135000", "175324.595000", "175325.055000", "175325.515000", "175325.975000", "175326.435000", "175326.895000", "175327.355000", "175327.815000", "175328.275000", "175328.735000", "175329.195000", "175329.655000", "175330.115000", "175330.575000", "175331.035000", "175331.495000", "175331.955000", "175332.415000", "175332.875000", "175333.335000", "175333.795000", "175334.255000", "175334.715000", "175335.175000", "175335.635000", "175336.095000", "175336.555000", "175337.015000", "175337.475000", "175337.935000", "175338.395000", "175338.855000", "175339.315000", "175339.775000", "175340.235000", "175340.695000", "175341.155000", "175341.615000", "175342.075000", "175342.535000", "175342.995000", "175343.455000", "175343.915000", "175344.375000", "175344.835000", "175345.295000", "175345.755000", "175346.215000", "175346.675000", "175347.135000", "175347.595000", "175348.055000", "175348.515000", "175348.975000", "175349.435000", "175349.895000", "175350.355000", "175350.815000", "175351.275000", "175351.735000", "175352.195000", "175352.655000", "175353.115000", "175353.575000", "175354.035000", "175354.495000", "175354.955000", "175355.415000", "175355.875000", "175356.335000", "175356.795000", "175357.255000", "175357.715000", "175358.175000", "175358.635000", "175359.095000", "175359.555000", "175400.015000", "175400.475000", "175400.935000", "175401.395000", "175401.855000", "175402.315000", "175402.775000", "175403.235000", "175403.695000", "175404.155000", "175404.615000", "175405.075000", "175405.535000", "175405.995000", "175406.455000", "175406.915000", "175407.375000", "175407.835000", "175408.295000", "175408.755000", "175409.215000", "175409.675000", "175410.135000", "175410.595000", "175411.055000", "175411.515000", "175411.975000", "175412.435000", "175412.895000", "175413.355000", "175413.815000", "175414.275000", "175414.735000", "175415.195000", "175415.655000", "175416.115000", "175416.575000", "175417.035000", "175417.495000", "175417.955000", "175418.415000", "175418.875000", "175419.335000", "175419.795000", "175420.255000", "175420.715000", "175421.175000", "175421.635000", "175422.095000", "175422.555000", "175423.015000", "175423.475000", "175423.935000", "175424.395000", "175424.855000", "175425.315000", "175425.775000", "175426.235000", "175426.695000", "175427.155000", "175427.615000", "175428.075000", "175428.535000", "175428.995000", "175429.455000", "175429.915000", "175430.375000", "175430.835000", "175431.295000", "175431.755000", "175432.215000", "175432.675000", "175433.135000", "175433.595000", "175434.055000", "175434.515000", "175434.975000", "175435.435000", "175435.895000", "175436.355000", "175436.815000", "175437.275000", "175437.735000", "175438.195000", "175438.655000", "175439.115000", "175439.575000", "175440.035000", "175440.495000", "175440.955000", "175441.415000", "175441.875000", "175442.335000", "175442.795000", "175443.255000", "175443.715000", "175444.175000", "175444.635000", "175445.095000", "175445.555000", "175446.015000", "175446.475000", "175446.935000", "175447.395000", "175447.855000", "175448.315000", "175448.775000", "175449.235000", "175449.695000", "175450.155000", "175450.615000", "175451.075000", "175451.535000", "175451.995000", "175452.455000", "175452.915000", "175453.375000", "175453.835000", "175454.295000", "175454.755000", "175455.215000", "175455.675000", "175456.135000", "175456.595000", "175457.055000", "175457.515000", "175457.975000", "175458.435000", "175458.895000", "175459.355000", "175459.815000", "175500.275000", "175500.735000", "175501.195000", "175501.655000", "175502.115000", "175502.575000", "175503.035000", "175503.495000", "175503.955000", "175504.415000", "175504.875000", "175505.335000", "175505.795000", "175506.255000", "175506.715000", "175507.175000", "175507.635000", "175508.095000", "175508.555000", "175509.015000", "175509.475000", "175509.935000", "175510.395000", "175510.855000", "175511.315000", "175511.775000", "175512.235000", "175512.695000", "175513.155000", "175513.615000", "175514.075000", "175514.535000", "175514.995000", "175515.455000", "175515.915000", "175516.375000", "175516.835000", "175517.295000", "175517.755000", "175518.215000", "175518.675000", "175519.135000", "175519.595000", "175520.055000", "175520.515000", "175520.975000", "175521.435000", "175521.895000", "175522.355000", "175522.815000", "175523.275000", "175523.735000", "175524.195000", "175524.655000", "175525.115000", "175525.575000", "175526.035000", "175526.495000", "175526.955000", "175527.415000", "175527.875000", "175528.335000", "175528.795000", "175529.255000", "175529.715000", "175530.175000", "175530.635000", "175531.095000", "175531.555000", "175532.015000", "175532.475000", "175532.935000", "175533.395000", "175533.855000", "175534.315000", "175534.775000", "175535.235000", "175535.695000", "175536.155000", "175536.615000", "175537.075000", "175537.535000", "175537.995000", "175538.455000", "175538.915000", "175539.375000", "175539.835000", "175540.295000", "175540.755000", "175541.215000", "175541.675000", "175542.135000", "175542.595000", "175543.055000", "175543.515000", "175543.975000", "175544.435000", "175544.895000", "175545.355000", "175545.815000", "175546.275000", "175546.735000", "175547.195000", "175547.655000", "175548.115000", "175548.575000", "175549.035000", "175549.495000", "175549.955000", "175550.415000", "175550.875000", "175551.335000", "175551.795000", "175552.255000", "175552.715000", "175553.175000", "175553.635000", "175554.095000", "175554.555000", "175555.015000", "175555.475000", "175555.935000", "175556.395000", "175556.855000", "175557.315000", "175557.775000", "175558.235000", "175558.695000", "175559.155000", "175559.615000", "175600.075000", "175600.535000", "175600.995000", "175601.455000", "175601.915000", "175602.375000", "175602.835000", "175603.295000", "175603.755000", "175604.215000", "175604.675000", "175605.135000", "175605.595000", "175606.055000", "175606.515000", "175606.975000", "175607.435000", "175607.895000", "175608.355000", "175608.815000", "175609.275000", "175609.735000", "175610.195000", "175610.655000", "175611.115000", "175611.575000", "175612.035000", "175612.495000", "175612.955000", "175613.415000", "175613.875000", "175614.335000", "175614.795000", "175615.255000", "175615.715000", "175616.175000", "175616.635000", "175617.095000", "175617.555000", "175618.015000", "175618.475000", "175618.935000", "175619.395000", "175619.855000", "175620.315000", "175620.775000", "175621.235000", "175621.695000", "175622.155000", "175622.615000", "175623.075000", "175623.535000", "175623.995000", "175624.455000", "175624.915000", "175625.375000", "175625.835000", "175626.295000", "175626.755000", "175627.215000", "175627.675000", "175628.135000", "175628.595000", "175629.055000", "175629.515000", "175629.975000", "175630.435000", "175630.895000", "175631.355000", "175631.815000", "175632.275000", "175632.735000", "175633.195000", "175633.655000", "175634.115000", "175634.575000", "175635.035000", "175635.495000", "175635.955000", "175636.415000", "175636.875000", "175637.335000", "175637.795000", "175638.255000", "175638.715000", "175639.175000", "175639.635000", "175640.095000", "175640.555000", "175641.015000", "175641.475000", "175641.935000", "175642.395000", "175642.855000", "175643.315000", "175643.775000", "175644.235000", "175644.695000", "175645.155000", "175645.615000", "175646.075000", "175646.535000", "175646.995000", "175647.455000", "175647.915000", "175648.375000", "175648.835000", "175649.295000", "175649.755000", "175650.215000", "175650.675000", "175651.135000", "175651.595000", "175652.055000", "175652.515000", "175652.975000", "175653.435000", "175653.895000", "175654.355000", "175654.815000", "175655.275000", "175655.735000", "175656.195000", "175656.655000", "175657.115000"],
