{
  "AcquisitionMatrixPE": 82,
  "AcquisitionNumber": 1,
  "AcquisitionTime": "17:09:41.750000",
  "BandwidthPerPixelPhaseEncode": 24.888,
  "BaseResolution": 82,
  "BodyPartExamined": "BRAIN",
  "ConsistencyInfo": "N4_VE11E_LATEST_20181129",
  "ConversionSoftware": "dcm2niix",
  "ConversionSoftwareVersion": "v1.0.20201102",
  "DerivedVendorReportedEchoSpacing": 0.00049,
  "DeviceSerialNumber": "66112",
  "DwellTime": 2e-06,
  "EchoTime": 0.0272,
  "EchoTrainLength": 82,
  "EffectiveEchoSpacing": 0.00049,
  "FlipAngle": 44,
  "ImageComments": "Unaliased MB8/PE3",
  "ImageOrientationPatientDICOM": [0.998797, -0.0346636, 0.03469, 0.0289457, 0.987716, 0.153557],
  "ImageType": [
    "ORIGINAL",
    "PRIMARY",
    "M",
    "MB",
    "ND",
    "NORM",
    "MOSAIC"
],
  "ImagingFrequency": 123.259,
  "InPlanePhaseEncodingDirectionDICOM": "COL",
  "InstitutionAddress": "Maynard 3,Hanover,NH,US,03755",
  "InstitutionName": "Dartmouth College - PBS",
  "InstitutionalDepartmentName": "Department",
  "MRAcquisitionType": "2D",
  "MagneticFieldStrength": 3,
  "Manufacturer": "Siemens",
  "ManufacturersModelName": "Prisma",
  "Modality": "MR",
  "MultibandAccelerationFactor": 8,
  "PartialFourier": 1,
  "PatientPosition": "HFS",
  "PercentPhaseFOV": 100,
  "PercentSampling": 100,
  "PhaseEncodingDirection": "j-",
  "PhaseEncodingSteps": 82,
  "PhaseResolution": 1,
  "PixelBandwidth": 3050,
  "ProcedureStepDescription": "Wager_Wager^1076_spacetop",
  "ProtocolName": "func_run-02_task-narratives_acq-ap-mb8",
  "PulseSequenceDetails": "%CustomerSeq%\\cmrr_mbep2d_bold",
  "ReceiveCoilActiveElements": "HEA;HEP",
  "ReceiveCoilName": "Head_32",
  "ReconMatrixPE": 82,
  "RepetitionTime": 0.46,
  "SAR": 0.0851867,
  "ScanOptions": "FS",
  "ScanningSequence": "EP",
  "SequenceName": "epfid2d1_82",
  "SequenceVariant": "SK\\SS",
  "SeriesDescription": "func_run-02_task-narratives_acq-ap-mb8",
  "SeriesNumber": 10,
  "ShimSetting": [4225, -7817, -7219, 422, -199, 78, 194, 109],
  "SliceThickness": 2.7,
  "SliceTiming": [0, 0.25, 0.0625, 0.315, 0.125, 0.3775, 0.1875, 0, 0.25, 0.0625, 0.315, 0.125, 0.3775, 0.1875, 0, 0.25, 0.0625, 0.315, 0.125, 0.3775, 0.1875, 0, 0.25, 0.0625, 0.315, 0.125, 0.3775, 0.1875, 0, 0.25, 0.0625, 0.315, 0.125, 0.3775, 0.1875, 0, 0.25, 0.0625, 0.315, 0.125, 0.3775, 0.1875, 0, 0.25, 0.0625, 0.315, 0.125, 0.3775, 0.1875, 0, 0.25, 0.0625, 0.315, 0.125, 0.3775, 0.1875],
  "SoftwareVersions": "syngo MR E11",
  "SpacingBetweenSlices": 2.7,
  "StationName": "AWP66112",
  "TaskName": "narratives",
  "TotalReadoutTime": 0.03969,
  "TxRefAmp": 221.671,
  "WipMemBlock": "2b67a2ce-77a2-4b4f-bd92-152eb8d649e7||Sequence: R016 ve11e/master r/434b28f1; Aug  7 2019 18:53:46 by eja",
  "dcmmeta_affine": [
    [-2.6796987056732178, 0.07765930891036987, 0.10688399523496628, 104.65399932861328],
    [0.0929999053478241, 2.6499693393707275, 0.41139256954193115, -125.14073181152344],
    [0.09307068586349487, -0.41198089718818665, 2.666332960128784, -54.12971496582031],
    [0.0, 0.0, 0.0, 1.0]
],
  "dcmmeta_reorient_transform": [
    [0.0, -1.0, 0.0, 81.0],
    [1.0, 0.0, 0.0, 0.0],
    [0.0, 0.0, 1.0, 0.0],
    [0.0, 0.0, 0.0, 1.0]
],
  "dcmmeta_shape": [82, 82, 56, 1098],
  "dcmmeta_slice_dim": 2,
  "dcmmeta_version": 0.6,
  "global": {
    "const": {
      "AccessionNumber": "A004813",
      "AcquisitionMatrix": [82, 0, 0, 82],
      "AngioFlag": "N",
      "BitsAllocated": 16,
      "BitsStored": 16,
      "BodyPartExamined": "BRAIN",
      "Columns": 656,
      "EchoNumbers": 1,
      "EchoTime": 27.2,
      "EchoTrainLength": 82,
      "FlipAngle": 44.0,
      "HighBit": 15,
      "ImageOrientationPatient": [0.99879679616804, -0.034663599744, 0.03468998151119, 0.02894574098616, 0.98771582057017, 0.15355651036072],
      "ImagePositionPatient": [-902.30617615, -823.35701390419, -232.44996947019],
      "ImageType": [
        "ORIGINAL",
        "PRIMARY",
        "M",
        "MB",
        "ND",
        "NORM",
        "MOSAIC"
],
      "ImagedNucleus": "1H",
      "ImagingFrequency": 123.259061,
      "InPlanePhaseEncodingDirection": "COL",
      "MRAcquisitionType": "2D",
      "MagneticFieldStrength": 3.0,
      "Manufacturer": "SIEMENS",
      "ManufacturerModelName": "Prisma",
      "Modality": "MR",
      "NumberOfAverages": 1.0,
      "NumberOfPhaseEncodingSteps": 82,
      "PercentPhaseFieldOfView": 100.0,
      "PercentSampling": 100.0,
      "PerformedProcedureStepStartTime": "165345.895000",
      "PhotometricInterpretation": "MONOCHROME2",
      "PixelBandwidth": 3050.0,
      "PixelRepresentation": 0,
      "PixelSpacing": [2.6829268932343, 2.6829268932343],
      "ProtocolName": "func_run-02_task-narratives_acq-ap-mb8",
      "RepetitionTime": 460.0,
      "Rows": 656,
      "SAR": 0.08518675339634,
      "SamplesPerPixel": 1,
      "ScanOptions": "FS",
      "ScanningSequence": "EP",
      "SequenceName": "epfid2d1_82",
      "SequenceVariant": [
        "SK",
        "SS"
],
      "SeriesDescription": "func_run-02_task-narratives_acq-ap-mb8",
      "SeriesNumber": 10,
      "SeriesTime": "171005.599000",
      "SliceLocation": -68.379251495343,
      "SliceThickness": 2.7000000476837,
      "SmallestImagePixelValue": 0,
      "SoftwareVersions": "syngo MR E11",
      "SpacingBetweenSlices": 2.6999999545478,
      "SpecificCharacterSet": "ISO_IR 100",
      "StudyID": "1",
      "StudyTime": "165345.805000",
      "TransmitCoilName": "Body",
      "VariableFlipAngleFlag": "N",
      "WindowCenterWidthExplanation": "Algo1"
    },
    "slices": {}
  },
  "time": {
    "samples": {
      "AcquisitionNumber": [1, 2, 3, 4, 5, 6, 7, 8, 9, 10, 11, 12, 13, 14, 15, 16, 17, 18, 19, 20, 21, 22, 23, 24, 25, 26, 27, 28, 29, 30, 31, 32, 33, 34, 35, 36, 37, 38, 39, 40, 41, 42, 43, 44, 45, 46, 47, 48, 49, 50, 51, 52, 53, 54, 55, 56, 57, 58, 59, 60, 61, 62, 63, 64, 65, 66, 67, 68, 69, 70, 71, 72, 73, 74, 75, 76, 77, 78, 79, 80, 81, 82, 83, 84, 85, 86, 87, 88, 89, 90, 91, 92, 93, 94, 95, 96, 97, 98, 99, 100, 101, 102, 103, 104, 105, 106, 107, 108, 109, 110, 111, 112, 113, 114, 115, 116, 117, 118, 119, 120, 121, 122, 123, 124, 125, 126, 127, 128, 129, 130, 131, 132, 133, 134, 135, 136, 137, 138, 139, 140, 141, 142, 143, 144, 145, 146, 147, 148, 149, 150, 151, 152, 153, 154, 155, 156, 157, 158, 159, 160, 161, 162, 163, 164, 165, 166, 167, 168, 169, 170, 171, 172, 173, 174, 175, 176, 177, 178, 179, 180, 181, 182, 183, 184, 185, 186, 187, 188, 189, 190, 191, 192, 193, 194, 195, 196, 197, 198, 199, 200, 201, 202, 203, 204, 205, 206, 207, 208, 209, 210, 211, 212, 213, 214, 215, 216, 217, 218, 219, 220, 221, 222, 223, 224, 225, 226, 227, 228, 229, 230, 231, 232, 233, 234, 235, 236, 237, 238, 239, 240, 241, 242, 243, 244, 245, 246, 247, 248, 249, 250, 251, 252, 253, 254, 255, 256, 257, 258, 259, 260, 261, 262, 263, 264, 265, 266, 267, 268, 269, 270, 271, 272, 273, 274, 275, 276, 277, 278, 279, 280, 281, 282, 283, 284, 285, 286, 287, 288, 289, 290, 291, 292, 293, 294, 295, 296, 297, 298, 299, 300, 301, 302, 303, 304, 305, 306, 307, 308, 309, 310, 311, 312, 313, 314, 315, 316, 317, 318, 319, 320, 321, 322, 323, 324, 325, 326, 327, 328, 329, 330, 331, 332, 333, 334, 335, 336, 337, 338, 339, 340, 341, 342, 343, 344, 345, 346, 347, 348, 349, 350, 351, 352, 353, 354, 355, 356, 357, 358, 359, 360, 361, 362, 363, 364, 365, 366, 367, 368, 369, 370, 371, 372, 373, 374, 375, 376, 377, 378, 379, 380, 381, 382, 383, 384, 385, 386, 387, 388, 389, 390, 391, 392, 393, 394, 395, 396, 397, 398, 399, 400, 401, 402, 403, 404, 405, 406, 407, 408, 409, 410, 411, 412, 413, 414, 415, 416, 417, 418, 419, 420, 421, 422, 423, 424, 425, 426, 427, 428, 429, 430, 431, 432, 433, 434, 435, 436, 437, 438, 439, 440, 441, 442, 443, 444, 445, 446, 447, 448, 449, 450, 451, 452, 453, 454, 455, 456, 457, 458, 459, 460, 461, 462, 463, 464, 465, 466, 467, 468, 469, 470, 471, 472, 473, 474, 475, 476, 477, 478, 479, 480, 481, 482, 483, 484, 485, 486, 487, 488, 489, 490, 491, 492, 493, 494, 495, 496, 497, 498, 499, 500, 501, 502, 503, 504, 505, 506, 507, 508, 509, 510, 511, 512, 513, 514, 515, 516, 517, 518, 519, 520, 521, 522, 523, 524, 525, 526, 527, 528, 529, 530, 531, 532, 533, 534, 535, 536, 537, 538, 539, 540, 541, 542, 543, 544, 545, 546, 547, 548, 549, 550, 551, 552, 553, 554, 555, 556, 557, 558, 559, 560, 561, 562, 563, 564, 565, 566, 567, 568, 569, 570, 571, 572, 573, 574, 575, 576, 577, 578, 579, 580, 581, 582, 583, 584, 585, 586, 587, 588, 589, 590, 591, 592, 593, 594, 595, 596, 597, 598, 599, 600, 601, 602, 603, 604, 605, 606, 607, 608, 609, 610, 611, 612, 613, 614, 615, 616, 617, 618, 619, 620, 621, 622, 623, 624, 625, 626, 627, 628, 629, 630, 631, 632, 633, 634, 635, 636, 637, 638, 639, 640, 641, 642, 643, 644, 645, 646, 647, 648, 649, 650, 651, 652, 653, 654, 655, 656, 657, 658, 659, 660, 661, 662, 663, 664, 665, 666, 667, 668, 669, 670, 671, 672, 673, 674, 675, 676, 677, 678, 679, 680, 681, 682, 683, 684, 685, 686, 687, 688, 689, 690, 691, 692, 693, 694, 695, 696, 697, 698, 699, 700, 701, 702, 703, 704, 705, 706, 707, 708, 709, 710, 711, 712, 713, 714, 715, 716, 717, 718, 719, 720, 721, 722, 723, 724, 725, 726, 727, 728, 729, 730, 731, 732, 733, 734, 735, 736, 737, 738, 739, 740, 741, 742, 743, 744, 745, 746, 747, 748, 749, 750, 751, 752, 753, 754, 755, 756, 757, 758, 759, 760, 761, 762, 763, 764, 765, 766, 767, 768, 769, 770, 771, 772, 773, 774, 775, 776, 777, 778, 779, 780, 781, 782, 783, 784, 785, 786, 787, 788, 789, 790, 791, 792, 793, 794, 795, 796, 797, 798, 799, 800, 801, 802, 803, 804, 805, 806, 807, 808, 809, 810, 811, 812, 813, 814, 815, 816, 817, 818, 819, 820, 821, 822, 823, 824, 825, 826, 827, 828, 829, 830, 831, 832, 833, 834, 835, 836, 837, 838, 839, 840, 841, 842, 843, 844, 845, 846, 847, 848, 849, 850, 851, 852, 853, 854, 855, 856, 857, 858, 859, 860, 861, 862, 863, 864, 865, 866, 867, 868, 869, 870, 871, 872, 873, 874, 875, 876, 877, 878, 879, 880, 881, 882, 883, 884, 885, 886, 887, 888, 889, 890, 891, 892, 893, 894, 895, 896, 897, 898, 899, 900, 901, 902, 903, 904, 905, 906, 907, 908, 909, 910, 911, 912, 913, 914, 915, 916, 917, 918, 919, 920, 921, 922, 923, 924, 925, 926, 927, 928, 929, 930, 931, 932, 933, 934, 935, 936, 937, 938, 939, 940, 941, 942, 943, 944, 945, 946, 947, 948, 949, 950, 951, 952, 953, 954, 955, 956, 957, 958, 959, 960, 961, 962, 963, 964, 965, 966, 967, 968, 969, 970, 971, 972, 973, 974, 975, 976, 977, 978, 979, 980, 981, 982, 983, 984, 985, 986, 987, 988, 989, 990, 991, 992, 993, 994, 995, 996, 997, 998, 999, 1000, 1001, 1002, 1003, 1004, 1005, 1006, 1007, 1008, 1009, 1010, 1011, 1012, 1013, 1014, 1015, 1016, 1017, 1018, 1019, 1020, 1021, 1022, 1023, 1024, 1025, 1026, 1027, 1028, 1029, 1030, 1031, 1032, 1033, 1034, 1035, 1036, 1037, 1038, 1039, 1040, 1041, 1042, 1043, 1044, 1045, 1046, 1047, 1048, 1049, 1050, 1051, 1052, 1053, 1054, 1055, 1056, 1057, 1058, 1059, 1060, 1061, 1062, 1063, 1064, 1065, 1066, 1067, 1068, 1069, 1070, 1071, 1072, 1073, 1074, 1075, 1076, 1077, 1078, 1079, 1080, 1081, 1082, 1083, 1084, 1085, 1086, 1087, 1088, 1089, 1090, 1091, 1092, 1093, 1094, 1095, 1096, 1097, 1098],
      "AcquisitionTime": ["170941.750000", "170942.210000", "170942.670000", "170943.130000", "170943.590000", "170944.050000", "170944.510000", "170944.970000", "170945.430000", "170945.890000", "170946.350000", "170946.810000", "170947.270000", "170947.730000", "170948.190000", "170948.650000", "170949.110000", "170949.570000", "170950.030000", "170950.490000", "170950.950000", "170951.410000", "170951.870000", "170952.330000", "170952.790000", "170953.250000", "170953.710000", "170954.170000", "170954.630000", "170955.090000", "170955.550000", "170956.010000", "170956.470000", "170956.930000", "170957.390000", "170957.850000", "170958.310000", "170958.770000", "170959.230000", "170959.690000", "171000.150000", "171000.610000", "171001.070000", "171001.530000", "171001.990000", "171002.450000", "171002.910000", "171003.370000", "171003.830000", "171004.290000", "171004.750000", "171005.210000", "171005.670000", "171006.130000", "171006.590000", "171007.050000", "171007.510000", "171007.970000", "171008.430000", "171008.890000", "171009.350000", "171009.810000", "171010.270000", "171010.730000", "171011.190000", "171011.650000", "171012.110000", "171012.570000", "171013.030000", "171013.490000", "171013.950000", "171014.410000", "171014.870000", "171015.330000", "171015.790000", "171016.250000", "171016.710000", "171017.170000", "171017.630000", "171018.090000", "171018.550000", "171019.010000", "171019.470000", "171019.930000", "171020.390000", "171020.850000", "171021.310000", "171021.770000", "171022.230000", "171022.690000", "171023.150000", "171023.610000", "171024.070000", "171024.530000", "171024.990000", "171025.450000", "171025.910000", "171026.370000", "171026.830000", "171027.290000", "171027.750000", "171028.210000", "171028.670000", "171029.130000", "171029.590000", "171030.050000", "171030.510000", "171030.970000", "171031.430000", "171031.890000", "171032.350000", "171032.810000", "171033.270000", "171033.730000", "171034.190000", "171034.650000", "171035.110000", "171035.570000", "171036.030000", "171036.490000", "171036.950000", "171037.410000", "171037.870000", "171038.330000", "171038.790000", "171039.250000", "171039.710000", "171040.170000", "171040.630000", "171041.090000", "171041.550000", "171042.010000", "171042.470000", "171042.930000", "171043.390000", "171043.850000", "171044.310000", "171044.770000", "171045.230000", "171045.690000", "171046.150000", "171046.610000", "171047.070000", "171047.530000", "171047.990000", "171048.450000", "171048.910000", "171049.370000", "171049.830000", "171050.290000", "171050.750000", "171051.210000", "171051.670000", "171052.130000", "171052.590000", "171053.050000", "171053.510000", "171053.970000", "171054.430000", "171054.890000", "171055.350000", "171055.810000", "171056.270000", "171056.730000", "171057.190000", "171057.650000", "171058.110000", "171058.570000", "171059.030000", "171059.490000", "171059.950000", "171100.410000", "171100.870000", "171101.330000", "171101.790000", "171102.250000", "171102.710000", "171103.170000", "171103.630000", "171104.090000", "171104.550000", "171105.010000", "171105.470000", "171105.930000", "171106.390000", "171106.850000", "171107.310000", "171107.770000", "171108.230000", "171108.690000", "171109.150000", "171109.610000", "171110.070000", "171110.530000", "171110.990000", "171111.450000", "171111.910000", "171112.370000", "171112.830000", "171113.290000", "171113.750000", "171114.210000", "171114.670000", "171115.130000", "171115.590000", "171116.050000", "171116.510000", "171116.970000", "171117.430000", "171117.890000", "171118.350000", "171118.810000", "171119.270000", "171119.730000", "171120.190000", "171120.650000", "171121.110000", "171121.570000", "171122.030000", "171122.490000", "171122.950000", "171123.410000", "171123.870000", "171124.330000", "171124.790000", "171125.250000", "171125.710000", "171126.170000", "171126.630000", "171127.090000", "171127.550000", "171128.010000", "171128.470000", "171128.930000", "171129.390000", "171129.850000", "171130.310000", "171130.770000", "171131.230000", "171131.690000", "171132.150000", "171132.610000", "171133.070000", "171133.530000", "171133.990000", "171134.450000", "171134.910000", "171135.370000", "171135.830000", "171136.290000", "171136.750000", "171137.210000", "171137.670000", "171138.130000", "171138.590000", "171139.050000", "171139.510000", "171139.970000", "171140.430000", "171140.890000", "171141.350000", "171141.810000", "171142.270000", "171142.730000", "171143.190000", "171143.650000", "171144.110000", "171144.570000", "171145.030000", "171145.490000", "171145.950000", "171146.410000", "171146.870000", "171147.330000", "171147.790000", "171148.250000", "171148.710000", "171149.170000", "171149.630000", "171150.090000", "171150.550000", "171151.010000", "171151.470000", "171151.930000", "171152.390000", "171152.850000", "171153.310000", "171153.770000", "171154.230000", "171154.690000", "171155.150000", "171155.610000", "171156.070000", "171156.530000", "171156.990000", "171157.450000", "171157.910000", "171158.370000", "171158.830000", "171159.290000", "171159.750000", "171200.210000", "171200.670000", "171201.130000", "171201.590000", "171202.050000", "171202.510000", "171202.970000", "171203.430000", "171203.890000", "171204.350000", "171204.810000", "171205.270000", "171205.730000", "171206.190000", "171206.650000", "171207.110000", "171207.570000", "171208.030000", "171208.490000", "171208.950000", "171209.410000", "171209.870000", "171210.330000", "171210.790000", "171211.250000", "171211.710000", "171212.170000", "171212.630000", "171213.090000", "171213.550000", "171214.010000", "171214.470000", "171214.930000", "171215.390000", "171215.850000", "171216.310000", "171216.770000", "171217.230000", "171217.690000", "171218.150000", "171218.610000", "171219.070000", "171219.530000", "171219.990000", "171220.450000", "171220.910000", "171221.370000", "171221.830000", "171222.290000", "171222.750000", "171223.210000", "171223.670000", "171224.130000", "171224.590000", "171225.050000", "171225.510000", "171225.970000", "171226.430000", "171226.890000", "171227.350000", "171227.810000", "171228.270000", "171228.730000", "171229.190000", "171229.650000", "171230.110000", "171230.570000", "171231.030000", "171231.490000", "171231.950000", "171232.410000", "171232.870000", "171233.330000", "171233.790000", "171234.250000", "171234.710000", "171235.170000", "171235.630000", "171236.090000", "171236.550000", "171237.010000", "171237.470000", "171237.930000", "171238.390000", "171238.850000", "171239.310000", "171239.770000", "171240.230000", "171240.690000", "171241.150000", "171241.610000", "171242.070000", "171242.530000", "171242.990000", "171243.450000", "171243.910000", "171244.370000", "171244.830000", "171245.290000", "171245.750000", "171246.210000", "171246.670000", "171247.130000", "171247.590000", "171248.050000", "171248.510000", "171248.970000", "171249.430000", "171249.890000", "171250.350000", "171250.810000", "171251.270000", "171251.730000", "171252.190000", "171252.650000", "171253.110000", "171253.570000", "171254.030000", "171254.490000", "171254.950000", "171255.410000", "171255.870000", "171256.330000", "171256.790000", "171257.250000", "171257.710000", "171258.170000", "171258.630000", "171259.090000", "171259.550000", "171300.010000", "171300.470000", "171300.930000", "171301.390000", "171301.850000", "171302.310000", "171302.770000", "171303.230000", "171303.690000", "171304.150000", "171304.610000", "171305.070000", "171305.530000", "171305.990000", "171306.450000", "171306.910000", "171307.370000", "171307.830000", "171308.290000", "171308.750000", "171309.210000", "171309.670000", "171310.130000", "171310.590000", "171311.050000", "171311.510000", "171311.970000", "171312.430000", "171312.890000", "171313.350000", "171313.810000", "171314.270000", "171314.730000", "171315.190000", "171315.650000", "171316.110000", "171316.570000", "171317.030000", "171317.490000", "171317.950000", "171318.410000", "171318.870000", "171319.330000", "171319.790000", "171320.250000", "171320.710000", "171321.170000", "171321.630000", "171322.090000", "171322.550000", "171323.010000", "171323.470000", "171323.930000", "171324.390000", "171324.850000", "171325.310000", "171325.770000", "171326.230000", "171326.690000", "171327.150000", "171327.610000", "171328.070000", "171328.530000", "171328.990000", "171329.450000", "171329.910000", "171330.370000", "171330.830000", "171331.290000", "171331.750000", "171332.210000", "171332.670000", "171333.130000", "171333.590000", "171334.050000", "171334.510000", "171334.970000", "171335.430000", "171335.890000", "171336.350000", "171336.810000", "171337.270000", "171337.730000", "171338.190000", "171338.650000", "171339.110000", "171339.570000", "171340.030000", "171340.490000", "171340.950000", "171341.410000", "171341.870000", "171342.330000", "171342.790000", "171343.250000", "171343.710000", "171344.170000", "171344.630000", "171345.090000", "171345.550000", "171346.010000", "171346.470000", "171346.930000", "171347.390000", "171347.850000", "171348.310000", "171348.770000", "171349.230000", "171349.690000", "171350.150000", "171350.610000", "171351.070000", "171351.530000", "171351.990000", "171352.450000", "171352.910000", "171353.370000", "171353.830000", "171354.290000", "171354.750000", "171355.210000", "171355.670000", "171356.130000", "171356.590000", "171357.050000", "171357.510000", "171357.970000", "171358.430000", "171358.890000", "171359.350000", "171359.810000", "171400.270000", "171400.730000", "171401.190000", "171401.650000", "171402.110000", "171402.570000", "171403.030000", "171403.490000", "171403.950000", "171404.410000", "171404.870000", "171405.330000", "171405.790000", "171406.250000", "171406.710000", "171407.170000", "171407.630000", "171408.090000", "171408.550000", "171409.010000", "171409.470000", "171409.930000", "171410.390000", "171410.850000", "171411.310000", "171411.770000", "171412.230000", "171412.690000", "171413.150000", "171413.610000", "171414.070000", "171414.530000", "171414.990000", "171415.450000", "171415.910000", "171416.370000", "171416.830000", "171417.290000", "171417.750000", "171418.210000", "171418.670000", "171419.130000", "171419.590000", "171420.050000", "171420.510000", "171420.970000", "171421.430000", "171421.890000", "171422.350000", "171422.810000", "171423.270000", "171423.730000", "171424.190000", "171424.650000", "171425.110000", "171425.570000", "171426.030000", "171426.490000", "171426.950000", "171427.410000", "171427.870000", "171428.330000", "171428.790000", "171429.250000", "171429.710000", "171430.170000", "171430.630000", "171431.090000", "171431.550000", "171432.010000", "171432.470000", "171432.930000", "171433.390000", "171433.850000", "171434.310000", "171434.770000", "171435.230000", "171435.690000", "171436.150000", "171436.610000", "171437.070000", "171437.530000", "171437.990000", "171438.450000", "171438.910000", "171439.370000", "171439.830000", "171440.290000", "171440.750000", "171441.210000", "171441.670000", "171442.130000", "171442.590000", "171443.050000", "171443.510000", "171443.970000", "171444.430000", "171444.890000", "171445.350000", "171445.810000", "171446.270000", "171446.730000", "171447.190000", "171447.650000", "171448.110000", "171448.570000", "171449.030000", "171449.490000", "171449.950000", "171450.410000", "171450.870000", "171451.330000", "171451.790000", "171452.250000", "171452.710000", "171453.170000", "171453.630000", "171454.090000", "171454.550000", "171455.010000", "171455.470000", "171455.930000", "171456.390000", "171456.850000", "171457.310000", "171457.770000", "171458.230000", "171458.690000", "171459.150000", "171459.610000", "171500.070000", "171500.530000", "171500.990000", "171501.450000", "171501.910000", "171502.370000", "171502.830000", "171503.290000", "171503.750000", "171504.210000", "171504.670000", "171505.130000", "171505.590000", "171506.050000", "171506.510000", "171506.970000", "171507.430000", "171507.890000", "171508.350000", "171508.810000", "171509.270000", "171509.730000", "171510.190000", "171510.650000", "171511.110000", "171511.570000", "171512.030000", "171512.490000", "171512.950000", "171513.410000", "171513.870000", "171514.330000", "171514.790000", "171515.250000", "171515.710000", "171516.170000", "171516.630000", "171517.090000", "171517.550000", "171518.010000", "171518.470000", "171518.930000", "171519.390000", "171519.850000", "171520.310000", "171520.770000", "171521.230000", "171521.690000", "171522.150000", "171522.610000", "171523.070000", "171523.530000", "171523.990000", "171524.450000", "171524.910000", "171525.370000", "171525.830000", "171526.290000", "171526.750000", "171527.210000", "171527.670000", "171528.130000", "171528.590000", "171529.050000", "171529.510000", "171529.970000", "171530.430000", "171530.890000", "171531.350000", "171531.810000", "171532.270000", "171532.730000", "171533.190000", "171533.650000", "171534.110000", "171534.570000", "171535.030000", "171535.490000", "171535.950000", "171536.410000", "171536.870000", "171537.330000", "171537.790000", "171538.250000", "171538.710000", "171539.170000", "171539.630000", "171540.090000", "171540.550000", "171541.010000", "171541.470000", "171541.930000", "171542.390000", "171542.850000", "171543.310000", "171543.770000", "171544.230000", "171544.690000", "171545.150000", "171545.610000", "171546.070000", "171546.530000", "171546.990000", "171547.450000", "171547.910000", "171548.370000", "171548.830000", "171549.290000", "171549.750000", "171550.210000", "171550.670000", "171551.130000", "171551.590000", "171552.050000", "171552.510000", "171552.970000", "171553.430000", "171553.890000", "171554.350000", "171554.810000", "171555.270000", "171555.730000", "171556.190000", "171556.650000", "171557.110000", "171557.570000", "171558.030000", "171558.490000", "171558.950000", "171559.410000", "171559.870000", "171600.330000", "171600.790000", "171601.250000", "171601.710000", "171602.170000", "171602.630000", "171603.090000", "171603.550000", "171604.010000", "171604.470000", "171604.930000", "171605.390000", "171605.850000", "171606.310000", "171606.770000", "171607.230000", "171607.690000", "171608.150000", "171608.610000", "171609.070000", "171609.530000", "171609.990000", "171610.450000", "171610.910000", "171611.370000", "171611.830000", "171612.290000", "171612.750000", "171613.210000", "171613.670000", "171614.130000", "171614.590000", "171615.050000", "171615.510000", "171615.970000", "171616.430000", "171616.890000", "171617.350000", "171617.810000", "171618.270000", "171618.730000", "171619.190000", "171619.650000", "171620.110000", "171620.570000", "171621.030000", "171621.490000", "171621.950000", "171622.410000", "171622.870000", "171623.330000", "171623.790000", "171624.250000", "171624.710000", "171625.170000", "171625.630000", "171626.090000", "171626.550000", "171627.010000", "171627.470000", "171627.930000", "171628.390000", "171628.850000", "171629.310000", "171629.770000", "171630.230000", "171630.690000", "171631.150000", "171631.610000", "171632.070000", "171632.530000", "171632.990000", "171633.450000", "171633.910000", "171634.370000", "171634.830000", "171635.290000", "171635.750000", "171636.210000", "171636.670000", "171637.130000", "171637.590000", "171638.050000", "171638.510000", "171638.970000", "171639.430000", "171639.890000", "171640.350000", "171640.810000", "171641.270000", "171641.730000", "171642.190000", "171642.650000", "171643.110000", "171643.570000", "171644.030000", "171644.490000", "171644.950000", "171645.410000", "171645.870000", "171646.330000", "171646.790000", "171647.250000", "171647.710000", "171648.170000", "171648.630000", "171649.090000", "171649.550000", "171650.010000", "171650.470000", "171650.930000", "171651.390000", "171651.850000", "171652.310000", "171652.770000", "171653.230000", "171653.690000", "171654.150000", "171654.610000", "171655.070000", "171655.530000", "171655.990000", "171656.450000", "171656.910000", "171657.370000", "171657.830000", "171658.290000", "171658.750000", "171659.210000", "171659.670000", "171700.130000", "171700.590000", "171701.050000", "171701.510000", "171701.970000", "171702.430000", "171702.890000", "171703.350000", "171703.810000", "171704.270000", "171704.730000", "171705.190000", "171705.650000", "171706.110000", "171706.570000", "171707.030000", "171707.490000", "171707.950000", "171708.410000", "171708.870000", "171709.330000", "171709.790000", "171710.250000", "171710.710000", "171711.170000", "171711.630000", "171712.090000", "171712.550000", "171713.010000", "171713.470000", "171713.930000", "171714.390000", "171714.850000", "171715.310000", "171715.770000", "171716.230000", "171716.690000", "171717.150000", "171717.610000", "171718.070000", "171718.530000", "171718.990000", "171719.450000", "171719.910000", "171720.370000", "171720.830000", "171721.290000", "171721.750000", "171722.210000", "171722.670000", "171723.130000", "171723.590000", "171724.050000", "171724.510000", "171724.970000", "171725.430000", "171725.890000", "171726.350000", "171726.810000", "171727.270000", "171727.730000", "171728.190000", "171728.650000", "171729.110000", "171729.570000", "171730.030000", "171730.490000", "171730.950000", "171731.410000", "171731.870000", "171732.330000", "171732.790000", "171733.250000", "171733.710000", "171734.170000", "171734.630000", "171735.090000", "171735.550000", "171736.010000", "171736.470000", "171736.930000", "171737.390000", "171737.850000", "171738.310000", "171738.770000", "171739.230000", "171739.690000", "171740.150000", "171740.610000", "171741.070000", "171741.530000", "171741.990000", "171742.450000", "171742.910000", "171743.370000", "171743.830000", "171744.290000", "171744.750000", "171745.210000", "171745.670000", "171746.130000", "171746.590000", "171747.050000", "171747.510000", "171747.970000", "171748.430000", "171748.890000", "171749.350000", "171749.810000", "171750.270000", "171750.730000", "171751.190000", "171751.650000", "171752.110000", "171752.570000", "171753.030000", "171753.490000", "171753.950000", "171754.410000", "171754.870000", "171755.330000", "171755.790000", "171756.250000", "171756.710000", "171757.170000", "171757.630000", "171758.090000", "171758.550000", "171759.010000", "171759.470000", "171759.930000", "171800.390000", "171800.850000", "171801.310000", "171801.770000", "171802.230000", "171802.690000", "171803.150000", "171803.610000", "171804.070000", "171804.530000", "171804.990000", "171805.450000", "171805.910000", "171806.370000"],
