{
  "AcquisitionMatrixPE": 82,
  "AcquisitionNumber": 1,
  "AcquisitionTime": "17:39:12.035000",
  "BandwidthPerPixelPhaseEncode": 24.888,
  "BaseResolution": 82,
  "BodyPartExamined": "BRAIN",
  "ConsistencyInfo": "N4_VE11E_LATEST_20181129",
  "ConversionSoftware": "dcm2niix",
  "ConversionSoftwareVersion": "v1.0.20201102",
  "DerivedVendorReportedEchoSpacing": 0.00049,
  "DeviceSerialNumber": "66112",
  "DwellTime": 2e-06,
  "EchoTime": 0.0272,
  "EchoTrainLength": 82,
  "EffectiveEchoSpacing": 0.00049,
  "FlipAngle": 44,
  "ImageComments": "Unaliased MB8/PE3",
  "ImageOrientationPatientDICOM": [0.998797, -0.0346636, 0.03469, 0.0289457, 0.987716, 0.153557],
  "ImageType": [
    "ORIGINAL",
    "PRIMARY",
    "M",
    "MB",
    "ND",
    "NORM",
    "MOSAIC"
],
  "ImagingFrequency": 123.259,
  "InPlanePhaseEncodingDirectionDICOM": "COL",
  "InstitutionAddress": "Maynard 3,Hanover,NH,US,03755",
  "InstitutionName": "Dartmouth College - PBS",
  "InstitutionalDepartmentName": "Department",
  "MRAcquisitionType": "2D",
  "MagneticFieldStrength": 3,
  "Manufacturer": "Siemens",
  "ManufacturersModelName": "Prisma",
  "Modality": "MR",
  "MultibandAccelerationFactor": 8,
  "PartialFourier": 1,
  "PatientPosition": "HFS",
  "PercentPhaseFOV": 100,
  "PercentSampling": 100,
  "PhaseEncodingDirection": "j-",
  "PhaseEncodingSteps": 82,
  "PhaseResolution": 1,
  "PixelBandwidth": 3050,
  "ProcedureStepDescription": "Wager_Wager^1076_spacetop",
  "ProtocolName": "func_run-01_task-faces_acq-ap-mb8",
  "PulseSequenceDetails": "%CustomerSeq%\\cmrr_mbep2d_bold",
  "ReceiveCoilActiveElements": "HEA;HEP",
  "ReceiveCoilName": "Head_32",
  "ReconMatrixPE": 82,
  "RepetitionTime": 0.46,
  "SAR": 0.085102,
  "ScanOptions": "FS",
  "ScanningSequence": "EP",
  "SequenceName": "epfid2d1_82",
  "SequenceVariant": "SK\\SS",
  "SeriesDescription": "func_run-01_task-faces_acq-ap-mb8",
  "SeriesNumber": 16,
  "ShimSetting": [4225, -7817, -7219, 422, -199, 78, 194, 109],
  "SliceThickness": 2.7,
  "SliceTiming": [0, 0.2525, 0.0625, 0.315, 0.125, 0.3775, 0.1875, 0, 0.2525, 0.0625, 0.315, 0.125, 0.3775, 0.1875, 0, 0.2525, 0.0625, 0.315, 0.125, 0.3775, 0.1875, 0, 0.2525, 0.0625, 0.315, 0.125, 0.3775, 0.1875, 0, 0.2525, 0.0625, 0.315, 0.125, 0.3775, 0.1875, 0, 0.2525, 0.0625, 0.315, 0.125, 0.3775, 0.1875, 0, 0.2525, 0.0625, 0.315, 0.125, 0.3775, 0.1875, 0, 0.2525, 0.0625, 0.315, 0.125, 0.3775, 0.1875],
  "SoftwareVersions": "syngo MR E11",
  "SpacingBetweenSlices": 2.7,
  "StationName": "AWP66112",
  "TaskName": "faces",
  "TotalReadoutTime": 0.03969,
  "TxRefAmp": 221.671,
  "WipMemBlock": "1497a5c3-78e3-499d-8c81-f2d666b9988d||Sequence: R016 ve11e/master r/434b28f1; Aug  7 2019 18:53:46 by eja",
  "dcmmeta_affine": [
    [-2.6796987056732178, 0.07765930891036987, 0.10688399523496628, 104.65399932861328],
    [0.0929999053478241, 2.6499693393707275, 0.41139256954193115, -125.14073181152344],
    [0.09307068586349487, -0.41198089718818665, 2.666332960128784, -54.12971496582031],
    [0.0, 0.0, 0.0, 1.0]
],
  "dcmmeta_reorient_transform": [
    [0.0, -1.0, 0.0, 81.0],
    [1.0, 0.0, 0.0, 0.0],
    [0.0, 0.0, 1.0, 0.0],
    [0.0, 0.0, 0.0, 1.0]
],
  "dcmmeta_shape": [82, 82, 56, 914],
  "dcmmeta_slice_dim": 2,
  "dcmmeta_version": 0.6,
  "global": {
    "const": {
      "AccessionNumber": "A004813",
      "AcquisitionMatrix": [82, 0, 0, 82],
      "AngioFlag": "N",
      "BitsAllocated": 16,
      "BitsStored": 16,
      "BodyPartExamined": "BRAIN",
      "Columns": 656,
      "EchoNumbers": 1,
      "EchoTime": 27.2,
      "EchoTrainLength": 82,
      "FlipAngle": 44.0,
      "HighBit": 15,
      "ImageOrientationPatient": [0.99879679616804, -0.034663599744, 0.03468998151119, 0.02894574098616, 0.98771582057017, 0.15355651036072],
      "ImagePositionPatient": [-902.30617615, -823.35701390419, -232.44996947019],
      "ImageType": [
        "ORIGINAL",
        "PRIMARY",
        "M",
        "MB",
        "ND",
        "NORM",
        "MOSAIC"
],
      "ImagedNucleus": "1H",
      "ImagingFrequency": 123.259079,
      "InPlanePhaseEncodingDirection": "COL",
      "MRAcquisitionType": "2D",
      "MagneticFieldStrength": 3.0,
      "Manufacturer": "SIEMENS",
      "ManufacturerModelName": "Prisma",
      "Modality": "MR",
      "NumberOfAverages": 1.0,
      "NumberOfPhaseEncodingSteps": 82,
      "PercentPhaseFieldOfView": 100.0,
      "PercentSampling": 100.0,
      "PerformedProcedureStepStartTime": "165345.895000",
      "PhotometricInterpretation": "MONOCHROME2",
      "PixelBandwidth": 3050.0,
      "PixelRepresentation": 0,
      "PixelSpacing": [2.6829268932343, 2.6829268932343],
      "ProtocolName": "func_run-01_task-faces_acq-ap-mb8",
      "RepetitionTime": 460.0,
      "Rows": 656,
      "SAR": 0.08510198244625,
      "SamplesPerPixel": 1,
      "ScanOptions": "FS",
      "ScanningSequence": "EP",
      "SequenceName": "epfid2d1_82",
      "SequenceVariant": [
        "SK",
        "SS"
],
      "SeriesDescription": "func_run-01_task-faces_acq-ap-mb8",
      "SeriesNumber": 16,
      "SeriesTime": "173925.636000",
      "SliceLocation": -68.379251495343,
      "SliceThickness": 2.7000000476837,
      "SmallestImagePixelValue": 0,
      "SoftwareVersions": "syngo MR E11",
      "SpacingBetweenSlices": 2.6999999545478,
      "SpecificCharacterSet": "ISO_IR 100",
      "StudyID": "1",
      "StudyTime": "165345.805000",
      "TransmitCoilName": "Body",
      "VariableFlipAngleFlag": "N",
      "WindowCenterWidthExplanation": "Algo1"
    },
    "slices": {}
  },
  "time": {
    "samples": {
      "AcquisitionNumber": [1, 2, 3, 4, 5, 6, 7, 8, 9, 10, 11, 12, 13, 14, 15, 16, 17, 18, 19, 20, 21, 22, 23, 24, 25, 26, 27, 28, 29, 30, 31, 32, 33, 34, 35, 36, 37, 38, 39, 40, 41, 42, 43, 44, 45, 46, 47, 48, 49, 50, 51, 52, 53, 54, 55, 56, 57, 58, 59, 60, 61, 62, 63, 64, 65, 66, 67, 68, 69, 70, 71, 72, 73, 74, 75, 76, 77, 78, 79, 80, 81, 82, 83, 84, 85, 86, 87, 88, 89, 90, 91, 92, 93, 94, 95, 96, 97, 98, 99, 100, 101, 102, 103, 104, 105, 106, 107, 108, 109, 110, 111, 112, 113, 114, 115, 116, 117, 118, 119, 120, 121, 122, 123, 124, 125, 126, 127, 128, 129, 130, 131, 132, 133, 134, 135, 136, 137, 138, 139, 140, 141, 142, 143, 144, 145, 146, 147, 148, 149, 150, 151, 152, 153, 154, 155, 156, 157, 158, 159, 160, 161, 162, 163, 164, 165, 166, 167, 168, 169, 170, 171, 172, 173, 174, 175, 176, 177, 178, 179, 180, 181, 182, 183, 184, 185, 186, 187, 188, 189, 190, 191, 192, 193, 194, 195, 196, 197, 198, 199, 200, 201, 202, 203, 204, 205, 206, 207, 208, 209, 210, 211, 212, 213, 214, 215, 216, 217, 218, 219, 220, 221, 222, 223, 224, 225, 226, 227, 228, 229, 230, 231, 232, 233, 234, 235, 236, 237, 238, 239, 240, 241, 242, 243, 244, 245, 246, 247, 248, 249, 250, 251, 252, 253, 254, 255, 256, 257, 258, 259, 260, 261, 262, 263, 264, 265, 266, 267, 268, 269, 270, 271, 272, 273, 274, 275, 276, 277, 278, 279, 280, 281, 282, 283, 284, 285, 286, 287, 288, 289, 290, 291, 292, 293, 294, 295, 296, 297, 298, 299, 300, 301, 302, 303, 304, 305, 306, 307, 308, 309, 310, 311, 312, 313, 314, 315, 316, 317, 318, 319, 320, 321, 322, 323, 324, 325, 326, 327, 328, 329, 330, 331, 332, 333, 334, 335, 336, 337, 338, 339, 340, 341, 342, 343, 344, 345, 346, 347, 348, 349, 350, 351, 352, 353, 354, 355, 356, 357, 358, 359, 360, 361, 362, 363, 364, 365, 366, 367, 368, 369, 370, 371, 372, 373, 374, 375, 376, 377, 378, 379, 380, 381, 382, 383, 384, 385, 386, 387, 388, 389, 390, 391, 392, 393, 394, 395, 396, 397, 398, 399, 400, 401, 402, 403, 404, 405, 406, 407, 408, 409, 410, 411, 412, 413, 414, 415, 416, 417, 418, 419, 420, 421, 422, 423, 424, 425, 426, 427, 428, 429, 430, 431, 432, 433, 434, 435, 436, 437, 438, 439, 440, 441, 442, 443, 444, 445, 446, 447, 448, 449, 450, 451, 452, 453, 454, 455, 456, 457, 458, 459, 460, 461, 462, 463, 464, 465, 466, 467, 468, 469, 470, 471, 472, 473, 474, 475, 476, 477, 478, 479, 480, 481, 482, 483, 484, 485, 486, 487, 488, 489, 490, 491, 492, 493, 494, 495, 496, 497, 498, 499, 500, 501, 502, 503, 504, 505, 506, 507, 508, 509, 510, 511, 512, 513, 514, 515, 516, 517, 518, 519, 520, 521, 522, 523, 524, 525, 526, 527, 528, 529, 530, 531, 532, 533, 534, 535, 536, 537, 538, 539, 540, 541, 542, 543, 544, 545, 546, 547, 548, 549, 550, 551, 552, 553, 554, 555, 556, 557, 558, 559, 560, 561, 562, 563, 564, 565, 566, 567, 568, 569, 570, 571, 572, 573, 574, 575, 576, 577, 578, 579, 580, 581, 582, 583, 584, 585, 586, 587, 588, 589, 590, 591, 592, 593, 594, 595, 596, 597, 598, 599, 600, 601, 602, 603, 604, 605, 606, 607, 608, 609, 610, 611, 612, 613, 614, 615, 616, 617, 618, 619, 620, 621, 622, 623, 624, 625, 626, 627, 628, 629, 630, 631, 632, 633, 634, 635, 636, 637, 638, 639, 640, 641, 642, 643, 644, 645, 646, 647, 648, 649, 650, 651, 652, 653, 654, 655, 656, 657, 658, 659, 660, 661, 662, 663, 664, 665, 666, 667, 668, 669, 670, 671, 672, 673, 674, 675, 676, 677, 678, 679, 680, 681, 682, 683, 684, 685, 686, 687, 688, 689, 690, 691, 692, 693, 694, 695, 696, 697, 698, 699, 700, 701, 702, 703, 704, 705, 706, 707, 708, 709, 710, 711, 712, 713, 714, 715, 716, 717, 718, 719, 720, 721, 722, 723, 724, 725, 726, 727, 728, 729, 730, 731, 732, 733, 734, 735, 736, 737, 738, 739, 740, 741, 742, 743, 744, 745, 746, 747, 748, 749, 750, 751, 752, 753, 754, 755, 756, 757, 758, 759, 760, 761, 762, 763, 764, 765, 766, 767, 768, 769, 770, 771, 772, 773, 774, 775, 776, 777, 778, 779, 780, 781, 782, 783, 784, 785, 786, 787, 788, 789, 790, 791, 792, 793, 794, 795, 796, 797, 798, 799, 800, 801, 802, 803, 804, 805, 806, 807, 808, 809, 810, 811, 812, 813, 814, 815, 816, 817, 818, 819, 820, 821, 822, 823, 824, 825, 826, 827, 828, 829, 830, 831, 832, 833, 834, 835, 836, 837, 838, 839, 840, 841, 842, 843, 844, 845, 846, 847, 848, 849, 850, 851, 852, 853, 854, 855, 856, 857, 858, 859, 860, 861, 862, 863, 864, 865, 866, 867, 868, 869, 870, 871, 872, 873, 874, 875, 876, 877, 878, 879, 880, 881, 882, 883, 884, 885, 886, 887, 888, 889, 890, 891, 892, 893, 894, 895, 896, 897, 898, 899, 900, 901, 902, 903, 904, 905, 906, 907, 908, 909, 910, 911, 912, 913, 914],
      "AcquisitionTime": ["173912.035000", "173912.495000", "173912.955000", "173913.415000", "173913.875000", "173914.335000", "173914.795000", "173915.255000", "173915.715000", "173916.175000", "173916.635000", "173917.095000", "173917.555000", "173918.015000", "173918.475000", "173918.935000", "173919.395000", "173919.855000", "173920.315000", "173920.775000", "173921.235000", "173921.695000", "173922.155000", "173922.615000", "173923.075000", "173923.535000", "173923.995000", "173924.455000", "173924.915000", "173925.375000", "173925.835000", "173926.295000", "173926.755000", "173927.215000", "173927.675000", "173928.135000", "173928.595000", "173929.055000", "173929.515000", "173929.975000", "173930.435000", "173930.895000", "173931.355000", "173931.815000", "173932.275000", "173932.735000", "173933.195000", "173933.655000", "173934.115000", "173934.575000", "173935.035000", "173935.495000", "173935.955000", "173936.415000", "173936.875000", "173937.335000", "173937.795000", "173938.255000", "173938.715000", "173939.175000", "173939.635000", "173940.095000", "173940.555000", "173941.015000", "173941.475000", "173941.935000", "173942.395000", "173942.855000", "173943.315000", "173943.775000", "173944.235000", "173944.695000", "173945.155000", "173945.615000", "173946.075000", "173946.535000", "173946.995000", "173947.455000", "173947.915000", "173948.375000", "173948.835000", "173949.295000", "173949.755000", "173950.215000", "173950.675000", "173951.135000", "173951.595000", "173952.055000", "173952.515000", "173952.975000", "173953.435000", "173953.895000", "173954.355000", "173954.815000", "173955.275000", "173955.735000", "173956.195000", "173956.655000", "173957.115000", "173957.575000", "173958.035000", "173958.495000", "173958.955000", "173959.415000", "173959.875000", "174000.335000", "174000.795000", "174001.255000", "174001.715000", "174002.175000", "174002.635000", "174003.095000", "174003.555000", "174004.015000", "174004.475000", "174004.935000", "174005.395000", "174005.855000", "174006.315000", "174006.775000", "174007.235000", "174007.695000", "174008.155000", "174008.615000", "174009.075000", "174009.535000", "174009.995000", "174010.455000", "174010.915000", "174011.375000", "174011.835000", "174012.295000", "174012.755000", "174013.215000", "174013.675000", "174014.135000", "174014.595000", "174015.055000", "174015.515000", "174015.975000", "174016.435000", "174016.895000", "174017.355000", "174017.815000", "174018.275000", "174018.735000", "174019.195000", "174019.655000", "174020.115000", "174020.575000", "174021.035000", "174021.495000", "174021.955000", "174022.415000", "174022.875000", "174023.335000", "174023.795000", "174024.255000", "174024.715000", "174025.175000", "174025.635000", "174026.095000", "174026.555000", "174027.015000", "174027.475000", "174027.935000", "174028.395000", "174028.855000", "174029.315000", "174029.775000", "174030.235000", "174030.695000", "174031.155000", "174031.615000", "174032.075000", "174032.535000", "174032.995000", "174033.455000", "174033.915000", "174034.375000", "174034.835000", "174035.295000", "174035.755000", "174036.215000", "174036.675000", "174037.135000", "174037.595000", "174038.055000", "174038.515000", "174038.975000", "174039.435000", "174039.895000", "174040.355000", "174040.815000", "174041.275000", "174041.735000", "174042.195000", "174042.655000", "174043.115000", "174043.575000", "174044.035000", "174044.495000", "174044.955000", "174045.415000", "174045.875000", "174046.335000", "174046.795000", "174047.255000", "174047.715000", "174048.175000", "174048.635000", "174049.095000", "174049.555000", "174050.015000", "174050.475000", "174050.935000", "174051.395000", "174051.855000", "174052.315000", "174052.775000", "174053.235000", "174053.695000", "174054.155000", "174054.615000", "174055.075000", "174055.535000", "174055.995000", "174056.455000", "174056.915000", "174057.375000", "174057.835000", "174058.295000", "174058.755000", "174059.215000", "174059.675000", "174100.135000", "174100.595000", "174101.055000", "174101.515000", "174101.975000", "174102.435000", "174102.895000", "174103.355000", "174103.815000", "174104.275000", "174104.735000", "174105.195000", "174105.655000", "174106.115000", "174106.575000", "174107.035000", "174107.495000", "174107.955000", "174108.415000", "174108.875000", "174109.335000", "174109.795000", "174110.255000", "174110.715000", "174111.175000", "174111.635000", "174112.095000", "174112.555000", "174113.015000", "174113.475000", "174113.935000", "174114.395000", "174114.855000", "174115.315000", "174115.775000", "174116.235000", "174116.695000", "174117.155000", "174117.615000", "174118.075000", "174118.535000", "174118.995000", "174119.455000", "174119.915000", "174120.375000", "174120.835000", "174121.295000", "174121.755000", "174122.215000", "174122.675000", "174123.135000", "174123.595000", "174124.055000", "174124.515000", "174124.975000", "174125.435000", "174125.895000", "174126.355000", "174126.815000", "174127.275000", "174127.735000", "174128.195000", "174128.655000", "174129.115000", "174129.575000", "174130.035000", "174130.495000", "174130.955000", "174131.415000", "174131.875000", "174132.335000", "174132.795000", "174133.255000", "174133.715000", "174134.175000", "174134.635000", "174135.095000", "174135.555000", "174136.015000", "174136.475000", "174136.935000", "174137.395000", "174137.855000", "174138.315000", "174138.775000", "174139.235000", "174139.695000", "174140.155000", "174140.615000", "174141.075000", "174141.535000", "174141.995000", "174142.455000", "174142.915000", "174143.375000", "174143.835000", "174144.295000", "174144.755000", "174145.215000", "174145.675000", "174146.135000", "174146.595000", "174147.055000", "174147.515000", "174147.975000", "174148.435000", "174148.895000", "174149.355000", "174149.815000", "174150.275000", "174150.735000", "174151.195000", "174151.655000", "174152.115000", "174152.575000", "174153.035000", "174153.495000", "174153.955000", "174154.415000", "174154.875000", "174155.335000", "174155.795000", "174156.255000", "174156.715000", "174157.175000", "174157.635000", "174158.095000", "174158.555000", "174159.015000", "174159.475000", "174159.935000", "174200.395000", "174200.855000", "174201.315000", "174201.775000", "174202.235000", "174202.695000", "174203.155000", "174203.615000", "174204.075000", "174204.535000", "174204.995000", "174205.455000", "174205.915000", "174206.375000", "174206.835000", "174207.295000", "174207.755000", "174208.215000", "174208.675000", "174209.135000", "174209.595000", "174210.055000", "174210.515000", "174210.975000", "174211.435000", "174211.895000", "174212.355000", "174212.815000", "174213.275000", "174213.735000", "174214.195000", "174214.655000", "174215.115000", "174215.575000", "174216.035000", "174216.495000", "174216.955000", "174217.415000", "174217.875000", "174218.335000", "174218.795000", "174219.255000", "174219.715000", "174220.175000", "174220.635000", "174221.095000", "174221.555000", "174222.015000", "174222.475000", "174222.935000", "174223.395000", "174223.855000", "174224.315000", "174224.775000", "174225.235000", "174225.695000", "174226.155000", "174226.615000", "174227.075000", "174227.535000", "174227.995000", "174228.455000", "174228.915000", "174229.375000", "174229.835000", "174230.295000", "174230.755000", "174231.215000", "174231.675000", "174232.135000", "174232.595000", "174233.055000", "174233.515000", "174233.975000", "174234.435000", "174234.895000", "174235.355000", "174235.815000", "174236.275000", "174236.735000", "174237.195000", "174237.655000", "174238.115000", "174238.575000", "174239.035000", "174239.495000", "174239.955000", "174240.415000", "174240.875000", "174241.335000", "174241.795000", "174242.255000", "174242.715000", "174243.175000", "174243.635000", "174244.095000", "174244.555000", "174245.015000", "174245.475000", "174245.935000", "174246.395000", "174246.855000", "174247.315000", "174247.775000", "174248.235000", "174248.695000", "174249.155000", "174249.615000", "174250.075000", "174250.535000", "174250.995000", "174251.455000", "174251.915000", "174252.375000", "174252.835000", "174253.295000", "174253.755000", "174254.215000", "174254.675000", "174255.135000", "174255.595000", "174256.055000", "174256.515000", "174256.975000", "174257.435000", "174257.895000", "174258.355000", "174258.815000", "174259.275000", "174259.735000", "174300.195000", "174300.655000", "174301.115000", "174301.575000", "174302.035000", "174302.495000", "174302.955000", "174303.415000", "174303.875000", "174304.335000", "174304.795000", "174305.255000", "174305.715000", "174306.175000", "174306.635000", "174307.095000", "174307.555000", "174308.015000", "174308.475000", "174308.935000", "174309.395000", "174309.855000", "174310.315000", "174310.775000", "174311.235000", "174311.695000", "174312.155000", "174312.615000", "174313.075000", "174313.535000", "174313.995000", "174314.455000", "174314.915000", "174315.375000", "174315.835000", "174316.295000", "174316.755000", "174317.215000", "174317.675000", "174318.135000", "174318.595000", "174319.055000", "174319.515000", "174319.975000", "174320.435000", "174320.895000", "174321.355000", "174321.815000", "174322.275000", "174322.735000", "174323.195000", "174323.655000", "174324.115000", "174324.575000", "174325.035000", "174325.495000", "174325.955000", "174326.415000", "174326.875000", "174327.335000", "174327.795000", "174328.255000", "174328.715000", "174329.175000", "174329.635000", "174330.095000", "174330.555000", "174331.015000", "174331.475000", "174331.935000", "174332.395000", "174332.855000", "174333.315000", "174333.775000", "174334.235000", "174334.695000", "174335.155000", "174335.615000", "174336.075000", "174336.535000", "174336.995000", "174337.455000", "174337.915000", "174338.375000", "174338.835000", "174339.295000", "174339.755000", "174340.215000", "174340.675000", "174341.135000", "174341.595000", "174342.055000", "174342.515000", "174342.975000", "174343.435000", "174343.895000", "174344.355000", "174344.815000", "174345.275000", "174345.735000", "174346.195000", "174346.655000", "174347.115000", "174347.575000", "174348.035000", "174348.495000", "174348.955000", "174349.415000", "174349.875000", "174350.335000", "174350.795000", "174351.255000", "174351.715000", "174352.175000", "174352.635000", "174353.095000", "174353.555000", "174354.015000", "174354.475000", "174354.935000", "174355.395000", "174355.855000", "174356.315000", "174356.775000", "174357.235000", "174357.695000", "174358.155000", "174358.615000", "174359.075000", "174359.535000", "174359.995000", "174400.455000", "174400.915000", "174401.375000", "174401.835000", "174402.295000", "174402.755000", "174403.215000", "174403.675000", "174404.135000", "174404.595000", "174405.055000", "174405.515000", "174405.975000", "174406.435000", "174406.895000", "174407.355000", "174407.815000", "174408.275000", "174408.735000", "174409.195000", "174409.655000", "174410.115000", "174410.575000", "174411.035000", "174411.495000", "174411.955000", "174412.415000", "174412.875000", "174413.335000", "174413.795000", "174414.255000", "174414.715000", "174415.175000", "174415.635000", "174416.095000", "174416.555000", "174417.015000", "174417.475000", "174417.935000", "174418.395000", "174418.855000", "174419.315000", "174419.775000", "174420.235000", "174420.695000", "174421.155000", "174421.615000", "174422.075000", "174422.535000", "174422.995000", "174423.455000", "174423.915000", "174424.375000", "174424.835000", "174425.295000", "174425.755000", "174426.215000", "174426.675000", "174427.135000", "174427.595000", "174428.055000", "174428.515000", "174428.975000", "174429.435000", "174429.895000", "174430.355000", "174430.815000", "174431.275000", "174431.735000", "174432.195000", "174432.655000", "174433.115000", "174433.575000", "174434.035000", "174434.495000", "174434.955000", "174435.415000", "174435.875000", "174436.335000", "174436.795000", "174437.255000", "174437.715000", "174438.175000", "174438.635000", "174439.095000", "174439.555000", "174440.015000", "174440.475000", "174440.935000", "174441.395000", "174441.855000", "174442.315000", "174442.775000", "174443.235000", "174443.695000", "174444.155000", "174444.615000", "174445.075000", "174445.535000", "174445.995000", "174446.455000", "174446.915000", "174447.375000", "174447.835000", "174448.295000", "174448.755000", "174449.215000", "174449.675000", "174450.135000", "174450.595000", "174451.055000", "174451.515000", "174451.975000", "174452.435000", "174452.895000", "174453.355000", "174453.815000", "174454.275000", "174454.735000", "174455.195000", "174455.655000", "174456.115000", "174456.575000", "174457.035000", "174457.495000", "174457.955000", "174458.415000", "174458.875000", "174459.335000", "174459.795000", "174500.255000", "174500.715000", "174501.175000", "174501.635000", "174502.095000", "174502.555000", "174503.015000", "174503.475000", "174503.935000", "174504.395000", "174504.855000", "174505.315000", "174505.775000", "174506.235000", "174506.695000", "174507.155000", "174507.615000", "174508.075000", "174508.535000", "174508.995000", "174509.455000", "174509.915000", "174510.375000", "174510.835000", "174511.295000", "174511.755000", "174512.215000", "174512.675000", "174513.135000", "174513.595000", "174514.055000", "174514.515000", "174514.975000", "174515.435000", "174515.895000", "174516.355000", "174516.815000", "174517.275000", "174517.735000", "174518.195000", "174518.655000", "174519.115000", "174519.575000", "174520.035000", "174520.495000", "174520.955000", "174521.415000", "174521.875000", "174522.335000", "174522.795000", "174523.255000", "174523.715000", "174524.175000", "174524.635000", "174525.095000", "174525.555000", "174526.015000", "174526.475000", "174526.935000", "174527.395000", "174527.855000", "174528.315000", "174528.775000", "174529.235000", "174529.695000", "174530.155000", "174530.615000", "174531.075000", "174531.535000", "174531.995000", "174532.455000", "174532.915000", "174533.375000", "174533.835000", "174534.295000", "174534.755000", "174535.215000", "174535.675000", "174536.135000", "174536.595000", "174537.055000", "174537.515000", "174537.975000", "174538.435000", "174538.895000", "174539.355000", "174539.815000", "174540.275000", "174540.735000", "174541.195000", "174541.655000", "174542.115000", "174542.575000", "174543.035000", "174543.495000", "174543.955000", "174544.415000", "174544.875000", "174545.335000", "174545.795000", "174546.255000", "174546.715000", "174547.175000", "174547.635000", "174548.095000", "174548.555000", "174549.015000", "174549.475000", "174549.935000", "174550.395000", "174550.855000", "174551.315000", "174551.775000", "174552.235000", "174552.695000", "174553.155000", "174553.615000", "174554.075000", "174554.535000", "174554.995000", "174555.455000", "174555.915000", "174556.375000", "174556.835000", "174557.295000", "174557.755000", "174558.215000", "174558.675000", "174559.135000", "174559.595000", "174600.055000", "174600.515000", "174600.975000", "174601.435000", "174601.895000", "174602.355000", "174602.815000", "174603.275000", "174603.735000", "174604.195000", "174604.655000", "174605.115000", "174605.575000", "174606.035000", "174606.495000", "174606.955000", "174607.415000", "174607.875000", "174608.335000", "174608.795000", "174609.255000", "174609.715000", "174610.175000", "174610.635000", "174611.095000", "174611.555000", "174612.015000"],
