{
  "AcquisitionMatrixPE": 82,
  "AcquisitionNumber": 1,
  "AcquisitionTime": "18:38:20.847500",
  "BandwidthPerPixelPhaseEncode": 24.888,
  "BaseResolution": 82,
  "BodyPartExamined": "BRAIN",
  "ConsistencyInfo": "N4_VE11E_LATEST_20181129",
  "ConversionSoftware": "dcm2niix",
  "ConversionSoftwareVersion": "v1.0.20201102",
  "DerivedVendorReportedEchoSpacing": 0.00049,
  "DeviceSerialNumber": "66112",
  "DwellTime": 2e-06,
  "EchoTime": 0.0272,
  "EchoTrainLength": 82,
  "EffectiveEchoSpacing": 0.00049,
  "FlipAngle": 44,
  "ImageComments": "Unaliased MB8/PE3",
  "ImageOrientationPatientDICOM": [0.99935, -0.00892469, 0.0349279, 0.00418602, 0.991045, 0.13346],
  "ImageType": [
    "ORIGINAL",
    "PRIMARY",
    "M",
    "MB",
    "ND",
    "NORM",
    "MOSAIC"
],
  "ImagingFrequency": 123.259,
  "InPlanePhaseEncodingDirectionDICOM": "COL",
  "InstitutionAddress": "Maynard 3,Hanover,NH,US,03755",
  "InstitutionName": "Dartmouth College - PBS",
  "InstitutionalDepartmentName": "Department",
  "MRAcquisitionType": "2D",
  "MagneticFieldStrength": 3,
  "Manufacturer": "Siemens",
  "ManufacturersModelName": "Prisma",
  "Modality": "MR",
  "MultibandAccelerationFactor": 8,
  "PartialFourier": 1,
  "PatientPosition": "HFS",
  "PercentPhaseFOV": 100,
  "PercentSampling": 100,
  "PhaseEncodingDirection": "j-",
  "PhaseEncodingSteps": 82,
  "PhaseResolution": 1,
  "PixelBandwidth": 3050,
  "ProcedureStepDescription": "Wager_Wager^1076_spacetop",
  "ProtocolName": "func_run-04_task-alignvideo_acq-ap-mb8",
  "PulseSequenceDetails": "%CustomerSeq%\\cmrr_mbep2d_bold",
  "ReceiveCoilActiveElements": "HEA;HEP",
  "ReceiveCoilName": "Head_32",
  "ReconMatrixPE": 82,
  "RepetitionTime": 0.46,
  "SAR": 0.085102,
  "ScanOptions": "FS",
  "ScanningSequence": "EP",
  "SequenceName": "epfid2d1_82",
  "SequenceVariant": "SK\\SS",
  "SeriesDescription": "func_run-04_task-alignvideo_acq-ap-mb8",
  "SeriesNumber": 36,
  "ShimSetting": [4225, -7818, -7219, 427, -199, 70, 194, 108],
  "SliceThickness": 2.7,
  "SliceTiming": [0, 0.2525, 0.065, 0.315, 0.1275, 0.3775, 0.19, 0, 0.2525, 0.065, 0.315, 0.1275, 0.3775, 0.19, 0, 0.2525, 0.065, 0.315, 0.1275, 0.3775, 0.19, 0, 0.2525, 0.065, 0.315, 0.1275, 0.3775, 0.19, 0, 0.2525, 0.065, 0.315, 0.1275, 0.3775, 0.19, 0, 0.2525, 0.065, 0.315, 0.1275, 0.3775, 0.19, 0, 0.2525, 0.065, 0.315, 0.1275, 0.3775, 0.19, 0, 0.2525, 0.065, 0.315, 0.1275, 0.3775, 0.19],
  "SoftwareVersions": "syngo MR E11",
  "SpacingBetweenSlices": 2.7,
  "StationName": "AWP66112",
  "TaskName": "alignvideo",
  "TotalReadoutTime": 0.03969,
  "TxRefAmp": 221.671,
  "WipMemBlock": "450ba94e-c8c8-420e-91bf-40c7ee4bf069||Sequence: R016 ve11e/master r/434b28f1; Aug  7 2019 18:53:46 by eja",
  "dcmmeta_affine": [
    [-2.681182861328125, 0.011230777949094772, 0.09667690843343735, 107.25578308105469],
    [0.023944290354847908, 2.658902406692505, 0.35971248149871826, -121.2751235961914],
    [0.09370911121368408, -0.35806289315223694, 2.6741840839385986, -58.13999557495117],
    [0.0, 0.0, 0.0, 1.0]
],
  "dcmmeta_reorient_transform": [
    [0.0, -1.0, 0.0, 81.0],
    [1.0, 0.0, 0.0, 0.0],
    [0.0, 0.0, 1.0, 0.0],
    [0.0, 0.0, 0.0, 1.0]
],
  "dcmmeta_shape": [82, 82, 56, 914],
  "dcmmeta_slice_dim": 2,
  "dcmmeta_version": 0.6,
  "global": {
    "const": {
      "AccessionNumber": "A004813",
      "AcquisitionMatrix": [82, 0, 0, 82],
      "AngioFlag": "N",
      "BitsAllocated": 16,
      "BitsStored": 16,
      "BodyPartExamined": "BRAIN",
      "Columns": 656,
      "EchoNumbers": 1,
      "EchoTime": 27.2,
      "EchoTrainLength": 82,
      "FlipAngle": 44.0,
      "HighBit": 15,
      "ImageOrientationPatient": [0.99934998318879, -0.0089246895579, 0.03492794034672, 0.00418601729981, 0.99104538635838, 0.13345980457404],
      "ImagePositionPatient": [-880.88821315415, -850.32891784928, -216.80165668525],
      "ImageType": [
        "ORIGINAL",
        "PRIMARY",
        "M",
        "MB",
        "ND",
        "NORM",
        "MOSAIC"
],
      "ImagedNucleus": "1H",
      "ImagingFrequency": 123.259102,
      "InPlanePhaseEncodingDirection": "COL",
      "MRAcquisitionType": "2D",
      "MagneticFieldStrength": 3.0,
      "Manufacturer": "SIEMENS",
      "ManufacturerModelName": "Prisma",
      "Modality": "MR",
      "NumberOfAverages": 1.0,
      "NumberOfPhaseEncodingSteps": 82,
      "PercentPhaseFieldOfView": 100.0,
      "PercentSampling": 100.0,
      "PerformedProcedureStepStartTime": "165345.895000",
      "PhotometricInterpretation": "MONOCHROME2",
      "PixelBandwidth": 3050.0,
      "PixelRepresentation": 0,
      "PixelSpacing": [2.6829268932343, 2.6829268932343],
      "ProtocolName": "func_run-04_task-alignvideo_acq-ap-mb8",
      "RepetitionTime": 460.0,
      "Rows": 656,
      "SAR": 0.08510198244625,
      "SamplesPerPixel": 1,
      "ScanOptions": "FS",
      "ScanningSequence": "EP",
      "SequenceName": "epfid2d1_82",
      "SequenceVariant": [
        "SK",
        "SS"
],
      "SeriesDescription": "func_run-04_task-alignvideo_acq-ap-mb8",
      "SeriesNumber": 36,
      "SeriesTime": "183845.688000",
      "SliceLocation": -69.900766105166,
      "SliceThickness": 2.7000000476837,
      "SmallestImagePixelValue": 0,
      "SoftwareVersions": "syngo MR E11",
      "SpacingBetweenSlices": 2.6999999887783,
      "SpecificCharacterSet": "ISO_IR 100",
      "StudyID": "1",
      "StudyTime": "165345.805000",
      "TransmitCoilName": "Body",
      "VariableFlipAngleFlag": "N",
      "WindowCenterWidthExplanation": "Algo1"
    },
    "slices": {}
  },
  "time": {
    "samples": {
      "AcquisitionNumber": [1, 2, 3, 4, 5, 6, 7, 8, 9, 10, 11, 12, 13, 14, 15, 16, 17, 18, 19, 20, 21, 22, 23, 24, 25, 26, 27, 28, 29, 30, 31, 32, 33, 34, 35, 36, 37, 38, 39, 40, 41, 42, 43, 44, 45, 46, 47, 48, 49, 50, 51, 52, 53, 54, 55, 56, 57, 58, 59, 60, 61, 62, 63, 64, 65, 66, 67, 68, 69, 70, 71, 72, 73, 74, 75, 76, 77, 78, 79, 80, 81, 82, 83, 84, 85, 86, 87, 88, 89, 90, 91, 92, 93, 94, 95, 96, 97, 98, 99, 100, 101, 102, 103, 104, 105, 106, 107, 108, 109, 110, 111, 112, 113, 114, 115, 116, 117, 118, 119, 120, 121, 122, 123, 124, 125, 126, 127, 128, 129, 130, 131, 132, 133, 134, 135, 136, 137, 138, 139, 140, 141, 142, 143, 144, 145, 146, 147, 148, 149, 150, 151, 152, 153, 154, 155, 156, 157, 158, 159, 160, 161, 162, 163, 164, 165, 166, 167, 168, 169, 170, 171, 172, 173, 174, 175, 176, 177, 178, 179, 180, 181, 182, 183, 184, 185, 186, 187, 188, 189, 190, 191, 192, 193, 194, 195, 196, 197, 198, 199, 200, 201, 202, 203, 204, 205, 206, 207, 208, 209, 210, 211, 212, 213, 214, 215, 216, 217, 218, 219, 220, 221, 222, 223, 224, 225, 226, 227, 228, 229, 230, 231, 232, 233, 234, 235, 236, 237, 238, 239, 240, 241, 242, 243, 244, 245, 246, 247, 248, 249, 250, 251, 252, 253, 254, 255, 256, 257, 258, 259, 260, 261, 262, 263, 264, 265, 266, 267, 268, 269, 270, 271, 272, 273, 274, 275, 276, 277, 278, 279, 280, 281, 282, 283, 284, 285, 286, 287, 288, 289, 290, 291, 292, 293, 294, 295, 296, 297, 298, 299, 300, 301, 302, 303, 304, 305, 306, 307, 308, 309, 310, 311, 312, 313, 314, 315, 316, 317, 318, 319, 320, 321, 322, 323, 324, 325, 326, 327, 328, 329, 330, 331, 332, 333, 334, 335, 336, 337, 338, 339, 340, 341, 342, 343, 344, 345, 346, 347, 348, 349, 350, 351, 352, 353, 354, 355, 356, 357, 358, 359, 360, 361, 362, 363, 364, 365, 366, 367, 368, 369, 370, 371, 372, 373, 374, 375, 376, 377, 378, 379, 380, 381, 382, 383, 384, 385, 386, 387, 388, 389, 390, 391, 392, 393, 394, 395, 396, 397, 398, 399, 400, 401, 402, 403, 404, 405, 406, 407, 408, 409, 410, 411, 412, 413, 414, 415, 416, 417, 418, 419, 420, 421, 422, 423, 424, 425, 426, 427, 428, 429, 430, 431, 432, 433, 434, 435, 436, 437, 438, 439, 440, 441, 442, 443, 444, 445, 446, 447, 448, 449, 450, 451, 452, 453, 454, 455, 456, 457, 458, 459, 460, 461, 462, 463, 464, 465, 466, 467, 468, 469, 470, 471, 472, 473, 474, 475, 476, 477, 478, 479, 480, 481, 482, 483, 484, 485, 486, 487, 488, 489, 490, 491, 492, 493, 494, 495, 496, 497, 498, 499, 500, 501, 502, 503, 504, 505, 506, 507, 508, 509, 510, 511, 512, 513, 514, 515, 516, 517, 518, 519, 520, 521, 522, 523, 524, 525, 526, 527, 528, 529, 530, 531, 532, 533, 534, 535, 536, 537, 538, 539, 540, 541, 542, 543, 544, 545, 546, 547, 548, 549, 550, 551, 552, 553, 554, 555, 556, 557, 558, 559, 560, 561, 562, 563, 564, 565, 566, 567, 568, 569, 570, 571, 572, 573, 574, 575, 576, 577, 578, 579, 580, 581, 582, 583, 584, 585, 586, 587, 588, 589, 590, 591, 592, 593, 594, 595, 596, 597, 598, 599, 600, 601, 602, 603, 604, 605, 606, 607, 608, 609, 610, 611, 612, 613, 614, 615, 616, 617, 618, 619, 620, 621, 622, 623, 624, 625, 626, 627, 628, 629, 630, 631, 632, 633, 634, 635, 636, 637, 638, 639, 640, 641, 642, 643, 644, 645, 646, 647, 648, 649, 650, 651, 652, 653, 654, 655, 656, 657, 658, 659, 660, 661, 662, 663, 664, 665, 666, 667, 668, 669, 670, 671, 672, 673, 674, 675, 676, 677, 678, 679, 680, 681, 682, 683, 684, 685, 686, 687, 688, 689, 690, 691, 692, 693, 694, 695, 696, 697, 698, 699, 700, 701, 702, 703, 704, 705, 706, 707, 708, 709, 710, 711, 712, 713, 714, 715, 716, 717, 718, 719, 720, 721, 722, 723, 724, 725, 726, 727, 728, 729, 730, 731, 732, 733, 734, 735, 736, 737, 738, 739, 740, 741, 742, 743, 744, 745, 746, 747, 748, 749, 750, 751, 752, 753, 754, 755, 756, 757, 758, 759, 760, 761, 762, 763, 764, 765, 766, 767, 768, 769, 770, 771, 772, 773, 774, 775, 776, 777, 778, 779, 780, 781, 782, 783, 784, 785, 786, 787, 788, 789, 790, 791, 792, 793, 794, 795, 796, 797, 798, 799, 800, 801, 802, 803, 804, 805, 806, 807, 808, 809, 810, 811, 812, 813, 814, 815, 816, 817, 818, 819, 820, 821, 822, 823, 824, 825, 826, 827, 828, 829, 830, 831, 832, 833, 834, 835, 836, 837, 838, 839, 840, 841, 842, 843, 844, 845, 846, 847, 848, 849, 850, 851, 852, 853, 854, 855, 856, 857, 858, 859, 860, 861, 862, 863, 864, 865, 866, 867, 868, 869, 870, 871, 872, 873, 874, 875, 876, 877, 878, 879, 880, 881, 882, 883, 884, 885, 886, 887, 888, 889, 890, 891, 892, 893, 894, 895, 896, 897, 898, 899, 900, 901, 902, 903, 904, 905, 906, 907, 908, 909, 910, 911, 912, 913, 914],
      "AcquisitionTime": ["183820.847500", "183821.307500", "183821.767500", "183822.227500", "183822.687500", "183823.147500", "183823.607500", "183824.067500", "183824.527500", "183824.987500", "183825.447500", "183825.907500", "183826.367500", "183826.827500", "183827.287500", "183827.747500", "183828.207500", "183828.667500", "183829.127500", "183829.587500", "183830.047500", "183830.507500", "183830.967500", "183831.427500", "183831.887500", "183832.347500", "183832.807500", "183833.267500", "183833.727500", "183834.187500", "183834.647500", "183835.107500", "183835.567500", "183836.027500", "183836.487500", "183836.947500", "183837.407500", "183837.867500", "183838.327500", "183838.787500", "183839.247500", "183839.707500", "183840.167500", "183840.627500", "183841.087500", "183841.547500", "183842.007500", "183842.467500", "183842.927500", "183843.387500", "183843.847500", "183844.307500", "183844.767500", "183845.227500", "183845.687500", "183846.147500", "183846.607500", "183847.067500", "183847.527500", "183847.987500", "183848.447500", "183848.907500", "183849.367500", "183849.827500", "183850.287500", "183850.747500", "183851.207500", "183851.667500", "183852.127500", "183852.587500", "183853.047500", "183853.507500", "183853.967500", "183854.427500", "183854.887500", "183855.347500", "183855.807500", "183856.267500", "183856.727500", "183857.187500", "183857.647500", "183858.107500", "183858.567500", "183859.027500", "183859.487500", "183859.947500", "183900.407500", "183900.867500", "183901.327500", "183901.787500", "183902.247500", "183902.707500", "183903.167500", "183903.627500", "183904.087500", "183904.547500", "183905.007500", "183905.467500", "183905.927500", "183906.387500", "183906.847500", "183907.307500", "183907.767500", "183908.227500", "183908.687500", "183909.147500", "183909.607500", "183910.067500", "183910.527500", "183910.987500", "183911.447500", "183911.907500", "183912.367500", "183912.827500", "183913.287500", "183913.747500", "183914.207500", "183914.667500", "183915.127500", "183915.587500", "183916.047500", "183916.507500", "183916.967500", "183917.427500", "183917.887500", "183918.347500", "183918.807500", "183919.267500", "183919.727500", "183920.187500", "183920.647500", "183921.107500", "183921.567500", "183922.027500", "183922.487500", "183922.947500", "183923.407500", "183923.867500", "183924.327500", "183924.787500", "183925.247500", "183925.707500", "183926.167500", "183926.627500", "183927.087500", "183927.547500", "183928.007500", "183928.467500", "183928.927500", "183929.387500", "183929.847500", "183930.307500", "183930.767500", "183931.227500", "183931.687500", "183932.147500", "183932.607500", "183933.067500", "183933.527500", "183933.987500", "183934.447500", "183934.907500", "183935.367500", "183935.827500", "183936.287500", "183936.747500", "183937.207500", "183937.667500", "183938.127500", "183938.587500", "183939.047500", "183939.507500", "183939.967500", "183940.427500", "183940.887500", "183941.347500", "183941.807500", "183942.267500", "183942.727500", "183943.187500", "183943.647500", "183944.107500", "183944.567500", "183945.027500", "183945.487500", "183945.947500", "183946.407500", "183946.867500", "183947.327500", "183947.787500", "183948.247500", "183948.707500", "183949.167500", "183949.627500", "183950.087500", "183950.547500", "183951.007500", "183951.467500", "183951.927500", "183952.387500", "183952.847500", "183953.307500", "183953.767500", "183954.227500", "183954.687500", "183955.147500", "183955.607500", "183956.067500", "183956.527500", "183956.987500", "183957.447500", "183957.907500", "183958.367500", "183958.827500", "183959.287500", "183959.747500", "184000.207500", "184000.667500", "184001.127500", "184001.587500", "184002.047500", "184002.507500", "184002.967500", "184003.427500", "184003.887500", "184004.347500", "184004.807500", "184005.267500", "184005.727500", "184006.187500", "184006.647500", "184007.107500", "184007.567500", "184008.027500", "184008.487500", "184008.947500", "184009.407500", "184009.867500", "184010.327500", "184010.787500", "184011.247500", "184011.707500", "184012.167500", "184012.627500", "184013.087500", "184013.547500", "184014.007500", "184014.467500", "184014.927500", "184015.387500", "184015.847500", "184016.307500", "184016.767500", "184017.227500", "184017.687500", "184018.147500", "184018.607500", "184019.067500", "184019.527500", "184019.987500", "184020.447500", "184020.907500", "184021.367500", "184021.827500", "184022.287500", "184022.747500", "184023.207500", "184023.667500", "184024.127500", "184024.587500", "184025.047500", "184025.507500", "184025.967500", "184026.427500", "184026.887500", "184027.347500", "184027.807500", "184028.267500", "184028.727500", "184029.187500", "184029.647500", "184030.107500", "184030.567500", "184031.027500", "184031.487500", "184031.947500", "184032.407500", "184032.867500", "184033.327500", "184033.787500", "184034.247500", "184034.707500", "184035.167500", "184035.627500", "184036.087500", "184036.547500", "184037.007500", "184037.467500", "184037.927500", "184038.387500", "184038.847500", "184039.307500", "184039.767500", "184040.227500", "184040.687500", "184041.147500", "184041.607500", "184042.067500", "184042.527500", "184042.987500", "184043.447500", "184043.907500", "184044.367500", "184044.827500", "184045.287500", "184045.747500", "184046.207500", "184046.667500", "184047.127500", "184047.587500", "184048.047500", "184048.507500", "184048.967500", "184049.427500", "184049.887500", "184050.347500", "184050.807500", "184051.267500", "184051.727500", "184052.187500", "184052.647500", "184053.107500", "184053.567500", "184054.027500", "184054.487500", "184054.947500", "184055.407500", "184055.867500", "184056.327500", "184056.787500", "184057.247500", "184057.707500", "184058.167500", "184058.627500", "184059.087500", "184059.547500", "184100.007500", "184100.467500", "184100.927500", "184101.387500", "184101.847500", "184102.307500", "184102.767500", "184103.227500", "184103.687500", "184104.147500", "184104.607500", "184105.067500", "184105.527500", "184105.987500", "184106.447500", "184106.907500", "184107.367500", "184107.827500", "184108.287500", "184108.747500", "184109.207500", "184109.667500", "184110.127500", "184110.587500", "184111.047500", "184111.507500", "184111.967500", "184112.427500", "184112.887500", "184113.347500", "184113.807500", "184114.267500", "184114.727500", "184115.187500", "184115.647500", "184116.107500", "184116.567500", "184117.027500", "184117.487500", "184117.947500", "184118.407500", "184118.867500", "184119.327500", "184119.787500", "184120.247500", "184120.707500", "184121.167500", "184121.627500", "184122.087500", "184122.547500", "184123.007500", "184123.467500", "184123.927500", "184124.387500", "184124.847500", "184125.307500", "184125.767500", "184126.227500", "184126.687500", "184127.147500", "184127.607500", "184128.067500", "184128.527500", "184128.987500", "184129.447500", "184129.907500", "184130.367500", "184130.827500", "184131.287500", "184131.747500", "184132.207500", "184132.667500", "184133.127500", "184133.587500", "184134.047500", "184134.507500", "184134.967500", "184135.427500", "184135.887500", "184136.347500", "184136.807500", "184137.267500", "184137.727500", "184138.187500", "184138.647500", "184139.107500", "184139.567500", "184140.027500", "184140.487500", "184140.947500", "184141.407500", "184141.867500", "184142.327500", "184142.787500", "184143.247500", "184143.707500", "184144.167500", "184144.627500", "184145.087500", "184145.547500", "184146.007500", "184146.467500", "184146.927500", "184147.387500", "184147.847500", "184148.307500", "184148.767500", "184149.227500", "184149.687500", "184150.147500", "184150.607500", "184151.067500", "184151.527500", "184151.987500", "184152.447500", "184152.907500", "184153.367500", "184153.827500", "184154.287500", "184154.747500", "184155.207500", "184155.667500", "184156.127500", "184156.587500", "184157.047500", "184157.507500", "184157.967500", "184158.427500", "184158.887500", "184159.347500", "184159.807500", "184200.267500", "184200.727500", "184201.187500", "184201.647500", "184202.107500", "184202.567500", "184203.027500", "184203.487500", "184203.947500", "184204.407500", "184204.867500", "184205.327500", "184205.787500", "184206.247500", "184206.707500", "184207.167500", "184207.627500", "184208.087500", "184208.547500", "184209.007500", "184209.467500", "184209.927500", "184210.387500", "184210.847500", "184211.307500", "184211.767500", "184212.227500", "184212.687500", "184213.147500", "184213.607500", "184214.067500", "184214.527500", "184214.987500", "184215.447500", "184215.907500", "184216.367500", "184216.827500", "184217.287500", "184217.747500", "184218.207500", "184218.667500", "184219.127500", "184219.587500", "184220.047500", "184220.507500", "184220.967500", "184221.427500", "184221.887500", "184222.347500", "184222.807500", "184223.267500", "184223.727500", "184224.187500", "184224.647500", "184225.107500", "184225.567500", "184226.027500", "184226.487500", "184226.947500", "184227.407500", "184227.867500", "184228.327500", "184228.787500", "184229.247500", "184229.707500", "184230.167500", "184230.627500", "184231.087500", "184231.547500", "184232.007500", "184232.467500", "184232.927500", "184233.387500", "184233.847500", "184234.307500", "184234.767500", "184235.227500", "184235.687500", "184236.147500", "184236.607500", "184237.067500", "184237.527500", "184237.987500", "184238.447500", "184238.907500", "184239.367500", "184239.827500", "184240.287500", "184240.747500", "184241.207500", "184241.667500", "184242.127500", "184242.587500", "184243.047500", "184243.507500", "184243.967500", "184244.427500", "184244.887500", "184245.347500", "184245.807500", "184246.267500", "184246.727500", "184247.187500", "184247.647500", "184248.107500", "184248.567500", "184249.027500", "184249.487500", "184249.947500", "184250.407500", "184250.867500", "184251.327500", "184251.787500", "184252.247500", "184252.707500", "184253.167500", "184253.627500", "184254.087500", "184254.547500", "184255.007500", "184255.467500", "184255.927500", "184256.387500", "184256.847500", "184257.307500", "184257.767500", "184258.227500", "184258.687500", "184259.147500", "184259.607500", "184300.067500", "184300.527500", "184300.987500", "184301.447500", "184301.907500", "184302.367500", "184302.827500", "184303.287500", "184303.747500", "184304.207500", "184304.667500", "184305.127500", "184305.587500", "184306.047500", "184306.507500", "184306.967500", "184307.427500", "184307.887500", "184308.347500", "184308.807500", "184309.267500", "184309.727500", "184310.187500", "184310.647500", "184311.107500", "184311.567500", "184312.027500", "184312.487500", "184312.947500", "184313.407500", "184313.867500", "184314.327500", "184314.787500", "184315.247500", "184315.707500", "184316.167500", "184316.627500", "184317.087500", "184317.547500", "184318.007500", "184318.467500", "184318.927500", "184319.387500", "184319.847500", "184320.307500", "184320.767500", "184321.227500", "184321.687500", "184322.147500", "184322.607500", "184323.067500", "184323.527500", "184323.987500", "184324.447500", "184324.907500", "184325.367500", "184325.827500", "184326.287500", "184326.747500", "184327.207500", "184327.667500", "184328.127500", "184328.587500", "184329.047500", "184329.507500", "184329.967500", "184330.427500", "184330.887500", "184331.347500", "184331.807500", "184332.267500", "184332.727500", "184333.187500", "184333.647500", "184334.107500", "184334.567500", "184335.027500", "184335.487500", "184335.947500", "184336.407500", "184336.867500", "184337.327500", "184337.787500", "184338.247500", "184338.707500", "184339.167500", "184339.627500", "184340.087500", "184340.547500", "184341.007500", "184341.467500", "184341.927500", "184342.387500", "184342.847500", "184343.307500", "184343.767500", "184344.227500", "184344.687500", "184345.147500", "184345.607500", "184346.067500", "184346.527500", "184346.987500", "184347.447500", "184347.907500", "184348.367500", "184348.827500", "184349.287500", "184349.747500", "184350.207500", "184350.667500", "184351.127500", "184351.587500", "184352.047500", "184352.507500", "184352.967500", "184353.427500", "184353.887500", "184354.347500", "184354.807500", "184355.267500", "184355.727500", "184356.187500", "184356.647500", "184357.107500", "184357.567500", "184358.027500", "184358.487500", "184358.947500", "184359.407500", "184359.867500", "184400.327500", "184400.787500", "184401.247500", "184401.707500", "184402.167500", "184402.627500", "184403.087500", "184403.547500", "184404.007500", "184404.467500", "184404.927500", "184405.387500", "184405.847500", "184406.307500", "184406.767500", "184407.227500", "184407.687500", "184408.147500", "184408.607500", "184409.067500", "184409.527500", "184409.987500", "184410.447500", "184410.907500", "184411.367500", "184411.827500", "184412.287500", "184412.747500", "184413.207500", "184413.667500", "184414.127500", "184414.587500", "184415.047500", "184415.507500", "184415.967500", "184416.427500", "184416.887500", "184417.347500", "184417.807500", "184418.267500", "184418.727500", "184419.187500", "184419.647500", "184420.107500", "184420.567500", "184421.027500", "184421.487500", "184421.947500", "184422.407500", "184422.867500", "184423.327500", "184423.787500", "184424.247500", "184424.707500", "184425.167500", "184425.627500", "184426.087500", "184426.547500", "184427.007500", "184427.467500", "184427.927500", "184428.387500", "184428.847500", "184429.307500", "184429.767500", "184430.227500", "184430.687500", "184431.147500", "184431.607500", "184432.067500", "184432.527500", "184432.987500", "184433.447500", "184433.907500", "184434.367500", "184434.827500", "184435.287500", "184435.747500", "184436.207500", "184436.667500", "184437.127500", "184437.587500", "184438.047500", "184438.507500", "184438.967500", "184439.427500", "184439.887500", "184440.347500", "184440.807500", "184441.267500", "184441.727500", "184442.187500", "184442.647500", "184443.107500", "184443.567500", "184444.027500", "184444.487500", "184444.947500", "184445.407500", "184445.867500", "184446.327500", "184446.787500", "184447.247500", "184447.707500", "184448.167500", "184448.627500", "184449.087500", "184449.547500", "184450.007500", "184450.467500", "184450.927500", "184451.387500", "184451.847500", "184452.307500", "184452.767500", "184453.227500", "184453.687500", "184454.147500", "184454.607500", "184455.067500", "184455.527500", "184455.987500", "184456.447500", "184456.907500", "184457.367500", "184457.827500", "184458.287500", "184458.747500", "184459.207500", "184459.667500", "184500.127500", "184500.587500", "184501.047500", "184501.507500", "184501.967500", "184502.427500", "184502.887500", "184503.347500", "184503.807500", "184504.267500", "184504.727500", "184505.187500", "184505.647500", "184506.107500", "184506.567500", "184507.027500", "184507.487500", "184507.947500", "184508.407500", "184508.867500", "184509.327500", "184509.787500", "184510.247500", "184510.707500", "184511.167500", "184511.627500", "184512.087500", "184512.547500", "184513.007500", "184513.467500", "184513.927500", "184514.387500", "184514.847500", "184515.307500", "184515.767500", "184516.227500", "184516.687500", "184517.147500", "184517.607500", "184518.067500", "184518.527500", "184518.987500", "184519.447500", "184519.907500", "184520.367500", "184520.827500"],
