{
  "AcquisitionMatrixPE": 82,
  "AcquisitionNumber": 1,
  "AcquisitionTime": "09:59:59.045000",
  "BandwidthPerPixelPhaseEncode": 24.888,
  "BaseResolution": 82,
  "BodyPartExamined": "BRAIN",
  "ConsistencyInfo": "N4_VE11C_LATEST_20160120",
  "ConversionSoftware": "dcm2niix",
  "ConversionSoftwareVersion": "v1.0.20201102",
  "DerivedVendorReportedEchoSpacing": 0.00049,
  "DeviceSerialNumber": "66112",
  "DwellTime": 2e-06,
  "EchoTime": 0.0272,
  "EchoTrainLength": 82,
  "EffectiveEchoSpacing": 0.00049,
  "FlipAngle": 44,
  "ImageComments": "Unaliased MB8/PE3",
  "ImageOrientationPatientDICOM": [0.995475, -0.0588087, 0.074643, 0.0544357, 0.996753, 0.0593271],
  "ImageType": [
    "ORIGINAL",
    "PRIMARY",
    "M",
    "MB",
    "ND",
    "NORM",
    "MOSAIC"
],
  "ImagingFrequency": 123.252,
  "InPlanePhaseEncodingDirectionDICOM": "COL",
  "InstitutionAddress": "Maynard 3,Hanover,NH,US,03755",
  "InstitutionName": "Dartmouth College - PBS",
  "InstitutionalDepartmentName": "Department",
  "MRAcquisitionType": "2D",
  "MagneticFieldStrength": 3,
  "Manufacturer": "Siemens",
  "ManufacturersModelName": "Prisma",
  "Modality": "MR",
  "MultibandAccelerationFactor": 8,
  "PartialFourier": 1,
  "PatientPosition": "HFS",
  "PercentPhaseFOV": 100,
  "PercentSampling": 100,
  "PhaseEncodingDirection": "j-",
  "PhaseEncodingSteps": 82,
  "PhaseResolution": 1,
  "PixelBandwidth": 3050,
  "ProcedureStepDescription": "Wager_Wager^1076_spacetop",
  "ProtocolName": "func_run-04_task-social_acq-ap-mb8",
  "PulseSequenceDetails": "%CustomerSeq%\\cmrr_mbep2d_bold",
  "ReceiveCoilActiveElements": "HEA;HEP",
  "ReceiveCoilName": "Head_32",
  "ReconMatrixPE": 82,
  "RepetitionTime": 0.46,
  "SAR": 0.100313,
  "ScanOptions": "FS",
  "ScanningSequence": "EP",
  "SequenceName": "epfid2d1_82",
  "SequenceVariant": "SK\\SS",
  "SeriesDescription": "func_run-04_task-social_acq-ap-mb8",
  "SeriesNumber": 18,
  "ShimSetting": [4165, -7742, -7236, 640, -67, -214, -22, 11],
  "SliceThickness": 2.7,
  "SliceTiming": [0, 0.2525, 0.0625, 0.315, 0.125, 0.3775, 0.19, 0, 0.2525, 0.0625, 0.315, 0.125, 0.3775, 0.19, 0, 0.2525, 0.0625, 0.315, 0.125, 0.3775, 0.19, 0, 0.2525, 0.0625, 0.315, 0.125, 0.3775, 0.19, 0, 0.2525, 0.0625, 0.315, 0.125, 0.3775, 0.19, 0, 0.2525, 0.0625, 0.315, 0.125, 0.3775, 0.19, 0, 0.2525, 0.0625, 0.315, 0.125, 0.3775, 0.19, 0, 0.2525, 0.0625, 0.315, 0.125, 0.3775, 0.19],
  "SoftwareVersions": "syngo MR E11",
  "SpacingBetweenSlices": 2.7,
  "StationName": "AWP66112",
  "TaskName": "social",
  "TotalReadoutTime": 0.03969,
  "TxRefAmp": 232.903,
  "WipMemBlock": "c892d34d-203a-4394-b7c2-408079dff7ca||Sequence: R016 ve11c/master r/e634e98; Dec 19 2017 11:00:25 by eja",
  "dcmmeta_affine": [
    [-2.670785903930664, 0.14604713022708893, 0.21030192077159882, 99.62892150878906],
    [0.15777945518493652, 2.6742160320281982, 0.1484876573085785, -89.274658203125],
    [0.2002616971731186, -0.15917040407657623, 2.6876988410949707, -63.83384323120117],
    [0.0, 0.0, 0.0, 1.0]
],
  "dcmmeta_reorient_transform": [
    [0.0, -1.0, 0.0, 81.0],
    [1.0, 0.0, 0.0, 0.0],
    [0.0, 0.0, 1.0, 0.0],
    [0.0, 0.0, 0.0, 1.0]
],
  "dcmmeta_shape": [82, 82, 56, 872],
  "dcmmeta_slice_dim": 2,
  "dcmmeta_version": 0.6,
  "global": {
    "const": {
      "AccessionNumber": "A003662",
      "AcquisitionMatrix": [82, 0, 0, 82],
      "AngioFlag": "N",
      "BitsAllocated": 16,
      "BitsStored": 16,
      "BodyPartExamined": "BRAIN",
      "Columns": 656,
      "EchoNumbers": 1,
      "EchoTime": 27.2,
      "EchoTrainLength": 82,
      "FlipAngle": 44.0,
      "HighBit": 15,
      "ImageOrientationPatient": [0.99547474077789, -0.0588087030131, 0.07464299647731, 0.05443574556601, 0.9967532488731, 0.05932714779587],
      "ImagePositionPatient": [-919.88983597865, -849.55416101467, -179.88365897043],
      "ImageType": [
        "ORIGINAL",
        "PRIMARY",
        "M",
        "MB",
        "ND",
        "NORM",
        "MOSAIC"
],
      "ImagedNucleus": "1H",
      "ImagingFrequency": 123.252176,
      "InPlanePhaseEncodingDirection": "COL",
      "MRAcquisitionType": "2D",
      "MagneticFieldStrength": 3.0,
      "Manufacturer": "SIEMENS",
      "ManufacturerModelName": "Prisma",
      "Modality": "MR",
      "NumberOfAverages": 1.0,
      "NumberOfPhaseEncodingSteps": 82,
      "PercentPhaseFieldOfView": 100.0,
      "PercentSampling": 100.0,
      "PerformedProcedureStepStartTime": "085626.278000",
      "PhotometricInterpretation": "MONOCHROME2",
      "PixelBandwidth": 3050.0,
      "PixelRepresentation": 0,
      "PixelSpacing": [2.6829268932343, 2.6829268932343],
      "ProtocolName": "func_run-04_task-social_acq-ap-mb8",
      "RepetitionTime": 460.0,
      "Rows": 656,
      "SAR": 0.10031283017275,
      "SamplesPerPixel": 1,
      "ScanOptions": "FS",
      "ScanningSequence": "EP",
      "SequenceName": "epfid2d1_82",
      "SequenceVariant": [
        "SK",
        "SS"
],
      "SeriesDescription": "func_run-04_task-social_acq-ap-mb8",
      "SeriesNumber": 18,
      "SeriesTime": "100017.824000",
      "SliceLocation": -60.692655602314,
      "SliceThickness": 2.7000000476837,
      "SmallestImagePixelValue": 0,
      "SoftwareVersions": "syngo MR E11",
      "SpacingBetweenSlices": 2.7000000393525,
      "SpecificCharacterSet": "ISO_IR 100",
      "StudyID": "1",
      "StudyTime": "085626.189000",
      "TransmitCoilName": "Body",
      "VariableFlipAngleFlag": "N",
      "WindowCenterWidthExplanation": "Algo1",
      "dBdt": 0.0},
    "slices": {}
  },
  "time": {
    "samples": {
      "AcquisitionNumber": [1, 2, 3, 4, 5, 6, 7, 8, 9, 10, 11, 12, 13, 14, 15, 16, 17, 18, 19, 20, 21, 22, 23, 24, 25, 26, 27, 28, 29, 30, 31, 32, 33, 34, 35, 36, 37, 38, 39, 40, 41, 42, 43, 44, 45, 46, 47, 48, 49, 50, 51, 52, 53, 54, 55, 56, 57, 58, 59, 60, 61, 62, 63, 64, 65, 66, 67, 68, 69, 70, 71, 72, 73, 74, 75, 76, 77, 78, 79, 80, 81, 82, 83, 84, 85, 86, 87, 88, 89, 90, 91, 92, 93, 94, 95, 96, 97, 98, 99, 100, 101, 102, 103, 104, 105, 106, 107, 108, 109, 110, 111, 112, 113, 114, 115, 116, 117, 118, 119, 120, 121, 122, 123, 124, 125, 126, 127, 128, 129, 130, 131, 132, 133, 134, 135, 136, 137, 138, 139, 140, 141, 142, 143, 144, 145, 146, 147, 148, 149, 150, 151, 152, 153, 154, 155, 156, 157, 158, 159, 160, 161, 162, 163, 164, 165, 166, 167, 168, 169, 170, 171, 172, 173, 174, 175, 176, 177, 178, 179, 180, 181, 182, 183, 184, 185, 186, 187, 188, 189, 190, 191, 192, 193, 194, 195, 196, 197, 198, 199, 200, 201, 202, 203, 204, 205, 206, 207, 208, 209, 210, 211, 212, 213, 214, 215, 216, 217, 218, 219, 220, 221, 222, 223, 224, 225, 226, 227, 228, 229, 230, 231, 232, 233, 234, 235, 236, 237, 238, 239, 240, 241, 242, 243, 244, 245, 246, 247, 248, 249, 250, 251, 252, 253, 254, 255, 256, 257, 258, 259, 260, 261, 262, 263, 264, 265, 266, 267, 268, 269, 270, 271, 272, 273, 274, 275, 276, 277, 278, 279, 280, 281, 282, 283, 284, 285, 286, 287, 288, 289, 290, 291, 292, 293, 294, 295, 296, 297, 298, 299, 300, 301, 302, 303, 304, 305, 306, 307, 308, 309, 310, 311, 312, 313, 314, 315, 316, 317, 318, 319, 320, 321, 322, 323, 324, 325, 326, 327, 328, 329, 330, 331, 332, 333, 334, 335, 336, 337, 338, 339, 340, 341, 342, 343, 344, 345, 346, 347, 348, 349, 350, 351, 352, 353, 354, 355, 356, 357, 358, 359, 360, 361, 362, 363, 364, 365, 366, 367, 368, 369, 370, 371, 372, 373, 374, 375, 376, 377, 378, 379, 380, 381, 382, 383, 384, 385, 386, 387, 388, 389, 390, 391, 392, 393, 394, 395, 396, 397, 398, 399, 400, 401, 402, 403, 404, 405, 406, 407, 408, 409, 410, 411, 412, 413, 414, 415, 416, 417, 418, 419, 420, 421, 422, 423, 424, 425, 426, 427, 428, 429, 430, 431, 432, 433, 434, 435, 436, 437, 438, 439, 440, 441, 442, 443, 444, 445, 446, 447, 448, 449, 450, 451, 452, 453, 454, 455, 456, 457, 458, 459, 460, 461, 462, 463, 464, 465, 466, 467, 468, 469, 470, 471, 472, 473, 474, 475, 476, 477, 478, 479, 480, 481, 482, 483, 484, 485, 486, 487, 488, 489, 490, 491, 492, 493, 494, 495, 496, 497, 498, 499, 500, 501, 502, 503, 504, 505, 506, 507, 508, 509, 510, 511, 512, 513, 514, 515, 516, 517, 518, 519, 520, 521, 522, 523, 524, 525, 526, 527, 528, 529, 530, 531, 532, 533, 534, 535, 536, 537, 538, 539, 540, 541, 542, 543, 544, 545, 546, 547, 548, 549, 550, 551, 552, 553, 554, 555, 556, 557, 558, 559, 560, 561, 562, 563, 564, 565, 566, 567, 568, 569, 570, 571, 572, 573, 574, 575, 576, 577, 578, 579, 580, 581, 582, 583, 584, 585, 586, 587, 588, 589, 590, 591, 592, 593, 594, 595, 596, 597, 598, 599, 600, 601, 602, 603, 604, 605, 606, 607, 608, 609, 610, 611, 612, 613, 614, 615, 616, 617, 618, 619, 620, 621, 622, 623, 624, 625, 626, 627, 628, 629, 630, 631, 632, 633, 634, 635, 636, 637, 638, 639, 640, 641, 642, 643, 644, 645, 646, 647, 648, 649, 650, 651, 652, 653, 654, 655, 656, 657, 658, 659, 660, 661, 662, 663, 664, 665, 666, 667, 668, 669, 670, 671, 672, 673, 674, 675, 676, 677, 678, 679, 680, 681, 682, 683, 684, 685, 686, 687, 688, 689, 690, 691, 692, 693, 694, 695, 696, 697, 698, 699, 700, 701, 702, 703, 704, 705, 706, 707, 708, 709, 710, 711, 712, 713, 714, 715, 716, 717, 718, 719, 720, 721, 722, 723, 724, 725, 726, 727, 728, 729, 730, 731, 732, 733, 734, 735, 736, 737, 738, 739, 740, 741, 742, 743, 744, 745, 746, 747, 748, 749, 750, 751, 752, 753, 754, 755, 756, 757, 758, 759, 760, 761, 762, 763, 764, 765, 766, 767, 768, 769, 770, 771, 772, 773, 774, 775, 776, 777, 778, 779, 780, 781, 782, 783, 784, 785, 786, 787, 788, 789, 790, 791, 792, 793, 794, 795, 796, 797, 798, 799, 800, 801, 802, 803, 804, 805, 806, 807, 808, 809, 810, 811, 812, 813, 814, 815, 816, 817, 818, 819, 820, 821, 822, 823, 824, 825, 826, 827, 828, 829, 830, 831, 832, 833, 834, 835, 836, 837, 838, 839, 840, 841, 842, 843, 844, 845, 846, 847, 848, 849, 850, 851, 852, 853, 854, 855, 856, 857, 858, 859, 860, 861, 862, 863, 864, 865, 866, 867, 868, 869, 870, 871, 872],
      "AcquisitionTime": ["095959.045000", "095959.505000", "095959.965000", "100000.425000", "100000.885000", "100001.345000", "100001.805000", "100002.265000", "100002.725000", "100003.185000", "100003.645000", "100004.105000", "100004.565000", "100005.025000", "100005.485000", "100005.945000", "100006.405000", "100006.865000", "100007.325000", "100007.785000", "100008.245000", "100008.705000", "100009.165000", "100009.625000", "100010.085000", "100010.545000", "100011.005000", "100011.465000", "100011.925000", "100012.385000", "100012.845000", "100013.305000", "100013.765000", "100014.225000", "100014.685000", "100015.145000", "100015.605000", "100016.065000", "100016.525000", "100016.985000", "100017.445000", "100017.905000", "100018.365000", "100018.825000", "100019.285000", "100019.745000", "100020.205000", "100020.665000", "100021.125000", "100021.585000", "100022.045000", "100022.505000", "100022.965000", "100023.425000", "100023.885000", "100024.345000", "100024.805000", "100025.265000", "100025.725000", "100026.185000", "100026.645000", "100027.105000", "100027.565000", "100028.025000", "100028.485000", "100028.945000", "100029.405000", "100029.865000", "100030.325000", "100030.785000", "100031.245000", "100031.705000", "100032.165000", "100032.625000", "100033.085000", "100033.545000", "100034.005000", "100034.465000", "100034.925000", "100035.385000", "100035.845000", "100036.305000", "100036.765000", "100037.225000", "100037.685000", "100038.145000", "100038.605000", "100039.065000", "100039.525000", "100039.985000", "100040.445000", "100040.905000", "100041.365000", "100041.825000", "100042.285000", "100042.745000", "100043.205000", "100043.665000", "100044.125000", "100044.585000", "100045.045000", "100045.505000", "100045.965000", "100046.425000", "100046.885000", "100047.345000", "100047.805000", "100048.265000", "100048.725000", "100049.185000", "100049.645000", "100050.105000", "100050.565000", "100051.025000", "100051.485000", "100051.945000", "100052.405000", "100052.865000", "100053.325000", "100053.785000", "100054.245000", "100054.705000", "100055.165000", "100055.625000", "100056.085000", "100056.545000", "100057.005000", "100057.465000", "100057.925000", "100058.385000", "100058.845000", "100059.305000", "100059.765000", "100100.225000", "100100.685000", "100101.145000", "100101.605000", "100102.065000", "100102.525000", "100102.985000", "100103.445000", "100103.905000", "100104.365000", "100104.825000", "100105.285000", "100105.745000", "100106.205000", "100106.665000", "100107.125000", "100107.585000", "100108.045000", "100108.505000", "100108.965000", "100109.425000", "100109.885000", "100110.345000", "100110.805000", "100111.265000", "100111.725000", "100112.185000", "100112.645000", "100113.105000", "100113.565000", "100114.025000", "100114.485000", "100114.945000", "100115.405000", "100115.865000", "100116.325000", "100116.785000", "100117.245000", "100117.705000", "100118.165000", "100118.625000", "100119.085000", "100119.545000", "100120.005000", "100120.465000", "100120.925000", "100121.385000", "100121.845000", "100122.305000", "100122.765000", "100123.225000", "100123.685000", "100124.145000", "100124.605000", "100125.065000", "100125.525000", "100125.985000", "100126.445000", "100126.905000", "100127.365000", "100127.825000", "100128.285000", "100128.745000", "100129.205000", "100129.665000", "100130.125000", "100130.585000", "100131.045000", "100131.505000", "100131.965000", "100132.425000", "100132.885000", "100133.345000", "100133.805000", "100134.265000", "100134.725000", "100135.185000", "100135.645000", "100136.105000", "100136.565000", "100137.025000", "100137.485000", "100137.945000", "100138.405000", "100138.865000", "100139.325000", "100139.785000", "100140.245000", "100140.705000", "100141.165000", "100141.625000", "100142.085000", "100142.545000", "100143.005000", "100143.465000", "100143.925000", "100144.385000", "100144.845000", "100145.305000", "100145.765000", "100146.225000", "100146.685000", "100147.145000", "100147.605000", "100148.065000", "100148.525000", "100148.985000", "100149.445000", "100149.905000", "100150.365000", "100150.825000", "100151.285000", "100151.745000", "100152.205000", "100152.665000", "100153.125000", "100153.585000", "100154.045000", "100154.505000", "100154.965000", "100155.425000", "100155.885000", "100156.345000", "100156.805000", "100157.265000", "100157.725000", "100158.185000", "100158.645000", "100159.105000", "100159.565000", "100200.025000", "100200.485000", "100200.945000", "100201.405000", "100201.865000", "100202.325000", "100202.785000", "100203.245000", "100203.705000", "100204.165000", "100204.625000", "100205.085000", "100205.545000", "100206.005000", "100206.465000", "100206.925000", "100207.385000", "100207.845000", "100208.305000", "100208.765000", "100209.225000", "100209.685000", "100210.145000", "100210.605000", "100211.065000", "100211.525000", "100211.985000", "100212.445000", "100212.905000", "100213.365000", "100213.825000", "100214.285000", "100214.745000", "100215.205000", "100215.665000", "100216.125000", "100216.585000", "100217.045000", "100217.505000", "100217.965000", "100218.425000", "100218.885000", "100219.345000", "100219.805000", "100220.265000", "100220.725000", "100221.185000", "100221.645000", "100222.105000", "100222.565000", "100223.025000", "100223.485000", "100223.945000", "100224.405000", "100224.865000", "100225.325000", "100225.785000", "100226.245000", "100226.705000", "100227.165000", "100227.625000", "100228.085000", "100228.545000", "100229.005000", "100229.465000", "100229.925000", "100230.385000", "100230.845000", "100231.305000", "100231.765000", "100232.225000", "100232.685000", "100233.145000", "100233.605000", "100234.065000", "100234.525000", "100234.985000", "100235.445000", "100235.905000", "100236.365000", "100236.825000", "100237.285000", "100237.745000", "100238.205000", "100238.665000", "100239.125000", "100239.585000", "100240.045000", "100240.505000", "100240.965000", "100241.425000", "100241.885000", "100242.345000", "100242.805000", "100243.265000", "100243.725000", "100244.185000", "100244.645000", "100245.105000", "100245.565000", "100246.025000", "100246.485000", "100246.945000", "100247.405000", "100247.865000", "100248.325000", "100248.785000", "100249.245000", "100249.705000", "100250.165000", "100250.625000", "100251.085000", "100251.545000", "100252.005000", "100252.465000", "100252.925000", "100253.385000", "100253.845000", "100254.305000", "100254.765000", "100255.225000", "100255.685000", "100256.145000", "100256.605000", "100257.065000", "100257.525000", "100257.985000", "100258.445000", "100258.905000", "100259.365000", "100259.825000", "100300.285000", "100300.745000", "100301.205000", "100301.665000", "100302.125000", "100302.585000", "100303.045000", "100303.505000", "100303.965000", "100304.425000", "100304.885000", "100305.345000", "100305.805000", "100306.265000", "100306.725000", "100307.185000", "100307.645000", "100308.105000", "100308.565000", "100309.025000", "100309.485000", "100309.945000", "100310.405000", "100310.865000", "100311.325000", "100311.785000", "100312.245000", "100312.705000", "100313.165000", "100313.625000", "100314.085000", "100314.545000", "100315.005000", "100315.465000", "100315.925000", "100316.385000", "100316.845000", "100317.305000", "100317.765000", "100318.225000", "100318.685000", "100319.145000", "100319.605000", "100320.065000", "100320.525000", "100320.985000", "100321.445000", "100321.905000", "100322.365000", "100322.825000", "100323.285000", "100323.745000", "100324.205000", "100324.665000", "100325.125000", "100325.585000", "100326.045000", "100326.505000", "100326.965000", "100327.425000", "100327.885000", "100328.345000", "100328.805000", "100329.265000", "100329.725000", "100330.185000", "100330.645000", "100331.105000", "100331.565000", "100332.025000", "100332.485000", "100332.945000", "100333.405000", "100333.865000", "100334.325000", "100334.785000", "100335.245000", "100335.705000", "100336.165000", "100336.625000", "100337.085000", "100337.545000", "100338.005000", "100338.465000", "100338.925000", "100339.385000", "100339.845000", "100340.305000", "100340.765000", "100341.225000", "100341.685000", "100342.145000", "100342.605000", "100343.065000", "100343.525000", "100343.985000", "100344.445000", "100344.905000", "100345.365000", "100345.825000", "100346.285000", "100346.745000", "100347.205000", "100347.665000", "100348.125000", "100348.585000", "100349.045000", "100349.505000", "100349.965000", "100350.425000", "100350.885000", "100351.345000", "100351.805000", "100352.265000", "100352.725000", "100353.185000", "100353.645000", "100354.105000", "100354.565000", "100355.025000", "100355.485000", "100355.945000", "100356.405000", "100356.865000", "100357.325000", "100357.785000", "100358.245000", "100358.705000", "100359.165000", "100359.625000", "100400.085000", "100400.545000", "100401.005000", "100401.465000", "100401.925000", "100402.385000", "100402.845000", "100403.305000", "100403.765000", "100404.225000", "100404.685000", "100405.145000", "100405.605000", "100406.065000", "100406.525000", "100406.985000", "100407.445000", "100407.905000", "100408.365000", "100408.825000", "100409.285000", "100409.745000", "100410.205000", "100410.665000", "100411.125000", "100411.585000", "100412.045000", "100412.505000", "100412.965000", "100413.425000", "100413.885000", "100414.345000", "100414.805000", "100415.265000", "100415.725000", "100416.185000", "100416.645000", "100417.105000", "100417.565000", "100418.025000", "100418.485000", "100418.945000", "100419.405000", "100419.865000", "100420.325000", "100420.785000", "100421.245000", "100421.705000", "100422.165000", "100422.625000", "100423.085000", "100423.545000", "100424.005000", "100424.465000", "100424.925000", "100425.385000", "100425.845000", "100426.305000", "100426.765000", "100427.225000", "100427.685000", "100428.145000", "100428.605000", "100429.065000", "100429.525000", "100429.985000", "100430.445000", "100430.905000", "100431.365000", "100431.825000", "100432.285000", "100432.745000", "100433.205000", "100433.665000", "100434.125000", "100434.585000", "100435.045000", "100435.505000", "100435.965000", "100436.425000", "100436.885000", "100437.345000", "100437.805000", "100438.265000", "100438.725000", "100439.185000", "100439.645000", "100440.105000", "100440.565000", "100441.025000", "100441.485000", "100441.945000", "100442.405000", "100442.865000", "100443.325000", "100443.785000", "100444.245000", "100444.705000", "100445.165000", "100445.625000", "100446.085000", "100446.545000", "100447.005000", "100447.465000", "100447.925000", "100448.385000", "100448.845000", "100449.305000", "100449.765000", "100450.225000", "100450.685000", "100451.145000", "100451.605000", "100452.065000", "100452.525000", "100452.985000", "100453.445000", "100453.905000", "100454.365000", "100454.825000", "100455.285000", "100455.745000", "100456.205000", "100456.665000", "100457.125000", "100457.585000", "100458.045000", "100458.505000", "100458.965000", "100459.425000", "100459.885000", "100500.345000", "100500.805000", "100501.265000", "100501.725000", "100502.185000", "100502.645000", "100503.105000", "100503.565000", "100504.025000", "100504.485000", "100504.945000", "100505.405000", "100505.865000", "100506.325000", "100506.785000", "100507.245000", "100507.705000", "100508.165000", "100508.625000", "100509.085000", "100509.545000", "100510.005000", "100510.465000", "100510.925000", "100511.385000", "100511.845000", "100512.305000", "100512.765000", "100513.225000", "100513.685000", "100514.145000", "100514.605000", "100515.065000", "100515.525000", "100515.985000", "100516.445000", "100516.905000", "100517.365000", "100517.825000", "100518.285000", "100518.745000", "100519.205000", "100519.665000", "100520.125000", "100520.585000", "100521.045000", "100521.505000", "100521.965000", "100522.425000", "100522.885000", "100523.345000", "100523.805000", "100524.265000", "100524.725000", "100525.185000", "100525.645000", "100526.105000", "100526.565000", "100527.025000", "100527.485000", "100527.945000", "100528.405000", "100528.865000", "100529.325000", "100529.785000", "100530.245000", "100530.705000", "100531.165000", "100531.625000", "100532.085000", "100532.545000", "100533.005000", "100533.465000", "100533.925000", "100534.385000", "100534.845000", "100535.305000", "100535.765000", "100536.225000", "100536.685000", "100537.145000", "100537.605000", "100538.065000", "100538.525000", "100538.985000", "100539.445000", "100539.905000", "100540.365000", "100540.825000", "100541.285000", "100541.745000", "100542.205000", "100542.665000", "100543.125000", "100543.585000", "100544.045000", "100544.505000", "100544.965000", "100545.425000", "100545.885000", "100546.345000", "100546.805000", "100547.265000", "100547.725000", "100548.185000", "100548.645000", "100549.105000", "100549.565000", "100550.025000", "100550.485000", "100550.945000", "100551.405000", "100551.865000", "100552.325000", "100552.785000", "100553.245000", "100553.705000", "100554.165000", "100554.625000", "100555.085000", "100555.545000", "100556.005000", "100556.465000", "100556.925000", "100557.385000", "100557.845000", "100558.305000", "100558.765000", "100559.225000", "100559.685000", "100600.145000", "100600.605000", "100601.065000", "100601.525000", "100601.985000", "100602.445000", "100602.905000", "100603.365000", "100603.825000", "100604.285000", "100604.745000", "100605.205000", "100605.665000", "100606.125000", "100606.585000", "100607.045000", "100607.505000", "100607.965000", "100608.425000", "100608.885000", "100609.345000", "100609.805000", "100610.265000", "100610.725000", "100611.185000", "100611.645000", "100612.105000", "100612.565000", "100613.025000", "100613.485000", "100613.945000", "100614.405000", "100614.865000", "100615.325000", "100615.785000", "100616.245000", "100616.705000", "100617.165000", "100617.625000", "100618.085000", "100618.545000", "100619.005000", "100619.465000", "100619.925000", "100620.385000", "100620.845000", "100621.305000", "100621.765000", "100622.225000", "100622.685000", "100623.145000", "100623.605000", "100624.065000", "100624.525000", "100624.985000", "100625.445000", "100625.905000", "100626.365000", "100626.825000", "100627.285000", "100627.745000", "100628.205000", "100628.665000", "100629.125000", "100629.585000", "100630.045000", "100630.505000", "100630.965000", "100631.425000", "100631.885000", "100632.345000", "100632.805000", "100633.265000", "100633.725000", "100634.185000", "100634.645000", "100635.105000", "100635.565000", "100636.025000", "100636.485000", "100636.945000", "100637.405000", "100637.865000", "100638.325000", "100638.785000", "100639.245000", "100639.705000"],
