{
  "AcquisitionMatrixPE": 82,
  "AcquisitionNumber": 1,
  "AcquisitionTime": "11:15:37.095000",
  "BandwidthPerPixelPhaseEncode": 24.888,
  "BaseResolution": 82,
  "BodyPartExamined": "BRAIN",
  "ConsistencyInfo": "N4_VE11C_LATEST_20160120",
  "ConversionSoftware": "dcm2niix",
  "ConversionSoftwareVersion": "v1.0.20201102",
  "DerivedVendorReportedEchoSpacing": 0.00049,
  "DeviceSerialNumber": "66112",
  "DwellTime": 2e-06,
  "EchoTime": 0.0272,
  "EchoTrainLength": 82,
  "EffectiveEchoSpacing": 0.00049,
  "FlipAngle": 44,
  "ImageComments": "Unaliased MB8/PE3",
  "ImageOrientationPatientDICOM": [0.99971, 0.00475741, 0.0236088, -0.00401315, 0.999497, -0.0314728],
  "ImageType": [
    "ORIGINAL",
    "PRIMARY",
    "M",
    "MB",
    "ND",
    "NORM",
    "MOSAIC"
],
  "ImagingFrequency": 123.252,
  "InPlanePhaseEncodingDirectionDICOM": "COL",
  "InstitutionAddress": "Maynard 3,Hanover,NH,US,03755",
  "InstitutionName": "Dartmouth College - PBS",
  "InstitutionalDepartmentName": "Department",
  "MRAcquisitionType": "2D",
  "MagneticFieldStrength": 3,
  "Manufacturer": "Siemens",
  "ManufacturersModelName": "Prisma",
  "Modality": "MR",
  "MultibandAccelerationFactor": 8,
  "PartialFourier": 1,
  "PatientPosition": "HFS",
  "PercentPhaseFOV": 100,
  "PercentSampling": 100,
  "PhaseEncodingDirection": "j-",
  "PhaseEncodingSteps": 82,
  "PhaseResolution": 1,
  "PixelBandwidth": 3050,
  "ProcedureStepDescription": "Wager_Wager^1076_spacetop",
  "ProtocolName": "func_run-02_task-social_acq-ap-mb8",
  "PulseSequenceDetails": "%CustomerSeq%\\cmrr_mbep2d_bold",
  "ReceiveCoilActiveElements": "HEA;HEP",
  "ReceiveCoilName": "Head_32",
  "ReconMatrixPE": 82,
  "RepetitionTime": 0.46,
  "SAR": 0.100322,
  "ScanOptions": "FS",
  "ScanningSequence": "EP",
  "SequenceName": "epfid2d1_82",
  "SequenceVariant": "SK\\SS",
  "SeriesDescription": "func_run-02_task-social_acq-ap-mb8",
  "SeriesNumber": 14,
  "ShimSetting": [4155, -7749, -7250, 613, -58, -182, 40, 39],
  "SliceThickness": 2.7,
  "SliceTiming": [0, 0.2525, 0.0625, 0.315, 0.1275, 0.3775, 0.19, 0, 0.2525, 0.0625, 0.315, 0.1275, 0.3775, 0.19, 0, 0.2525, 0.0625, 0.315, 0.1275, 0.3775, 0.19, 0, 0.2525, 0.0625, 0.315, 0.1275, 0.3775, 0.19, 0, 0.2525, 0.0625, 0.315, 0.1275, 0.3775, 0.19, 0, 0.2525, 0.0625, 0.315, 0.1275, 0.3775, 0.19, 0, 0.2525, 0.0625, 0.315, 0.1275, 0.3775, 0.19, 0, 0.2525, 0.0625, 0.315, 0.1275, 0.3775, 0.19],
  "SoftwareVersions": "syngo MR E11",
  "SpacingBetweenSlices": 2.7,
  "StationName": "AWP66112",
  "TaskName": "social",
  "TotalReadoutTime": 0.03969,
  "TxRefAmp": 269.307,
  "WipMemBlock": "e23b4e48-f083-4b80-986d-73dc89319e73||Sequence: R016 ve11c/master r/e634e98; Dec 19 2017 11:00:25 by eja",
  "dcmmeta_affine": [
    [-2.6821486949920654, -0.010766974650323391, 0.06411605328321457, 112.11647033691406],
    [-0.012763788923621178, 2.6815762519836426, -0.08469603955745697, -81.9780044555664],
    [0.06334080547094345, 0.08443916589021683, 2.697909355163574, -77.32073974609375],
    [0.0, 0.0, 0.0, 1.0]
],
  "dcmmeta_reorient_transform": [
    [0.0, -1.0, 0.0, 81.0],
    [1.0, 0.0, 0.0, 0.0],
    [0.0, 0.0, 1.0, 0.0],
    [0.0, 0.0, 0.0, 1.0]
],
  "dcmmeta_shape": [82, 82, 56, 872],
  "dcmmeta_slice_dim": 2,
  "dcmmeta_version": 0.6,
  "global": {
    "const": {
      "AccessionNumber": "A003801",
      "AcquisitionMatrix": [82, 0, 0, 82],
      "AngioFlag": "N",
      "BitsAllocated": 16,
      "BitsStored": 16,
      "BodyPartExamined": "BRAIN",
      "Columns": 656,
      "EchoNumbers": 1,
      "EchoTime": 27.2,
      "EchoTrainLength": 82,
      "FlipAngle": 44.0,
      "HighBit": 15,
      "ImageOrientationPatient": [0.99970995269517, 0.00475741215986, 0.02360884393092, -0.0040131451445, 0.99949655271627, -0.0314727783067],
      "ImagePositionPatient": [-877.93090414878, -908.50523654048, -64.425936619977],
      "ImageType": [
        "ORIGINAL",
        "PRIMARY",
        "M",
        "MB",
        "ND",
        "NORM",
        "MOSAIC"
],
      "ImagedNucleus": "1H",
      "ImagingFrequency": 123.252191,
      "InPlanePhaseEncodingDirection": "COL",
      "MRAcquisitionType": "2D",
      "MagneticFieldStrength": 3.0,
      "Manufacturer": "SIEMENS",
      "ManufacturerModelName": "Prisma",
      "Modality": "MR",
      "NumberOfAverages": 1.0,
      "NumberOfPhaseEncodingSteps": 82,
      "PercentPhaseFieldOfView": 100.0,
      "PercentSampling": 100.0,
      "PerformedProcedureStepStartTime": "104253.287000",
      "PhotometricInterpretation": "MONOCHROME2",
      "PixelBandwidth": 3050.0,
      "PixelRepresentation": 0,
      "PixelSpacing": [2.6829268932343, 2.6829268932343],
      "ProtocolName": "func_run-02_task-social_acq-ap-mb8",
      "RepetitionTime": 460.0,
      "Rows": 656,
      "SAR": 0.10032158461115,
      "SamplesPerPixel": 1,
      "ScanOptions": "FS",
      "ScanningSequence": "EP",
      "SequenceName": "epfid2d1_82",
      "SequenceVariant": [
        "SK",
        "SS"
],
      "SeriesDescription": "func_run-02_task-social_acq-ap-mb8",
      "SeriesNumber": 14,
      "SeriesTime": "111555.079000",
      "SliceLocation": -72.026917494396,
      "SliceThickness": 2.7000000476837,
      "SmallestImagePixelValue": 0,
      "SoftwareVersions": "syngo MR E11",
      "SpacingBetweenSlices": 2.6999999001045,
      "SpecificCharacterSet": "ISO_IR 100",
      "StudyID": "1",
      "StudyTime": "104253.173000",
      "TransmitCoilName": "Body",
      "VariableFlipAngleFlag": "N",
      "WindowCenterWidthExplanation": "Algo1",
      "dBdt": 0.0},
    "slices": {}
  },
  "time": {
    "samples": {
      "AcquisitionNumber": [1, 2, 3, 4, 5, 6, 7, 8, 9, 10, 11, 12, 13, 14, 15, 16, 17, 18, 19, 20, 21, 22, 23, 24, 25, 26, 27, 28, 29, 30, 31, 32, 33, 34, 35, 36, 37, 38, 39, 40, 41, 42, 43, 44, 45, 46, 47, 48, 49, 50, 51, 52, 53, 54, 55, 56, 57, 58, 59, 60, 61, 62, 63, 64, 65, 66, 67, 68, 69, 70, 71, 72, 73, 74, 75, 76, 77, 78, 79, 80, 81, 82, 83, 84, 85, 86, 87, 88, 89, 90, 91, 92, 93, 94, 95, 96, 97, 98, 99, 100, 101, 102, 103, 104, 105, 106, 107, 108, 109, 110, 111, 112, 113, 114, 115, 116, 117, 118, 119, 120, 121, 122, 123, 124, 125, 126, 127, 128, 129, 130, 131, 132, 133, 134, 135, 136, 137, 138, 139, 140, 141, 142, 143, 144, 145, 146, 147, 148, 149, 150, 151, 152, 153, 154, 155, 156, 157, 158, 159, 160, 161, 162, 163, 164, 165, 166, 167, 168, 169, 170, 171, 172, 173, 174, 175, 176, 177, 178, 179, 180, 181, 182, 183, 184, 185, 186, 187, 188, 189, 190, 191, 192, 193, 194, 195, 196, 197, 198, 199, 200, 201, 202, 203, 204, 205, 206, 207, 208, 209, 210, 211, 212, 213, 214, 215, 216, 217, 218, 219, 220, 221, 222, 223, 224, 225, 226, 227, 228, 229, 230, 231, 232, 233, 234, 235, 236, 237, 238, 239, 240, 241, 242, 243, 244, 245, 246, 247, 248, 249, 250, 251, 252, 253, 254, 255, 256, 257, 258, 259, 260, 261, 262, 263, 264, 265, 266, 267, 268, 269, 270, 271, 272, 273, 274, 275, 276, 277, 278, 279, 280, 281, 282, 283, 284, 285, 286, 287, 288, 289, 290, 291, 292, 293, 294, 295, 296, 297, 298, 299, 300, 301, 302, 303, 304, 305, 306, 307, 308, 309, 310, 311, 312, 313, 314, 315, 316, 317, 318, 319, 320, 321, 322, 323, 324, 325, 326, 327, 328, 329, 330, 331, 332, 333, 334, 335, 336, 337, 338, 339, 340, 341, 342, 343, 344, 345, 346, 347, 348, 349, 350, 351, 352, 353, 354, 355, 356, 357, 358, 359, 360, 361, 362, 363, 364, 365, 366, 367, 368, 369, 370, 371, 372, 373, 374, 375, 376, 377, 378, 379, 380, 381, 382, 383, 384, 385, 386, 387, 388, 389, 390, 391, 392, 393, 394, 395, 396, 397, 398, 399, 400, 401, 402, 403, 404, 405, 406, 407, 408, 409, 410, 411, 412, 413, 414, 415, 416, 417, 418, 419, 420, 421, 422, 423, 424, 425, 426, 427, 428, 429, 430, 431, 432, 433, 434, 435, 436, 437, 438, 439, 440, 441, 442, 443, 444, 445, 446, 447, 448, 449, 450, 451, 452, 453, 454, 455, 456, 457, 458, 459, 460, 461, 462, 463, 464, 465, 466, 467, 468, 469, 470, 471, 472, 473, 474, 475, 476, 477, 478, 479, 480, 481, 482, 483, 484, 485, 486, 487, 488, 489, 490, 491, 492, 493, 494, 495, 496, 497, 498, 499, 500, 501, 502, 503, 504, 505, 506, 507, 508, 509, 510, 511, 512, 513, 514, 515, 516, 517, 518, 519, 520, 521, 522, 523, 524, 525, 526, 527, 528, 529, 530, 531, 532, 533, 534, 535, 536, 537, 538, 539, 540, 541, 542, 543, 544, 545, 546, 547, 548, 549, 550, 551, 552, 553, 554, 555, 556, 557, 558, 559, 560, 561, 562, 563, 564, 565, 566, 567, 568, 569, 570, 571, 572, 573, 574, 575, 576, 577, 578, 579, 580, 581, 582, 583, 584, 585, 586, 587, 588, 589, 590, 591, 592, 593, 594, 595, 596, 597, 598, 599, 600, 601, 602, 603, 604, 605, 606, 607, 608, 609, 610, 611, 612, 613, 614, 615, 616, 617, 618, 619, 620, 621, 622, 623, 624, 625, 626, 627, 628, 629, 630, 631, 632, 633, 634, 635, 636, 637, 638, 639, 640, 641, 642, 643, 644, 645, 646, 647, 648, 649, 650, 651, 652, 653, 654, 655, 656, 657, 658, 659, 660, 661, 662, 663, 664, 665, 666, 667, 668, 669, 670, 671, 672, 673, 674, 675, 676, 677, 678, 679, 680, 681, 682, 683, 684, 685, 686, 687, 688, 689, 690, 691, 692, 693, 694, 695, 696, 697, 698, 699, 700, 701, 702, 703, 704, 705, 706, 707, 708, 709, 710, 711, 712, 713, 714, 715, 716, 717, 718, 719, 720, 721, 722, 723, 724, 725, 726, 727, 728, 729, 730, 731, 732, 733, 734, 735, 736, 737, 738, 739, 740, 741, 742, 743, 744, 745, 746, 747, 748, 749, 750, 751, 752, 753, 754, 755, 756, 757, 758, 759, 760, 761, 762, 763, 764, 765, 766, 767, 768, 769, 770, 771, 772, 773, 774, 775, 776, 777, 778, 779, 780, 781, 782, 783, 784, 785, 786, 787, 788, 789, 790, 791, 792, 793, 794, 795, 796, 797, 798, 799, 800, 801, 802, 803, 804, 805, 806, 807, 808, 809, 810, 811, 812, 813, 814, 815, 816, 817, 818, 819, 820, 821, 822, 823, 824, 825, 826, 827, 828, 829, 830, 831, 832, 833, 834, 835, 836, 837, 838, 839, 840, 841, 842, 843, 844, 845, 846, 847, 848, 849, 850, 851, 852, 853, 854, 855, 856, 857, 858, 859, 860, 861, 862, 863, 864, 865, 866, 867, 868, 869, 870, 871, 872],
      "AcquisitionTime": ["111537.095000", "111537.555000", "111538.015000", "111538.475000", "111538.935000", "111539.395000", "111539.855000", "111540.315000", "111540.775000", "111541.235000", "111541.695000", "111542.155000", "111542.615000", "111543.075000", "111543.535000", "111543.995000", "111544.455000", "111544.915000", "111545.375000", "111545.835000", "111546.295000", "111546.755000", "111547.215000", "111547.675000", "111548.135000", "111548.595000", "111549.055000", "111549.515000", "111549.975000", "111550.435000", "111550.895000", "111551.355000", "111551.815000", "111552.275000", "111552.735000", "111553.195000", "111553.655000", "111554.115000", "111554.575000", "111555.035000", "111555.495000", "111555.955000", "111556.415000", "111556.875000", "111557.335000", "111557.795000", "111558.255000", "111558.715000", "111559.175000", "111559.635000", "111600.095000", "111600.555000", "111601.015000", "111601.475000", "111601.935000", "111602.395000", "111602.855000", "111603.315000", "111603.775000", "111604.235000", "111604.695000", "111605.155000", "111605.615000", "111606.075000", "111606.535000", "111606.995000", "111607.455000", "111607.915000", "111608.375000", "111608.835000", "111609.295000", "111609.755000", "111610.215000", "111610.675000", "111611.135000", "111611.595000", "111612.055000", "111612.515000", "111612.975000", "111613.435000", "111613.895000", "111614.355000", "111614.815000", "111615.275000", "111615.735000", "111616.195000", "111616.655000", "111617.115000", "111617.575000", "111618.035000", "111618.495000", "111618.955000", "111619.415000", "111619.875000", "111620.335000", "111620.795000", "111621.255000", "111621.715000", "111622.175000", "111622.635000", "111623.095000", "111623.555000", "111624.015000", "111624.475000", "111624.935000", "111625.395000", "111625.855000", "111626.315000", "111626.775000", "111627.235000", "111627.695000", "111628.155000", "111628.615000", "111629.075000", "111629.535000", "111629.995000", "111630.455000", "111630.915000", "111631.375000", "111631.835000", "111632.295000", "111632.755000", "111633.215000", "111633.675000", "111634.135000", "111634.595000", "111635.055000", "111635.515000", "111635.975000", "111636.435000", "111636.895000", "111637.355000", "111637.815000", "111638.275000", "111638.735000", "111639.195000", "111639.655000", "111640.115000", "111640.575000", "111641.035000", "111641.495000", "111641.955000", "111642.415000", "111642.875000", "111643.335000", "111643.795000", "111644.255000", "111644.715000", "111645.175000", "111645.635000", "111646.095000", "111646.555000", "111647.015000", "111647.475000", "111647.935000", "111648.395000", "111648.855000", "111649.315000", "111649.775000", "111650.235000", "111650.695000", "111651.155000", "111651.615000", "111652.075000", "111652.535000", "111652.995000", "111653.455000", "111653.915000", "111654.375000", "111654.835000", "111655.295000", "111655.755000", "111656.215000", "111656.675000", "111657.135000", "111657.595000", "111658.055000", "111658.515000", "111658.975000", "111659.435000", "111659.895000", "111700.355000", "111700.815000", "111701.275000", "111701.735000", "111702.195000", "111702.655000", "111703.115000", "111703.575000", "111704.035000", "111704.495000", "111704.955000", "111705.415000", "111705.875000", "111706.335000", "111706.795000", "111707.255000", "111707.715000", "111708.175000", "111708.635000", "111709.095000", "111709.555000", "111710.015000", "111710.475000", "111710.935000", "111711.395000", "111711.855000", "111712.315000", "111712.775000", "111713.235000", "111713.695000", "111714.155000", "111714.615000", "111715.075000", "111715.535000", "111715.995000", "111716.455000", "111716.915000", "111717.375000", "111717.835000", "111718.295000", "111718.755000", "111719.215000", "111719.675000", "111720.135000", "111720.595000", "111721.055000", "111721.515000", "111721.975000", "111722.435000", "111722.895000", "111723.355000", "111723.815000", "111724.275000", "111724.735000", "111725.195000", "111725.655000", "111726.115000", "111726.575000", "111727.035000", "111727.495000", "111727.955000", "111728.415000", "111728.875000", "111729.335000", "111729.795000", "111730.255000", "111730.715000", "111731.175000", "111731.635000", "111732.095000", "111732.555000", "111733.015000", "111733.475000", "111733.935000", "111734.395000", "111734.855000", "111735.315000", "111735.775000", "111736.235000", "111736.695000", "111737.155000", "111737.615000", "111738.075000", "111738.535000", "111738.995000", "111739.455000", "111739.915000", "111740.375000", "111740.835000", "111741.295000", "111741.755000", "111742.215000", "111742.675000", "111743.135000", "111743.595000", "111744.055000", "111744.515000", "111744.975000", "111745.435000", "111745.895000", "111746.355000", "111746.815000", "111747.275000", "111747.735000", "111748.195000", "111748.655000", "111749.115000", "111749.575000", "111750.035000", "111750.495000", "111750.955000", "111751.415000", "111751.875000", "111752.335000", "111752.795000", "111753.255000", "111753.715000", "111754.175000", "111754.635000", "111755.095000", "111755.555000", "111756.015000", "111756.475000", "111756.935000", "111757.395000", "111757.855000", "111758.315000", "111758.775000", "111759.235000", "111759.695000", "111800.155000", "111800.615000", "111801.075000", "111801.535000", "111801.995000", "111802.455000", "111802.915000", "111803.375000", "111803.835000", "111804.295000", "111804.755000", "111805.215000", "111805.675000", "111806.135000", "111806.595000", "111807.055000", "111807.515000", "111807.975000", "111808.435000", "111808.895000", "111809.355000", "111809.815000", "111810.275000", "111810.735000", "111811.195000", "111811.655000", "111812.115000", "111812.575000", "111813.035000", "111813.495000", "111813.955000", "111814.415000", "111814.875000", "111815.335000", "111815.795000", "111816.255000", "111816.715000", "111817.175000", "111817.635000", "111818.095000", "111818.555000", "111819.015000", "111819.475000", "111819.935000", "111820.395000", "111820.855000", "111821.315000", "111821.775000", "111822.235000", "111822.695000", "111823.155000", "111823.615000", "111824.075000", "111824.535000", "111824.995000", "111825.455000", "111825.915000", "111826.375000", "111826.835000", "111827.295000", "111827.755000", "111828.215000", "111828.675000", "111829.135000", "111829.595000", "111830.055000", "111830.515000", "111830.975000", "111831.435000", "111831.895000", "111832.355000", "111832.815000", "111833.275000", "111833.735000", "111834.195000", "111834.655000", "111835.115000", "111835.575000", "111836.035000", "111836.495000", "111836.955000", "111837.415000", "111837.875000", "111838.335000", "111838.795000", "111839.255000", "111839.715000", "111840.175000", "111840.635000", "111841.095000", "111841.555000", "111842.015000", "111842.475000", "111842.935000", "111843.395000", "111843.855000", "111844.315000", "111844.775000", "111845.235000", "111845.695000", "111846.155000", "111846.615000", "111847.075000", "111847.535000", "111847.995000", "111848.455000", "111848.915000", "111849.375000", "111849.835000", "111850.295000", "111850.755000", "111851.215000", "111851.675000", "111852.135000", "111852.595000", "111853.055000", "111853.515000", "111853.975000", "111854.435000", "111854.895000", "111855.355000", "111855.815000", "111856.275000", "111856.735000", "111857.195000", "111857.655000", "111858.115000", "111858.575000", "111859.035000", "111859.495000", "111859.955000", "111900.415000", "111900.875000", "111901.335000", "111901.795000", "111902.255000", "111902.715000", "111903.175000", "111903.635000", "111904.095000", "111904.555000", "111905.015000", "111905.475000", "111905.935000", "111906.395000", "111906.855000", "111907.315000", "111907.775000", "111908.235000", "111908.695000", "111909.155000", "111909.615000", "111910.075000", "111910.535000", "111910.995000", "111911.455000", "111911.915000", "111912.375000", "111912.835000", "111913.295000", "111913.755000", "111914.215000", "111914.675000", "111915.135000", "111915.595000", "111916.055000", "111916.515000", "111916.975000", "111917.435000", "111917.895000", "111918.355000", "111918.815000", "111919.275000", "111919.735000", "111920.195000", "111920.655000", "111921.115000", "111921.575000", "111922.035000", "111922.495000", "111922.955000", "111923.415000", "111923.875000", "111924.335000", "111924.795000", "111925.255000", "111925.715000", "111926.175000", "111926.635000", "111927.095000", "111927.555000", "111928.015000", "111928.475000", "111928.935000", "111929.395000", "111929.855000", "111930.315000", "111930.775000", "111931.235000", "111931.695000", "111932.155000", "111932.615000", "111933.075000", "111933.535000", "111933.995000", "111934.455000", "111934.915000", "111935.375000", "111935.835000", "111936.295000", "111936.755000", "111937.215000", "111937.675000", "111938.135000", "111938.595000", "111939.055000", "111939.515000", "111939.975000", "111940.435000", "111940.895000", "111941.355000", "111941.815000", "111942.275000", "111942.735000", "111943.195000", "111943.655000", "111944.115000", "111944.575000", "111945.035000", "111945.495000", "111945.955000", "111946.415000", "111946.875000", "111947.335000", "111947.795000", "111948.255000", "111948.715000", "111949.175000", "111949.635000", "111950.095000", "111950.555000", "111951.015000", "111951.475000", "111951.935000", "111952.395000", "111952.855000", "111953.315000", "111953.775000", "111954.235000", "111954.695000", "111955.155000", "111955.615000", "111956.075000", "111956.535000", "111956.995000", "111957.455000", "111957.915000", "111958.375000", "111958.835000", "111959.295000", "111959.755000", "112000.215000", "112000.675000", "112001.135000", "112001.595000", "112002.055000", "112002.515000", "112002.975000", "112003.435000", "112003.895000", "112004.355000", "112004.815000", "112005.275000", "112005.735000", "112006.195000", "112006.655000", "112007.115000", "112007.575000", "112008.035000", "112008.495000", "112008.955000", "112009.415000", "112009.875000", "112010.335000", "112010.795000", "112011.255000", "112011.715000", "112012.175000", "112012.635000", "112013.095000", "112013.555000", "112014.015000", "112014.475000", "112014.935000", "112015.395000", "112015.855000", "112016.315000", "112016.775000", "112017.235000", "112017.695000", "112018.155000", "112018.615000", "112019.075000", "112019.535000", "112019.995000", "112020.455000", "112020.915000", "112021.375000", "112021.835000", "112022.295000", "112022.755000", "112023.215000", "112023.675000", "112024.135000", "112024.595000", "112025.055000", "112025.515000", "112025.975000", "112026.435000", "112026.895000", "112027.355000", "112027.815000", "112028.275000", "112028.735000", "112029.195000", "112029.655000", "112030.115000", "112030.575000", "112031.035000", "112031.495000", "112031.955000", "112032.415000", "112032.875000", "112033.335000", "112033.795000", "112034.255000", "112034.715000", "112035.175000", "112035.635000", "112036.095000", "112036.555000", "112037.015000", "112037.475000", "112037.935000", "112038.395000", "112038.855000", "112039.315000", "112039.775000", "112040.235000", "112040.695000", "112041.155000", "112041.615000", "112042.075000", "112042.535000", "112042.995000", "112043.455000", "112043.915000", "112044.375000", "112044.835000", "112045.295000", "112045.755000", "112046.215000", "112046.675000", "112047.135000", "112047.595000", "112048.055000", "112048.515000", "112048.975000", "112049.435000", "112049.895000", "112050.355000", "112050.815000", "112051.275000", "112051.735000", "112052.195000", "112052.655000", "112053.115000", "112053.575000", "112054.035000", "112054.495000", "112054.955000", "112055.415000", "112055.875000", "112056.335000", "112056.795000", "112057.255000", "112057.715000", "112058.175000", "112058.635000", "112059.095000", "112059.555000", "112100.015000", "112100.475000", "112100.935000", "112101.395000", "112101.855000", "112102.315000", "112102.775000", "112103.235000", "112103.695000", "112104.155000", "112104.615000", "112105.075000", "112105.535000", "112105.995000", "112106.455000", "112106.915000", "112107.375000", "112107.835000", "112108.295000", "112108.755000", "112109.215000", "112109.675000", "112110.135000", "112110.595000", "112111.055000", "112111.515000", "112111.975000", "112112.435000", "112112.895000", "112113.355000", "112113.815000", "112114.275000", "112114.735000", "112115.195000", "112115.655000", "112116.115000", "112116.575000", "112117.035000", "112117.495000", "112117.955000", "112118.415000", "112118.875000", "112119.335000", "112119.795000", "112120.255000", "112120.715000", "112121.175000", "112121.635000", "112122.095000", "112122.555000", "112123.015000", "112123.475000", "112123.935000", "112124.395000", "112124.855000", "112125.315000", "112125.775000", "112126.235000", "112126.695000", "112127.155000", "112127.615000", "112128.075000", "112128.535000", "112128.995000", "112129.455000", "112129.915000", "112130.375000", "112130.835000", "112131.295000", "112131.755000", "112132.215000", "112132.675000", "112133.135000", "112133.595000", "112134.055000", "112134.515000", "112134.975000", "112135.435000", "112135.895000", "112136.355000", "112136.815000", "112137.275000", "112137.735000", "112138.195000", "112138.655000", "112139.115000", "112139.575000", "112140.035000", "112140.495000", "112140.955000", "112141.415000", "112141.875000", "112142.335000", "112142.795000", "112143.255000", "112143.715000", "112144.175000", "112144.635000", "112145.095000", "112145.555000", "112146.015000", "112146.475000", "112146.935000", "112147.395000", "112147.855000", "112148.315000", "112148.775000", "112149.235000", "112149.695000", "112150.155000", "112150.615000", "112151.075000", "112151.535000", "112151.995000", "112152.455000", "112152.915000", "112153.375000", "112153.835000", "112154.295000", "112154.755000", "112155.215000", "112155.675000", "112156.135000", "112156.595000", "112157.055000", "112157.515000", "112157.975000", "112158.435000", "112158.895000", "112159.355000", "112159.815000", "112200.275000", "112200.735000", "112201.195000", "112201.655000", "112202.115000", "112202.575000", "112203.035000", "112203.495000", "112203.955000", "112204.415000", "112204.875000", "112205.335000", "112205.795000", "112206.255000", "112206.715000", "112207.175000", "112207.635000", "112208.095000", "112208.555000", "112209.015000", "112209.475000", "112209.935000", "112210.395000", "112210.855000", "112211.315000", "112211.775000", "112212.235000", "112212.695000", "112213.155000", "112213.615000", "112214.075000", "112214.535000", "112214.995000", "112215.455000", "112215.915000", "112216.375000", "112216.835000", "112217.295000", "112217.755000"],
