{
  "AcquisitionMatrixPE": 82,
  "AcquisitionNumber": 1,
  "AcquisitionTime": "10:57:39.530000",
  "BandwidthPerPixelPhaseEncode": 24.888,
  "BaseResolution": 82,
  "BodyPartExamined": "BRAIN",
  "ConsistencyInfo": "N4_VE11E_LATEST_20181129",
  "ConversionSoftware": "dcm2niix",
  "ConversionSoftwareVersion": "v1.0.20201102",
  "DerivedVendorReportedEchoSpacing": 0.00049,
  "DeviceSerialNumber": "66112",
  "DwellTime": 2e-06,
  "EchoTime": 0.0272,
  "EchoTrainLength": 82,
  "EffectiveEchoSpacing": 0.00049,
  "FlipAngle": 44,
  "ImageComments": "Unaliased MB8/PE3",
  "ImageOrientationPatientDICOM": [0.999685, -0.00163433, -0.0250532, 0.00680475, 0.978165, 0.207717],
  "ImageType": [
    "ORIGINAL",
    "PRIMARY",
    "M",
    "MB",
    "ND",
    "NORM",
    "MOSAIC"
],
  "ImagingFrequency": 123.252,
  "InPlanePhaseEncodingDirectionDICOM": "COL",
  "InstitutionAddress": "Maynard 3,Hanover,NH,US,03755",
  "InstitutionName": "Dartmouth College - PBS",
  "InstitutionalDepartmentName": "Department",
  "MRAcquisitionType": "2D",
  "MagneticFieldStrength": 3,
  "Manufacturer": "Siemens",
  "ManufacturersModelName": "Prisma",
  "Modality": "MR",
  "MultibandAccelerationFactor": 8,
  "PartialFourier": 1,
  "PatientPosition": "HFS",
  "PercentPhaseFOV": 100,
  "PercentSampling": 100,
  "PhaseEncodingDirection": "j-",
  "PhaseEncodingSteps": 82,
  "PhaseResolution": 1,
  "PixelBandwidth": 3050,
  "ProcedureStepDescription": "Wager_Wager^1076_spacetop",
  "ProtocolName": "func_run-04_task-social_acq-ap-mb8",
  "PulseSequenceDetails": "%CustomerSeq%\\cmrr_mbep2d_bold",
  "ReceiveCoilActiveElements": "HEA;HEP",
  "ReceiveCoilName": "Head_32",
  "ReconMatrixPE": 82,
  "RepetitionTime": 0.46,
  "SAR": 0.0967319,
  "ScanOptions": "FS",
  "ScanningSequence": "EP",
  "SequenceName": "epfid2d1_82",
  "SequenceVariant": "SK\\SS",
  "SeriesDescription": "func_run-04_task-social_acq-ap-mb8",
  "SeriesNumber": 18,
  "ShimSetting": [4124, -7785, -7292, 587, -41, -77, -23, 136],
  "SliceThickness": 2.7,
  "SliceTiming": [0, 0.25, 0.0625, 0.3125, 0.125, 0.3775, 0.1875, 0, 0.25, 0.0625, 0.3125, 0.125, 0.3775, 0.1875, 0, 0.25, 0.0625, 0.3125, 0.125, 0.3775, 0.1875, 0, 0.25, 0.0625, 0.3125, 0.125, 0.3775, 0.1875, 0, 0.25, 0.0625, 0.3125, 0.125, 0.3775, 0.1875, 0, 0.25, 0.0625, 0.3125, 0.125, 0.3775, 0.1875, 0, 0.25, 0.0625, 0.3125, 0.125, 0.3775, 0.1875, 0, 0.25, 0.0625, 0.3125, 0.125, 0.3775, 0.1875],
  "SoftwareVersions": "syngo MR E11",
  "SpacingBetweenSlices": 2.7,
  "StationName": "AWP66112",
  "TaskName": "social",
  "TotalReadoutTime": 0.03969,
  "TxRefAmp": 251.747,
  "WipMemBlock": "83546eee-5dbe-46d7-a82c-752eaef7c8bc||Sequence: R016 ve11e/master r/434b28f1; Aug  7 2019 18:53:46 by eja",
  "dcmmeta_affine": [
    [-2.6820812225341797, 0.01825665682554245, -0.06525011360645294, 115.36067962646484],
    [0.004384779371321201, 2.6243462562561035, 0.5611181259155273, -102.94536590576172],
    [-0.0672159343957901, -0.5572882890701294, 2.6402440071105957, -48.08995056152344],
    [0.0, 0.0, 0.0, 1.0]
],
  "dcmmeta_reorient_transform": [
    [0.0, -1.0, 0.0, 81.0],
    [1.0, 0.0, 0.0, 0.0],
    [0.0, 0.0, 1.0, 0.0],
    [0.0, 0.0, 0.0, 1.0]
],
  "dcmmeta_shape": [82, 82, 56, 872],
  "dcmmeta_slice_dim": 2,
  "dcmmeta_version": 0.6,
  "global": {
    "const": {
      "AccessionNumber": "A003889",
      "AcquisitionMatrix": [82, 0, 0, 82],
      "AngioFlag": "N",
      "BitsAllocated": 16,
      "BitsStored": 16,
      "BodyPartExamined": "BRAIN",
      "Columns": 656,
      "EchoNumbers": 1,
      "EchoTime": 27.2,
      "EchoTrainLength": 82,
      "FlipAngle": 44.0,
      "HighBit": 15,
      "ImageOrientationPatient": [0.99968478307762, -0.0016343268893, -0.0250532125419, 0.00680475344347, 0.97816539347462, 0.20771653362024],
      "ImagePositionPatient": [-891.83642694497, -861.5556198581, -233.8810631123],
      "ImageType": [
        "ORIGINAL",
        "PRIMARY",
        "M",
        "MB",
        "ND",
        "NORM",
        "MOSAIC"
],
      "ImagedNucleus": "1H",
      "ImagingFrequency": 123.252186,
      "InPlanePhaseEncodingDirection": "COL",
      "MRAcquisitionType": "2D",
      "MagneticFieldStrength": 3.0,
      "Manufacturer": "SIEMENS",
      "ManufacturerModelName": "Prisma",
      "Modality": "MR",
      "NumberOfAverages": 1.0,
      "NumberOfPhaseEncodingSteps": 82,
      "PercentPhaseFieldOfView": 100.0,
      "PercentSampling": 100.0,
      "PerformedProcedureStepStartTime": "100512.308000",
      "PhotometricInterpretation": "MONOCHROME2",
      "PixelBandwidth": 3050.0,
      "PixelRepresentation": 0,
      "PixelSpacing": [2.6829268932343, 2.6829268932343],
      "ProtocolName": "func_run-04_task-social_acq-ap-mb8",
      "RepetitionTime": 460.0,
      "Rows": 656,
      "SAR": 0.09673191429801,
      "SamplesPerPixel": 1,
      "ScanOptions": "FS",
      "ScanningSequence": "EP",
      "SequenceName": "epfid2d1_82",
      "SequenceVariant": [
        "SK",
        "SS"
],
      "SeriesDescription": "func_run-04_task-social_acq-ap-mb8",
      "SeriesNumber": 18,
      "SeriesTime": "105755.522000",
      "SliceLocation": -71.207786156983,
      "SliceThickness": 2.7000000476837,
      "SmallestImagePixelValue": 0,
      "SoftwareVersions": "syngo MR E11",
      "SpacingBetweenSlices": 2.6999999982897,
      "SpecificCharacterSet": "ISO_IR 100",
      "StudyID": "1",
      "StudyTime": "100512.141000",
      "TransmitCoilName": "Body",
      "VariableFlipAngleFlag": "N",
      "WindowCenterWidthExplanation": "Algo1"
    },
    "slices": {}
  },
  "time": {
    "samples": {
      "AcquisitionNumber": [1, 2, 3, 4, 5, 6, 7, 8, 9, 10, 11, 12, 13, 14, 15, 16, 17, 18, 19, 20, 21, 22, 23, 24, 25, 26, 27, 28, 29, 30, 31, 32, 33, 34, 35, 36, 37, 38, 39, 40, 41, 42, 43, 44, 45, 46, 47, 48, 49, 50, 51, 52, 53, 54, 55, 56, 57, 58, 59, 60, 61, 62, 63, 64, 65, 66, 67, 68, 69, 70, 71, 72, 73, 74, 75, 76, 77, 78, 79, 80, 81, 82, 83, 84, 85, 86, 87, 88, 89, 90, 91, 92, 93, 94, 95, 96, 97, 98, 99, 100, 101, 102, 103, 104, 105, 106, 107, 108, 109, 110, 111, 112, 113, 114, 115, 116, 117, 118, 119, 120, 121, 122, 123, 124, 125, 126, 127, 128, 129, 130, 131, 132, 133, 134, 135, 136, 137, 138, 139, 140, 141, 142, 143, 144, 145, 146, 147, 148, 149, 150, 151, 152, 153, 154, 155, 156, 157, 158, 159, 160, 161, 162, 163, 164, 165, 166, 167, 168, 169, 170, 171, 172, 173, 174, 175, 176, 177, 178, 179, 180, 181, 182, 183, 184, 185, 186, 187, 188, 189, 190, 191, 192, 193, 194, 195, 196, 197, 198, 199, 200, 201, 202, 203, 204, 205, 206, 207, 208, 209, 210, 211, 212, 213, 214, 215, 216, 217, 218, 219, 220, 221, 222, 223, 224, 225, 226, 227, 228, 229, 230, 231, 232, 233, 234, 235, 236, 237, 238, 239, 240, 241, 242, 243, 244, 245, 246, 247, 248, 249, 250, 251, 252, 253, 254, 255, 256, 257, 258, 259, 260, 261, 262, 263, 264, 265, 266, 267, 268, 269, 270, 271, 272, 273, 274, 275, 276, 277, 278, 279, 280, 281, 282, 283, 284, 285, 286, 287, 288, 289, 290, 291, 292, 293, 294, 295, 296, 297, 298, 299, 300, 301, 302, 303, 304, 305, 306, 307, 308, 309, 310, 311, 312, 313, 314, 315, 316, 317, 318, 319, 320, 321, 322, 323, 324, 325, 326, 327, 328, 329, 330, 331, 332, 333, 334, 335, 336, 337, 338, 339, 340, 341, 342, 343, 344, 345, 346, 347, 348, 349, 350, 351, 352, 353, 354, 355, 356, 357, 358, 359, 360, 361, 362, 363, 364, 365, 366, 367, 368, 369, 370, 371, 372, 373, 374, 375, 376, 377, 378, 379, 380, 381, 382, 383, 384, 385, 386, 387, 388, 389, 390, 391, 392, 393, 394, 395, 396, 397, 398, 399, 400, 401, 402, 403, 404, 405, 406, 407, 408, 409, 410, 411, 412, 413, 414, 415, 416, 417, 418, 419, 420, 421, 422, 423, 424, 425, 426, 427, 428, 429, 430, 431, 432, 433, 434, 435, 436, 437, 438, 439, 440, 441, 442, 443, 444, 445, 446, 447, 448, 449, 450, 451, 452, 453, 454, 455, 456, 457, 458, 459, 460, 461, 462, 463, 464, 465, 466, 467, 468, 469, 470, 471, 472, 473, 474, 475, 476, 477, 478, 479, 480, 481, 482, 483, 484, 485, 486, 487, 488, 489, 490, 491, 492, 493, 494, 495, 496, 497, 498, 499, 500, 501, 502, 503, 504, 505, 506, 507, 508, 509, 510, 511, 512, 513, 514, 515, 516, 517, 518, 519, 520, 521, 522, 523, 524, 525, 526, 527, 528, 529, 530, 531, 532, 533, 534, 535, 536, 537, 538, 539, 540, 541, 542, 543, 544, 545, 546, 547, 548, 549, 550, 551, 552, 553, 554, 555, 556, 557, 558, 559, 560, 561, 562, 563, 564, 565, 566, 567, 568, 569, 570, 571, 572, 573, 574, 575, 576, 577, 578, 579, 580, 581, 582, 583, 584, 585, 586, 587, 588, 589, 590, 591, 592, 593, 594, 595, 596, 597, 598, 599, 600, 601, 602, 603, 604, 605, 606, 607, 608, 609, 610, 611, 612, 613, 614, 615, 616, 617, 618, 619, 620, 621, 622, 623, 624, 625, 626, 627, 628, 629, 630, 631, 632, 633, 634, 635, 636, 637, 638, 639, 640, 641, 642, 643, 644, 645, 646, 647, 648, 649, 650, 651, 652, 653, 654, 655, 656, 657, 658, 659, 660, 661, 662, 663, 664, 665, 666, 667, 668, 669, 670, 671, 672, 673, 674, 675, 676, 677, 678, 679, 680, 681, 682, 683, 684, 685, 686, 687, 688, 689, 690, 691, 692, 693, 694, 695, 696, 697, 698, 699, 700, 701, 702, 703, 704, 705, 706, 707, 708, 709, 710, 711, 712, 713, 714, 715, 716, 717, 718, 719, 720, 721, 722, 723, 724, 725, 726, 727, 728, 729, 730, 731, 732, 733, 734, 735, 736, 737, 738, 739, 740, 741, 742, 743, 744, 745, 746, 747, 748, 749, 750, 751, 752, 753, 754, 755, 756, 757, 758, 759, 760, 761, 762, 763, 764, 765, 766, 767, 768, 769, 770, 771, 772, 773, 774, 775, 776, 777, 778, 779, 780, 781, 782, 783, 784, 785, 786, 787, 788, 789, 790, 791, 792, 793, 794, 795, 796, 797, 798, 799, 800, 801, 802, 803, 804, 805, 806, 807, 808, 809, 810, 811, 812, 813, 814, 815, 816, 817, 818, 819, 820, 821, 822, 823, 824, 825, 826, 827, 828, 829, 830, 831, 832, 833, 834, 835, 836, 837, 838, 839, 840, 841, 842, 843, 844, 845, 846, 847, 848, 849, 850, 851, 852, 853, 854, 855, 856, 857, 858, 859, 860, 861, 862, 863, 864, 865, 866, 867, 868, 869, 870, 871, 872],
      "AcquisitionTime": ["105739.530000", "105739.990000", "105740.450000", "105740.910000", "105741.370000", "105741.830000", "105742.290000", "105742.750000", "105743.210000", "105743.670000", "105744.130000", "105744.590000", "105745.050000", "105745.510000", "105745.970000", "105746.430000", "105746.890000", "105747.350000", "105747.810000", "105748.270000", "105748.730000", "105749.190000", "105749.650000", "105750.110000", "105750.570000", "105751.030000", "105751.490000", "105751.950000", "105752.410000", "105752.870000", "105753.330000", "105753.790000", "105754.250000", "105754.710000", "105755.170000", "105755.630000", "105756.090000", "105756.550000", "105757.010000", "105757.470000", "105757.930000", "105758.390000", "105758.850000", "105759.310000", "105759.770000", "105800.230000", "105800.690000", "105801.150000", "105801.610000", "105802.070000", "105802.530000", "105802.990000", "105803.450000", "105803.910000", "105804.370000", "105804.830000", "105805.290000", "105805.750000", "105806.210000", "105806.670000", "105807.130000", "105807.590000", "105808.050000", "105808.510000", "105808.970000", "105809.430000", "105809.890000", "105810.350000", "105810.810000", "105811.270000", "105811.730000", "105812.190000", "105812.650000", "105813.110000", "105813.570000", "105814.030000", "105814.490000", "105814.950000", "105815.410000", "105815.870000", "105816.330000", "105816.790000", "105817.250000", "105817.710000", "105818.170000", "105818.630000", "105819.090000", "105819.550000", "105820.010000", "105820.470000", "105820.930000", "105821.390000", "105821.850000", "105822.310000", "105822.770000", "105823.230000", "105823.690000", "105824.150000", "105824.610000", "105825.070000", "105825.530000", "105825.990000", "105826.450000", "105826.910000", "105827.370000", "105827.830000", "105828.290000", "105828.750000", "105829.210000", "105829.670000", "105830.130000", "105830.590000", "105831.050000", "105831.510000", "105831.970000", "105832.430000", "105832.890000", "105833.350000", "105833.810000", "105834.270000", "105834.730000", "105835.190000", "105835.650000", "105836.110000", "105836.570000", "105837.030000", "105837.490000", "105837.950000", "105838.410000", "105838.870000", "105839.330000", "105839.790000", "105840.250000", "105840.710000", "105841.170000", "105841.630000", "105842.090000", "105842.550000", "105843.010000", "105843.470000", "105843.930000", "105844.390000", "105844.850000", "105845.310000", "105845.770000", "105846.230000", "105846.690000", "105847.150000", "105847.610000", "105848.070000", "105848.530000", "105848.990000", "105849.450000", "105849.910000", "105850.370000", "105850.830000", "105851.290000", "105851.750000", "105852.210000", "105852.670000", "105853.130000", "105853.590000", "105854.050000", "105854.510000", "105854.970000", "105855.430000", "105855.890000", "105856.350000", "105856.810000", "105857.270000", "105857.730000", "105858.190000", "105858.650000", "105859.110000", "105859.570000", "105900.030000", "105900.490000", "105900.950000", "105901.410000", "105901.870000", "105902.330000", "105902.790000", "105903.250000", "105903.710000", "105904.170000", "105904.630000", "105905.090000", "105905.550000", "105906.010000", "105906.470000", "105906.930000", "105907.390000", "105907.850000", "105908.310000", "105908.770000", "105909.230000", "105909.690000", "105910.150000", "105910.610000", "105911.070000", "105911.530000", "105911.990000", "105912.450000", "105912.910000", "105913.370000", "105913.830000", "105914.290000", "105914.750000", "105915.210000", "105915.670000", "105916.130000", "105916.590000", "105917.050000", "105917.510000", "105917.970000", "105918.430000", "105918.890000", "105919.350000", "105919.810000", "105920.270000", "105920.730000", "105921.190000", "105921.650000", "105922.110000", "105922.570000", "105923.030000", "105923.490000", "105923.950000", "105924.410000", "105924.870000", "105925.330000", "105925.790000", "105926.250000", "105926.710000", "105927.170000", "105927.630000", "105928.090000", "105928.550000", "105929.010000", "105929.470000", "105929.930000", "105930.390000", "105930.850000", "105931.310000", "105931.770000", "105932.230000", "105932.690000", "105933.150000", "105933.610000", "105934.070000", "105934.530000", "105934.990000", "105935.450000", "105935.910000", "105936.370000", "105936.830000", "105937.290000", "105937.750000", "105938.210000", "105938.670000", "105939.130000", "105939.590000", "105940.050000", "105940.510000", "105940.970000", "105941.430000", "105941.890000", "105942.350000", "105942.810000", "105943.270000", "105943.730000", "105944.190000", "105944.650000", "105945.110000", "105945.570000", "105946.030000", "105946.490000", "105946.950000", "105947.410000", "105947.870000", "105948.330000", "105948.790000", "105949.250000", "105949.710000", "105950.170000", "105950.630000", "105951.090000", "105951.550000", "105952.010000", "105952.470000", "105952.930000", "105953.390000", "105953.850000", "105954.310000", "105954.770000", "105955.230000", "105955.690000", "105956.150000", "105956.610000", "105957.070000", "105957.530000", "105957.990000", "105958.450000", "105958.910000", "105959.370000", "105959.830000", "110000.290000", "110000.750000", "110001.210000", "110001.670000", "110002.130000", "110002.590000", "110003.050000", "110003.510000", "110003.970000", "110004.430000", "110004.890000", "110005.350000", "110005.810000", "110006.270000", "110006.730000", "110007.190000", "110007.650000", "110008.110000", "110008.570000", "110009.030000", "110009.490000", "110009.950000", "110010.410000", "110010.870000", "110011.330000", "110011.790000", "110012.250000", "110012.710000", "110013.170000", "110013.630000", "110014.090000", "110014.550000", "110015.010000", "110015.470000", "110015.930000", "110016.390000", "110016.850000", "110017.310000", "110017.770000", "110018.230000", "110018.690000", "110019.150000", "110019.610000", "110020.070000", "110020.530000", "110020.990000", "110021.450000", "110021.910000", "110022.370000", "110022.830000", "110023.290000", "110023.750000", "110024.210000", "110024.670000", "110025.130000", "110025.590000", "110026.050000", "110026.510000", "110026.970000", "110027.430000", "110027.890000", "110028.350000", "110028.810000", "110029.270000", "110029.730000", "110030.190000", "110030.650000", "110031.110000", "110031.570000", "110032.030000", "110032.490000", "110032.950000", "110033.410000", "110033.870000", "110034.330000", "110034.790000", "110035.250000", "110035.710000", "110036.170000", "110036.630000", "110037.090000", "110037.550000", "110038.010000", "110038.470000", "110038.930000", "110039.390000", "110039.850000", "110040.310000", "110040.770000", "110041.230000", "110041.690000", "110042.150000", "110042.610000", "110043.070000", "110043.530000", "110043.990000", "110044.450000", "110044.910000", "110045.370000", "110045.830000", "110046.290000", "110046.750000", "110047.210000", "110047.670000", "110048.130000", "110048.590000", "110049.050000", "110049.510000", "110049.970000", "110050.430000", "110050.890000", "110051.350000", "110051.810000", "110052.270000", "110052.730000", "110053.190000", "110053.650000", "110054.110000", "110054.570000", "110055.030000", "110055.490000", "110055.950000", "110056.410000", "110056.870000", "110057.330000", "110057.790000", "110058.250000", "110058.710000", "110059.170000", "110059.630000", "110100.090000", "110100.550000", "110101.010000", "110101.470000", "110101.930000", "110102.390000", "110102.850000", "110103.310000", "110103.770000", "110104.230000", "110104.690000", "110105.150000", "110105.610000", "110106.070000", "110106.530000", "110106.990000", "110107.450000", "110107.910000", "110108.370000", "110108.830000", "110109.290000", "110109.750000", "110110.210000", "110110.670000", "110111.130000", "110111.590000", "110112.050000", "110112.510000", "110112.970000", "110113.430000", "110113.890000", "110114.350000", "110114.810000", "110115.270000", "110115.730000", "110116.190000", "110116.650000", "110117.110000", "110117.570000", "110118.030000", "110118.490000", "110118.950000", "110119.410000", "110119.870000", "110120.330000", "110120.790000", "110121.250000", "110121.710000", "110122.170000", "110122.630000", "110123.090000", "110123.550000", "110124.010000", "110124.470000", "110124.930000", "110125.390000", "110125.850000", "110126.310000", "110126.770000", "110127.230000", "110127.690000", "110128.150000", "110128.610000", "110129.070000", "110129.530000", "110129.990000", "110130.450000", "110130.910000", "110131.370000", "110131.830000", "110132.290000", "110132.750000", "110133.210000", "110133.670000", "110134.130000", "110134.590000", "110135.050000", "110135.510000", "110135.970000", "110136.430000", "110136.890000", "110137.350000", "110137.810000", "110138.270000", "110138.730000", "110139.190000", "110139.650000", "110140.110000", "110140.570000", "110141.030000", "110141.490000", "110141.950000", "110142.410000", "110142.870000", "110143.330000", "110143.790000", "110144.250000", "110144.710000", "110145.170000", "110145.630000", "110146.090000", "110146.550000", "110147.010000", "110147.470000", "110147.930000", "110148.390000", "110148.850000", "110149.310000", "110149.770000", "110150.230000", "110150.690000", "110151.150000", "110151.610000", "110152.070000", "110152.530000", "110152.990000", "110153.450000", "110153.910000", "110154.370000", "110154.830000", "110155.290000", "110155.750000", "110156.210000", "110156.670000", "110157.130000", "110157.590000", "110158.050000", "110158.510000", "110158.970000", "110159.430000", "110159.890000", "110200.350000", "110200.810000", "110201.270000", "110201.730000", "110202.190000", "110202.650000", "110203.110000", "110203.570000", "110204.030000", "110204.490000", "110204.950000", "110205.410000", "110205.870000", "110206.330000", "110206.790000", "110207.250000", "110207.710000", "110208.170000", "110208.630000", "110209.090000", "110209.550000", "110210.010000", "110210.470000", "110210.930000", "110211.390000", "110211.850000", "110212.310000", "110212.770000", "110213.230000", "110213.690000", "110214.150000", "110214.610000", "110215.070000", "110215.530000", "110215.990000", "110216.450000", "110216.910000", "110217.370000", "110217.830000", "110218.290000", "110218.750000", "110219.210000", "110219.670000", "110220.130000", "110220.590000", "110221.050000", "110221.510000", "110221.970000", "110222.430000", "110222.890000", "110223.350000", "110223.810000", "110224.270000", "110224.730000", "110225.190000", "110225.650000", "110226.110000", "110226.570000", "110227.030000", "110227.490000", "110227.950000", "110228.410000", "110228.870000", "110229.330000", "110229.790000", "110230.250000", "110230.710000", "110231.170000", "110231.630000", "110232.090000", "110232.550000", "110233.010000", "110233.470000", "110233.930000", "110234.390000", "110234.850000", "110235.310000", "110235.770000", "110236.230000", "110236.690000", "110237.150000", "110237.610000", "110238.070000", "110238.530000", "110238.990000", "110239.450000", "110239.910000", "110240.370000", "110240.830000", "110241.290000", "110241.750000", "110242.210000", "110242.670000", "110243.130000", "110243.590000", "110244.050000", "110244.510000", "110244.970000", "110245.430000", "110245.890000", "110246.350000", "110246.810000", "110247.270000", "110247.730000", "110248.190000", "110248.650000", "110249.110000", "110249.570000", "110250.030000", "110250.490000", "110250.950000", "110251.410000", "110251.870000", "110252.330000", "110252.790000", "110253.250000", "110253.710000", "110254.170000", "110254.630000", "110255.090000", "110255.550000", "110256.010000", "110256.470000", "110256.930000", "110257.390000", "110257.850000", "110258.310000", "110258.770000", "110259.230000", "110259.690000", "110300.150000", "110300.610000", "110301.070000", "110301.530000", "110301.990000", "110302.450000", "110302.910000", "110303.370000", "110303.830000", "110304.290000", "110304.750000", "110305.210000", "110305.670000", "110306.130000", "110306.590000", "110307.050000", "110307.510000", "110307.970000", "110308.430000", "110308.890000", "110309.350000", "110309.810000", "110310.270000", "110310.730000", "110311.190000", "110311.650000", "110312.110000", "110312.570000", "110313.030000", "110313.490000", "110313.950000", "110314.410000", "110314.870000", "110315.330000", "110315.790000", "110316.250000", "110316.710000", "110317.170000", "110317.630000", "110318.090000", "110318.550000", "110319.010000", "110319.470000", "110319.930000", "110320.390000", "110320.850000", "110321.310000", "110321.770000", "110322.230000", "110322.690000", "110323.150000", "110323.610000", "110324.070000", "110324.530000", "110324.990000", "110325.450000", "110325.910000", "110326.370000", "110326.830000", "110327.290000", "110327.750000", "110328.210000", "110328.670000", "110329.130000", "110329.590000", "110330.050000", "110330.510000", "110330.970000", "110331.430000", "110331.890000", "110332.350000", "110332.810000", "110333.270000", "110333.730000", "110334.190000", "110334.650000", "110335.110000", "110335.570000", "110336.030000", "110336.490000", "110336.950000", "110337.410000", "110337.870000", "110338.330000", "110338.790000", "110339.250000", "110339.710000", "110340.170000", "110340.630000", "110341.090000", "110341.550000", "110342.010000", "110342.470000", "110342.930000", "110343.390000", "110343.850000", "110344.310000", "110344.770000", "110345.230000", "110345.690000", "110346.150000", "110346.610000", "110347.070000", "110347.530000", "110347.990000", "110348.450000", "110348.910000", "110349.370000", "110349.830000", "110350.290000", "110350.750000", "110351.210000", "110351.670000", "110352.130000", "110352.590000", "110353.050000", "110353.510000", "110353.970000", "110354.430000", "110354.890000", "110355.350000", "110355.810000", "110356.270000", "110356.730000", "110357.190000", "110357.650000", "110358.110000", "110358.570000", "110359.030000", "110359.490000", "110359.950000", "110400.410000", "110400.870000", "110401.330000", "110401.790000", "110402.250000", "110402.710000", "110403.170000", "110403.630000", "110404.090000", "110404.550000", "110405.010000", "110405.470000", "110405.930000", "110406.390000", "110406.850000", "110407.310000", "110407.770000", "110408.230000", "110408.690000", "110409.150000", "110409.610000", "110410.070000", "110410.530000", "110410.990000", "110411.450000", "110411.910000", "110412.370000", "110412.830000", "110413.290000", "110413.750000", "110414.210000", "110414.670000", "110415.130000", "110415.590000", "110416.050000", "110416.510000", "110416.970000", "110417.430000", "110417.890000", "110418.350000", "110418.810000", "110419.270000", "110419.730000", "110420.190000"],
