{
  "AcquisitionMatrixPE": 82,
  "AcquisitionNumber": 1,
  "AcquisitionTime": "11:42:16.420000",
  "BandwidthPerPixelPhaseEncode": 24.888,
  "BaseResolution": 82,
  "BodyPartExamined": "BRAIN",
  "ConsistencyInfo": "N4_VE11E_LATEST_20181129",
  "ConversionSoftware": "dcm2niix",
  "ConversionSoftwareVersion": "v1.0.20201102",
  "DerivedVendorReportedEchoSpacing": 0.00049,
  "DeviceSerialNumber": "66112",
  "DwellTime": 2e-06,
  "EchoTime": 0.0272,
  "EchoTrainLength": 82,
  "EffectiveEchoSpacing": 0.00049,
  "FlipAngle": 44,
  "ImageComments": "Unaliased MB8/PE3",
  "ImageOrientationPatientDICOM": [0.998641, -0.0142818, -0.0501271, 0.0264992, 0.967278, 0.252332],
  "ImageType": [
    "ORIGINAL",
    "PRIMARY",
    "M",
    "MB",
    "ND",
    "NORM",
    "MOSAIC"
],
  "ImagingFrequency": 123.252,
  "InPlanePhaseEncodingDirectionDICOM": "COL",
  "InstitutionAddress": "Maynard 3,Hanover,NH,US,03755",
  "InstitutionName": "Dartmouth College - PBS",
  "InstitutionalDepartmentName": "Department",
  "MRAcquisitionType": "2D",
  "MagneticFieldStrength": 3,
  "Manufacturer": "Siemens",
  "ManufacturersModelName": "Prisma",
  "Modality": "MR",
  "MultibandAccelerationFactor": 8,
  "PartialFourier": 1,
  "PatientPosition": "HFS",
  "PercentPhaseFOV": 100,
  "PercentSampling": 100,
  "PhaseEncodingDirection": "j-",
  "PhaseEncodingSteps": 82,
  "PhaseResolution": 1,
  "PixelBandwidth": 3050,
  "ProcedureStepDescription": "Wager_Wager^1076_spacetop",
  "ProtocolName": "func_run-03_task-alignvideo_acq-ap-mb8",
  "PulseSequenceDetails": "%CustomerSeq%\\cmrr_mbep2d_bold",
  "ReceiveCoilActiveElements": "HEA;HEP",
  "ReceiveCoilName": "Head_32",
  "ReconMatrixPE": 82,
  "RepetitionTime": 0.46,
  "SAR": 0.0968172,
  "ScanOptions": "FS",
  "ScanningSequence": "EP",
  "SequenceName": "epfid2d1_82",
  "SequenceVariant": "SK\\SS",
  "SeriesDescription": "func_run-03_task-alignvideo_acq-ap-mb8",
  "SeriesNumber": 34,
  "ShimSetting": [4124, -7785, -7293, 577, -45, -78, -20, 135],
  "SliceThickness": 2.7,
  "SliceTiming": [0, 0.2525, 0.0625, 0.315, 0.125, 0.3775, 0.19, 0, 0.2525, 0.0625, 0.315, 0.125, 0.3775, 0.19, 0, 0.2525, 0.0625, 0.315, 0.125, 0.3775, 0.19, 0, 0.2525, 0.0625, 0.315, 0.125, 0.3775, 0.19, 0, 0.2525, 0.0625, 0.315, 0.125, 0.3775, 0.19, 0, 0.2525, 0.0625, 0.315, 0.125, 0.3775, 0.19, 0, 0.2525, 0.0625, 0.315, 0.125, 0.3775, 0.19, 0, 0.2525, 0.0625, 0.315, 0.125, 0.3775, 0.19],
  "SoftwareVersions": "syngo MR E11",
  "SpacingBetweenSlices": 2.7,
  "StationName": "AWP66112",
  "TaskName": "alignvideo",
  "TotalReadoutTime": 0.03969,
  "TxRefAmp": 251.747,
  "WipMemBlock": "16cce16f-259f-4246-aa2f-dca2cc0a622d||Sequence: R016 ve11e/master r/434b28f1; Aug  7 2019 18:53:46 by eja",
  "dcmmeta_affine": [
    [-2.6792800426483154, 0.07109539955854416, -0.12118430435657501, 115.28022003173828],
    [0.03831706568598747, 2.595135450363159, 0.6839578747749329, -107.16219329833984],
    [-0.13448737561702728, -0.6769893765449524, 2.609121799468994, -40.172489166259766],
    [0.0, 0.0, 0.0, 1.0]
],
  "dcmmeta_reorient_transform": [
    [0.0, -1.0, 0.0, 81.0],
    [1.0, 0.0, 0.0, 0.0],
    [0.0, 0.0, 1.0, 0.0],
    [0.0, 0.0, 0.0, 1.0]
],
  "dcmmeta_shape": [82, 82, 56, 1016],
  "dcmmeta_slice_dim": 2,
  "dcmmeta_version": 0.6,
  "global": {
    "const": {
      "AccessionNumber": "A003889",
      "AcquisitionMatrix": [82, 0, 0, 82],
      "AngioFlag": "N",
      "BitsAllocated": 16,
      "BitsStored": 16,
      "BodyPartExamined": "BRAIN",
      "Columns": 656,
      "EchoNumbers": 1,
      "EchoTime": 27.2,
      "EchoTrainLength": 82,
      "FlipAngle": 44.0,
      "HighBit": 15,
      "ImageOrientationPatient": [0.99864072730337, -0.0142818147557, -0.0501271138036, 0.02649919497647, 0.96727770494141, 0.25233238830732],
      "ImagePositionPatient": [-910.39670887016, -836.8506206633, -250.70669042243],
      "ImageType": [
        "ORIGINAL",
        "PRIMARY",
        "M",
        "MB",
        "ND",
        "NORM",
        "MOSAIC"
],
      "ImagedNucleus": "1H",
      "ImagingFrequency": 123.2522,
      "InPlanePhaseEncodingDirection": "COL",
      "MRAcquisitionType": "2D",
      "MagneticFieldStrength": 3.0,
      "Manufacturer": "SIEMENS",
      "ManufacturerModelName": "Prisma",
      "Modality": "MR",
      "NumberOfAverages": 1.0,
      "NumberOfPhaseEncodingSteps": 82,
      "PercentPhaseFieldOfView": 100.0,
      "PercentSampling": 100.0,
      "PerformedProcedureStepStartTime": "100512.308000",
      "PhotometricInterpretation": "MONOCHROME2",
      "PixelBandwidth": 3050.0,
      "PixelRepresentation": 0,
      "PixelSpacing": [2.6829268932343, 2.6829268932343],
      "ProtocolName": "func_run-03_task-alignvideo_acq-ap-mb8",
      "RepetitionTime": 460.0,
      "Rows": 656,
      "SAR": 0.09681720295708,
      "SamplesPerPixel": 1,
      "ScanOptions": "FS",
      "ScanningSequence": "EP",
      "SequenceName": "epfid2d1_82",
      "SequenceVariant": [
        "SK",
        "SS"
],
      "SeriesDescription": "func_run-03_task-alignvideo_acq-ap-mb8",
      "SeriesNumber": 34,
      "SeriesTime": "114235.447000",
      "SliceLocation": -71.140552092085,
      "SliceThickness": 2.7000000476837,
      "SmallestImagePixelValue": 0,
      "SoftwareVersions": "syngo MR E11",
      "SpacingBetweenSlices": 2.700000002143,
      "SpecificCharacterSet": "ISO_IR 100",
      "StudyID": "1",
      "StudyTime": "100512.141000",
      "TransmitCoilName": "Body",
      "VariableFlipAngleFlag": "N",
      "WindowCenterWidthExplanation": "Algo1"
    },
    "slices": {}
  },
  "time": {
    "samples": {
      "AcquisitionNumber": [1, 2, 3, 4, 5, 6, 7, 8, 9, 10, 11, 12, 13, 14, 15, 16, 17, 18, 19, 20, 21, 22, 23, 24, 25, 26, 27, 28, 29, 30, 31, 32, 33, 34, 35, 36, 37, 38, 39, 40, 41, 42, 43, 44, 45, 46, 47, 48, 49, 50, 51, 52, 53, 54, 55, 56, 57, 58, 59, 60, 61, 62, 63, 64, 65, 66, 67, 68, 69, 70, 71, 72, 73, 74, 75, 76, 77, 78, 79, 80, 81, 82, 83, 84, 85, 86, 87, 88, 89, 90, 91, 92, 93, 94, 95, 96, 97, 98, 99, 100, 101, 102, 103, 104, 105, 106, 107, 108, 109, 110, 111, 112, 113, 114, 115, 116, 117, 118, 119, 120, 121, 122, 123, 124, 125, 126, 127, 128, 129, 130, 131, 132, 133, 134, 135, 136, 137, 138, 139, 140, 141, 142, 143, 144, 145, 146, 147, 148, 149, 150, 151, 152, 153, 154, 155, 156, 157, 158, 159, 160, 161, 162, 163, 164, 165, 166, 167, 168, 169, 170, 171, 172, 173, 174, 175, 176, 177, 178, 179, 180, 181, 182, 183, 184, 185, 186, 187, 188, 189, 190, 191, 192, 193, 194, 195, 196, 197, 198, 199, 200, 201, 202, 203, 204, 205, 206, 207, 208, 209, 210, 211, 212, 213, 214, 215, 216, 217, 218, 219, 220, 221, 222, 223, 224, 225, 226, 227, 228, 229, 230, 231, 232, 233, 234, 235, 236, 237, 238, 239, 240, 241, 242, 243, 244, 245, 246, 247, 248, 249, 250, 251, 252, 253, 254, 255, 256, 257, 258, 259, 260, 261, 262, 263, 264, 265, 266, 267, 268, 269, 270, 271, 272, 273, 274, 275, 276, 277, 278, 279, 280, 281, 282, 283, 284, 285, 286, 287, 288, 289, 290, 291, 292, 293, 294, 295, 296, 297, 298, 299, 300, 301, 302, 303, 304, 305, 306, 307, 308, 309, 310, 311, 312, 313, 314, 315, 316, 317, 318, 319, 320, 321, 322, 323, 324, 325, 326, 327, 328, 329, 330, 331, 332, 333, 334, 335, 336, 337, 338, 339, 340, 341, 342, 343, 344, 345, 346, 347, 348, 349, 350, 351, 352, 353, 354, 355, 356, 357, 358, 359, 360, 361, 362, 363, 364, 365, 366, 367, 368, 369, 370, 371, 372, 373, 374, 375, 376, 377, 378, 379, 380, 381, 382, 383, 384, 385, 386, 387, 388, 389, 390, 391, 392, 393, 394, 395, 396, 397, 398, 399, 400, 401, 402, 403, 404, 405, 406, 407, 408, 409, 410, 411, 412, 413, 414, 415, 416, 417, 418, 419, 420, 421, 422, 423, 424, 425, 426, 427, 428, 429, 430, 431, 432, 433, 434, 435, 436, 437, 438, 439, 440, 441, 442, 443, 444, 445, 446, 447, 448, 449, 450, 451, 452, 453, 454, 455, 456, 457, 458, 459, 460, 461, 462, 463, 464, 465, 466, 467, 468, 469, 470, 471, 472, 473, 474, 475, 476, 477, 478, 479, 480, 481, 482, 483, 484, 485, 486, 487, 488, 489, 490, 491, 492, 493, 494, 495, 496, 497, 498, 499, 500, 501, 502, 503, 504, 505, 506, 507, 508, 509, 510, 511, 512, 513, 514, 515, 516, 517, 518, 519, 520, 521, 522, 523, 524, 525, 526, 527, 528, 529, 530, 531, 532, 533, 534, 535, 536, 537, 538, 539, 540, 541, 542, 543, 544, 545, 546, 547, 548, 549, 550, 551, 552, 553, 554, 555, 556, 557, 558, 559, 560, 561, 562, 563, 564, 565, 566, 567, 568, 569, 570, 571, 572, 573, 574, 575, 576, 577, 578, 579, 580, 581, 582, 583, 584, 585, 586, 587, 588, 589, 590, 591, 592, 593, 594, 595, 596, 597, 598, 599, 600, 601, 602, 603, 604, 605, 606, 607, 608, 609, 610, 611, 612, 613, 614, 615, 616, 617, 618, 619, 620, 621, 622, 623, 624, 625, 626, 627, 628, 629, 630, 631, 632, 633, 634, 635, 636, 637, 638, 639, 640, 641, 642, 643, 644, 645, 646, 647, 648, 649, 650, 651, 652, 653, 654, 655, 656, 657, 658, 659, 660, 661, 662, 663, 664, 665, 666, 667, 668, 669, 670, 671, 672, 673, 674, 675, 676, 677, 678, 679, 680, 681, 682, 683, 684, 685, 686, 687, 688, 689, 690, 691, 692, 693, 694, 695, 696, 697, 698, 699, 700, 701, 702, 703, 704, 705, 706, 707, 708, 709, 710, 711, 712, 713, 714, 715, 716, 717, 718, 719, 720, 721, 722, 723, 724, 725, 726, 727, 728, 729, 730, 731, 732, 733, 734, 735, 736, 737, 738, 739, 740, 741, 742, 743, 744, 745, 746, 747, 748, 749, 750, 751, 752, 753, 754, 755, 756, 757, 758, 759, 760, 761, 762, 763, 764, 765, 766, 767, 768, 769, 770, 771, 772, 773, 774, 775, 776, 777, 778, 779, 780, 781, 782, 783, 784, 785, 786, 787, 788, 789, 790, 791, 792, 793, 794, 795, 796, 797, 798, 799, 800, 801, 802, 803, 804, 805, 806, 807, 808, 809, 810, 811, 812, 813, 814, 815, 816, 817, 818, 819, 820, 821, 822, 823, 824, 825, 826, 827, 828, 829, 830, 831, 832, 833, 834, 835, 836, 837, 838, 839, 840, 841, 842, 843, 844, 845, 846, 847, 848, 849, 850, 851, 852, 853, 854, 855, 856, 857, 858, 859, 860, 861, 862, 863, 864, 865, 866, 867, 868, 869, 870, 871, 872, 873, 874, 875, 876, 877, 878, 879, 880, 881, 882, 883, 884, 885, 886, 887, 888, 889, 890, 891, 892, 893, 894, 895, 896, 897, 898, 899, 900, 901, 902, 903, 904, 905, 906, 907, 908, 909, 910, 911, 912, 913, 914, 915, 916, 917, 918, 919, 920, 921, 922, 923, 924, 925, 926, 927, 928, 929, 930, 931, 932, 933, 934, 935, 936, 937, 938, 939, 940, 941, 942, 943, 944, 945, 946, 947, 948, 949, 950, 951, 952, 953, 954, 955, 956, 957, 958, 959, 960, 961, 962, 963, 964, 965, 966, 967, 968, 969, 970, 971, 972, 973, 974, 975, 976, 977, 978, 979, 980, 981, 982, 983, 984, 985, 986, 987, 988, 989, 990, 991, 992, 993, 994, 995, 996, 997, 998, 999, 1000, 1001, 1002, 1003, 1004, 1005, 1006, 1007, 1008, 1009, 1010, 1011, 1012, 1013, 1014, 1015, 1016],
      "AcquisitionTime": ["114216.420000", "114216.880000", "114217.340000", "114217.800000", "114218.260000", "114218.720000", "114219.180000", "114219.640000", "114220.100000", "114220.560000", "114221.020000", "114221.480000", "114221.940000", "114222.400000", "114222.860000", "114223.320000", "114223.780000", "114224.240000", "114224.700000", "114225.160000", "114225.620000", "114226.080000", "114226.540000", "114227.000000", "114227.460000", "114227.920000", "114228.380000", "114228.840000", "114229.300000", "114229.760000", "114230.220000", "114230.680000", "114231.140000", "114231.600000", "114232.060000", "114232.520000", "114232.980000", "114233.440000", "114233.900000", "114234.360000", "114234.820000", "114235.280000", "114235.740000", "114236.200000", "114236.660000", "114237.120000", "114237.580000", "114238.040000", "114238.500000", "114238.960000", "114239.420000", "114239.880000", "114240.340000", "114240.800000", "114241.260000", "114241.720000", "114242.180000", "114242.640000", "114243.100000", "114243.560000", "114244.020000", "114244.480000", "114244.940000", "114245.400000", "114245.860000", "114246.320000", "114246.780000", "114247.240000", "114247.700000", "114248.160000", "114248.620000", "114249.080000", "114249.540000", "114250.000000", "114250.460000", "114250.920000", "114251.380000", "114251.840000", "114252.300000", "114252.760000", "114253.220000", "114253.680000", "114254.140000", "114254.600000", "114255.060000", "114255.520000", "114255.980000", "114256.440000", "114256.900000", "114257.360000", "114257.820000", "114258.280000", "114258.740000", "114259.200000", "114259.660000", "114300.120000", "114300.580000", "114301.040000", "114301.500000", "114301.960000", "114302.420000", "114302.880000", "114303.340000", "114303.800000", "114304.260000", "114304.720000", "114305.180000", "114305.640000", "114306.100000", "114306.560000", "114307.020000", "114307.480000", "114307.940000", "114308.400000", "114308.860000", "114309.320000", "114309.780000", "114310.240000", "114310.700000", "114311.160000", "114311.620000", "114312.080000", "114312.540000", "114313.000000", "114313.460000", "114313.920000", "114314.380000", "114314.840000", "114315.300000", "114315.760000", "114316.220000", "114316.680000", "114317.140000", "114317.600000", "114318.060000", "114318.520000", "114318.980000", "114319.440000", "114319.900000", "114320.360000", "114320.820000", "114321.280000", "114321.740000", "114322.200000", "114322.660000", "114323.120000", "114323.580000", "114324.040000", "114324.500000", "114324.960000", "114325.420000", "114325.880000", "114326.340000", "114326.800000", "114327.260000", "114327.720000", "114328.180000", "114328.640000", "114329.100000", "114329.560000", "114330.020000", "114330.480000", "114330.940000", "114331.400000", "114331.860000", "114332.320000", "114332.780000", "114333.240000", "114333.700000", "114334.160000", "114334.620000", "114335.080000", "114335.540000", "114336.000000", "114336.460000", "114336.920000", "114337.380000", "114337.840000", "114338.300000", "114338.760000", "114339.220000", "114339.680000", "114340.140000", "114340.600000", "114341.060000", "114341.520000", "114341.980000", "114342.440000", "114342.900000", "114343.360000", "114343.820000", "114344.280000", "114344.740000", "114345.200000", "114345.660000", "114346.120000", "114346.580000", "114347.040000", "114347.500000", "114347.960000", "114348.420000", "114348.880000", "114349.340000", "114349.800000", "114350.260000", "114350.720000", "114351.180000", "114351.640000", "114352.100000", "114352.560000", "114353.020000", "114353.480000", "114353.940000", "114354.400000", "114354.860000", "114355.320000", "114355.780000", "114356.240000", "114356.700000", "114357.160000", "114357.620000", "114358.080000", "114358.540000", "114359.000000", "114359.460000", "114359.920000", "114400.380000", "114400.840000", "114401.300000", "114401.760000", "114402.220000", "114402.680000", "114403.140000", "114403.600000", "114404.060000", "114404.520000", "114404.980000", "114405.440000", "114405.900000", "114406.360000", "114406.820000", "114407.280000", "114407.740000", "114408.200000", "114408.660000", "114409.120000", "114409.580000", "114410.040000", "114410.500000", "114410.960000", "114411.420000", "114411.880000", "114412.340000", "114412.800000", "114413.260000", "114413.720000", "114414.180000", "114414.640000", "114415.100000", "114415.560000", "114416.020000", "114416.480000", "114416.940000", "114417.400000", "114417.860000", "114418.320000", "114418.780000", "114419.240000", "114419.700000", "114420.160000", "114420.620000", "114421.080000", "114421.540000", "114422.000000", "114422.460000", "114422.920000", "114423.380000", "114423.840000", "114424.300000", "114424.760000", "114425.220000", "114425.680000", "114426.140000", "114426.600000", "114427.060000", "114427.520000", "114427.980000", "114428.440000", "114428.900000", "114429.360000", "114429.820000", "114430.280000", "114430.740000", "114431.200000", "114431.660000", "114432.120000", "114432.580000", "114433.040000", "114433.500000", "114433.960000", "114434.420000", "114434.880000", "114435.340000", "114435.800000", "114436.260000", "114436.720000", "114437.180000", "114437.640000", "114438.100000", "114438.560000", "114439.020000", "114439.480000", "114439.940000", "114440.400000", "114440.860000", "114441.320000", "114441.780000", "114442.240000", "114442.700000", "114443.160000", "114443.620000", "114444.080000", "114444.540000", "114445.000000", "114445.460000", "114445.920000", "114446.380000", "114446.840000", "114447.300000", "114447.760000", "114448.220000", "114448.680000", "114449.140000", "114449.600000", "114450.060000", "114450.520000", "114450.980000", "114451.440000", "114451.900000", "114452.360000", "114452.820000", "114453.280000", "114453.740000", "114454.200000", "114454.660000", "114455.120000", "114455.580000", "114456.040000", "114456.500000", "114456.960000", "114457.420000", "114457.880000", "114458.340000", "114458.800000", "114459.260000", "114459.720000", "114500.180000", "114500.640000", "114501.100000", "114501.560000", "114502.020000", "114502.480000", "114502.940000", "114503.400000", "114503.860000", "114504.320000", "114504.780000", "114505.240000", "114505.700000", "114506.160000", "114506.620000", "114507.080000", "114507.540000", "114508.000000", "114508.460000", "114508.920000", "114509.380000", "114509.840000", "114510.300000", "114510.760000", "114511.220000", "114511.680000", "114512.140000", "114512.600000", "114513.060000", "114513.520000", "114513.980000", "114514.440000", "114514.900000", "114515.360000", "114515.820000", "114516.280000", "114516.740000", "114517.200000", "114517.660000", "114518.120000", "114518.580000", "114519.040000", "114519.500000", "114519.960000", "114520.420000", "114520.880000", "114521.340000", "114521.800000", "114522.260000", "114522.720000", "114523.180000", "114523.640000", "114524.100000", "114524.560000", "114525.020000", "114525.480000", "114525.940000", "114526.400000", "114526.860000", "114527.320000", "114527.780000", "114528.240000", "114528.700000", "114529.160000", "114529.620000", "114530.080000", "114530.540000", "114531.000000", "114531.460000", "114531.920000", "114532.380000", "114532.840000", "114533.300000", "114533.760000", "114534.220000", "114534.680000", "114535.140000", "114535.600000", "114536.060000", "114536.520000", "114536.980000", "114537.440000", "114537.900000", "114538.360000", "114538.820000", "114539.280000", "114539.740000", "114540.200000", "114540.660000", "114541.120000", "114541.580000", "114542.040000", "114542.500000", "114542.960000", "114543.420000", "114543.880000", "114544.340000", "114544.800000", "114545.260000", "114545.720000", "114546.180000", "114546.640000", "114547.100000", "114547.560000", "114548.020000", "114548.480000", "114548.940000", "114549.400000", "114549.860000", "114550.320000", "114550.780000", "114551.240000", "114551.700000", "114552.160000", "114552.620000", "114553.080000", "114553.540000", "114554.000000", "114554.460000", "114554.920000", "114555.380000", "114555.840000", "114556.300000", "114556.760000", "114557.220000", "114557.680000", "114558.140000", "114558.600000", "114559.060000", "114559.520000", "114559.980000", "114600.440000", "114600.900000", "114601.360000", "114601.820000", "114602.280000", "114602.740000", "114603.200000", "114603.660000", "114604.120000", "114604.580000", "114605.040000", "114605.500000", "114605.960000", "114606.420000", "114606.880000", "114607.340000", "114607.800000", "114608.260000", "114608.720000", "114609.180000", "114609.640000", "114610.100000", "114610.560000", "114611.020000", "114611.480000", "114611.940000", "114612.400000", "114612.860000", "114613.320000", "114613.780000", "114614.240000", "114614.700000", "114615.160000", "114615.620000", "114616.080000", "114616.540000", "114617.000000", "114617.460000", "114617.920000", "114618.380000", "114618.840000", "114619.300000", "114619.760000", "114620.220000", "114620.680000", "114621.140000", "114621.600000", "114622.060000", "114622.520000", "114622.980000", "114623.440000", "114623.900000", "114624.360000", "114624.820000", "114625.280000", "114625.740000", "114626.200000", "114626.660000", "114627.120000", "114627.580000", "114628.040000", "114628.500000", "114628.960000", "114629.420000", "114629.880000", "114630.340000", "114630.800000", "114631.260000", "114631.720000", "114632.180000", "114632.640000", "114633.100000", "114633.560000", "114634.020000", "114634.480000", "114634.940000", "114635.400000", "114635.860000", "114636.320000", "114636.780000", "114637.240000", "114637.700000", "114638.160000", "114638.620000", "114639.080000", "114639.540000", "114640.000000", "114640.460000", "114640.920000", "114641.380000", "114641.840000", "114642.300000", "114642.760000", "114643.220000", "114643.680000", "114644.140000", "114644.600000", "114645.060000", "114645.520000", "114645.980000", "114646.440000", "114646.900000", "114647.360000", "114647.820000", "114648.280000", "114648.740000", "114649.200000", "114649.660000", "114650.120000", "114650.580000", "114651.040000", "114651.500000", "114651.960000", "114652.420000", "114652.880000", "114653.340000", "114653.800000", "114654.260000", "114654.720000", "114655.180000", "114655.640000", "114656.100000", "114656.560000", "114657.020000", "114657.480000", "114657.940000", "114658.400000", "114658.860000", "114659.320000", "114659.780000", "114700.240000", "114700.700000", "114701.160000", "114701.620000", "114702.080000", "114702.540000", "114703.000000", "114703.460000", "114703.920000", "114704.380000", "114704.840000", "114705.300000", "114705.760000", "114706.220000", "114706.680000", "114707.140000", "114707.600000", "114708.060000", "114708.520000", "114708.980000", "114709.440000", "114709.900000", "114710.360000", "114710.820000", "114711.280000", "114711.740000", "114712.200000", "114712.660000", "114713.120000", "114713.580000", "114714.040000", "114714.500000", "114714.960000", "114715.420000", "114715.880000", "114716.340000", "114716.800000", "114717.260000", "114717.720000", "114718.180000", "114718.640000", "114719.100000", "114719.560000", "114720.020000", "114720.480000", "114720.940000", "114721.400000", "114721.860000", "114722.320000", "114722.780000", "114723.240000", "114723.700000", "114724.160000", "114724.620000", "114725.080000", "114725.540000", "114726.000000", "114726.460000", "114726.920000", "114727.380000", "114727.840000", "114728.300000", "114728.760000", "114729.220000", "114729.680000", "114730.140000", "114730.600000", "114731.060000", "114731.520000", "114731.980000", "114732.440000", "114732.900000", "114733.360000", "114733.820000", "114734.280000", "114734.740000", "114735.200000", "114735.660000", "114736.120000", "114736.580000", "114737.040000", "114737.500000", "114737.960000", "114738.420000", "114738.880000", "114739.340000", "114739.800000", "114740.260000", "114740.720000", "114741.180000", "114741.640000", "114742.100000", "114742.560000", "114743.020000", "114743.480000", "114743.940000", "114744.400000", "114744.860000", "114745.320000", "114745.780000", "114746.240000", "114746.700000", "114747.160000", "114747.620000", "114748.080000", "114748.540000", "114749.000000", "114749.460000", "114749.920000", "114750.380000", "114750.840000", "114751.300000", "114751.760000", "114752.220000", "114752.680000", "114753.140000", "114753.600000", "114754.060000", "114754.520000", "114754.980000", "114755.440000", "114755.900000", "114756.360000", "114756.820000", "114757.280000", "114757.740000", "114758.200000", "114758.660000", "114759.120000", "114759.580000", "114800.040000", "114800.500000", "114800.960000", "114801.420000", "114801.880000", "114802.340000", "114802.800000", "114803.260000", "114803.720000", "114804.180000", "114804.640000", "114805.100000", "114805.560000", "114806.020000", "114806.480000", "114806.940000", "114807.400000", "114807.860000", "114808.320000", "114808.780000", "114809.240000", "114809.700000", "114810.160000", "114810.620000", "114811.080000", "114811.540000", "114812.000000", "114812.460000", "114812.920000", "114813.380000", "114813.840000", "114814.300000", "114814.760000", "114815.220000", "114815.680000", "114816.140000", "114816.600000", "114817.060000", "114817.520000", "114817.980000", "114818.440000", "114818.900000", "114819.360000", "114819.820000", "114820.280000", "114820.740000", "114821.200000", "114821.660000", "114822.120000", "114822.580000", "114823.040000", "114823.500000", "114823.960000", "114824.420000", "114824.880000", "114825.340000", "114825.800000", "114826.260000", "114826.720000", "114827.180000", "114827.640000", "114828.100000", "114828.560000", "114829.020000", "114829.480000", "114829.940000", "114830.400000", "114830.860000", "114831.320000", "114831.780000", "114832.240000", "114832.700000", "114833.160000", "114833.620000", "114834.080000", "114834.540000", "114835.000000", "114835.460000", "114835.920000", "114836.380000", "114836.840000", "114837.300000", "114837.760000", "114838.220000", "114838.680000", "114839.140000", "114839.600000", "114840.060000", "114840.520000", "114840.980000", "114841.440000", "114841.900000", "114842.360000", "114842.820000", "114843.280000", "114843.740000", "114844.200000", "114844.660000", "114845.120000", "114845.580000", "114846.040000", "114846.500000", "114846.960000", "114847.420000", "114847.880000", "114848.340000", "114848.800000", "114849.260000", "114849.720000", "114850.180000", "114850.640000", "114851.100000", "114851.560000", "114852.020000", "114852.480000", "114852.940000", "114853.400000", "114853.860000", "114854.320000", "114854.780000", "114855.240000", "114855.700000", "114856.160000", "114856.620000", "114857.080000", "114857.540000", "114858.000000", "114858.460000", "114858.920000", "114859.380000", "114859.840000", "114900.300000", "114900.760000", "114901.220000", "114901.680000", "114902.140000", "114902.600000", "114903.060000", "114903.520000", "114903.980000", "114904.440000", "114904.900000", "114905.360000", "114905.820000", "114906.280000", "114906.740000", "114907.200000", "114907.660000", "114908.120000", "114908.580000", "114909.040000", "114909.500000", "114909.960000", "114910.420000", "114910.880000", "114911.340000", "114911.800000", "114912.260000", "114912.720000", "114913.180000", "114913.640000", "114914.100000", "114914.560000", "114915.020000", "114915.480000", "114915.940000", "114916.400000", "114916.860000", "114917.320000", "114917.780000", "114918.240000", "114918.700000", "114919.160000", "114919.620000", "114920.080000", "114920.540000", "114921.000000", "114921.460000", "114921.920000", "114922.380000", "114922.840000", "114923.300000", "114923.760000", "114924.220000", "114924.680000", "114925.140000", "114925.600000", "114926.060000", "114926.520000", "114926.980000", "114927.440000", "114927.900000", "114928.360000", "114928.820000", "114929.280000", "114929.740000", "114930.200000", "114930.660000", "114931.120000", "114931.580000", "114932.040000", "114932.500000", "114932.960000", "114933.420000", "114933.880000", "114934.340000", "114934.800000", "114935.260000", "114935.720000", "114936.180000", "114936.640000", "114937.100000", "114937.560000", "114938.020000", "114938.480000", "114938.940000", "114939.400000", "114939.860000", "114940.320000", "114940.780000", "114941.240000", "114941.700000", "114942.160000", "114942.620000", "114943.080000", "114943.540000", "114944.000000", "114944.460000", "114944.920000", "114945.380000", "114945.840000", "114946.300000", "114946.760000", "114947.220000", "114947.680000", "114948.140000", "114948.600000", "114949.060000", "114949.520000", "114949.980000", "114950.440000", "114950.900000", "114951.360000", "114951.820000", "114952.280000", "114952.740000", "114953.200000", "114953.660000", "114954.120000", "114954.580000", "114955.040000", "114955.500000", "114955.960000", "114956.420000", "114956.880000", "114957.340000", "114957.800000", "114958.260000", "114958.720000", "114959.180000", "114959.640000", "115000.100000", "115000.560000", "115001.020000", "115001.480000", "115001.940000", "115002.400000", "115002.860000", "115003.320000"],
