{
  "AcquisitionMatrixPE": 82,
  "AcquisitionNumber": 1,
  "AcquisitionTime": "11:22:48.987500",
  "BandwidthPerPixelPhaseEncode": 24.888,
  "BaseResolution": 82,
  "BodyPartExamined": "BRAIN",
  "ConsistencyInfo": "N4_VE11E_LATEST_20181129",
  "ConversionSoftware": "dcm2niix",
  "ConversionSoftwareVersion": "v1.0.20201102",
  "DerivedVendorReportedEchoSpacing": 0.00049,
  "DeviceSerialNumber": "66112",
  "DwellTime": 2e-06,
  "EchoTime": 0.0272,
  "EchoTrainLength": 82,
  "EffectiveEchoSpacing": 0.00049,
  "FlipAngle": 44,
  "ImageComments": "Unaliased MB8/PE3",
  "ImageOrientationPatientDICOM": [0.998641, -0.0142818, -0.0501271, 0.0264992, 0.967278, 0.252332],
  "ImageType": [
    "ORIGINAL",
    "PRIMARY",
    "M",
    "MB",
    "ND",
    "NORM",
    "MOSAIC"
],
  "ImagingFrequency": 123.252,
  "InPlanePhaseEncodingDirectionDICOM": "COL",
  "InstitutionAddress": "Maynard 3,Hanover,NH,US,03755",
  "InstitutionName": "Dartmouth College - PBS",
  "InstitutionalDepartmentName": "Department",
  "MRAcquisitionType": "2D",
  "MagneticFieldStrength": 3,
  "Manufacturer": "Siemens",
  "ManufacturersModelName": "Prisma",
  "Modality": "MR",
  "MultibandAccelerationFactor": 8,
  "PartialFourier": 1,
  "PatientPosition": "HFS",
  "PercentPhaseFOV": 100,
  "PercentSampling": 100,
  "PhaseEncodingDirection": "j-",
  "PhaseEncodingSteps": 82,
  "PhaseResolution": 1,
  "PixelBandwidth": 3050,
  "ProcedureStepDescription": "Wager_Wager^1076_spacetop",
  "ProtocolName": "func_run-01_task-alignvideo_acq-ap-mb8",
  "PulseSequenceDetails": "%CustomerSeq%\\cmrr_mbep2d_bold",
  "ReceiveCoilActiveElements": "HEA;HEP",
  "ReceiveCoilName": "Head_32",
  "ReconMatrixPE": 82,
  "RepetitionTime": 0.46,
  "SAR": 0.0968447,
  "ScanOptions": "FS",
  "ScanningSequence": "EP",
  "SequenceName": "epfid2d1_82",
  "SequenceVariant": "SK\\SS",
  "SeriesDescription": "func_run-01_task-alignvideo_acq-ap-mb8",
  "SeriesNumber": 30,
  "ShimSetting": [4124, -7785, -7293, 577, -45, -78, -20, 135],
  "SliceThickness": 2.7,
  "SliceTiming": [0, 0.2525, 0.0625, 0.315, 0.125, 0.3775, 0.1875, 0, 0.2525, 0.0625, 0.315, 0.125, 0.3775, 0.1875, 0, 0.2525, 0.0625, 0.315, 0.125, 0.3775, 0.1875, 0, 0.2525, 0.0625, 0.315, 0.125, 0.3775, 0.1875, 0, 0.2525, 0.0625, 0.315, 0.125, 0.3775, 0.1875, 0, 0.2525, 0.0625, 0.315, 0.125, 0.3775, 0.1875, 0, 0.2525, 0.0625, 0.315, 0.125, 0.3775, 0.1875, 0, 0.2525, 0.0625, 0.315, 0.125, 0.3775, 0.1875],
  "SoftwareVersions": "syngo MR E11",
  "SpacingBetweenSlices": 2.7,
  "StationName": "AWP66112",
  "TaskName": "alignvideo",
  "TotalReadoutTime": 0.03969,
  "TxRefAmp": 251.747,
  "WipMemBlock": "7960b3af-f3bb-428b-bc0f-6f6882f253d8||Sequence: R016 ve11e/master r/434b28f1; Aug  7 2019 18:53:46 by eja",
  "dcmmeta_affine": [
    [-2.6792800426483154, 0.07109539955854416, -0.12118430435657501, 115.28022003173828],
    [0.03831706568598747, 2.595135450363159, 0.6839578747749329, -107.16219329833984],
    [-0.13448737561702728, -0.6769893765449524, 2.609121799468994, -40.172489166259766],
    [0.0, 0.0, 0.0, 1.0]
],
  "dcmmeta_reorient_transform": [
    [0.0, -1.0, 0.0, 81.0],
    [1.0, 0.0, 0.0, 0.0],
    [0.0, 0.0, 1.0, 0.0],
    [0.0, 0.0, 0.0, 1.0]
],
  "dcmmeta_shape": [82, 82, 56, 1073],
  "dcmmeta_slice_dim": 2,
  "dcmmeta_version": 0.6,
  "global": {
    "const": {
      "AccessionNumber": "A003889",
      "AcquisitionMatrix": [82, 0, 0, 82],
      "AngioFlag": "N",
      "BitsAllocated": 16,
      "BitsStored": 16,
      "BodyPartExamined": "BRAIN",
      "Columns": 656,
      "EchoNumbers": 1,
      "EchoTime": 27.2,
      "EchoTrainLength": 82,
      "FlipAngle": 44.0,
      "HighBit": 15,
      "ImageOrientationPatient": [0.99864072730337, -0.0142818147557, -0.0501271138036, 0.02649919497647, 0.96727770494141, 0.25233238830732],
      "ImagePositionPatient": [-910.39670887016, -836.8506206633, -250.70669042243],
      "ImageType": [
        "ORIGINAL",
        "PRIMARY",
        "M",
        "MB",
        "ND",
        "NORM",
        "MOSAIC"
],
      "ImagedNucleus": "1H",
      "ImagingFrequency": 123.252197,
      "InPlanePhaseEncodingDirection": "COL",
      "MRAcquisitionType": "2D",
      "MagneticFieldStrength": 3.0,
      "Manufacturer": "SIEMENS",
      "ManufacturerModelName": "Prisma",
      "Modality": "MR",
      "NumberOfAverages": 1.0,
      "NumberOfPhaseEncodingSteps": 82,
      "PercentPhaseFieldOfView": 100.0,
      "PercentSampling": 100.0,
      "PerformedProcedureStepStartTime": "100512.308000",
      "PhotometricInterpretation": "MONOCHROME2",
      "PixelBandwidth": 3050.0,
      "PixelRepresentation": 0,
      "PixelSpacing": [2.6829268932343, 2.6829268932343],
      "ProtocolName": "func_run-01_task-alignvideo_acq-ap-mb8",
      "RepetitionTime": 460.0,
      "Rows": 656,
      "SAR": 0.09684472211277,
      "SamplesPerPixel": 1,
      "ScanOptions": "FS",
      "ScanningSequence": "EP",
      "SequenceName": "epfid2d1_82",
      "SequenceVariant": [
        "SK",
        "SS"
],
      "SeriesDescription": "func_run-01_task-alignvideo_acq-ap-mb8",
      "SeriesNumber": 30,
      "SeriesTime": "112315.536000",
      "SliceLocation": -71.140552092085,
      "SliceThickness": 2.7000000476837,
      "SmallestImagePixelValue": 0,
      "SoftwareVersions": "syngo MR E11",
      "SpacingBetweenSlices": 2.700000002143,
      "SpecificCharacterSet": "ISO_IR 100",
      "StudyID": "1",
      "StudyTime": "100512.141000",
      "TransmitCoilName": "Body",
      "VariableFlipAngleFlag": "N",
      "WindowCenterWidthExplanation": "Algo1"
    },
    "slices": {}
  },
  "time": {
    "samples": {
      "AcquisitionNumber": [1, 2, 3, 4, 5, 6, 7, 8, 9, 10, 11, 12, 13, 14, 15, 16, 17, 18, 19, 20, 21, 22, 23, 24, 25, 26, 27, 28, 29, 30, 31, 32, 33, 34, 35, 36, 37, 38, 39, 40, 41, 42, 43, 44, 45, 46, 47, 48, 49, 50, 51, 52, 53, 54, 55, 56, 57, 58, 59, 60, 61, 62, 63, 64, 65, 66, 67, 68, 69, 70, 71, 72, 73, 74, 75, 76, 77, 78, 79, 80, 81, 82, 83, 84, 85, 86, 87, 88, 89, 90, 91, 92, 93, 94, 95, 96, 97, 98, 99, 100, 101, 102, 103, 104, 105, 106, 107, 108, 109, 110, 111, 112, 113, 114, 115, 116, 117, 118, 119, 120, 121, 122, 123, 124, 125, 126, 127, 128, 129, 130, 131, 132, 133, 134, 135, 136, 137, 138, 139, 140, 141, 142, 143, 144, 145, 146, 147, 148, 149, 150, 151, 152, 153, 154, 155, 156, 157, 158, 159, 160, 161, 162, 163, 164, 165, 166, 167, 168, 169, 170, 171, 172, 173, 174, 175, 176, 177, 178, 179, 180, 181, 182, 183, 184, 185, 186, 187, 188, 189, 190, 191, 192, 193, 194, 195, 196, 197, 198, 199, 200, 201, 202, 203, 204, 205, 206, 207, 208, 209, 210, 211, 212, 213, 214, 215, 216, 217, 218, 219, 220, 221, 222, 223, 224, 225, 226, 227, 228, 229, 230, 231, 232, 233, 234, 235, 236, 237, 238, 239, 240, 241, 242, 243, 244, 245, 246, 247, 248, 249, 250, 251, 252, 253, 254, 255, 256, 257, 258, 259, 260, 261, 262, 263, 264, 265, 266, 267, 268, 269, 270, 271, 272, 273, 274, 275, 276, 277, 278, 279, 280, 281, 282, 283, 284, 285, 286, 287, 288, 289, 290, 291, 292, 293, 294, 295, 296, 297, 298, 299, 300, 301, 302, 303, 304, 305, 306, 307, 308, 309, 310, 311, 312, 313, 314, 315, 316, 317, 318, 319, 320, 321, 322, 323, 324, 325, 326, 327, 328, 329, 330, 331, 332, 333, 334, 335, 336, 337, 338, 339, 340, 341, 342, 343, 344, 345, 346, 347, 348, 349, 350, 351, 352, 353, 354, 355, 356, 357, 358, 359, 360, 361, 362, 363, 364, 365, 366, 367, 368, 369, 370, 371, 372, 373, 374, 375, 376, 377, 378, 379, 380, 381, 382, 383, 384, 385, 386, 387, 388, 389, 390, 391, 392, 393, 394, 395, 396, 397, 398, 399, 400, 401, 402, 403, 404, 405, 406, 407, 408, 409, 410, 411, 412, 413, 414, 415, 416, 417, 418, 419, 420, 421, 422, 423, 424, 425, 426, 427, 428, 429, 430, 431, 432, 433, 434, 435, 436, 437, 438, 439, 440, 441, 442, 443, 444, 445, 446, 447, 448, 449, 450, 451, 452, 453, 454, 455, 456, 457, 458, 459, 460, 461, 462, 463, 464, 465, 466, 467, 468, 469, 470, 471, 472, 473, 474, 475, 476, 477, 478, 479, 480, 481, 482, 483, 484, 485, 486, 487, 488, 489, 490, 491, 492, 493, 494, 495, 496, 497, 498, 499, 500, 501, 502, 503, 504, 505, 506, 507, 508, 509, 510, 511, 512, 513, 514, 515, 516, 517, 518, 519, 520, 521, 522, 523, 524, 525, 526, 527, 528, 529, 530, 531, 532, 533, 534, 535, 536, 537, 538, 539, 540, 541, 542, 543, 544, 545, 546, 547, 548, 549, 550, 551, 552, 553, 554, 555, 556, 557, 558, 559, 560, 561, 562, 563, 564, 565, 566, 567, 568, 569, 570, 571, 572, 573, 574, 575, 576, 577, 578, 579, 580, 581, 582, 583, 584, 585, 586, 587, 588, 589, 590, 591, 592, 593, 594, 595, 596, 597, 598, 599, 600, 601, 602, 603, 604, 605, 606, 607, 608, 609, 610, 611, 612, 613, 614, 615, 616, 617, 618, 619, 620, 621, 622, 623, 624, 625, 626, 627, 628, 629, 630, 631, 632, 633, 634, 635, 636, 637, 638, 639, 640, 641, 642, 643, 644, 645, 646, 647, 648, 649, 650, 651, 652, 653, 654, 655, 656, 657, 658, 659, 660, 661, 662, 663, 664, 665, 666, 667, 668, 669, 670, 671, 672, 673, 674, 675, 676, 677, 678, 679, 680, 681, 682, 683, 684, 685, 686, 687, 688, 689, 690, 691, 692, 693, 694, 695, 696, 697, 698, 699, 700, 701, 702, 703, 704, 705, 706, 707, 708, 709, 710, 711, 712, 713, 714, 715, 716, 717, 718, 719, 720, 721, 722, 723, 724, 725, 726, 727, 728, 729, 730, 731, 732, 733, 734, 735, 736, 737, 738, 739, 740, 741, 742, 743, 744, 745, 746, 747, 748, 749, 750, 751, 752, 753, 754, 755, 756, 757, 758, 759, 760, 761, 762, 763, 764, 765, 766, 767, 768, 769, 770, 771, 772, 773, 774, 775, 776, 777, 778, 779, 780, 781, 782, 783, 784, 785, 786, 787, 788, 789, 790, 791, 792, 793, 794, 795, 796, 797, 798, 799, 800, 801, 802, 803, 804, 805, 806, 807, 808, 809, 810, 811, 812, 813, 814, 815, 816, 817, 818, 819, 820, 821, 822, 823, 824, 825, 826, 827, 828, 829, 830, 831, 832, 833, 834, 835, 836, 837, 838, 839, 840, 841, 842, 843, 844, 845, 846, 847, 848, 849, 850, 851, 852, 853, 854, 855, 856, 857, 858, 859, 860, 861, 862, 863, 864, 865, 866, 867, 868, 869, 870, 871, 872, 873, 874, 875, 876, 877, 878, 879, 880, 881, 882, 883, 884, 885, 886, 887, 888, 889, 890, 891, 892, 893, 894, 895, 896, 897, 898, 899, 900, 901, 902, 903, 904, 905, 906, 907, 908, 909, 910, 911, 912, 913, 914, 915, 916, 917, 918, 919, 920, 921, 922, 923, 924, 925, 926, 927, 928, 929, 930, 931, 932, 933, 934, 935, 936, 937, 938, 939, 940, 941, 942, 943, 944, 945, 946, 947, 948, 949, 950, 951, 952, 953, 954, 955, 956, 957, 958, 959, 960, 961, 962, 963, 964, 965, 966, 967, 968, 969, 970, 971, 972, 973, 974, 975, 976, 977, 978, 979, 980, 981, 982, 983, 984, 985, 986, 987, 988, 989, 990, 991, 992, 993, 994, 995, 996, 997, 998, 999, 1000, 1001, 1002, 1003, 1004, 1005, 1006, 1007, 1008, 1009, 1010, 1011, 1012, 1013, 1014, 1015, 1016, 1017, 1018, 1019, 1020, 1021, 1022, 1023, 1024, 1025, 1026, 1027, 1028, 1029, 1030, 1031, 1032, 1033, 1034, 1035, 1036, 1037, 1038, 1039, 1040, 1041, 1042, 1043, 1044, 1045, 1046, 1047, 1048, 1049, 1050, 1051, 1052, 1053, 1054, 1055, 1056, 1057, 1058, 1059, 1060, 1061, 1062, 1063, 1064, 1065, 1066, 1067, 1068, 1069, 1070, 1071, 1072, 1073],
      "AcquisitionTime": ["112248.987500", "112249.447500", "112249.907500", "112250.367500", "112250.827500", "112251.287500", "112251.747500", "112252.207500", "112252.667500", "112253.127500", "112253.587500", "112254.047500", "112254.507500", "112254.967500", "112255.427500", "112255.887500", "112256.347500", "112256.807500", "112257.267500", "112257.727500", "112258.187500", "112258.647500", "112259.107500", "112259.567500", "112300.027500", "112300.487500", "112300.947500", "112301.407500", "112301.867500", "112302.327500", "112302.787500", "112303.247500", "112303.707500", "112304.167500", "112304.627500", "112305.087500", "112305.547500", "112306.007500", "112306.467500", "112306.927500", "112307.387500", "112307.847500", "112308.307500", "112308.767500", "112309.227500", "112309.687500", "112310.147500", "112310.607500", "112311.067500", "112311.527500", "112311.987500", "112312.447500", "112312.907500", "112313.367500", "112313.827500", "112314.287500", "112314.747500", "112315.207500", "112315.667500", "112316.127500", "112316.587500", "112317.047500", "112317.507500", "112317.967500", "112318.427500", "112318.887500", "112319.347500", "112319.807500", "112320.267500", "112320.727500", "112321.187500", "112321.647500", "112322.107500", "112322.567500", "112323.027500", "112323.487500", "112323.947500", "112324.407500", "112324.867500", "112325.327500", "112325.787500", "112326.247500", "112326.707500", "112327.167500", "112327.627500", "112328.087500", "112328.547500", "112329.007500", "112329.467500", "112329.927500", "112330.387500", "112330.847500", "112331.307500", "112331.767500", "112332.227500", "112332.687500", "112333.147500", "112333.607500", "112334.067500", "112334.527500", "112334.987500", "112335.447500", "112335.907500", "112336.367500", "112336.827500", "112337.287500", "112337.747500", "112338.207500", "112338.667500", "112339.127500", "112339.587500", "112340.047500", "112340.507500", "112340.967500", "112341.427500", "112341.887500", "112342.347500", "112342.807500", "112343.267500", "112343.727500", "112344.187500", "112344.647500", "112345.107500", "112345.567500", "112346.027500", "112346.487500", "112346.947500", "112347.407500", "112347.867500", "112348.327500", "112348.787500", "112349.247500", "112349.707500", "112350.167500", "112350.627500", "112351.087500", "112351.547500", "112352.007500", "112352.467500", "112352.927500", "112353.387500", "112353.847500", "112354.307500", "112354.767500", "112355.227500", "112355.687500", "112356.147500", "112356.607500", "112357.067500", "112357.527500", "112357.987500", "112358.447500", "112358.907500", "112359.367500", "112359.827500", "112400.287500", "112400.747500", "112401.207500", "112401.667500", "112402.127500", "112402.587500", "112403.047500", "112403.507500", "112403.967500", "112404.427500", "112404.887500", "112405.347500", "112405.807500", "112406.267500", "112406.727500", "112407.187500", "112407.647500", "112408.107500", "112408.567500", "112409.027500", "112409.487500", "112409.947500", "112410.407500", "112410.867500", "112411.327500", "112411.787500", "112412.247500", "112412.707500", "112413.167500", "112413.627500", "112414.087500", "112414.547500", "112415.007500", "112415.467500", "112415.927500", "112416.387500", "112416.847500", "112417.307500", "112417.767500", "112418.227500", "112418.687500", "112419.147500", "112419.607500", "112420.067500", "112420.527500", "112420.987500", "112421.447500", "112421.907500", "112422.367500", "112422.827500", "112423.287500", "112423.747500", "112424.207500", "112424.667500", "112425.127500", "112425.587500", "112426.047500", "112426.507500", "112426.967500", "112427.427500", "112427.887500", "112428.347500", "112428.807500", "112429.267500", "112429.727500", "112430.187500", "112430.647500", "112431.107500", "112431.567500", "112432.027500", "112432.487500", "112432.947500", "112433.407500", "112433.867500", "112434.327500", "112434.787500", "112435.247500", "112435.707500", "112436.167500", "112436.627500", "112437.087500", "112437.547500", "112438.007500", "112438.467500", "112438.927500", "112439.387500", "112439.847500", "112440.307500", "112440.767500", "112441.227500", "112441.687500", "112442.147500", "112442.607500", "112443.067500", "112443.527500", "112443.987500", "112444.447500", "112444.907500", "112445.367500", "112445.827500", "112446.287500", "112446.747500", "112447.207500", "112447.667500", "112448.127500", "112448.587500", "112449.047500", "112449.507500", "112449.967500", "112450.427500", "112450.887500", "112451.347500", "112451.807500", "112452.267500", "112452.727500", "112453.187500", "112453.647500", "112454.107500", "112454.567500", "112455.027500", "112455.487500", "112455.947500", "112456.407500", "112456.867500", "112457.327500", "112457.787500", "112458.247500", "112458.707500", "112459.167500", "112459.627500", "112500.087500", "112500.547500", "112501.007500", "112501.467500", "112501.927500", "112502.387500", "112502.847500", "112503.307500", "112503.767500", "112504.227500", "112504.687500", "112505.147500", "112505.607500", "112506.067500", "112506.527500", "112506.987500", "112507.447500", "112507.907500", "112508.367500", "112508.827500", "112509.287500", "112509.747500", "112510.207500", "112510.667500", "112511.127500", "112511.587500", "112512.047500", "112512.507500", "112512.967500", "112513.427500", "112513.887500", "112514.347500", "112514.807500", "112515.267500", "112515.727500", "112516.187500", "112516.647500", "112517.107500", "112517.567500", "112518.027500", "112518.487500", "112518.947500", "112519.407500", "112519.867500", "112520.327500", "112520.787500", "112521.247500", "112521.707500", "112522.167500", "112522.627500", "112523.087500", "112523.547500", "112524.007500", "112524.467500", "112524.927500", "112525.387500", "112525.847500", "112526.307500", "112526.767500", "112527.227500", "112527.687500", "112528.147500", "112528.607500", "112529.067500", "112529.527500", "112529.987500", "112530.447500", "112530.907500", "112531.367500", "112531.827500", "112532.287500", "112532.747500", "112533.207500", "112533.667500", "112534.127500", "112534.587500", "112535.047500", "112535.507500", "112535.967500", "112536.427500", "112536.887500", "112537.347500", "112537.807500", "112538.267500", "112538.727500", "112539.187500", "112539.647500", "112540.107500", "112540.567500", "112541.027500", "112541.487500", "112541.947500", "112542.407500", "112542.867500", "112543.327500", "112543.787500", "112544.247500", "112544.707500", "112545.167500", "112545.627500", "112546.087500", "112546.547500", "112547.007500", "112547.467500", "112547.927500", "112548.387500", "112548.847500", "112549.307500", "112549.767500", "112550.227500", "112550.687500", "112551.147500", "112551.607500", "112552.067500", "112552.527500", "112552.987500", "112553.447500", "112553.907500", "112554.367500", "112554.827500", "112555.287500", "112555.747500", "112556.207500", "112556.667500", "112557.127500", "112557.587500", "112558.047500", "112558.507500", "112558.967500", "112559.427500", "112559.887500", "112600.347500", "112600.807500", "112601.267500", "112601.727500", "112602.187500", "112602.647500", "112603.107500", "112603.567500", "112604.027500", "112604.487500", "112604.947500", "112605.407500", "112605.867500", "112606.327500", "112606.787500", "112607.247500", "112607.707500", "112608.167500", "112608.627500", "112609.087500", "112609.547500", "112610.007500", "112610.467500", "112610.927500", "112611.387500", "112611.847500", "112612.307500", "112612.767500", "112613.227500", "112613.687500", "112614.147500", "112614.607500", "112615.067500", "112615.527500", "112615.987500", "112616.447500", "112616.907500", "112617.367500", "112617.827500", "112618.287500", "112618.747500", "112619.207500", "112619.667500", "112620.127500", "112620.587500", "112621.047500", "112621.507500", "112621.967500", "112622.427500", "112622.887500", "112623.347500", "112623.807500", "112624.267500", "112624.727500", "112625.187500", "112625.647500", "112626.107500", "112626.567500", "112627.027500", "112627.487500", "112627.947500", "112628.407500", "112628.867500", "112629.327500", "112629.787500", "112630.247500", "112630.707500", "112631.167500", "112631.627500", "112632.087500", "112632.547500", "112633.007500", "112633.467500", "112633.927500", "112634.387500", "112634.847500", "112635.307500", "112635.767500", "112636.227500", "112636.687500", "112637.147500", "112637.607500", "112638.067500", "112638.527500", "112638.987500", "112639.447500", "112639.907500", "112640.367500", "112640.827500", "112641.287500", "112641.747500", "112642.207500", "112642.667500", "112643.127500", "112643.587500", "112644.047500", "112644.507500", "112644.967500", "112645.427500", "112645.887500", "112646.347500", "112646.807500", "112647.267500", "112647.727500", "112648.187500", "112648.647500", "112649.107500", "112649.567500", "112650.027500", "112650.487500", "112650.947500", "112651.407500", "112651.867500", "112652.327500", "112652.787500", "112653.247500", "112653.707500", "112654.167500", "112654.627500", "112655.087500", "112655.547500", "112656.007500", "112656.467500", "112656.927500", "112657.387500", "112657.847500", "112658.307500", "112658.767500", "112659.227500", "112659.687500", "112700.147500", "112700.607500", "112701.067500", "112701.527500", "112701.987500", "112702.447500", "112702.907500", "112703.367500", "112703.827500", "112704.287500", "112704.747500", "112705.207500", "112705.667500", "112706.127500", "112706.587500", "112707.047500", "112707.507500", "112707.967500", "112708.427500", "112708.887500", "112709.347500", "112709.807500", "112710.267500", "112710.727500", "112711.187500", "112711.647500", "112712.107500", "112712.567500", "112713.027500", "112713.487500", "112713.947500", "112714.407500", "112714.867500", "112715.327500", "112715.787500", "112716.247500", "112716.707500", "112717.167500", "112717.627500", "112718.087500", "112718.547500", "112719.007500", "112719.467500", "112719.927500", "112720.387500", "112720.847500", "112721.307500", "112721.767500", "112722.227500", "112722.687500", "112723.147500", "112723.607500", "112724.067500", "112724.527500", "112724.987500", "112725.447500", "112725.907500", "112726.367500", "112726.827500", "112727.287500", "112727.747500", "112728.207500", "112728.667500", "112729.127500", "112729.587500", "112730.047500", "112730.507500", "112730.967500", "112731.427500", "112731.887500", "112732.347500", "112732.807500", "112733.267500", "112733.727500", "112734.187500", "112734.647500", "112735.107500", "112735.567500", "112736.027500", "112736.487500", "112736.947500", "112737.407500", "112737.867500", "112738.327500", "112738.787500", "112739.247500", "112739.707500", "112740.167500", "112740.627500", "112741.087500", "112741.547500", "112742.007500", "112742.467500", "112742.927500", "112743.387500", "112743.847500", "112744.307500", "112744.767500", "112745.227500", "112745.687500", "112746.147500", "112746.607500", "112747.067500", "112747.527500", "112747.987500", "112748.447500", "112748.907500", "112749.367500", "112749.827500", "112750.287500", "112750.747500", "112751.207500", "112751.667500", "112752.127500", "112752.587500", "112753.047500", "112753.507500", "112753.967500", "112754.427500", "112754.887500", "112755.347500", "112755.807500", "112756.267500", "112756.727500", "112757.187500", "112757.647500", "112758.107500", "112758.567500", "112759.027500", "112759.487500", "112759.947500", "112800.407500", "112800.867500", "112801.327500", "112801.787500", "112802.247500", "112802.707500", "112803.167500", "112803.627500", "112804.087500", "112804.547500", "112805.007500", "112805.467500", "112805.927500", "112806.387500", "112806.847500", "112807.307500", "112807.767500", "112808.227500", "112808.687500", "112809.147500", "112809.607500", "112810.067500", "112810.527500", "112810.987500", "112811.447500", "112811.907500", "112812.367500", "112812.827500", "112813.287500", "112813.747500", "112814.207500", "112814.667500", "112815.127500", "112815.587500", "112816.047500", "112816.507500", "112816.967500", "112817.427500", "112817.887500", "112818.347500", "112818.807500", "112819.267500", "112819.727500", "112820.187500", "112820.647500", "112821.107500", "112821.567500", "112822.027500", "112822.487500", "112822.947500", "112823.407500", "112823.867500", "112824.327500", "112824.787500", "112825.247500", "112825.707500", "112826.167500", "112826.627500", "112827.087500", "112827.547500", "112828.007500", "112828.467500", "112828.927500", "112829.387500", "112829.847500", "112830.307500", "112830.767500", "112831.227500", "112831.687500", "112832.147500", "112832.607500", "112833.067500", "112833.527500", "112833.987500", "112834.447500", "112834.907500", "112835.367500", "112835.827500", "112836.287500", "112836.747500", "112837.207500", "112837.667500", "112838.127500", "112838.587500", "112839.047500", "112839.507500", "112839.967500", "112840.427500", "112840.887500", "112841.347500", "112841.807500", "112842.267500", "112842.727500", "112843.187500", "112843.647500", "112844.107500", "112844.567500", "112845.027500", "112845.487500", "112845.947500", "112846.407500", "112846.867500", "112847.327500", "112847.787500", "112848.247500", "112848.707500", "112849.167500", "112849.627500", "112850.087500", "112850.547500", "112851.007500", "112851.467500", "112851.927500", "112852.387500", "112852.847500", "112853.307500", "112853.767500", "112854.227500", "112854.687500", "112855.147500", "112855.607500", "112856.067500", "112856.527500", "112856.987500", "112857.447500", "112857.907500", "112858.367500", "112858.827500", "112859.287500", "112859.747500", "112900.207500", "112900.667500", "112901.127500", "112901.587500", "112902.047500", "112902.507500", "112902.967500", "112903.427500", "112903.887500", "112904.347500", "112904.807500", "112905.267500", "112905.727500", "112906.187500", "112906.647500", "112907.107500", "112907.567500", "112908.027500", "112908.487500", "112908.947500", "112909.407500", "112909.867500", "112910.327500", "112910.787500", "112911.247500", "112911.707500", "112912.167500", "112912.627500", "112913.087500", "112913.547500", "112914.007500", "112914.467500", "112914.927500", "112915.387500", "112915.847500", "112916.307500", "112916.767500", "112917.227500", "112917.687500", "112918.147500", "112918.607500", "112919.067500", "112919.527500", "112919.987500", "112920.447500", "112920.907500", "112921.367500", "112921.827500", "112922.287500", "112922.747500", "112923.207500", "112923.667500", "112924.127500", "112924.587500", "112925.047500", "112925.507500", "112925.967500", "112926.427500", "112926.887500", "112927.347500", "112927.807500", "112928.267500", "112928.727500", "112929.187500", "112929.647500", "112930.107500", "112930.567500", "112931.027500", "112931.487500", "112931.947500", "112932.407500", "112932.867500", "112933.327500", "112933.787500", "112934.247500", "112934.707500", "112935.167500", "112935.627500", "112936.087500", "112936.547500", "112937.007500", "112937.467500", "112937.927500", "112938.387500", "112938.847500", "112939.307500", "112939.767500", "112940.227500", "112940.687500", "112941.147500", "112941.607500", "112942.067500", "112942.527500", "112942.987500", "112943.447500", "112943.907500", "112944.367500", "112944.827500", "112945.287500", "112945.747500", "112946.207500", "112946.667500", "112947.127500", "112947.587500", "112948.047500", "112948.507500", "112948.967500", "112949.427500", "112949.887500", "112950.347500", "112950.807500", "112951.267500", "112951.727500", "112952.187500", "112952.647500", "112953.107500", "112953.567500", "112954.027500", "112954.487500", "112954.947500", "112955.407500", "112955.867500", "112956.327500", "112956.787500", "112957.247500", "112957.707500", "112958.167500", "112958.627500", "112959.087500", "112959.547500", "113000.007500", "113000.467500", "113000.927500", "113001.387500", "113001.847500", "113002.307500", "113002.767500", "113003.227500", "113003.687500", "113004.147500", "113004.607500", "113005.067500", "113005.527500", "113005.987500", "113006.447500", "113006.907500", "113007.367500", "113007.827500", "113008.287500", "113008.747500", "113009.207500", "113009.667500", "113010.127500", "113010.587500", "113011.047500", "113011.507500", "113011.967500", "113012.427500", "113012.887500", "113013.347500", "113013.807500", "113014.267500", "113014.727500", "113015.187500", "113015.647500", "113016.107500", "113016.567500", "113017.027500", "113017.487500", "113017.947500", "113018.407500", "113018.867500", "113019.327500", "113019.787500", "113020.247500", "113020.707500", "113021.167500", "113021.627500", "113022.087500", "113022.547500", "113023.007500", "113023.467500", "113023.927500", "113024.387500", "113024.847500", "113025.307500", "113025.767500", "113026.227500", "113026.687500", "113027.147500", "113027.607500", "113028.067500", "113028.527500", "113028.987500", "113029.447500", "113029.907500", "113030.367500", "113030.827500", "113031.287500", "113031.747500", "113032.207500", "113032.667500", "113033.127500", "113033.587500", "113034.047500", "113034.507500", "113034.967500", "113035.427500", "113035.887500", "113036.347500", "113036.807500", "113037.267500", "113037.727500", "113038.187500", "113038.647500", "113039.107500", "113039.567500", "113040.027500", "113040.487500", "113040.947500", "113041.407500", "113041.867500", "113042.327500", "113042.787500", "113043.247500", "113043.707500", "113044.167500", "113044.627500", "113045.087500", "113045.547500", "113046.007500", "113046.467500", "113046.927500", "113047.387500", "113047.847500", "113048.307500", "113048.767500", "113049.227500", "113049.687500", "113050.147500", "113050.607500", "113051.067500", "113051.527500", "113051.987500", "113052.447500", "113052.907500", "113053.367500", "113053.827500", "113054.287500", "113054.747500", "113055.207500", "113055.667500", "113056.127500", "113056.587500", "113057.047500", "113057.507500", "113057.967500", "113058.427500", "113058.887500", "113059.347500", "113059.807500", "113100.267500", "113100.727500", "113101.187500", "113101.647500", "113102.107500"],
