{
  "AcquisitionMatrixPE": 82,
  "AcquisitionNumber": 1,
  "AcquisitionTime": "11:46:29.795000",
  "BandwidthPerPixelPhaseEncode": 24.888,
  "BaseResolution": 82,
  "BodyPartExamined": "BRAIN",
  "ConsistencyInfo": "N4_VE11E_LATEST_20181129",
  "ConversionSoftware": "dcm2niix",
  "ConversionSoftwareVersion": "v1.0.20201102",
  "DerivedVendorReportedEchoSpacing": 0.00049,
  "DeviceSerialNumber": "66112",
  "DwellTime": 2e-06,
  "EchoTime": 0.0272,
  "EchoTrainLength": 82,
  "EffectiveEchoSpacing": 0.00049,
  "FlipAngle": 44,
  "ImageComments": "Unaliased MB8/PE3",
  "ImageOrientationPatientDICOM": [0.996098, 0.0223451, -0.085374, -0.024866, 0.999282, -0.0285787],
  "ImageType": [
    "ORIGINAL",
    "PRIMARY",
    "M",
    "MB",
    "ND",
    "NORM",
    "MOSAIC"
],
  "ImagingFrequency": 123.252,
  "InPlanePhaseEncodingDirectionDICOM": "COL",
  "InstitutionAddress": "Maynard 3,Hanover,NH,US,03755",
  "InstitutionName": "Dartmouth College - PBS",
  "InstitutionalDepartmentName": "Department",
  "MRAcquisitionType": "2D",
  "MagneticFieldStrength": 3,
  "Manufacturer": "Siemens",
  "ManufacturersModelName": "Prisma",
  "Modality": "MR",
  "MultibandAccelerationFactor": 8,
  "PartialFourier": 1,
  "PatientPosition": "HFS",
  "PercentPhaseFOV": 100,
  "PercentSampling": 100,
  "PhaseEncodingDirection": "j-",
  "PhaseEncodingSteps": 82,
  "PhaseResolution": 1,
  "PixelBandwidth": 3050,
  "ProcedureStepDescription": "Wager_Wager^1076_spacetop",
  "ProtocolName": "func_run-02_task-social_acq-ap-mb8",
  "PulseSequenceDetails": "%CustomerSeq%\\cmrr_mbep2d_bold",
  "ReceiveCoilActiveElements": "HEA;HEP",
  "ReceiveCoilName": "Head_32",
  "ReconMatrixPE": 82,
  "RepetitionTime": 0.46,
  "SAR": 0.105946,
  "ScanOptions": "FS",
  "ScanningSequence": "EP",
  "SequenceName": "epfid2d1_82",
  "SequenceVariant": "SK\\SS",
  "SeriesDescription": "func_run-02_task-social_acq-ap-mb8",
  "SeriesNumber": 14,
  "ShimSetting": [4121, -7714, -7286, 630, -89, -38, 4, 116],
  "SliceThickness": 2.7,
  "SliceTiming": [0, 0.25, 0.0625, 0.3125, 0.125, 0.3775, 0.1875, 0, 0.25, 0.0625, 0.3125, 0.125, 0.3775, 0.1875, 0, 0.25, 0.0625, 0.3125, 0.125, 0.3775, 0.1875, 0, 0.25, 0.0625, 0.3125, 0.125, 0.3775, 0.1875, 0, 0.25, 0.0625, 0.3125, 0.125, 0.3775, 0.1875, 0, 0.25, 0.0625, 0.3125, 0.125, 0.3775, 0.1875, 0, 0.25, 0.0625, 0.3125, 0.125, 0.3775, 0.1875, 0, 0.25, 0.0625, 0.3125, 0.125, 0.3775, 0.1875],
  "SoftwareVersions": "syngo MR E11",
  "SpacingBetweenSlices": 2.7,
  "StationName": "AWP66112",
  "TaskName": "social",
  "TotalReadoutTime": 0.03969,
  "TxRefAmp": 255.766,
  "WipMemBlock": "4401a6c4-0c1c-4f13-b2b2-33886d347bc9||Sequence: R016 ve11e/master r/434b28f1; Aug  7 2019 18:53:46 by eja",
  "dcmmeta_affine": [
    [-2.672459125518799, -0.06671367585659027, -0.2286200225353241, 118.4611587524414],
    [-0.05995040014386177, 2.6810011863708496, -0.08259332180023193, -88.66121673583984],
    [-0.2290520817041397, 0.07667459547519684, 2.689035415649414, -73.95065307617188],
    [0.0, 0.0, 0.0, 1.0]
],
  "dcmmeta_reorient_transform": [
    [0.0, -1.0, 0.0, 81.0],
    [1.0, 0.0, 0.0, 0.0],
    [0.0, 0.0, 1.0, 0.0],
    [0.0, 0.0, 0.0, 1.0]
],
  "dcmmeta_shape": [82, 82, 56, 872],
  "dcmmeta_slice_dim": 2,
  "dcmmeta_version": 0.6,
  "global": {
    "const": {
      "AccessionNumber": "A003920",
      "AcquisitionMatrix": [82, 0, 0, 82],
      "AngioFlag": "N",
      "BitsAllocated": 16,
      "BitsStored": 16,
      "BodyPartExamined": "BRAIN",
      "Columns": 656,
      "EchoNumbers": 1,
      "EchoTime": 27.2,
      "EchoTrainLength": 82,
      "FlipAngle": 44.0,
      "HighBit": 15,
      "ImageOrientationPatient": [0.99609837957701, 0.02234514897981, -0.0853739569256, -0.0248660054661, 0.99928221184367, -0.0285787134943],
      "ImagePositionPatient": [-860.90629514019, -915.15296001272, 20.003549198692],
      "ImageType": [
        "ORIGINAL",
        "PRIMARY",
        "M",
        "MB",
        "ND",
        "NORM",
        "MOSAIC"
],
      "ImagedNucleus": "1H",
      "ImagingFrequency": 123.252191,
      "InPlanePhaseEncodingDirection": "COL",
      "MRAcquisitionType": "2D",
      "MagneticFieldStrength": 3.0,
      "Manufacturer": "SIEMENS",
      "ManufacturerModelName": "Prisma",
      "Modality": "MR",
      "NumberOfAverages": 1.0,
      "NumberOfPhaseEncodingSteps": 82,
      "PercentPhaseFieldOfView": 100.0,
      "PercentSampling": 100.0,
      "PerformedProcedureStepStartTime": "105329.455000",
      "PhotometricInterpretation": "MONOCHROME2",
      "PixelBandwidth": 3050.0,
      "PixelRepresentation": 0,
      "PixelSpacing": [2.6829268932343, 2.6829268932343],
      "ProtocolName": "func_run-02_task-social_acq-ap-mb8",
      "RepetitionTime": 460.0,
      "Rows": 656,
      "SAR": 0.10594556926288,
      "SamplesPerPixel": 1,
      "ScanOptions": "FS",
      "ScanningSequence": "EP",
      "SequenceName": "epfid2d1_82",
      "SequenceVariant": [
        "SK",
        "SS"
],
      "SeriesDescription": "func_run-02_task-social_acq-ap-mb8",
      "SeriesNumber": 14,
      "SeriesTime": "114657.947000",
      "SliceLocation": -80.968772356001,
      "SliceThickness": 2.7000000476837,
      "SmallestImagePixelValue": 0,
      "SoftwareVersions": "syngo MR E11",
      "SpacingBetweenSlices": 2.7000000791559,
      "SpecificCharacterSet": "ISO_IR 100",
      "StudyID": "1",
      "StudyTime": "105329.363000",
      "TransmitCoilName": "Body",
      "VariableFlipAngleFlag": "N",
      "WindowCenterWidthExplanation": "Algo1"
    },
    "slices": {}
  },
  "time": {
    "samples": {
      "AcquisitionNumber": [1, 2, 3, 4, 5, 6, 7, 8, 9, 10, 11, 12, 13, 14, 15, 16, 17, 18, 19, 20, 21, 22, 23, 24, 25, 26, 27, 28, 29, 30, 31, 32, 33, 34, 35, 36, 37, 38, 39, 40, 41, 42, 43, 44, 45, 46, 47, 48, 49, 50, 51, 52, 53, 54, 55, 56, 57, 58, 59, 60, 61, 62, 63, 64, 65, 66, 67, 68, 69, 70, 71, 72, 73, 74, 75, 76, 77, 78, 79, 80, 81, 82, 83, 84, 85, 86, 87, 88, 89, 90, 91, 92, 93, 94, 95, 96, 97, 98, 99, 100, 101, 102, 103, 104, 105, 106, 107, 108, 109, 110, 111, 112, 113, 114, 115, 116, 117, 118, 119, 120, 121, 122, 123, 124, 125, 126, 127, 128, 129, 130, 131, 132, 133, 134, 135, 136, 137, 138, 139, 140, 141, 142, 143, 144, 145, 146, 147, 148, 149, 150, 151, 152, 153, 154, 155, 156, 157, 158, 159, 160, 161, 162, 163, 164, 165, 166, 167, 168, 169, 170, 171, 172, 173, 174, 175, 176, 177, 178, 179, 180, 181, 182, 183, 184, 185, 186, 187, 188, 189, 190, 191, 192, 193, 194, 195, 196, 197, 198, 199, 200, 201, 202, 203, 204, 205, 206, 207, 208, 209, 210, 211, 212, 213, 214, 215, 216, 217, 218, 219, 220, 221, 222, 223, 224, 225, 226, 227, 228, 229, 230, 231, 232, 233, 234, 235, 236, 237, 238, 239, 240, 241, 242, 243, 244, 245, 246, 247, 248, 249, 250, 251, 252, 253, 254, 255, 256, 257, 258, 259, 260, 261, 262, 263, 264, 265, 266, 267, 268, 269, 270, 271, 272, 273, 274, 275, 276, 277, 278, 279, 280, 281, 282, 283, 284, 285, 286, 287, 288, 289, 290, 291, 292, 293, 294, 295, 296, 297, 298, 299, 300, 301, 302, 303, 304, 305, 306, 307, 308, 309, 310, 311, 312, 313, 314, 315, 316, 317, 318, 319, 320, 321, 322, 323, 324, 325, 326, 327, 328, 329, 330, 331, 332, 333, 334, 335, 336, 337, 338, 339, 340, 341, 342, 343, 344, 345, 346, 347, 348, 349, 350, 351, 352, 353, 354, 355, 356, 357, 358, 359, 360, 361, 362, 363, 364, 365, 366, 367, 368, 369, 370, 371, 372, 373, 374, 375, 376, 377, 378, 379, 380, 381, 382, 383, 384, 385, 386, 387, 388, 389, 390, 391, 392, 393, 394, 395, 396, 397, 398, 399, 400, 401, 402, 403, 404, 405, 406, 407, 408, 409, 410, 411, 412, 413, 414, 415, 416, 417, 418, 419, 420, 421, 422, 423, 424, 425, 426, 427, 428, 429, 430, 431, 432, 433, 434, 435, 436, 437, 438, 439, 440, 441, 442, 443, 444, 445, 446, 447, 448, 449, 450, 451, 452, 453, 454, 455, 456, 457, 458, 459, 460, 461, 462, 463, 464, 465, 466, 467, 468, 469, 470, 471, 472, 473, 474, 475, 476, 477, 478, 479, 480, 481, 482, 483, 484, 485, 486, 487, 488, 489, 490, 491, 492, 493, 494, 495, 496, 497, 498, 499, 500, 501, 502, 503, 504, 505, 506, 507, 508, 509, 510, 511, 512, 513, 514, 515, 516, 517, 518, 519, 520, 521, 522, 523, 524, 525, 526, 527, 528, 529, 530, 531, 532, 533, 534, 535, 536, 537, 538, 539, 540, 541, 542, 543, 544, 545, 546, 547, 548, 549, 550, 551, 552, 553, 554, 555, 556, 557, 558, 559, 560, 561, 562, 563, 564, 565, 566, 567, 568, 569, 570, 571, 572, 573, 574, 575, 576, 577, 578, 579, 580, 581, 582, 583, 584, 585, 586, 587, 588, 589, 590, 591, 592, 593, 594, 595, 596, 597, 598, 599, 600, 601, 602, 603, 604, 605, 606, 607, 608, 609, 610, 611, 612, 613, 614, 615, 616, 617, 618, 619, 620, 621, 622, 623, 624, 625, 626, 627, 628, 629, 630, 631, 632, 633, 634, 635, 636, 637, 638, 639, 640, 641, 642, 643, 644, 645, 646, 647, 648, 649, 650, 651, 652, 653, 654, 655, 656, 657, 658, 659, 660, 661, 662, 663, 664, 665, 666, 667, 668, 669, 670, 671, 672, 673, 674, 675, 676, 677, 678, 679, 680, 681, 682, 683, 684, 685, 686, 687, 688, 689, 690, 691, 692, 693, 694, 695, 696, 697, 698, 699, 700, 701, 702, 703, 704, 705, 706, 707, 708, 709, 710, 711, 712, 713, 714, 715, 716, 717, 718, 719, 720, 721, 722, 723, 724, 725, 726, 727, 728, 729, 730, 731, 732, 733, 734, 735, 736, 737, 738, 739, 740, 741, 742, 743, 744, 745, 746, 747, 748, 749, 750, 751, 752, 753, 754, 755, 756, 757, 758, 759, 760, 761, 762, 763, 764, 765, 766, 767, 768, 769, 770, 771, 772, 773, 774, 775, 776, 777, 778, 779, 780, 781, 782, 783, 784, 785, 786, 787, 788, 789, 790, 791, 792, 793, 794, 795, 796, 797, 798, 799, 800, 801, 802, 803, 804, 805, 806, 807, 808, 809, 810, 811, 812, 813, 814, 815, 816, 817, 818, 819, 820, 821, 822, 823, 824, 825, 826, 827, 828, 829, 830, 831, 832, 833, 834, 835, 836, 837, 838, 839, 840, 841, 842, 843, 844, 845, 846, 847, 848, 849, 850, 851, 852, 853, 854, 855, 856, 857, 858, 859, 860, 861, 862, 863, 864, 865, 866, 867, 868, 869, 870, 871, 872],
      "AcquisitionTime": ["114629.795000", "114630.255000", "114630.715000", "114631.175000", "114631.635000", "114632.095000", "114632.555000", "114633.015000", "114633.475000", "114633.935000", "114634.395000", "114634.855000", "114635.315000", "114635.775000", "114636.235000", "114636.695000", "114637.155000", "114637.615000", "114638.075000", "114638.535000", "114638.995000", "114639.455000", "114639.915000", "114640.375000", "114640.835000", "114641.295000", "114641.755000", "114642.215000", "114642.675000", "114643.135000", "114643.595000", "114644.055000", "114644.515000", "114644.975000", "114645.435000", "114645.895000", "114646.355000", "114646.815000", "114647.275000", "114647.735000", "114648.195000", "114648.655000", "114649.115000", "114649.575000", "114650.035000", "114650.495000", "114650.955000", "114651.415000", "114651.875000", "114652.335000", "114652.795000", "114653.255000", "114653.715000", "114654.175000", "114654.635000", "114655.095000", "114655.555000", "114656.015000", "114656.475000", "114656.935000", "114657.395000", "114657.855000", "114658.315000", "114658.775000", "114659.235000", "114659.695000", "114700.155000", "114700.615000", "114701.075000", "114701.535000", "114701.995000", "114702.455000", "114702.915000", "114703.375000", "114703.835000", "114704.295000", "114704.755000", "114705.215000", "114705.675000", "114706.135000", "114706.595000", "114707.055000", "114707.515000", "114707.975000", "114708.435000", "114708.895000", "114709.355000", "114709.815000", "114710.275000", "114710.735000", "114711.195000", "114711.655000", "114712.115000", "114712.575000", "114713.035000", "114713.495000", "114713.955000", "114714.415000", "114714.875000", "114715.335000", "114715.795000", "114716.255000", "114716.715000", "114717.175000", "114717.635000", "114718.095000", "114718.555000", "114719.015000", "114719.475000", "114719.935000", "114720.395000", "114720.855000", "114721.315000", "114721.775000", "114722.235000", "114722.695000", "114723.155000", "114723.615000", "114724.075000", "114724.535000", "114724.995000", "114725.455000", "114725.915000", "114726.375000", "114726.835000", "114727.295000", "114727.755000", "114728.215000", "114728.675000", "114729.135000", "114729.595000", "114730.055000", "114730.515000", "114730.975000", "114731.435000", "114731.895000", "114732.355000", "114732.815000", "114733.275000", "114733.735000", "114734.195000", "114734.655000", "114735.115000", "114735.575000", "114736.035000", "114736.495000", "114736.955000", "114737.415000", "114737.875000", "114738.335000", "114738.795000", "114739.255000", "114739.715000", "114740.175000", "114740.635000", "114741.095000", "114741.555000", "114742.015000", "114742.475000", "114742.935000", "114743.395000", "114743.855000", "114744.315000", "114744.775000", "114745.235000", "114745.695000", "114746.155000", "114746.615000", "114747.075000", "114747.535000", "114747.995000", "114748.455000", "114748.915000", "114749.375000", "114749.835000", "114750.295000", "114750.755000", "114751.215000", "114751.675000", "114752.135000", "114752.595000", "114753.055000", "114753.515000", "114753.975000", "114754.435000", "114754.895000", "114755.355000", "114755.815000", "114756.275000", "114756.735000", "114757.195000", "114757.655000", "114758.115000", "114758.575000", "114759.035000", "114759.495000", "114759.955000", "114800.415000", "114800.875000", "114801.335000", "114801.795000", "114802.255000", "114802.715000", "114803.175000", "114803.635000", "114804.095000", "114804.555000", "114805.015000", "114805.475000", "114805.935000", "114806.395000", "114806.855000", "114807.315000", "114807.775000", "114808.235000", "114808.695000", "114809.155000", "114809.615000", "114810.075000", "114810.535000", "114810.995000", "114811.455000", "114811.915000", "114812.375000", "114812.835000", "114813.295000", "114813.755000", "114814.215000", "114814.675000", "114815.135000", "114815.595000", "114816.055000", "114816.515000", "114816.975000", "114817.435000", "114817.895000", "114818.355000", "114818.815000", "114819.275000", "114819.735000", "114820.195000", "114820.655000", "114821.115000", "114821.575000", "114822.035000", "114822.495000", "114822.955000", "114823.415000", "114823.875000", "114824.335000", "114824.795000", "114825.255000", "114825.715000", "114826.175000", "114826.635000", "114827.095000", "114827.555000", "114828.015000", "114828.475000", "114828.935000", "114829.395000", "114829.855000", "114830.315000", "114830.775000", "114831.235000", "114831.695000", "114832.155000", "114832.615000", "114833.075000", "114833.535000", "114833.995000", "114834.455000", "114834.915000", "114835.375000", "114835.835000", "114836.295000", "114836.755000", "114837.215000", "114837.675000", "114838.135000", "114838.595000", "114839.055000", "114839.515000", "114839.975000", "114840.435000", "114840.895000", "114841.355000", "114841.815000", "114842.275000", "114842.735000", "114843.195000", "114843.655000", "114844.115000", "114844.575000", "114845.035000", "114845.495000", "114845.955000", "114846.415000", "114846.875000", "114847.335000", "114847.795000", "114848.255000", "114848.715000", "114849.175000", "114849.635000", "114850.095000", "114850.555000", "114851.015000", "114851.475000", "114851.935000", "114852.395000", "114852.855000", "114853.315000", "114853.775000", "114854.235000", "114854.695000", "114855.155000", "114855.615000", "114856.075000", "114856.535000", "114856.995000", "114857.455000", "114857.915000", "114858.375000", "114858.835000", "114859.295000", "114859.755000", "114900.215000", "114900.675000", "114901.135000", "114901.595000", "114902.055000", "114902.515000", "114902.975000", "114903.435000", "114903.895000", "114904.355000", "114904.815000", "114905.275000", "114905.735000", "114906.195000", "114906.655000", "114907.115000", "114907.575000", "114908.035000", "114908.495000", "114908.955000", "114909.415000", "114909.875000", "114910.335000", "114910.795000", "114911.255000", "114911.715000", "114912.175000", "114912.635000", "114913.095000", "114913.555000", "114914.015000", "114914.475000", "114914.935000", "114915.395000", "114915.855000", "114916.315000", "114916.775000", "114917.235000", "114917.695000", "114918.155000", "114918.615000", "114919.075000", "114919.535000", "114919.995000", "114920.455000", "114920.915000", "114921.375000", "114921.835000", "114922.295000", "114922.755000", "114923.215000", "114923.675000", "114924.135000", "114924.595000", "114925.055000", "114925.515000", "114925.975000", "114926.435000", "114926.895000", "114927.355000", "114927.815000", "114928.275000", "114928.735000", "114929.195000", "114929.655000", "114930.115000", "114930.575000", "114931.035000", "114931.495000", "114931.955000", "114932.415000", "114932.875000", "114933.335000", "114933.795000", "114934.255000", "114934.715000", "114935.175000", "114935.635000", "114936.095000", "114936.555000", "114937.015000", "114937.475000", "114937.935000", "114938.395000", "114938.855000", "114939.315000", "114939.775000", "114940.235000", "114940.695000", "114941.155000", "114941.615000", "114942.075000", "114942.535000", "114942.995000", "114943.455000", "114943.915000", "114944.375000", "114944.835000", "114945.295000", "114945.755000", "114946.215000", "114946.675000", "114947.135000", "114947.595000", "114948.055000", "114948.515000", "114948.975000", "114949.435000", "114949.895000", "114950.355000", "114950.815000", "114951.275000", "114951.735000", "114952.195000", "114952.655000", "114953.115000", "114953.575000", "114954.035000", "114954.495000", "114954.955000", "114955.415000", "114955.875000", "114956.335000", "114956.795000", "114957.255000", "114957.715000", "114958.175000", "114958.635000", "114959.095000", "114959.555000", "115000.015000", "115000.475000", "115000.935000", "115001.395000", "115001.855000", "115002.315000", "115002.775000", "115003.235000", "115003.695000", "115004.155000", "115004.615000", "115005.075000", "115005.535000", "115005.995000", "115006.455000", "115006.915000", "115007.375000", "115007.835000", "115008.295000", "115008.755000", "115009.215000", "115009.675000", "115010.135000", "115010.595000", "115011.055000", "115011.515000", "115011.975000", "115012.435000", "115012.895000", "115013.355000", "115013.815000", "115014.275000", "115014.735000", "115015.195000", "115015.655000", "115016.115000", "115016.575000", "115017.035000", "115017.495000", "115017.955000", "115018.415000", "115018.875000", "115019.335000", "115019.795000", "115020.255000", "115020.715000", "115021.175000", "115021.635000", "115022.095000", "115022.555000", "115023.015000", "115023.475000", "115023.935000", "115024.395000", "115024.855000", "115025.315000", "115025.775000", "115026.235000", "115026.695000", "115027.155000", "115027.615000", "115028.075000", "115028.535000", "115028.995000", "115029.455000", "115029.915000", "115030.375000", "115030.835000", "115031.295000", "115031.755000", "115032.215000", "115032.675000", "115033.135000", "115033.595000", "115034.055000", "115034.515000", "115034.975000", "115035.435000", "115035.895000", "115036.355000", "115036.815000", "115037.275000", "115037.735000", "115038.195000", "115038.655000", "115039.115000", "115039.575000", "115040.035000", "115040.495000", "115040.955000", "115041.415000", "115041.875000", "115042.335000", "115042.795000", "115043.255000", "115043.715000", "115044.175000", "115044.635000", "115045.095000", "115045.555000", "115046.015000", "115046.475000", "115046.935000", "115047.395000", "115047.855000", "115048.315000", "115048.775000", "115049.235000", "115049.695000", "115050.155000", "115050.615000", "115051.075000", "115051.535000", "115051.995000", "115052.455000", "115052.915000", "115053.375000", "115053.835000", "115054.295000", "115054.755000", "115055.215000", "115055.675000", "115056.135000", "115056.595000", "115057.055000", "115057.515000", "115057.975000", "115058.435000", "115058.895000", "115059.355000", "115059.815000", "115100.275000", "115100.735000", "115101.195000", "115101.655000", "115102.115000", "115102.575000", "115103.035000", "115103.495000", "115103.955000", "115104.415000", "115104.875000", "115105.335000", "115105.795000", "115106.255000", "115106.715000", "115107.175000", "115107.635000", "115108.095000", "115108.555000", "115109.015000", "115109.475000", "115109.935000", "115110.395000", "115110.855000", "115111.315000", "115111.775000", "115112.235000", "115112.695000", "115113.155000", "115113.615000", "115114.075000", "115114.535000", "115114.995000", "115115.455000", "115115.915000", "115116.375000", "115116.835000", "115117.295000", "115117.755000", "115118.215000", "115118.675000", "115119.135000", "115119.595000", "115120.055000", "115120.515000", "115120.975000", "115121.435000", "115121.895000", "115122.355000", "115122.815000", "115123.275000", "115123.735000", "115124.195000", "115124.655000", "115125.115000", "115125.575000", "115126.035000", "115126.495000", "115126.955000", "115127.415000", "115127.875000", "115128.335000", "115128.795000", "115129.255000", "115129.715000", "115130.175000", "115130.635000", "115131.095000", "115131.555000", "115132.015000", "115132.475000", "115132.935000", "115133.395000", "115133.855000", "115134.315000", "115134.775000", "115135.235000", "115135.695000", "115136.155000", "115136.615000", "115137.075000", "115137.535000", "115137.995000", "115138.455000", "115138.915000", "115139.375000", "115139.835000", "115140.295000", "115140.755000", "115141.215000", "115141.675000", "115142.135000", "115142.595000", "115143.055000", "115143.515000", "115143.975000", "115144.435000", "115144.895000", "115145.355000", "115145.815000", "115146.275000", "115146.735000", "115147.195000", "115147.655000", "115148.115000", "115148.575000", "115149.035000", "115149.495000", "115149.955000", "115150.415000", "115150.875000", "115151.335000", "115151.795000", "115152.255000", "115152.715000", "115153.175000", "115153.635000", "115154.095000", "115154.555000", "115155.015000", "115155.475000", "115155.935000", "115156.395000", "115156.855000", "115157.315000", "115157.775000", "115158.235000", "115158.695000", "115159.155000", "115159.615000", "115200.075000", "115200.535000", "115200.995000", "115201.455000", "115201.915000", "115202.375000", "115202.835000", "115203.295000", "115203.755000", "115204.215000", "115204.675000", "115205.135000", "115205.595000", "115206.055000", "115206.515000", "115206.975000", "115207.435000", "115207.895000", "115208.355000", "115208.815000", "115209.275000", "115209.735000", "115210.195000", "115210.655000", "115211.115000", "115211.575000", "115212.035000", "115212.495000", "115212.955000", "115213.415000", "115213.875000", "115214.335000", "115214.795000", "115215.255000", "115215.715000", "115216.175000", "115216.635000", "115217.095000", "115217.555000", "115218.015000", "115218.475000", "115218.935000", "115219.395000", "115219.855000", "115220.315000", "115220.775000", "115221.235000", "115221.695000", "115222.155000", "115222.615000", "115223.075000", "115223.535000", "115223.995000", "115224.455000", "115224.915000", "115225.375000", "115225.835000", "115226.295000", "115226.755000", "115227.215000", "115227.675000", "115228.135000", "115228.595000", "115229.055000", "115229.515000", "115229.975000", "115230.435000", "115230.895000", "115231.355000", "115231.815000", "115232.275000", "115232.735000", "115233.195000", "115233.655000", "115234.115000", "115234.575000", "115235.035000", "115235.495000", "115235.955000", "115236.415000", "115236.875000", "115237.335000", "115237.795000", "115238.255000", "115238.715000", "115239.175000", "115239.635000", "115240.095000", "115240.555000", "115241.015000", "115241.475000", "115241.935000", "115242.395000", "115242.855000", "115243.315000", "115243.775000", "115244.235000", "115244.695000", "115245.155000", "115245.615000", "115246.075000", "115246.535000", "115246.995000", "115247.455000", "115247.915000", "115248.375000", "115248.835000", "115249.295000", "115249.755000", "115250.215000", "115250.675000", "115251.135000", "115251.595000", "115252.055000", "115252.515000", "115252.975000", "115253.435000", "115253.895000", "115254.355000", "115254.815000", "115255.275000", "115255.735000", "115256.195000", "115256.655000", "115257.115000", "115257.575000", "115258.035000", "115258.495000", "115258.955000", "115259.415000", "115259.875000", "115300.335000", "115300.795000", "115301.255000", "115301.715000", "115302.175000", "115302.635000", "115303.095000", "115303.555000", "115304.015000", "115304.475000", "115304.935000", "115305.395000", "115305.855000", "115306.315000", "115306.775000", "115307.235000", "115307.695000", "115308.155000", "115308.615000", "115309.075000", "115309.535000", "115309.995000", "115310.455000"],
