{
  "AcquisitionMatrixPE": 82,
  "AcquisitionNumber": 1,
  "AcquisitionTime": "11:38:55.492500",
  "BandwidthPerPixelPhaseEncode": 24.888,
  "BaseResolution": 82,
  "BodyPartExamined": "BRAIN",
  "ConsistencyInfo": "N4_VE11E_LATEST_20181129",
  "ConversionSoftware": "dcm2niix",
  "ConversionSoftwareVersion": "v1.0.20201102",
  "DerivedVendorReportedEchoSpacing": 0.00049,
  "DeviceSerialNumber": "66112",
  "DwellTime": 2e-06,
  "EchoTime": 0.0272,
  "EchoTrainLength": 82,
  "EffectiveEchoSpacing": 0.00049,
  "FlipAngle": 44,
  "ImageComments": "Unaliased MB8/PE3",
  "ImageOrientationPatientDICOM": [0.996098, 0.0223451, -0.085374, -0.024866, 0.999282, -0.0285787],
  "ImageType": [
    "ORIGINAL",
    "PRIMARY",
    "M",
    "MB",
    "ND",
    "NORM",
    "MOSAIC"
],
  "ImagingFrequency": 123.252,
  "InPlanePhaseEncodingDirectionDICOM": "COL",
  "InstitutionAddress": "Maynard 3,Hanover,NH,US,03755",
  "InstitutionName": "Dartmouth College - PBS",
  "InstitutionalDepartmentName": "Department",
  "MRAcquisitionType": "2D",
  "MagneticFieldStrength": 3,
  "Manufacturer": "Siemens",
  "ManufacturersModelName": "Prisma",
  "Modality": "MR",
  "MultibandAccelerationFactor": 8,
  "PartialFourier": 1,
  "PatientPosition": "HFS",
  "PercentPhaseFOV": 100,
  "PercentSampling": 100,
  "PhaseEncodingDirection": "j-",
  "PhaseEncodingSteps": 82,
  "PhaseResolution": 1,
  "PixelBandwidth": 3050,
  "ProcedureStepDescription": "Wager_Wager^1076_spacetop",
  "ProtocolName": "func_run-01_task-social_acq-ap-mb8",
  "PulseSequenceDetails": "%CustomerSeq%\\cmrr_mbep2d_bold",
  "ReceiveCoilActiveElements": "HEA;HEP",
  "ReceiveCoilName": "Head_32",
  "ReconMatrixPE": 82,
  "RepetitionTime": 0.46,
  "SAR": 0.105946,
  "ScanOptions": "FS",
  "ScanningSequence": "EP",
  "SequenceName": "epfid2d1_82",
  "SequenceVariant": "SK\\SS",
  "SeriesDescription": "func_run-01_task-social_acq-ap-mb8",
  "SeriesNumber": 12,
  "ShimSetting": [4121, -7714, -7286, 630, -89, -38, 4, 116],
  "SliceThickness": 2.7,
  "SliceTiming": [0, 0.25, 0.0625, 0.3125, 0.125, 0.375, 0.1875, 0, 0.25, 0.0625, 0.3125, 0.125, 0.375, 0.1875, 0, 0.25, 0.0625, 0.3125, 0.125, 0.375, 0.1875, 0, 0.25, 0.0625, 0.3125, 0.125, 0.375, 0.1875, 0, 0.25, 0.0625, 0.3125, 0.125, 0.375, 0.1875, 0, 0.25, 0.0625, 0.3125, 0.125, 0.375, 0.1875, 0, 0.25, 0.0625, 0.3125, 0.125, 0.375, 0.1875, 0, 0.25, 0.0625, 0.3125, 0.125, 0.375, 0.1875],
  "SoftwareVersions": "syngo MR E11",
  "SpacingBetweenSlices": 2.7,
  "StationName": "AWP66112",
  "TaskName": "social",
  "TotalReadoutTime": 0.03969,
  "TxRefAmp": 255.766,
  "WipMemBlock": "f2bf566b-1648-4b7b-b2e5-fb9e09e2e127||Sequence: R016 ve11e/master r/434b28f1; Aug  7 2019 18:53:46 by eja",
  "dcmmeta_affine": [
    [-2.672459125518799, -0.06671367585659027, -0.2286200225353241, 118.4611587524414],
    [-0.05995040014386177, 2.6810011863708496, -0.08259332180023193, -88.66121673583984],
    [-0.2290520817041397, 0.07667459547519684, 2.689035415649414, -73.95065307617188],
    [0.0, 0.0, 0.0, 1.0]
],
  "dcmmeta_reorient_transform": [
    [0.0, -1.0, 0.0, 81.0],
    [1.0, 0.0, 0.0, 0.0],
    [0.0, 0.0, 1.0, 0.0],
    [0.0, 0.0, 0.0, 1.0]
],
  "dcmmeta_shape": [82, 82, 56, 872],
  "dcmmeta_slice_dim": 2,
  "dcmmeta_version": 0.6,
  "global": {
    "const": {
      "AccessionNumber": "A003920",
      "AcquisitionMatrix": [82, 0, 0, 82],
      "AngioFlag": "N",
      "BitsAllocated": 16,
      "BitsStored": 16,
      "BodyPartExamined": "BRAIN",
      "Columns": 656,
      "EchoNumbers": 1,
      "EchoTime": 27.2,
      "EchoTrainLength": 82,
      "FlipAngle": 44.0,
      "HighBit": 15,
      "ImageOrientationPatient": [0.99609837957701, 0.02234514897981, -0.0853739569256, -0.0248660054661, 0.99928221184367, -0.0285787134943],
      "ImagePositionPatient": [-860.90629514019, -915.15296001272, 20.003549198692],
      "ImageType": [
        "ORIGINAL",
        "PRIMARY",
        "M",
        "MB",
        "ND",
        "NORM",
        "MOSAIC"
],
      "ImagedNucleus": "1H",
      "ImagingFrequency": 123.252182,
      "InPlanePhaseEncodingDirection": "COL",
      "MRAcquisitionType": "2D",
      "MagneticFieldStrength": 3.0,
      "Manufacturer": "SIEMENS",
      "ManufacturerModelName": "Prisma",
      "Modality": "MR",
      "NumberOfAverages": 1.0,
      "NumberOfPhaseEncodingSteps": 82,
      "PercentPhaseFieldOfView": 100.0,
      "PercentSampling": 100.0,
      "PerformedProcedureStepStartTime": "105329.455000",
      "PhotometricInterpretation": "MONOCHROME2",
      "PixelBandwidth": 3050.0,
      "PixelRepresentation": 0,
      "PixelSpacing": [2.6829268932343, 2.6829268932343],
      "ProtocolName": "func_run-01_task-social_acq-ap-mb8",
      "RepetitionTime": 460.0,
      "Rows": 656,
      "SAR": 0.10594556926288,
      "SamplesPerPixel": 1,
      "ScanOptions": "FS",
      "ScanningSequence": "EP",
      "SequenceName": "epfid2d1_82",
      "SequenceVariant": [
        "SK",
        "SS"
],
      "SeriesDescription": "func_run-01_task-social_acq-ap-mb8",
      "SeriesNumber": 12,
      "SeriesTime": "113917.852000",
      "SliceLocation": -80.968772356001,
      "SliceThickness": 2.7000000476837,
      "SmallestImagePixelValue": 0,
      "SoftwareVersions": "syngo MR E11",
      "SpacingBetweenSlices": 2.7000000791559,
      "SpecificCharacterSet": "ISO_IR 100",
      "StudyID": "1",
      "StudyTime": "105329.363000",
      "TransmitCoilName": "Body",
      "VariableFlipAngleFlag": "N",
      "WindowCenterWidthExplanation": "Algo1"
    },
    "slices": {}
  },
  "time": {
    "samples": {
      "AcquisitionNumber": [1, 2, 3, 4, 5, 6, 7, 8, 9, 10, 11, 12, 13, 14, 15, 16, 17, 18, 19, 20, 21, 22, 23, 24, 25, 26, 27, 28, 29, 30, 31, 32, 33, 34, 35, 36, 37, 38, 39, 40, 41, 42, 43, 44, 45, 46, 47, 48, 49, 50, 51, 52, 53, 54, 55, 56, 57, 58, 59, 60, 61, 62, 63, 64, 65, 66, 67, 68, 69, 70, 71, 72, 73, 74, 75, 76, 77, 78, 79, 80, 81, 82, 83, 84, 85, 86, 87, 88, 89, 90, 91, 92, 93, 94, 95, 96, 97, 98, 99, 100, 101, 102, 103, 104, 105, 106, 107, 108, 109, 110, 111, 112, 113, 114, 115, 116, 117, 118, 119, 120, 121, 122, 123, 124, 125, 126, 127, 128, 129, 130, 131, 132, 133, 134, 135, 136, 137, 138, 139, 140, 141, 142, 143, 144, 145, 146, 147, 148, 149, 150, 151, 152, 153, 154, 155, 156, 157, 158, 159, 160, 161, 162, 163, 164, 165, 166, 167, 168, 169, 170, 171, 172, 173, 174, 175, 176, 177, 178, 179, 180, 181, 182, 183, 184, 185, 186, 187, 188, 189, 190, 191, 192, 193, 194, 195, 196, 197, 198, 199, 200, 201, 202, 203, 204, 205, 206, 207, 208, 209, 210, 211, 212, 213, 214, 215, 216, 217, 218, 219, 220, 221, 222, 223, 224, 225, 226, 227, 228, 229, 230, 231, 232, 233, 234, 235, 236, 237, 238, 239, 240, 241, 242, 243, 244, 245, 246, 247, 248, 249, 250, 251, 252, 253, 254, 255, 256, 257, 258, 259, 260, 261, 262, 263, 264, 265, 266, 267, 268, 269, 270, 271, 272, 273, 274, 275, 276, 277, 278, 279, 280, 281, 282, 283, 284, 285, 286, 287, 288, 289, 290, 291, 292, 293, 294, 295, 296, 297, 298, 299, 300, 301, 302, 303, 304, 305, 306, 307, 308, 309, 310, 311, 312, 313, 314, 315, 316, 317, 318, 319, 320, 321, 322, 323, 324, 325, 326, 327, 328, 329, 330, 331, 332, 333, 334, 335, 336, 337, 338, 339, 340, 341, 342, 343, 344, 345, 346, 347, 348, 349, 350, 351, 352, 353, 354, 355, 356, 357, 358, 359, 360, 361, 362, 363, 364, 365, 366, 367, 368, 369, 370, 371, 372, 373, 374, 375, 376, 377, 378, 379, 380, 381, 382, 383, 384, 385, 386, 387, 388, 389, 390, 391, 392, 393, 394, 395, 396, 397, 398, 399, 400, 401, 402, 403, 404, 405, 406, 407, 408, 409, 410, 411, 412, 413, 414, 415, 416, 417, 418, 419, 420, 421, 422, 423, 424, 425, 426, 427, 428, 429, 430, 431, 432, 433, 434, 435, 436, 437, 438, 439, 440, 441, 442, 443, 444, 445, 446, 447, 448, 449, 450, 451, 452, 453, 454, 455, 456, 457, 458, 459, 460, 461, 462, 463, 464, 465, 466, 467, 468, 469, 470, 471, 472, 473, 474, 475, 476, 477, 478, 479, 480, 481, 482, 483, 484, 485, 486, 487, 488, 489, 490, 491, 492, 493, 494, 495, 496, 497, 498, 499, 500, 501, 502, 503, 504, 505, 506, 507, 508, 509, 510, 511, 512, 513, 514, 515, 516, 517, 518, 519, 520, 521, 522, 523, 524, 525, 526, 527, 528, 529, 530, 531, 532, 533, 534, 535, 536, 537, 538, 539, 540, 541, 542, 543, 544, 545, 546, 547, 548, 549, 550, 551, 552, 553, 554, 555, 556, 557, 558, 559, 560, 561, 562, 563, 564, 565, 566, 567, 568, 569, 570, 571, 572, 573, 574, 575, 576, 577, 578, 579, 580, 581, 582, 583, 584, 585, 586, 587, 588, 589, 590, 591, 592, 593, 594, 595, 596, 597, 598, 599, 600, 601, 602, 603, 604, 605, 606, 607, 608, 609, 610, 611, 612, 613, 614, 615, 616, 617, 618, 619, 620, 621, 622, 623, 624, 625, 626, 627, 628, 629, 630, 631, 632, 633, 634, 635, 636, 637, 638, 639, 640, 641, 642, 643, 644, 645, 646, 647, 648, 649, 650, 651, 652, 653, 654, 655, 656, 657, 658, 659, 660, 661, 662, 663, 664, 665, 666, 667, 668, 669, 670, 671, 672, 673, 674, 675, 676, 677, 678, 679, 680, 681, 682, 683, 684, 685, 686, 687, 688, 689, 690, 691, 692, 693, 694, 695, 696, 697, 698, 699, 700, 701, 702, 703, 704, 705, 706, 707, 708, 709, 710, 711, 712, 713, 714, 715, 716, 717, 718, 719, 720, 721, 722, 723, 724, 725, 726, 727, 728, 729, 730, 731, 732, 733, 734, 735, 736, 737, 738, 739, 740, 741, 742, 743, 744, 745, 746, 747, 748, 749, 750, 751, 752, 753, 754, 755, 756, 757, 758, 759, 760, 761, 762, 763, 764, 765, 766, 767, 768, 769, 770, 771, 772, 773, 774, 775, 776, 777, 778, 779, 780, 781, 782, 783, 784, 785, 786, 787, 788, 789, 790, 791, 792, 793, 794, 795, 796, 797, 798, 799, 800, 801, 802, 803, 804, 805, 806, 807, 808, 809, 810, 811, 812, 813, 814, 815, 816, 817, 818, 819, 820, 821, 822, 823, 824, 825, 826, 827, 828, 829, 830, 831, 832, 833, 834, 835, 836, 837, 838, 839, 840, 841, 842, 843, 844, 845, 846, 847, 848, 849, 850, 851, 852, 853, 854, 855, 856, 857, 858, 859, 860, 861, 862, 863, 864, 865, 866, 867, 868, 869, 870, 871, 872],
      "AcquisitionTime": ["113855.492500", "113855.952500", "113856.412500", "113856.872500", "113857.332500", "113857.792500", "113858.252500", "113858.712500", "113859.172500", "113859.632500", "113900.092500", "113900.552500", "113901.012500", "113901.472500", "113901.932500", "113902.392500", "113902.852500", "113903.312500", "113903.772500", "113904.232500", "113904.692500", "113905.152500", "113905.612500", "113906.072500", "113906.532500", "113906.992500", "113907.452500", "113907.912500", "113908.372500", "113908.832500", "113909.292500", "113909.752500", "113910.212500", "113910.672500", "113911.132500", "113911.592500", "113912.052500", "113912.512500", "113912.972500", "113913.432500", "113913.892500", "113914.352500", "113914.812500", "113915.272500", "113915.732500", "113916.192500", "113916.652500", "113917.112500", "113917.572500", "113918.032500", "113918.492500", "113918.952500", "113919.412500", "113919.872500", "113920.332500", "113920.792500", "113921.252500", "113921.712500", "113922.172500", "113922.632500", "113923.092500", "113923.552500", "113924.012500", "113924.472500", "113924.932500", "113925.392500", "113925.852500", "113926.312500", "113926.772500", "113927.232500", "113927.692500", "113928.152500", "113928.612500", "113929.072500", "113929.532500", "113929.992500", "113930.452500", "113930.912500", "113931.372500", "113931.832500", "113932.292500", "113932.752500", "113933.212500", "113933.672500", "113934.132500", "113934.592500", "113935.052500", "113935.512500", "113935.972500", "113936.432500", "113936.892500", "113937.352500", "113937.812500", "113938.272500", "113938.732500", "113939.192500", "113939.652500", "113940.112500", "113940.572500", "113941.032500", "113941.492500", "113941.952500", "113942.412500", "113942.872500", "113943.332500", "113943.792500", "113944.252500", "113944.712500", "113945.172500", "113945.632500", "113946.092500", "113946.552500", "113947.012500", "113947.472500", "113947.932500", "113948.392500", "113948.852500", "113949.312500", "113949.772500", "113950.232500", "113950.692500", "113951.152500", "113951.612500", "113952.072500", "113952.532500", "113952.992500", "113953.452500", "113953.912500", "113954.372500", "113954.832500", "113955.292500", "113955.752500", "113956.212500", "113956.672500", "113957.132500", "113957.592500", "113958.052500", "113958.512500", "113958.972500", "113959.432500", "113959.892500", "114000.352500", "114000.812500", "114001.272500", "114001.732500", "114002.192500", "114002.652500", "114003.112500", "114003.572500", "114004.032500", "114004.492500", "114004.952500", "114005.412500", "114005.872500", "114006.332500", "114006.792500", "114007.252500", "114007.712500", "114008.172500", "114008.632500", "114009.092500", "114009.552500", "114010.012500", "114010.472500", "114010.932500", "114011.392500", "114011.852500", "114012.312500", "114012.772500", "114013.232500", "114013.692500", "114014.152500", "114014.612500", "114015.072500", "114015.532500", "114015.992500", "114016.452500", "114016.912500", "114017.372500", "114017.832500", "114018.292500", "114018.752500", "114019.212500", "114019.672500", "114020.132500", "114020.592500", "114021.052500", "114021.512500", "114021.972500", "114022.432500", "114022.892500", "114023.352500", "114023.812500", "114024.272500", "114024.732500", "114025.192500", "114025.652500", "114026.112500", "114026.572500", "114027.032500", "114027.492500", "114027.952500", "114028.412500", "114028.872500", "114029.332500", "114029.792500", "114030.252500", "114030.712500", "114031.172500", "114031.632500", "114032.092500", "114032.552500", "114033.012500", "114033.472500", "114033.932500", "114034.392500", "114034.852500", "114035.312500", "114035.772500", "114036.232500", "114036.692500", "114037.152500", "114037.612500", "114038.072500", "114038.532500", "114038.992500", "114039.452500", "114039.912500", "114040.372500", "114040.832500", "114041.292500", "114041.752500", "114042.212500", "114042.672500", "114043.132500", "114043.592500", "114044.052500", "114044.512500", "114044.972500", "114045.432500", "114045.892500", "114046.352500", "114046.812500", "114047.272500", "114047.732500", "114048.192500", "114048.652500", "114049.112500", "114049.572500", "114050.032500", "114050.492500", "114050.952500", "114051.412500", "114051.872500", "114052.332500", "114052.792500", "114053.252500", "114053.712500", "114054.172500", "114054.632500", "114055.092500", "114055.552500", "114056.012500", "114056.472500", "114056.932500", "114057.392500", "114057.852500", "114058.312500", "114058.772500", "114059.232500", "114059.692500", "114100.152500", "114100.612500", "114101.072500", "114101.532500", "114101.992500", "114102.452500", "114102.912500", "114103.372500", "114103.832500", "114104.292500", "114104.752500", "114105.212500", "114105.672500", "114106.132500", "114106.592500", "114107.052500", "114107.512500", "114107.972500", "114108.432500", "114108.892500", "114109.352500", "114109.812500", "114110.272500", "114110.732500", "114111.192500", "114111.652500", "114112.112500", "114112.572500", "114113.032500", "114113.492500", "114113.952500", "114114.412500", "114114.872500", "114115.332500", "114115.792500", "114116.252500", "114116.712500", "114117.172500", "114117.632500", "114118.092500", "114118.552500", "114119.012500", "114119.472500", "114119.932500", "114120.392500", "114120.852500", "114121.312500", "114121.772500", "114122.232500", "114122.692500", "114123.152500", "114123.612500", "114124.072500", "114124.532500", "114124.992500", "114125.452500", "114125.912500", "114126.372500", "114126.832500", "114127.292500", "114127.752500", "114128.212500", "114128.672500", "114129.132500", "114129.592500", "114130.052500", "114130.512500", "114130.972500", "114131.432500", "114131.892500", "114132.352500", "114132.812500", "114133.272500", "114133.732500", "114134.192500", "114134.652500", "114135.112500", "114135.572500", "114136.032500", "114136.492500", "114136.952500", "114137.412500", "114137.872500", "114138.332500", "114138.792500", "114139.252500", "114139.712500", "114140.172500", "114140.632500", "114141.092500", "114141.552500", "114142.012500", "114142.472500", "114142.932500", "114143.392500", "114143.852500", "114144.312500", "114144.772500", "114145.232500", "114145.692500", "114146.152500", "114146.612500", "114147.072500", "114147.532500", "114147.992500", "114148.452500", "114148.912500", "114149.372500", "114149.832500", "114150.292500", "114150.752500", "114151.212500", "114151.672500", "114152.132500", "114152.592500", "114153.052500", "114153.512500", "114153.972500", "114154.432500", "114154.892500", "114155.352500", "114155.812500", "114156.272500", "114156.732500", "114157.192500", "114157.652500", "114158.112500", "114158.572500", "114159.032500", "114159.492500", "114159.952500", "114200.412500", "114200.872500", "114201.332500", "114201.792500", "114202.252500", "114202.712500", "114203.172500", "114203.632500", "114204.092500", "114204.552500", "114205.012500", "114205.472500", "114205.932500", "114206.392500", "114206.852500", "114207.312500", "114207.772500", "114208.232500", "114208.692500", "114209.152500", "114209.612500", "114210.072500", "114210.532500", "114210.992500", "114211.452500", "114211.912500", "114212.372500", "114212.832500", "114213.292500", "114213.752500", "114214.212500", "114214.672500", "114215.132500", "114215.592500", "114216.052500", "114216.512500", "114216.972500", "114217.432500", "114217.892500", "114218.352500", "114218.812500", "114219.272500", "114219.732500", "114220.192500", "114220.652500", "114221.112500", "114221.572500", "114222.032500", "114222.492500", "114222.952500", "114223.412500", "114223.872500", "114224.332500", "114224.792500", "114225.252500", "114225.712500", "114226.172500", "114226.632500", "114227.092500", "114227.552500", "114228.012500", "114228.472500", "114228.932500", "114229.392500", "114229.852500", "114230.312500", "114230.772500", "114231.232500", "114231.692500", "114232.152500", "114232.612500", "114233.072500", "114233.532500", "114233.992500", "114234.452500", "114234.912500", "114235.372500", "114235.832500", "114236.292500", "114236.752500", "114237.212500", "114237.672500", "114238.132500", "114238.592500", "114239.052500", "114239.512500", "114239.972500", "114240.432500", "114240.892500", "114241.352500", "114241.812500", "114242.272500", "114242.732500", "114243.192500", "114243.652500", "114244.112500", "114244.572500", "114245.032500", "114245.492500", "114245.952500", "114246.412500", "114246.872500", "114247.332500", "114247.792500", "114248.252500", "114248.712500", "114249.172500", "114249.632500", "114250.092500", "114250.552500", "114251.012500", "114251.472500", "114251.932500", "114252.392500", "114252.852500", "114253.312500", "114253.772500", "114254.232500", "114254.692500", "114255.152500", "114255.612500", "114256.072500", "114256.532500", "114256.992500", "114257.452500", "114257.912500", "114258.372500", "114258.832500", "114259.292500", "114259.752500", "114300.212500", "114300.672500", "114301.132500", "114301.592500", "114302.052500", "114302.512500", "114302.972500", "114303.432500", "114303.892500", "114304.352500", "114304.812500", "114305.272500", "114305.732500", "114306.192500", "114306.652500", "114307.112500", "114307.572500", "114308.032500", "114308.492500", "114308.952500", "114309.412500", "114309.872500", "114310.332500", "114310.792500", "114311.252500", "114311.712500", "114312.172500", "114312.632500", "114313.092500", "114313.552500", "114314.012500", "114314.472500", "114314.932500", "114315.392500", "114315.852500", "114316.312500", "114316.772500", "114317.232500", "114317.692500", "114318.152500", "114318.612500", "114319.072500", "114319.532500", "114319.992500", "114320.452500", "114320.912500", "114321.372500", "114321.832500", "114322.292500", "114322.752500", "114323.212500", "114323.672500", "114324.132500", "114324.592500", "114325.052500", "114325.512500", "114325.972500", "114326.432500", "114326.892500", "114327.352500", "114327.812500", "114328.272500", "114328.732500", "114329.192500", "114329.652500", "114330.112500", "114330.572500", "114331.032500", "114331.492500", "114331.952500", "114332.412500", "114332.872500", "114333.332500", "114333.792500", "114334.252500", "114334.712500", "114335.172500", "114335.632500", "114336.092500", "114336.552500", "114337.012500", "114337.472500", "114337.932500", "114338.392500", "114338.852500", "114339.312500", "114339.772500", "114340.232500", "114340.692500", "114341.152500", "114341.612500", "114342.072500", "114342.532500", "114342.992500", "114343.452500", "114343.912500", "114344.372500", "114344.832500", "114345.292500", "114345.752500", "114346.212500", "114346.672500", "114347.132500", "114347.592500", "114348.052500", "114348.512500", "114348.972500", "114349.432500", "114349.892500", "114350.352500", "114350.812500", "114351.272500", "114351.732500", "114352.192500", "114352.652500", "114353.112500", "114353.572500", "114354.032500", "114354.492500", "114354.952500", "114355.412500", "114355.872500", "114356.332500", "114356.792500", "114357.252500", "114357.712500", "114358.172500", "114358.632500", "114359.092500", "114359.552500", "114400.012500", "114400.472500", "114400.932500", "114401.392500", "114401.852500", "114402.312500", "114402.772500", "114403.232500", "114403.692500", "114404.152500", "114404.612500", "114405.072500", "114405.532500", "114405.992500", "114406.452500", "114406.912500", "114407.372500", "114407.832500", "114408.292500", "114408.752500", "114409.212500", "114409.672500", "114410.132500", "114410.592500", "114411.052500", "114411.512500", "114411.972500", "114412.432500", "114412.892500", "114413.352500", "114413.812500", "114414.272500", "114414.732500", "114415.192500", "114415.652500", "114416.112500", "114416.572500", "114417.032500", "114417.492500", "114417.952500", "114418.412500", "114418.872500", "114419.332500", "114419.792500", "114420.252500", "114420.712500", "114421.172500", "114421.632500", "114422.092500", "114422.552500", "114423.012500", "114423.472500", "114423.932500", "114424.392500", "114424.852500", "114425.312500", "114425.772500", "114426.232500", "114426.692500", "114427.152500", "114427.612500", "114428.072500", "114428.532500", "114428.992500", "114429.452500", "114429.912500", "114430.372500", "114430.832500", "114431.292500", "114431.752500", "114432.212500", "114432.672500", "114433.132500", "114433.592500", "114434.052500", "114434.512500", "114434.972500", "114435.432500", "114435.892500", "114436.352500", "114436.812500", "114437.272500", "114437.732500", "114438.192500", "114438.652500", "114439.112500", "114439.572500", "114440.032500", "114440.492500", "114440.952500", "114441.412500", "114441.872500", "114442.332500", "114442.792500", "114443.252500", "114443.712500", "114444.172500", "114444.632500", "114445.092500", "114445.552500", "114446.012500", "114446.472500", "114446.932500", "114447.392500", "114447.852500", "114448.312500", "114448.772500", "114449.232500", "114449.692500", "114450.152500", "114450.612500", "114451.072500", "114451.532500", "114451.992500", "114452.452500", "114452.912500", "114453.372500", "114453.832500", "114454.292500", "114454.752500", "114455.212500", "114455.672500", "114456.132500", "114456.592500", "114457.052500", "114457.512500", "114457.972500", "114458.432500", "114458.892500", "114459.352500", "114459.812500", "114500.272500", "114500.732500", "114501.192500", "114501.652500", "114502.112500", "114502.572500", "114503.032500", "114503.492500", "114503.952500", "114504.412500", "114504.872500", "114505.332500", "114505.792500", "114506.252500", "114506.712500", "114507.172500", "114507.632500", "114508.092500", "114508.552500", "114509.012500", "114509.472500", "114509.932500", "114510.392500", "114510.852500", "114511.312500", "114511.772500", "114512.232500", "114512.692500", "114513.152500", "114513.612500", "114514.072500", "114514.532500", "114514.992500", "114515.452500", "114515.912500", "114516.372500", "114516.832500", "114517.292500", "114517.752500", "114518.212500", "114518.672500", "114519.132500", "114519.592500", "114520.052500", "114520.512500", "114520.972500", "114521.432500", "114521.892500", "114522.352500", "114522.812500", "114523.272500", "114523.732500", "114524.192500", "114524.652500", "114525.112500", "114525.572500", "114526.032500", "114526.492500", "114526.952500", "114527.412500", "114527.872500", "114528.332500", "114528.792500", "114529.252500", "114529.712500", "114530.172500", "114530.632500", "114531.092500", "114531.552500", "114532.012500", "114532.472500", "114532.932500", "114533.392500", "114533.852500", "114534.312500", "114534.772500", "114535.232500", "114535.692500", "114536.152500"],
