{
  "AcquisitionMatrixPE": 82,
  "AcquisitionNumber": 1,
  "AcquisitionTime": "12:28:46.245000",
  "BandwidthPerPixelPhaseEncode": 24.888,
  "BaseResolution": 82,
  "BodyPartExamined": "BRAIN",
  "ConsistencyInfo": "N4_VE11E_LATEST_20181129",
  "ConversionSoftware": "dcm2niix",
  "ConversionSoftwareVersion": "v1.0.20201102",
  "DerivedVendorReportedEchoSpacing": 0.00049,
  "DeviceSerialNumber": "66112",
  "DwellTime": 2e-06,
  "EchoTime": 0.0272,
  "EchoTrainLength": 82,
  "EffectiveEchoSpacing": 0.00049,
  "FlipAngle": 44,
  "ImageComments": "Unaliased MB8/PE3",
  "ImageOrientationPatientDICOM": [0.994656, -0.0233861, -0.10056, 0.0244826, 0.999653, 0.00968358],
  "ImageType": [
    "ORIGINAL",
    "PRIMARY",
    "M",
    "MB",
    "ND",
    "NORM",
    "MOSAIC"
],
  "ImagingFrequency": 123.252,
  "InPlanePhaseEncodingDirectionDICOM": "COL",
  "InstitutionAddress": "Maynard 3,Hanover,NH,US,03755",
  "InstitutionName": "Dartmouth College - PBS",
  "InstitutionalDepartmentName": "Department",
  "MRAcquisitionType": "2D",
  "MagneticFieldStrength": 3,
  "Manufacturer": "Siemens",
  "ManufacturersModelName": "Prisma",
  "Modality": "MR",
  "MultibandAccelerationFactor": 8,
  "PartialFourier": 1,
  "PatientPosition": "HFS",
  "PercentPhaseFOV": 100,
  "PercentSampling": 100,
  "PhaseEncodingDirection": "j-",
  "PhaseEncodingSteps": 82,
  "PhaseResolution": 1,
  "PixelBandwidth": 3050,
  "ProcedureStepDescription": "Wager_Wager^1076_spacetop",
  "ProtocolName": "func_run-01_task-alignvideo_acq-ap-mb8",
  "PulseSequenceDetails": "%CustomerSeq%\\cmrr_mbep2d_bold",
  "ReceiveCoilActiveElements": "HEA;HEP",
  "ReceiveCoilName": "Head_32",
  "ReconMatrixPE": 82,
  "RepetitionTime": 0.46,
  "SAR": 0.106069,
  "ScanOptions": "FS",
  "ScanningSequence": "EP",
  "SequenceName": "epfid2d1_82",
  "SequenceVariant": "SK\\SS",
  "SeriesDescription": "func_run-01_task-alignvideo_acq-ap-mb8",
  "SeriesNumber": 30,
  "ShimSetting": [4120, -7715, -7284, 531, -67, -160, 32, 123],
  "SliceThickness": 2.7,
  "SliceTiming": [0, 0.25, 0.0625, 0.3125, 0.125, 0.3775, 0.1875, 0, 0.25, 0.0625, 0.3125, 0.125, 0.3775, 0.1875, 0, 0.25, 0.0625, 0.3125, 0.125, 0.3775, 0.1875, 0, 0.25, 0.0625, 0.3125, 0.125, 0.3775, 0.1875, 0, 0.25, 0.0625, 0.3125, 0.125, 0.3775, 0.1875, 0, 0.25, 0.0625, 0.3125, 0.125, 0.3775, 0.1875, 0, 0.25, 0.0625, 0.3125, 0.125, 0.3775, 0.1875, 0, 0.25, 0.0625, 0.3125, 0.125, 0.3775, 0.1875],
  "SoftwareVersions": "syngo MR E11",
  "SpacingBetweenSlices": 2.7,
  "StationName": "AWP66112",
  "TaskName": "alignvideo",
  "TotalReadoutTime": 0.03969,
  "TxRefAmp": 255.766,
  "WipMemBlock": "7be2a642-ff75-4200-9f3a-1b699777d7fc||Sequence: R016 ve11e/master r/434b28f1; Aug  7 2019 18:53:46 by eja",
  "dcmmeta_affine": [
    [-2.6685895919799805, 0.0656849667429924, -0.27080678939819336, 114.05235290527344],
    [0.06274311989545822, 2.6819968223571777, 0.03265327215194702, -92.54898834228516],
    [-0.2697954773902893, -0.02598034217953682, 2.6861865520477295, -88.8701171875],
    [0.0, 0.0, 0.0, 1.0]
],
  "dcmmeta_reorient_transform": [
    [0.0, -1.0, 0.0, 81.0],
    [1.0, 0.0, 0.0, 0.0],
    [0.0, 0.0, 1.0, 0.0],
    [0.0, 0.0, 0.0, 1.0]
],
  "dcmmeta_shape": [82, 82, 56, 1073],
  "dcmmeta_slice_dim": 2,
  "dcmmeta_version": 0.6,
  "global": {
    "const": {
      "AccessionNumber": "A003920",
      "AcquisitionMatrix": [82, 0, 0, 82],
      "AngioFlag": "N",
      "BitsAllocated": 16,
      "BitsStored": 16,
      "BodyPartExamined": "BRAIN",
      "Columns": 656,
      "EchoNumbers": 1,
      "EchoTime": 27.2,
      "EchoTrainLength": 82,
      "FlipAngle": 44.0,
      "HighBit": 15,
      "ImageOrientationPatient": [0.9946560978285, -0.0233860701092, -0.100560125186, 0.02448257814758, 0.99965335572569, 0.00968358165181],
      "ImagePositionPatient": [-904.10963484317, -876.41858799606, -20.999587048877],
      "ImageType": [
        "ORIGINAL",
        "PRIMARY",
        "M",
        "MB",
        "ND",
        "NORM",
        "MOSAIC"
],
      "ImagedNucleus": "1H",
      "ImagingFrequency": 123.252233,
      "InPlanePhaseEncodingDirection": "COL",
      "MRAcquisitionType": "2D",
      "MagneticFieldStrength": 3.0,
      "Manufacturer": "SIEMENS",
      "ManufacturerModelName": "Prisma",
      "Modality": "MR",
      "NumberOfAverages": 1.0,
      "NumberOfPhaseEncodingSteps": 82,
      "PercentPhaseFieldOfView": 100.0,
      "PercentSampling": 100.0,
      "PerformedProcedureStepStartTime": "105329.455000",
      "PhotometricInterpretation": "MONOCHROME2",
      "PixelBandwidth": 3050.0,
      "PixelRepresentation": 0,
      "PixelSpacing": [2.6829268932343, 2.6829268932343],
      "ProtocolName": "func_run-01_task-alignvideo_acq-ap-mb8",
      "RepetitionTime": 460.0,
      "Rows": 656,
      "SAR": 0.10606912908199,
      "SamplesPerPixel": 1,
      "ScanOptions": "FS",
      "ScanningSequence": "EP",
      "SequenceName": "epfid2d1_82",
      "SequenceVariant": [
        "SK",
        "SS"
],
      "SeriesDescription": "func_run-01_task-alignvideo_acq-ap-mb8",
      "SeriesNumber": 30,
      "SeriesTime": "122857.849000",
      "SliceLocation": -100.97403153285,
      "SliceThickness": 2.7000000476837,
      "SmallestImagePixelValue": 0,
      "SoftwareVersions": "syngo MR E11",
      "SpacingBetweenSlices": 2.7000000800782,
      "SpecificCharacterSet": "ISO_IR 100",
      "StudyID": "1",
      "StudyTime": "105329.363000",
      "TransmitCoilName": "Body",
      "VariableFlipAngleFlag": "N",
      "WindowCenterWidthExplanation": "Algo1"
    },
    "slices": {}
  },
  "time": {
    "samples": {
      "AcquisitionNumber": [1, 2, 3, 4, 5, 6, 7, 8, 9, 10, 11, 12, 13, 14, 15, 16, 17, 18, 19, 20, 21, 22, 23, 24, 25, 26, 27, 28, 29, 30, 31, 32, 33, 34, 35, 36, 37, 38, 39, 40, 41, 42, 43, 44, 45, 46, 47, 48, 49, 50, 51, 52, 53, 54, 55, 56, 57, 58, 59, 60, 61, 62, 63, 64, 65, 66, 67, 68, 69, 70, 71, 72, 73, 74, 75, 76, 77, 78, 79, 80, 81, 82, 83, 84, 85, 86, 87, 88, 89, 90, 91, 92, 93, 94, 95, 96, 97, 98, 99, 100, 101, 102, 103, 104, 105, 106, 107, 108, 109, 110, 111, 112, 113, 114, 115, 116, 117, 118, 119, 120, 121, 122, 123, 124, 125, 126, 127, 128, 129, 130, 131, 132, 133, 134, 135, 136, 137, 138, 139, 140, 141, 142, 143, 144, 145, 146, 147, 148, 149, 150, 151, 152, 153, 154, 155, 156, 157, 158, 159, 160, 161, 162, 163, 164, 165, 166, 167, 168, 169, 170, 171, 172, 173, 174, 175, 176, 177, 178, 179, 180, 181, 182, 183, 184, 185, 186, 187, 188, 189, 190, 191, 192, 193, 194, 195, 196, 197, 198, 199, 200, 201, 202, 203, 204, 205, 206, 207, 208, 209, 210, 211, 212, 213, 214, 215, 216, 217, 218, 219, 220, 221, 222, 223, 224, 225, 226, 227, 228, 229, 230, 231, 232, 233, 234, 235, 236, 237, 238, 239, 240, 241, 242, 243, 244, 245, 246, 247, 248, 249, 250, 251, 252, 253, 254, 255, 256, 257, 258, 259, 260, 261, 262, 263, 264, 265, 266, 267, 268, 269, 270, 271, 272, 273, 274, 275, 276, 277, 278, 279, 280, 281, 282, 283, 284, 285, 286, 287, 288, 289, 290, 291, 292, 293, 294, 295, 296, 297, 298, 299, 300, 301, 302, 303, 304, 305, 306, 307, 308, 309, 310, 311, 312, 313, 314, 315, 316, 317, 318, 319, 320, 321, 322, 323, 324, 325, 326, 327, 328, 329, 330, 331, 332, 333, 334, 335, 336, 337, 338, 339, 340, 341, 342, 343, 344, 345, 346, 347, 348, 349, 350, 351, 352, 353, 354, 355, 356, 357, 358, 359, 360, 361, 362, 363, 364, 365, 366, 367, 368, 369, 370, 371, 372, 373, 374, 375, 376, 377, 378, 379, 380, 381, 382, 383, 384, 385, 386, 387, 388, 389, 390, 391, 392, 393, 394, 395, 396, 397, 398, 399, 400, 401, 402, 403, 404, 405, 406, 407, 408, 409, 410, 411, 412, 413, 414, 415, 416, 417, 418, 419, 420, 421, 422, 423, 424, 425, 426, 427, 428, 429, 430, 431, 432, 433, 434, 435, 436, 437, 438, 439, 440, 441, 442, 443, 444, 445, 446, 447, 448, 449, 450, 451, 452, 453, 454, 455, 456, 457, 458, 459, 460, 461, 462, 463, 464, 465, 466, 467, 468, 469, 470, 471, 472, 473, 474, 475, 476, 477, 478, 479, 480, 481, 482, 483, 484, 485, 486, 487, 488, 489, 490, 491, 492, 493, 494, 495, 496, 497, 498, 499, 500, 501, 502, 503, 504, 505, 506, 507, 508, 509, 510, 511, 512, 513, 514, 515, 516, 517, 518, 519, 520, 521, 522, 523, 524, 525, 526, 527, 528, 529, 530, 531, 532, 533, 534, 535, 536, 537, 538, 539, 540, 541, 542, 543, 544, 545, 546, 547, 548, 549, 550, 551, 552, 553, 554, 555, 556, 557, 558, 559, 560, 561, 562, 563, 564, 565, 566, 567, 568, 569, 570, 571, 572, 573, 574, 575, 576, 577, 578, 579, 580, 581, 582, 583, 584, 585, 586, 587, 588, 589, 590, 591, 592, 593, 594, 595, 596, 597, 598, 599, 600, 601, 602, 603, 604, 605, 606, 607, 608, 609, 610, 611, 612, 613, 614, 615, 616, 617, 618, 619, 620, 621, 622, 623, 624, 625, 626, 627, 628, 629, 630, 631, 632, 633, 634, 635, 636, 637, 638, 639, 640, 641, 642, 643, 644, 645, 646, 647, 648, 649, 650, 651, 652, 653, 654, 655, 656, 657, 658, 659, 660, 661, 662, 663, 664, 665, 666, 667, 668, 669, 670, 671, 672, 673, 674, 675, 676, 677, 678, 679, 680, 681, 682, 683, 684, 685, 686, 687, 688, 689, 690, 691, 692, 693, 694, 695, 696, 697, 698, 699, 700, 701, 702, 703, 704, 705, 706, 707, 708, 709, 710, 711, 712, 713, 714, 715, 716, 717, 718, 719, 720, 721, 722, 723, 724, 725, 726, 727, 728, 729, 730, 731, 732, 733, 734, 735, 736, 737, 738, 739, 740, 741, 742, 743, 744, 745, 746, 747, 748, 749, 750, 751, 752, 753, 754, 755, 756, 757, 758, 759, 760, 761, 762, 763, 764, 765, 766, 767, 768, 769, 770, 771, 772, 773, 774, 775, 776, 777, 778, 779, 780, 781, 782, 783, 784, 785, 786, 787, 788, 789, 790, 791, 792, 793, 794, 795, 796, 797, 798, 799, 800, 801, 802, 803, 804, 805, 806, 807, 808, 809, 810, 811, 812, 813, 814, 815, 816, 817, 818, 819, 820, 821, 822, 823, 824, 825, 826, 827, 828, 829, 830, 831, 832, 833, 834, 835, 836, 837, 838, 839, 840, 841, 842, 843, 844, 845, 846, 847, 848, 849, 850, 851, 852, 853, 854, 855, 856, 857, 858, 859, 860, 861, 862, 863, 864, 865, 866, 867, 868, 869, 870, 871, 872, 873, 874, 875, 876, 877, 878, 879, 880, 881, 882, 883, 884, 885, 886, 887, 888, 889, 890, 891, 892, 893, 894, 895, 896, 897, 898, 899, 900, 901, 902, 903, 904, 905, 906, 907, 908, 909, 910, 911, 912, 913, 914, 915, 916, 917, 918, 919, 920, 921, 922, 923, 924, 925, 926, 927, 928, 929, 930, 931, 932, 933, 934, 935, 936, 937, 938, 939, 940, 941, 942, 943, 944, 945, 946, 947, 948, 949, 950, 951, 952, 953, 954, 955, 956, 957, 958, 959, 960, 961, 962, 963, 964, 965, 966, 967, 968, 969, 970, 971, 972, 973, 974, 975, 976, 977, 978, 979, 980, 981, 982, 983, 984, 985, 986, 987, 988, 989, 990, 991, 992, 993, 994, 995, 996, 997, 998, 999, 1000, 1001, 1002, 1003, 1004, 1005, 1006, 1007, 1008, 1009, 1010, 1011, 1012, 1013, 1014, 1015, 1016, 1017, 1018, 1019, 1020, 1021, 1022, 1023, 1024, 1025, 1026, 1027, 1028, 1029, 1030, 1031, 1032, 1033, 1034, 1035, 1036, 1037, 1038, 1039, 1040, 1041, 1042, 1043, 1044, 1045, 1046, 1047, 1048, 1049, 1050, 1051, 1052, 1053, 1054, 1055, 1056, 1057, 1058, 1059, 1060, 1061, 1062, 1063, 1064, 1065, 1066, 1067, 1068, 1069, 1070, 1071, 1072, 1073],
      "AcquisitionTime": ["122846.245000", "122846.705000", "122847.165000", "122847.625000", "122848.085000", "122848.545000", "122849.005000", "122849.465000", "122849.925000", "122850.385000", "122850.845000", "122851.305000", "122851.765000", "122852.225000", "122852.685000", "122853.145000", "122853.605000", "122854.065000", "122854.525000", "122854.985000", "122855.445000", "122855.905000", "122856.365000", "122856.825000", "122857.285000", "122857.745000", "122858.205000", "122858.665000", "122859.125000", "122859.585000", "122900.045000", "122900.505000", "122900.965000", "122901.425000", "122901.885000", "122902.345000", "122902.805000", "122903.265000", "122903.725000", "122904.185000", "122904.645000", "122905.105000", "122905.565000", "122906.025000", "122906.485000", "122906.945000", "122907.405000", "122907.865000", "122908.325000", "122908.785000", "122909.245000", "122909.705000", "122910.165000", "122910.625000", "122911.085000", "122911.545000", "122912.005000", "122912.465000", "122912.925000", "122913.385000", "122913.845000", "122914.305000", "122914.765000", "122915.225000", "122915.685000", "122916.145000", "122916.605000", "122917.065000", "122917.525000", "122917.985000", "122918.445000", "122918.905000", "122919.365000", "122919.825000", "122920.285000", "122920.745000", "122921.205000", "122921.665000", "122922.125000", "122922.585000", "122923.045000", "122923.505000", "122923.965000", "122924.425000", "122924.885000", "122925.345000", "122925.805000", "122926.265000", "122926.725000", "122927.185000", "122927.645000", "122928.105000", "122928.565000", "122929.025000", "122929.485000", "122929.945000", "122930.405000", "122930.865000", "122931.325000", "122931.785000", "122932.245000", "122932.705000", "122933.165000", "122933.625000", "122934.085000", "122934.545000", "122935.005000", "122935.465000", "122935.925000", "122936.385000", "122936.845000", "122937.305000", "122937.765000", "122938.225000", "122938.685000", "122939.145000", "122939.605000", "122940.065000", "122940.525000", "122940.985000", "122941.445000", "122941.905000", "122942.365000", "122942.825000", "122943.285000", "122943.745000", "122944.205000", "122944.665000", "122945.125000", "122945.585000", "122946.045000", "122946.505000", "122946.965000", "122947.425000", "122947.885000", "122948.345000", "122948.805000", "122949.265000", "122949.725000", "122950.185000", "122950.645000", "122951.105000", "122951.565000", "122952.025000", "122952.485000", "122952.945000", "122953.405000", "122953.865000", "122954.325000", "122954.785000", "122955.245000", "122955.705000", "122956.165000", "122956.625000", "122957.085000", "122957.545000", "122958.005000", "122958.465000", "122958.925000", "122959.385000", "122959.845000", "123000.305000", "123000.765000", "123001.225000", "123001.685000", "123002.145000", "123002.605000", "123003.065000", "123003.525000", "123003.985000", "123004.445000", "123004.905000", "123005.365000", "123005.825000", "123006.285000", "123006.745000", "123007.205000", "123007.665000", "123008.125000", "123008.585000", "123009.045000", "123009.505000", "123009.965000", "123010.425000", "123010.885000", "123011.345000", "123011.805000", "123012.265000", "123012.725000", "123013.185000", "123013.645000", "123014.105000", "123014.565000", "123015.025000", "123015.485000", "123015.945000", "123016.405000", "123016.865000", "123017.325000", "123017.785000", "123018.245000", "123018.705000", "123019.165000", "123019.625000", "123020.085000", "123020.545000", "123021.005000", "123021.465000", "123021.925000", "123022.385000", "123022.845000", "123023.305000", "123023.765000", "123024.225000", "123024.685000", "123025.145000", "123025.605000", "123026.065000", "123026.525000", "123026.985000", "123027.445000", "123027.905000", "123028.365000", "123028.825000", "123029.285000", "123029.745000", "123030.205000", "123030.665000", "123031.125000", "123031.585000", "123032.045000", "123032.505000", "123032.965000", "123033.425000", "123033.885000", "123034.345000", "123034.805000", "123035.265000", "123035.725000", "123036.185000", "123036.645000", "123037.105000", "123037.565000", "123038.025000", "123038.485000", "123038.945000", "123039.405000", "123039.865000", "123040.325000", "123040.785000", "123041.245000", "123041.705000", "123042.165000", "123042.625000", "123043.085000", "123043.545000", "123044.005000", "123044.465000", "123044.925000", "123045.385000", "123045.845000", "123046.305000", "123046.765000", "123047.225000", "123047.685000", "123048.145000", "123048.605000", "123049.065000", "123049.525000", "123049.985000", "123050.445000", "123050.905000", "123051.365000", "123051.825000", "123052.285000", "123052.745000", "123053.205000", "123053.665000", "123054.125000", "123054.585000", "123055.045000", "123055.505000", "123055.965000", "123056.425000", "123056.885000", "123057.345000", "123057.805000", "123058.265000", "123058.725000", "123059.185000", "123059.645000", "123100.105000", "123100.565000", "123101.025000", "123101.485000", "123101.945000", "123102.405000", "123102.865000", "123103.325000", "123103.785000", "123104.245000", "123104.705000", "123105.165000", "123105.625000", "123106.085000", "123106.545000", "123107.005000", "123107.465000", "123107.925000", "123108.385000", "123108.845000", "123109.305000", "123109.765000", "123110.225000", "123110.685000", "123111.145000", "123111.605000", "123112.065000", "123112.525000", "123112.985000", "123113.445000", "123113.905000", "123114.365000", "123114.825000", "123115.285000", "123115.745000", "123116.205000", "123116.665000", "123117.125000", "123117.585000", "123118.045000", "123118.505000", "123118.965000", "123119.425000", "123119.885000", "123120.345000", "123120.805000", "123121.265000", "123121.725000", "123122.185000", "123122.645000", "123123.105000", "123123.565000", "123124.025000", "123124.485000", "123124.945000", "123125.405000", "123125.865000", "123126.325000", "123126.785000", "123127.245000", "123127.705000", "123128.165000", "123128.625000", "123129.085000", "123129.545000", "123130.005000", "123130.465000", "123130.925000", "123131.385000", "123131.845000", "123132.305000", "123132.765000", "123133.225000", "123133.685000", "123134.145000", "123134.605000", "123135.065000", "123135.525000", "123135.985000", "123136.445000", "123136.905000", "123137.365000", "123137.825000", "123138.285000", "123138.745000", "123139.205000", "123139.665000", "123140.125000", "123140.585000", "123141.045000", "123141.505000", "123141.965000", "123142.425000", "123142.885000", "123143.345000", "123143.805000", "123144.265000", "123144.725000", "123145.185000", "123145.645000", "123146.105000", "123146.565000", "123147.025000", "123147.485000", "123147.945000", "123148.405000", "123148.865000", "123149.325000", "123149.785000", "123150.245000", "123150.705000", "123151.165000", "123151.625000", "123152.085000", "123152.545000", "123153.005000", "123153.465000", "123153.925000", "123154.385000", "123154.845000", "123155.305000", "123155.765000", "123156.225000", "123156.685000", "123157.145000", "123157.605000", "123158.065000", "123158.525000", "123158.985000", "123159.445000", "123159.905000", "123200.365000", "123200.825000", "123201.285000", "123201.745000", "123202.205000", "123202.665000", "123203.125000", "123203.585000", "123204.045000", "123204.505000", "123204.965000", "123205.425000", "123205.885000", "123206.345000", "123206.805000", "123207.265000", "123207.725000", "123208.185000", "123208.645000", "123209.105000", "123209.565000", "123210.025000", "123210.485000", "123210.945000", "123211.405000", "123211.865000", "123212.325000", "123212.785000", "123213.245000", "123213.705000", "123214.165000", "123214.625000", "123215.085000", "123215.545000", "123216.005000", "123216.465000", "123216.925000", "123217.385000", "123217.845000", "123218.305000", "123218.765000", "123219.225000", "123219.685000", "123220.145000", "123220.605000", "123221.065000", "123221.525000", "123221.985000", "123222.445000", "123222.905000", "123223.365000", "123223.825000", "123224.285000", "123224.745000", "123225.205000", "123225.665000", "123226.125000", "123226.585000", "123227.045000", "123227.505000", "123227.965000", "123228.425000", "123228.885000", "123229.345000", "123229.805000", "123230.265000", "123230.725000", "123231.185000", "123231.645000", "123232.105000", "123232.565000", "123233.025000", "123233.485000", "123233.945000", "123234.405000", "123234.865000", "123235.325000", "123235.785000", "123236.245000", "123236.705000", "123237.165000", "123237.625000", "123238.085000", "123238.545000", "123239.005000", "123239.465000", "123239.925000", "123240.385000", "123240.845000", "123241.305000", "123241.765000", "123242.225000", "123242.685000", "123243.145000", "123243.605000", "123244.065000", "123244.525000", "123244.985000", "123245.445000", "123245.905000", "123246.365000", "123246.825000", "123247.285000", "123247.745000", "123248.205000", "123248.665000", "123249.125000", "123249.585000", "123250.045000", "123250.505000", "123250.965000", "123251.425000", "123251.885000", "123252.345000", "123252.805000", "123253.265000", "123253.725000", "123254.185000", "123254.645000", "123255.105000", "123255.565000", "123256.025000", "123256.485000", "123256.945000", "123257.405000", "123257.865000", "123258.325000", "123258.785000", "123259.245000", "123259.705000", "123300.165000", "123300.625000", "123301.085000", "123301.545000", "123302.005000", "123302.465000", "123302.925000", "123303.385000", "123303.845000", "123304.305000", "123304.765000", "123305.225000", "123305.685000", "123306.145000", "123306.605000", "123307.065000", "123307.525000", "123307.985000", "123308.445000", "123308.905000", "123309.365000", "123309.825000", "123310.285000", "123310.745000", "123311.205000", "123311.665000", "123312.125000", "123312.585000", "123313.045000", "123313.505000", "123313.965000", "123314.425000", "123314.885000", "123315.345000", "123315.805000", "123316.265000", "123316.725000", "123317.185000", "123317.645000", "123318.105000", "123318.565000", "123319.025000", "123319.485000", "123319.945000", "123320.405000", "123320.865000", "123321.325000", "123321.785000", "123322.245000", "123322.705000", "123323.165000", "123323.625000", "123324.085000", "123324.545000", "123325.005000", "123325.465000", "123325.925000", "123326.385000", "123326.845000", "123327.305000", "123327.765000", "123328.225000", "123328.685000", "123329.145000", "123329.605000", "123330.065000", "123330.525000", "123330.985000", "123331.445000", "123331.905000", "123332.365000", "123332.825000", "123333.285000", "123333.745000", "123334.205000", "123334.665000", "123335.125000", "123335.585000", "123336.045000", "123336.505000", "123336.965000", "123337.425000", "123337.885000", "123338.345000", "123338.805000", "123339.265000", "123339.725000", "123340.185000", "123340.645000", "123341.105000", "123341.565000", "123342.025000", "123342.485000", "123342.945000", "123343.405000", "123343.865000", "123344.325000", "123344.785000", "123345.245000", "123345.705000", "123346.165000", "123346.625000", "123347.085000", "123347.545000", "123348.005000", "123348.465000", "123348.925000", "123349.385000", "123349.845000", "123350.305000", "123350.765000", "123351.225000", "123351.685000", "123352.145000", "123352.605000", "123353.065000", "123353.525000", "123353.985000", "123354.445000", "123354.905000", "123355.365000", "123355.825000", "123356.285000", "123356.745000", "123357.205000", "123357.665000", "123358.125000", "123358.585000", "123359.045000", "123359.505000", "123359.965000", "123400.425000", "123400.885000", "123401.345000", "123401.805000", "123402.265000", "123402.725000", "123403.185000", "123403.645000", "123404.105000", "123404.565000", "123405.025000", "123405.485000", "123405.945000", "123406.405000", "123406.865000", "123407.325000", "123407.785000", "123408.245000", "123408.705000", "123409.165000", "123409.625000", "123410.085000", "123410.545000", "123411.005000", "123411.465000", "123411.925000", "123412.385000", "123412.845000", "123413.305000", "123413.765000", "123414.225000", "123414.685000", "123415.145000", "123415.605000", "123416.065000", "123416.525000", "123416.985000", "123417.445000", "123417.905000", "123418.365000", "123418.825000", "123419.285000", "123419.745000", "123420.205000", "123420.665000", "123421.125000", "123421.585000", "123422.045000", "123422.505000", "123422.965000", "123423.425000", "123423.885000", "123424.345000", "123424.805000", "123425.265000", "123425.725000", "123426.185000", "123426.645000", "123427.105000", "123427.565000", "123428.025000", "123428.485000", "123428.945000", "123429.405000", "123429.865000", "123430.325000", "123430.785000", "123431.245000", "123431.705000", "123432.165000", "123432.625000", "123433.085000", "123433.545000", "123434.005000", "123434.465000", "123434.925000", "123435.385000", "123435.845000", "123436.305000", "123436.765000", "123437.225000", "123437.685000", "123438.145000", "123438.605000", "123439.065000", "123439.525000", "123439.985000", "123440.445000", "123440.905000", "123441.365000", "123441.825000", "123442.285000", "123442.745000", "123443.205000", "123443.665000", "123444.125000", "123444.585000", "123445.045000", "123445.505000", "123445.965000", "123446.425000", "123446.885000", "123447.345000", "123447.805000", "123448.265000", "123448.725000", "123449.185000", "123449.645000", "123450.105000", "123450.565000", "123451.025000", "123451.485000", "123451.945000", "123452.405000", "123452.865000", "123453.325000", "123453.785000", "123454.245000", "123454.705000", "123455.165000", "123455.625000", "123456.085000", "123456.545000", "123457.005000", "123457.465000", "123457.925000", "123458.385000", "123458.845000", "123459.305000", "123459.765000", "123500.225000", "123500.685000", "123501.145000", "123501.605000", "123502.065000", "123502.525000", "123502.985000", "123503.445000", "123503.905000", "123504.365000", "123504.825000", "123505.285000", "123505.745000", "123506.205000", "123506.665000", "123507.125000", "123507.585000", "123508.045000", "123508.505000", "123508.965000", "123509.425000", "123509.885000", "123510.345000", "123510.805000", "123511.265000", "123511.725000", "123512.185000", "123512.645000", "123513.105000", "123513.565000", "123514.025000", "123514.485000", "123514.945000", "123515.405000", "123515.865000", "123516.325000", "123516.785000", "123517.245000", "123517.705000", "123518.165000", "123518.625000", "123519.085000", "123519.545000", "123520.005000", "123520.465000", "123520.925000", "123521.385000", "123521.845000", "123522.305000", "123522.765000", "123523.225000", "123523.685000", "123524.145000", "123524.605000", "123525.065000", "123525.525000", "123525.985000", "123526.445000", "123526.905000", "123527.365000", "123527.825000", "123528.285000", "123528.745000", "123529.205000", "123529.665000", "123530.125000", "123530.585000", "123531.045000", "123531.505000", "123531.965000", "123532.425000", "123532.885000", "123533.345000", "123533.805000", "123534.265000", "123534.725000", "123535.185000", "123535.645000", "123536.105000", "123536.565000", "123537.025000", "123537.485000", "123537.945000", "123538.405000", "123538.865000", "123539.325000", "123539.785000", "123540.245000", "123540.705000", "123541.165000", "123541.625000", "123542.085000", "123542.545000", "123543.005000", "123543.465000", "123543.925000", "123544.385000", "123544.845000", "123545.305000", "123545.765000", "123546.225000", "123546.685000", "123547.145000", "123547.605000", "123548.065000", "123548.525000", "123548.985000", "123549.445000", "123549.905000", "123550.365000", "123550.825000", "123551.285000", "123551.745000", "123552.205000", "123552.665000", "123553.125000", "123553.585000", "123554.045000", "123554.505000", "123554.965000", "123555.425000", "123555.885000", "123556.345000", "123556.805000", "123557.265000", "123557.725000", "123558.185000", "123558.645000", "123559.105000", "123559.565000", "123600.025000", "123600.485000", "123600.945000", "123601.405000", "123601.865000", "123602.325000", "123602.785000", "123603.245000", "123603.705000", "123604.165000", "123604.625000", "123605.085000", "123605.545000", "123606.005000", "123606.465000", "123606.925000", "123607.385000", "123607.845000", "123608.305000", "123608.765000", "123609.225000", "123609.685000", "123610.145000", "123610.605000", "123611.065000", "123611.525000", "123611.985000", "123612.445000", "123612.905000", "123613.365000", "123613.825000", "123614.285000", "123614.745000", "123615.205000", "123615.665000", "123616.125000", "123616.585000", "123617.045000", "123617.505000", "123617.965000", "123618.425000", "123618.885000", "123619.345000", "123619.805000", "123620.265000", "123620.725000", "123621.185000", "123621.645000", "123622.105000", "123622.565000", "123623.025000", "123623.485000", "123623.945000", "123624.405000", "123624.865000", "123625.325000", "123625.785000", "123626.245000", "123626.705000", "123627.165000", "123627.625000", "123628.085000", "123628.545000", "123629.005000", "123629.465000", "123629.925000", "123630.385000", "123630.845000", "123631.305000", "123631.765000", "123632.225000", "123632.685000", "123633.145000", "123633.605000", "123634.065000", "123634.525000", "123634.985000", "123635.445000", "123635.905000", "123636.365000", "123636.825000", "123637.285000", "123637.745000", "123638.205000", "123638.665000", "123639.125000", "123639.585000", "123640.045000", "123640.505000", "123640.965000", "123641.425000", "123641.885000", "123642.345000", "123642.805000", "123643.265000", "123643.725000", "123644.185000", "123644.645000", "123645.105000", "123645.565000", "123646.025000", "123646.485000", "123646.945000", "123647.405000", "123647.865000", "123648.325000", "123648.785000", "123649.245000", "123649.705000", "123650.165000", "123650.625000", "123651.085000", "123651.545000", "123652.005000", "123652.465000", "123652.925000", "123653.385000", "123653.845000", "123654.305000", "123654.765000", "123655.225000", "123655.685000", "123656.145000", "123656.605000", "123657.065000", "123657.525000", "123657.985000", "123658.445000", "123658.905000", "123659.365000"],
