{
  "AcquisitionMatrixPE": 82,
  "AcquisitionNumber": 1,
  "AcquisitionTime": "12:48:20.410000",
  "BandwidthPerPixelPhaseEncode": 24.888,
  "BaseResolution": 82,
  "BodyPartExamined": "BRAIN",
  "ConsistencyInfo": "N4_VE11E_LATEST_20181129",
  "ConversionSoftware": "dcm2niix",
  "ConversionSoftwareVersion": "v1.0.20201102",
  "DerivedVendorReportedEchoSpacing": 0.00049,
  "DeviceSerialNumber": "66112",
  "DwellTime": 2e-06,
  "EchoTime": 0.0272,
  "EchoTrainLength": 82,
  "EffectiveEchoSpacing": 0.00049,
  "FlipAngle": 44,
  "ImageComments": "Unaliased MB8/PE3",
  "ImageOrientationPatientDICOM": [0.994656, -0.0233861, -0.10056, 0.0244826, 0.999653, 0.00968358],
  "ImageType": [
    "ORIGINAL",
    "PRIMARY",
    "M",
    "MB",
    "ND",
    "NORM",
    "MOSAIC"
],
  "ImagingFrequency": 123.252,
  "InPlanePhaseEncodingDirectionDICOM": "COL",
  "InstitutionAddress": "Maynard 3,Hanover,NH,US,03755",
  "InstitutionName": "Dartmouth College - PBS",
  "InstitutionalDepartmentName": "Department",
  "MRAcquisitionType": "2D",
  "MagneticFieldStrength": 3,
  "Manufacturer": "Siemens",
  "ManufacturersModelName": "Prisma",
  "Modality": "MR",
  "MultibandAccelerationFactor": 8,
  "PartialFourier": 1,
  "PatientPosition": "HFS",
  "PercentPhaseFOV": 100,
  "PercentSampling": 100,
  "PhaseEncodingDirection": "j-",
  "PhaseEncodingSteps": 82,
  "PhaseResolution": 1,
  "PixelBandwidth": 3050,
  "ProcedureStepDescription": "Wager_Wager^1076_spacetop",
  "ProtocolName": "func_run-03_task-alignvideo_acq-ap-mb8",
  "PulseSequenceDetails": "%CustomerSeq%\\cmrr_mbep2d_bold",
  "ReceiveCoilActiveElements": "HEA;HEP",
  "ReceiveCoilName": "Head_32",
  "ReconMatrixPE": 82,
  "RepetitionTime": 0.46,
  "SAR": 0.106039,
  "ScanOptions": "FS",
  "ScanningSequence": "EP",
  "SequenceName": "epfid2d1_82",
  "SequenceVariant": "SK\\SS",
  "SeriesDescription": "func_run-03_task-alignvideo_acq-ap-mb8",
  "SeriesNumber": 34,
  "ShimSetting": [4120, -7715, -7284, 531, -67, -160, 32, 123],
  "SliceThickness": 2.7,
  "SliceTiming": [0, 0.2525, 0.065, 0.315, 0.1275, 0.3775, 0.19, 0, 0.2525, 0.065, 0.315, 0.1275, 0.3775, 0.19, 0, 0.2525, 0.065, 0.315, 0.1275, 0.3775, 0.19, 0, 0.2525, 0.065, 0.315, 0.1275, 0.3775, 0.19, 0, 0.2525, 0.065, 0.315, 0.1275, 0.3775, 0.19, 0, 0.2525, 0.065, 0.315, 0.1275, 0.3775, 0.19, 0, 0.2525, 0.065, 0.315, 0.1275, 0.3775, 0.19, 0, 0.2525, 0.065, 0.315, 0.1275, 0.3775, 0.19],
  "SoftwareVersions": "syngo MR E11",
  "SpacingBetweenSlices": 2.7,
  "StationName": "AWP66112",
  "TaskName": "alignvideo",
  "TotalReadoutTime": 0.03969,
  "TxRefAmp": 255.766,
  "WipMemBlock": "a2acd7c6-41a8-484d-93db-149e8ad45082||Sequence: R016 ve11e/master r/434b28f1; Aug  7 2019 18:53:46 by eja",
  "dcmmeta_affine": [
    [-2.6685895919799805, 0.0656849667429924, -0.27080678939819336, 114.05235290527344],
    [0.06274311989545822, 2.6819968223571777, 0.03265327215194702, -92.54898834228516],
    [-0.2697954773902893, -0.02598034217953682, 2.6861865520477295, -88.8701171875],
    [0.0, 0.0, 0.0, 1.0]
],
  "dcmmeta_reorient_transform": [
    [0.0, -1.0, 0.0, 81.0],
    [1.0, 0.0, 0.0, 0.0],
    [0.0, 0.0, 1.0, 0.0],
    [0.0, 0.0, 0.0, 1.0]
],
  "dcmmeta_shape": [82, 82, 56, 1016],
  "dcmmeta_slice_dim": 2,
  "dcmmeta_version": 0.6,
  "global": {
    "const": {
      "AccessionNumber": "A003920",
      "AcquisitionMatrix": [82, 0, 0, 82],
      "AngioFlag": "N",
      "BitsAllocated": 16,
      "BitsStored": 16,
      "BodyPartExamined": "BRAIN",
      "Columns": 656,
      "EchoNumbers": 1,
      "EchoTime": 27.2,
      "EchoTrainLength": 82,
      "FlipAngle": 44.0,
      "HighBit": 15,
      "ImageOrientationPatient": [0.9946560978285, -0.0233860701092, -0.100560125186, 0.02448257814758, 0.99965335572569, 0.00968358165181],
      "ImagePositionPatient": [-904.10963484317, -876.41858799606, -20.999587048877],
      "ImageType": [
        "ORIGINAL",
        "PRIMARY",
        "M",
        "MB",
        "ND",
        "NORM",
        "MOSAIC"
],
      "ImagedNucleus": "1H",
      "ImagingFrequency": 123.252243,
      "InPlanePhaseEncodingDirection": "COL",
      "MRAcquisitionType": "2D",
      "MagneticFieldStrength": 3.0,
      "Manufacturer": "SIEMENS",
      "ManufacturerModelName": "Prisma",
      "Modality": "MR",
      "NumberOfAverages": 1.0,
      "NumberOfPhaseEncodingSteps": 82,
      "PercentPhaseFieldOfView": 100.0,
      "PercentSampling": 100.0,
      "PerformedProcedureStepStartTime": "105329.455000",
      "PhotometricInterpretation": "MONOCHROME2",
      "PixelBandwidth": 3050.0,
      "PixelRepresentation": 0,
      "PixelSpacing": [2.6829268932343, 2.6829268932343],
      "ProtocolName": "func_run-03_task-alignvideo_acq-ap-mb8",
      "RepetitionTime": 460.0,
      "Rows": 656,
      "SAR": 0.10603898311377,
      "SamplesPerPixel": 1,
      "ScanOptions": "FS",
      "ScanningSequence": "EP",
      "SequenceName": "epfid2d1_82",
      "SequenceVariant": [
        "SK",
        "SS"
],
      "SeriesDescription": "func_run-03_task-alignvideo_acq-ap-mb8",
      "SeriesNumber": 34,
      "SeriesTime": "124838.060000",
      "SliceLocation": -100.97403153285,
      "SliceThickness": 2.7000000476837,
      "SmallestImagePixelValue": 0,
      "SoftwareVersions": "syngo MR E11",
      "SpacingBetweenSlices": 2.7000000800782,
      "SpecificCharacterSet": "ISO_IR 100",
      "StudyID": "1",
      "StudyTime": "105329.363000",
      "TransmitCoilName": "Body",
      "VariableFlipAngleFlag": "N",
      "WindowCenterWidthExplanation": "Algo1"
    },
    "slices": {}
  },
  "time": {
    "samples": {
      "AcquisitionNumber": [1, 2, 3, 4, 5, 6, 7, 8, 9, 10, 11, 12, 13, 14, 15, 16, 17, 18, 19, 20, 21, 22, 23, 24, 25, 26, 27, 28, 29, 30, 31, 32, 33, 34, 35, 36, 37, 38, 39, 40, 41, 42, 43, 44, 45, 46, 47, 48, 49, 50, 51, 52, 53, 54, 55, 56, 57, 58, 59, 60, 61, 62, 63, 64, 65, 66, 67, 68, 69, 70, 71, 72, 73, 74, 75, 76, 77, 78, 79, 80, 81, 82, 83, 84, 85, 86, 87, 88, 89, 90, 91, 92, 93, 94, 95, 96, 97, 98, 99, 100, 101, 102, 103, 104, 105, 106, 107, 108, 109, 110, 111, 112, 113, 114, 115, 116, 117, 118, 119, 120, 121, 122, 123, 124, 125, 126, 127, 128, 129, 130, 131, 132, 133, 134, 135, 136, 137, 138, 139, 140, 141, 142, 143, 144, 145, 146, 147, 148, 149, 150, 151, 152, 153, 154, 155, 156, 157, 158, 159, 160, 161, 162, 163, 164, 165, 166, 167, 168, 169, 170, 171, 172, 173, 174, 175, 176, 177, 178, 179, 180, 181, 182, 183, 184, 185, 186, 187, 188, 189, 190, 191, 192, 193, 194, 195, 196, 197, 198, 199, 200, 201, 202, 203, 204, 205, 206, 207, 208, 209, 210, 211, 212, 213, 214, 215, 216, 217, 218, 219, 220, 221, 222, 223, 224, 225, 226, 227, 228, 229, 230, 231, 232, 233, 234, 235, 236, 237, 238, 239, 240, 241, 242, 243, 244, 245, 246, 247, 248, 249, 250, 251, 252, 253, 254, 255, 256, 257, 258, 259, 260, 261, 262, 263, 264, 265, 266, 267, 268, 269, 270, 271, 272, 273, 274, 275, 276, 277, 278, 279, 280, 281, 282, 283, 284, 285, 286, 287, 288, 289, 290, 291, 292, 293, 294, 295, 296, 297, 298, 299, 300, 301, 302, 303, 304, 305, 306, 307, 308, 309, 310, 311, 312, 313, 314, 315, 316, 317, 318, 319, 320, 321, 322, 323, 324, 325, 326, 327, 328, 329, 330, 331, 332, 333, 334, 335, 336, 337, 338, 339, 340, 341, 342, 343, 344, 345, 346, 347, 348, 349, 350, 351, 352, 353, 354, 355, 356, 357, 358, 359, 360, 361, 362, 363, 364, 365, 366, 367, 368, 369, 370, 371, 372, 373, 374, 375, 376, 377, 378, 379, 380, 381, 382, 383, 384, 385, 386, 387, 388, 389, 390, 391, 392, 393, 394, 395, 396, 397, 398, 399, 400, 401, 402, 403, 404, 405, 406, 407, 408, 409, 410, 411, 412, 413, 414, 415, 416, 417, 418, 419, 420, 421, 422, 423, 424, 425, 426, 427, 428, 429, 430, 431, 432, 433, 434, 435, 436, 437, 438, 439, 440, 441, 442, 443, 444, 445, 446, 447, 448, 449, 450, 451, 452, 453, 454, 455, 456, 457, 458, 459, 460, 461, 462, 463, 464, 465, 466, 467, 468, 469, 470, 471, 472, 473, 474, 475, 476, 477, 478, 479, 480, 481, 482, 483, 484, 485, 486, 487, 488, 489, 490, 491, 492, 493, 494, 495, 496, 497, 498, 499, 500, 501, 502, 503, 504, 505, 506, 507, 508, 509, 510, 511, 512, 513, 514, 515, 516, 517, 518, 519, 520, 521, 522, 523, 524, 525, 526, 527, 528, 529, 530, 531, 532, 533, 534, 535, 536, 537, 538, 539, 540, 541, 542, 543, 544, 545, 546, 547, 548, 549, 550, 551, 552, 553, 554, 555, 556, 557, 558, 559, 560, 561, 562, 563, 564, 565, 566, 567, 568, 569, 570, 571, 572, 573, 574, 575, 576, 577, 578, 579, 580, 581, 582, 583, 584, 585, 586, 587, 588, 589, 590, 591, 592, 593, 594, 595, 596, 597, 598, 599, 600, 601, 602, 603, 604, 605, 606, 607, 608, 609, 610, 611, 612, 613, 614, 615, 616, 617, 618, 619, 620, 621, 622, 623, 624, 625, 626, 627, 628, 629, 630, 631, 632, 633, 634, 635, 636, 637, 638, 639, 640, 641, 642, 643, 644, 645, 646, 647, 648, 649, 650, 651, 652, 653, 654, 655, 656, 657, 658, 659, 660, 661, 662, 663, 664, 665, 666, 667, 668, 669, 670, 671, 672, 673, 674, 675, 676, 677, 678, 679, 680, 681, 682, 683, 684, 685, 686, 687, 688, 689, 690, 691, 692, 693, 694, 695, 696, 697, 698, 699, 700, 701, 702, 703, 704, 705, 706, 707, 708, 709, 710, 711, 712, 713, 714, 715, 716, 717, 718, 719, 720, 721, 722, 723, 724, 725, 726, 727, 728, 729, 730, 731, 732, 733, 734, 735, 736, 737, 738, 739, 740, 741, 742, 743, 744, 745, 746, 747, 748, 749, 750, 751, 752, 753, 754, 755, 756, 757, 758, 759, 760, 761, 762, 763, 764, 765, 766, 767, 768, 769, 770, 771, 772, 773, 774, 775, 776, 777, 778, 779, 780, 781, 782, 783, 784, 785, 786, 787, 788, 789, 790, 791, 792, 793, 794, 795, 796, 797, 798, 799, 800, 801, 802, 803, 804, 805, 806, 807, 808, 809, 810, 811, 812, 813, 814, 815, 816, 817, 818, 819, 820, 821, 822, 823, 824, 825, 826, 827, 828, 829, 830, 831, 832, 833, 834, 835, 836, 837, 838, 839, 840, 841, 842, 843, 844, 845, 846, 847, 848, 849, 850, 851, 852, 853, 854, 855, 856, 857, 858, 859, 860, 861, 862, 863, 864, 865, 866, 867, 868, 869, 870, 871, 872, 873, 874, 875, 876, 877, 878, 879, 880, 881, 882, 883, 884, 885, 886, 887, 888, 889, 890, 891, 892, 893, 894, 895, 896, 897, 898, 899, 900, 901, 902, 903, 904, 905, 906, 907, 908, 909, 910, 911, 912, 913, 914, 915, 916, 917, 918, 919, 920, 921, 922, 923, 924, 925, 926, 927, 928, 929, 930, 931, 932, 933, 934, 935, 936, 937, 938, 939, 940, 941, 942, 943, 944, 945, 946, 947, 948, 949, 950, 951, 952, 953, 954, 955, 956, 957, 958, 959, 960, 961, 962, 963, 964, 965, 966, 967, 968, 969, 970, 971, 972, 973, 974, 975, 976, 977, 978, 979, 980, 981, 982, 983, 984, 985, 986, 987, 988, 989, 990, 991, 992, 993, 994, 995, 996, 997, 998, 999, 1000, 1001, 1002, 1003, 1004, 1005, 1006, 1007, 1008, 1009, 1010, 1011, 1012, 1013, 1014, 1015, 1016],
      "AcquisitionTime": ["124820.410000", "124820.870000", "124821.330000", "124821.790000", "124822.250000", "124822.710000", "124823.170000", "124823.630000", "124824.090000", "124824.550000", "124825.010000", "124825.470000", "124825.930000", "124826.390000", "124826.850000", "124827.310000", "124827.770000", "124828.230000", "124828.690000", "124829.150000", "124829.610000", "124830.070000", "124830.530000", "124830.990000", "124831.450000", "124831.910000", "124832.370000", "124832.830000", "124833.290000", "124833.750000", "124834.210000", "124834.670000", "124835.130000", "124835.590000", "124836.050000", "124836.510000", "124836.970000", "124837.430000", "124837.890000", "124838.350000", "124838.810000", "124839.270000", "124839.730000", "124840.190000", "124840.650000", "124841.110000", "124841.570000", "124842.030000", "124842.490000", "124842.950000", "124843.410000", "124843.870000", "124844.330000", "124844.790000", "124845.250000", "124845.710000", "124846.170000", "124846.630000", "124847.090000", "124847.550000", "124848.010000", "124848.470000", "124848.930000", "124849.390000", "124849.850000", "124850.310000", "124850.770000", "124851.230000", "124851.690000", "124852.150000", "124852.610000", "124853.070000", "124853.530000", "124853.990000", "124854.450000", "124854.910000", "124855.370000", "124855.830000", "124856.290000", "124856.750000", "124857.210000", "124857.670000", "124858.130000", "124858.590000", "124859.050000", "124859.510000", "124859.970000", "124900.430000", "124900.890000", "124901.350000", "124901.810000", "124902.270000", "124902.730000", "124903.190000", "124903.650000", "124904.110000", "124904.570000", "124905.030000", "124905.490000", "124905.950000", "124906.410000", "124906.870000", "124907.330000", "124907.790000", "124908.250000", "124908.710000", "124909.170000", "124909.630000", "124910.090000", "124910.550000", "124911.010000", "124911.470000", "124911.930000", "124912.390000", "124912.850000", "124913.310000", "124913.770000", "124914.230000", "124914.690000", "124915.150000", "124915.610000", "124916.070000", "124916.530000", "124916.990000", "124917.450000", "124917.910000", "124918.370000", "124918.830000", "124919.290000", "124919.750000", "124920.210000", "124920.670000", "124921.130000", "124921.590000", "124922.050000", "124922.510000", "124922.970000", "124923.430000", "124923.890000", "124924.350000", "124924.810000", "124925.270000", "124925.730000", "124926.190000", "124926.650000", "124927.110000", "124927.570000", "124928.030000", "124928.490000", "124928.950000", "124929.410000", "124929.870000", "124930.330000", "124930.790000", "124931.250000", "124931.710000", "124932.170000", "124932.630000", "124933.090000", "124933.550000", "124934.010000", "124934.470000", "124934.930000", "124935.390000", "124935.850000", "124936.310000", "124936.770000", "124937.230000", "124937.690000", "124938.150000", "124938.610000", "124939.070000", "124939.530000", "124939.990000", "124940.450000", "124940.910000", "124941.370000", "124941.830000", "124942.290000", "124942.750000", "124943.210000", "124943.670000", "124944.130000", "124944.590000", "124945.050000", "124945.510000", "124945.970000", "124946.430000", "124946.890000", "124947.350000", "124947.810000", "124948.270000", "124948.730000", "124949.190000", "124949.650000", "124950.110000", "124950.570000", "124951.030000", "124951.490000", "124951.950000", "124952.410000", "124952.870000", "124953.330000", "124953.790000", "124954.250000", "124954.710000", "124955.170000", "124955.630000", "124956.090000", "124956.550000", "124957.010000", "124957.470000", "124957.930000", "124958.390000", "124958.850000", "124959.310000", "124959.770000", "125000.230000", "125000.690000", "125001.150000", "125001.610000", "125002.070000", "125002.530000", "125002.990000", "125003.450000", "125003.910000", "125004.370000", "125004.830000", "125005.290000", "125005.750000", "125006.210000", "125006.670000", "125007.130000", "125007.590000", "125008.050000", "125008.510000", "125008.970000", "125009.430000", "125009.890000", "125010.350000", "125010.810000", "125011.270000", "125011.730000", "125012.190000", "125012.650000", "125013.110000", "125013.570000", "125014.030000", "125014.490000", "125014.950000", "125015.410000", "125015.870000", "125016.330000", "125016.790000", "125017.250000", "125017.710000", "125018.170000", "125018.630000", "125019.090000", "125019.550000", "125020.010000", "125020.470000", "125020.930000", "125021.390000", "125021.850000", "125022.310000", "125022.770000", "125023.230000", "125023.690000", "125024.150000", "125024.610000", "125025.070000", "125025.530000", "125025.990000", "125026.450000", "125026.910000", "125027.370000", "125027.830000", "125028.290000", "125028.750000", "125029.210000", "125029.670000", "125030.130000", "125030.590000", "125031.050000", "125031.510000", "125031.970000", "125032.430000", "125032.890000", "125033.350000", "125033.810000", "125034.270000", "125034.730000", "125035.190000", "125035.650000", "125036.110000", "125036.570000", "125037.030000", "125037.490000", "125037.950000", "125038.410000", "125038.870000", "125039.330000", "125039.790000", "125040.250000", "125040.710000", "125041.170000", "125041.630000", "125042.090000", "125042.550000", "125043.010000", "125043.470000", "125043.930000", "125044.390000", "125044.850000", "125045.310000", "125045.770000", "125046.230000", "125046.690000", "125047.150000", "125047.610000", "125048.070000", "125048.530000", "125048.990000", "125049.450000", "125049.910000", "125050.370000", "125050.830000", "125051.290000", "125051.750000", "125052.210000", "125052.670000", "125053.130000", "125053.590000", "125054.050000", "125054.510000", "125054.970000", "125055.430000", "125055.890000", "125056.350000", "125056.810000", "125057.270000", "125057.730000", "125058.190000", "125058.650000", "125059.110000", "125059.570000", "125100.030000", "125100.490000", "125100.950000", "125101.410000", "125101.870000", "125102.330000", "125102.790000", "125103.250000", "125103.710000", "125104.170000", "125104.630000", "125105.090000", "125105.550000", "125106.010000", "125106.470000", "125106.930000", "125107.390000", "125107.850000", "125108.310000", "125108.770000", "125109.230000", "125109.690000", "125110.150000", "125110.610000", "125111.070000", "125111.530000", "125111.990000", "125112.450000", "125112.910000", "125113.370000", "125113.830000", "125114.290000", "125114.750000", "125115.210000", "125115.670000", "125116.130000", "125116.590000", "125117.050000", "125117.510000", "125117.970000", "125118.430000", "125118.890000", "125119.350000", "125119.810000", "125120.270000", "125120.730000", "125121.190000", "125121.650000", "125122.110000", "125122.570000", "125123.030000", "125123.490000", "125123.950000", "125124.410000", "125124.870000", "125125.330000", "125125.790000", "125126.250000", "125126.710000", "125127.170000", "125127.630000", "125128.090000", "125128.550000", "125129.010000", "125129.470000", "125129.930000", "125130.390000", "125130.850000", "125131.310000", "125131.770000", "125132.230000", "125132.690000", "125133.150000", "125133.610000", "125134.070000", "125134.530000", "125134.990000", "125135.450000", "125135.910000", "125136.370000", "125136.830000", "125137.290000", "125137.750000", "125138.210000", "125138.670000", "125139.130000", "125139.590000", "125140.050000", "125140.510000", "125140.970000", "125141.430000", "125141.890000", "125142.350000", "125142.810000", "125143.270000", "125143.730000", "125144.190000", "125144.650000", "125145.110000", "125145.570000", "125146.030000", "125146.490000", "125146.950000", "125147.410000", "125147.870000", "125148.330000", "125148.790000", "125149.250000", "125149.710000", "125150.170000", "125150.630000", "125151.090000", "125151.550000", "125152.010000", "125152.470000", "125152.930000", "125153.390000", "125153.850000", "125154.310000", "125154.770000", "125155.230000", "125155.690000", "125156.150000", "125156.610000", "125157.070000", "125157.530000", "125157.990000", "125158.450000", "125158.910000", "125159.370000", "125159.830000", "125200.290000", "125200.750000", "125201.210000", "125201.670000", "125202.130000", "125202.590000", "125203.050000", "125203.510000", "125203.970000", "125204.430000", "125204.890000", "125205.350000", "125205.810000", "125206.270000", "125206.730000", "125207.190000", "125207.650000", "125208.110000", "125208.570000", "125209.030000", "125209.490000", "125209.950000", "125210.410000", "125210.870000", "125211.330000", "125211.790000", "125212.250000", "125212.710000", "125213.170000", "125213.630000", "125214.090000", "125214.550000", "125215.010000", "125215.470000", "125215.930000", "125216.390000", "125216.850000", "125217.310000", "125217.770000", "125218.230000", "125218.690000", "125219.150000", "125219.610000", "125220.070000", "125220.530000", "125220.990000", "125221.450000", "125221.910000", "125222.370000", "125222.830000", "125223.290000", "125223.750000", "125224.210000", "125224.670000", "125225.130000", "125225.590000", "125226.050000", "125226.510000", "125226.970000", "125227.430000", "125227.890000", "125228.350000", "125228.810000", "125229.270000", "125229.730000", "125230.190000", "125230.650000", "125231.110000", "125231.570000", "125232.030000", "125232.490000", "125232.950000", "125233.410000", "125233.870000", "125234.330000", "125234.790000", "125235.250000", "125235.710000", "125236.170000", "125236.630000", "125237.090000", "125237.550000", "125238.010000", "125238.470000", "125238.930000", "125239.390000", "125239.850000", "125240.310000", "125240.770000", "125241.230000", "125241.690000", "125242.150000", "125242.610000", "125243.070000", "125243.530000", "125243.990000", "125244.450000", "125244.910000", "125245.370000", "125245.830000", "125246.290000", "125246.750000", "125247.210000", "125247.670000", "125248.130000", "125248.590000", "125249.050000", "125249.510000", "125249.970000", "125250.430000", "125250.890000", "125251.350000", "125251.810000", "125252.270000", "125252.730000", "125253.190000", "125253.650000", "125254.110000", "125254.570000", "125255.030000", "125255.490000", "125255.950000", "125256.410000", "125256.870000", "125257.330000", "125257.790000", "125258.250000", "125258.710000", "125259.170000", "125259.630000", "125300.090000", "125300.550000", "125301.010000", "125301.470000", "125301.930000", "125302.390000", "125302.850000", "125303.310000", "125303.770000", "125304.230000", "125304.690000", "125305.150000", "125305.610000", "125306.070000", "125306.530000", "125306.990000", "125307.450000", "125307.910000", "125308.370000", "125308.830000", "125309.290000", "125309.750000", "125310.210000", "125310.670000", "125311.130000", "125311.590000", "125312.050000", "125312.510000", "125312.970000", "125313.430000", "125313.890000", "125314.350000", "125314.810000", "125315.270000", "125315.730000", "125316.190000", "125316.650000", "125317.110000", "125317.570000", "125318.030000", "125318.490000", "125318.950000", "125319.410000", "125319.870000", "125320.330000", "125320.790000", "125321.250000", "125321.710000", "125322.170000", "125322.630000", "125323.090000", "125323.550000", "125324.010000", "125324.470000", "125324.930000", "125325.390000", "125325.850000", "125326.310000", "125326.770000", "125327.230000", "125327.690000", "125328.150000", "125328.610000", "125329.070000", "125329.530000", "125329.990000", "125330.450000", "125330.910000", "125331.370000", "125331.830000", "125332.290000", "125332.750000", "125333.210000", "125333.670000", "125334.130000", "125334.590000", "125335.050000", "125335.510000", "125335.970000", "125336.430000", "125336.890000", "125337.350000", "125337.810000", "125338.270000", "125338.730000", "125339.190000", "125339.650000", "125340.110000", "125340.570000", "125341.030000", "125341.490000", "125341.950000", "125342.410000", "125342.870000", "125343.330000", "125343.790000", "125344.250000", "125344.710000", "125345.170000", "125345.630000", "125346.090000", "125346.550000", "125347.010000", "125347.470000", "125347.930000", "125348.390000", "125348.850000", "125349.310000", "125349.770000", "125350.230000", "125350.690000", "125351.150000", "125351.610000", "125352.070000", "125352.530000", "125352.990000", "125353.450000", "125353.910000", "125354.370000", "125354.830000", "125355.290000", "125355.750000", "125356.210000", "125356.670000", "125357.130000", "125357.590000", "125358.050000", "125358.510000", "125358.970000", "125359.430000", "125359.890000", "125400.350000", "125400.810000", "125401.270000", "125401.730000", "125402.190000", "125402.650000", "125403.110000", "125403.570000", "125404.030000", "125404.490000", "125404.950000", "125405.410000", "125405.870000", "125406.330000", "125406.790000", "125407.250000", "125407.710000", "125408.170000", "125408.630000", "125409.090000", "125409.550000", "125410.010000", "125410.470000", "125410.930000", "125411.390000", "125411.850000", "125412.310000", "125412.770000", "125413.230000", "125413.690000", "125414.150000", "125414.610000", "125415.070000", "125415.530000", "125415.990000", "125416.450000", "125416.910000", "125417.370000", "125417.830000", "125418.290000", "125418.750000", "125419.210000", "125419.670000", "125420.130000", "125420.590000", "125421.050000", "125421.510000", "125421.970000", "125422.430000", "125422.890000", "125423.350000", "125423.810000", "125424.270000", "125424.730000", "125425.190000", "125425.650000", "125426.110000", "125426.570000", "125427.030000", "125427.490000", "125427.950000", "125428.410000", "125428.870000", "125429.330000", "125429.790000", "125430.250000", "125430.710000", "125431.170000", "125431.630000", "125432.090000", "125432.550000", "125433.010000", "125433.470000", "125433.930000", "125434.390000", "125434.850000", "125435.310000", "125435.770000", "125436.230000", "125436.690000", "125437.150000", "125437.610000", "125438.070000", "125438.530000", "125438.990000", "125439.450000", "125439.910000", "125440.370000", "125440.830000", "125441.290000", "125441.750000", "125442.210000", "125442.670000", "125443.130000", "125443.590000", "125444.050000", "125444.510000", "125444.970000", "125445.430000", "125445.890000", "125446.350000", "125446.810000", "125447.270000", "125447.730000", "125448.190000", "125448.650000", "125449.110000", "125449.570000", "125450.030000", "125450.490000", "125450.950000", "125451.410000", "125451.870000", "125452.330000", "125452.790000", "125453.250000", "125453.710000", "125454.170000", "125454.630000", "125455.090000", "125455.550000", "125456.010000", "125456.470000", "125456.930000", "125457.390000", "125457.850000", "125458.310000", "125458.770000", "125459.230000", "125459.690000", "125500.150000", "125500.610000", "125501.070000", "125501.530000", "125501.990000", "125502.450000", "125502.910000", "125503.370000", "125503.830000", "125504.290000", "125504.750000", "125505.210000", "125505.670000", "125506.130000", "125506.590000", "125507.050000", "125507.510000", "125507.970000", "125508.430000", "125508.890000", "125509.350000", "125509.810000", "125510.270000", "125510.730000", "125511.190000", "125511.650000", "125512.110000", "125512.570000", "125513.030000", "125513.490000", "125513.950000", "125514.410000", "125514.870000", "125515.330000", "125515.790000", "125516.250000", "125516.710000", "125517.170000", "125517.630000", "125518.090000", "125518.550000", "125519.010000", "125519.470000", "125519.930000", "125520.390000", "125520.850000", "125521.310000", "125521.770000", "125522.230000", "125522.690000", "125523.150000", "125523.610000", "125524.070000", "125524.530000", "125524.990000", "125525.450000", "125525.910000", "125526.370000", "125526.830000", "125527.290000", "125527.750000", "125528.210000", "125528.670000", "125529.130000", "125529.590000", "125530.050000", "125530.510000", "125530.970000", "125531.430000", "125531.890000", "125532.350000", "125532.810000", "125533.270000", "125533.730000", "125534.190000", "125534.650000", "125535.110000", "125535.570000", "125536.030000", "125536.490000", "125536.950000", "125537.410000", "125537.870000", "125538.330000", "125538.790000", "125539.250000", "125539.710000", "125540.170000", "125540.630000", "125541.090000", "125541.550000", "125542.010000", "125542.470000", "125542.930000", "125543.390000", "125543.850000", "125544.310000", "125544.770000", "125545.230000", "125545.690000", "125546.150000", "125546.610000", "125547.070000", "125547.530000", "125547.990000", "125548.450000", "125548.910000", "125549.370000", "125549.830000", "125550.290000", "125550.750000", "125551.210000", "125551.670000", "125552.130000", "125552.590000", "125553.050000", "125553.510000", "125553.970000", "125554.430000", "125554.890000", "125555.350000", "125555.810000", "125556.270000", "125556.730000", "125557.190000", "125557.650000", "125558.110000", "125558.570000", "125559.030000", "125559.490000", "125559.950000", "125600.410000", "125600.870000", "125601.330000", "125601.790000", "125602.250000", "125602.710000", "125603.170000", "125603.630000", "125604.090000", "125604.550000", "125605.010000", "125605.470000", "125605.930000", "125606.390000", "125606.850000", "125607.310000"],
