{
  "AcquisitionMatrixPE": 82,
  "AcquisitionNumber": 1,
  "AcquisitionTime": "12:01:16.305000",
  "BandwidthPerPixelPhaseEncode": 24.888,
  "BaseResolution": 82,
  "BodyPartExamined": "BRAIN",
  "ConsistencyInfo": "N4_VE11E_LATEST_20181129",
  "ConversionSoftware": "dcm2niix",
  "ConversionSoftwareVersion": "v1.0.20201102",
  "DerivedVendorReportedEchoSpacing": 0.00049,
  "DeviceSerialNumber": "66112",
  "DwellTime": 2e-06,
  "EchoTime": 0.0272,
  "EchoTrainLength": 82,
  "EffectiveEchoSpacing": 0.00049,
  "FlipAngle": 44,
  "ImageComments": "Unaliased MB8/PE3",
  "ImageOrientationPatientDICOM": [0.996098, 0.0223451, -0.085374, -0.024866, 0.999282, -0.0285787],
  "ImageType": [
    "ORIGINAL",
    "PRIMARY",
    "M",
    "MB",
    "ND",
    "NORM",
    "MOSAIC"
],
  "ImagingFrequency": 123.252,
  "InPlanePhaseEncodingDirectionDICOM": "COL",
  "InstitutionAddress": "Maynard 3,Hanover,NH,US,03755",
  "InstitutionName": "Dartmouth College - PBS",
  "InstitutionalDepartmentName": "Department",
  "MRAcquisitionType": "2D",
  "MagneticFieldStrength": 3,
  "Manufacturer": "Siemens",
  "ManufacturersModelName": "Prisma",
  "Modality": "MR",
  "MultibandAccelerationFactor": 8,
  "PartialFourier": 1,
  "PatientPosition": "HFS",
  "PercentPhaseFOV": 100,
  "PercentSampling": 100,
  "PhaseEncodingDirection": "j-",
  "PhaseEncodingSteps": 82,
  "PhaseResolution": 1,
  "PixelBandwidth": 3050,
  "ProcedureStepDescription": "Wager_Wager^1076_spacetop",
  "ProtocolName": "func_run-04_task-social_acq-ap-mb8",
  "PulseSequenceDetails": "%CustomerSeq%\\cmrr_mbep2d_bold",
  "ReceiveCoilActiveElements": "HEA;HEP",
  "ReceiveCoilName": "Head_32",
  "ReconMatrixPE": 82,
  "RepetitionTime": 0.46,
  "SAR": 0.105946,
  "ScanOptions": "FS",
  "ScanningSequence": "EP",
  "SequenceName": "epfid2d1_82",
  "SequenceVariant": "SK\\SS",
  "SeriesDescription": "func_run-04_task-social_acq-ap-mb8",
  "SeriesNumber": 18,
  "ShimSetting": [4121, -7714, -7286, 630, -89, -38, 4, 116],
  "SliceThickness": 2.7,
  "SliceTiming": [0, 0.2525, 0.065, 0.315, 0.1275, 0.3775, 0.19, 0, 0.2525, 0.065, 0.315, 0.1275, 0.3775, 0.19, 0, 0.2525, 0.065, 0.315, 0.1275, 0.3775, 0.19, 0, 0.2525, 0.065, 0.315, 0.1275, 0.3775, 0.19, 0, 0.2525, 0.065, 0.315, 0.1275, 0.3775, 0.19, 0, 0.2525, 0.065, 0.315, 0.1275, 0.3775, 0.19, 0, 0.2525, 0.065, 0.315, 0.1275, 0.3775, 0.19, 0, 0.2525, 0.065, 0.315, 0.1275, 0.3775, 0.19],
  "SoftwareVersions": "syngo MR E11",
  "SpacingBetweenSlices": 2.7,
  "StationName": "AWP66112",
  "TaskName": "social",
  "TotalReadoutTime": 0.03969,
  "TxRefAmp": 255.766,
  "WipMemBlock": "3d53f0de-044a-48c4-9481-a9cc4541a10f||Sequence: R016 ve11e/master r/434b28f1; Aug  7 2019 18:53:46 by eja",
  "dcmmeta_affine": [
    [-2.672459125518799, -0.06671367585659027, -0.2286200225353241, 118.4611587524414],
    [-0.05995040014386177, 2.6810011863708496, -0.08259332180023193, -88.66121673583984],
    [-0.2290520817041397, 0.07667459547519684, 2.689035415649414, -73.95065307617188],
    [0.0, 0.0, 0.0, 1.0]
],
  "dcmmeta_reorient_transform": [
    [0.0, -1.0, 0.0, 81.0],
    [1.0, 0.0, 0.0, 0.0],
    [0.0, 0.0, 1.0, 0.0],
    [0.0, 0.0, 0.0, 1.0]
],
  "dcmmeta_shape": [82, 82, 56, 872],
  "dcmmeta_slice_dim": 2,
  "dcmmeta_version": 0.6,
  "global": {
    "const": {
      "AccessionNumber": "A003920",
      "AcquisitionMatrix": [82, 0, 0, 82],
      "AngioFlag": "N",
      "BitsAllocated": 16,
      "BitsStored": 16,
      "BodyPartExamined": "BRAIN",
      "Columns": 656,
      "EchoNumbers": 1,
      "EchoTime": 27.2,
      "EchoTrainLength": 82,
      "FlipAngle": 44.0,
      "HighBit": 15,
      "ImageOrientationPatient": [0.99609837957701, 0.02234514897981, -0.0853739569256, -0.0248660054661, 0.99928221184367, -0.0285787134943],
      "ImagePositionPatient": [-860.90629514019, -915.15296001272, 20.003549198692],
      "ImageType": [
        "ORIGINAL",
        "PRIMARY",
        "M",
        "MB",
        "ND",
        "NORM",
        "MOSAIC"
],
      "ImagedNucleus": "1H",
      "ImagingFrequency": 123.252201,
      "InPlanePhaseEncodingDirection": "COL",
      "MRAcquisitionType": "2D",
      "MagneticFieldStrength": 3.0,
      "Manufacturer": "SIEMENS",
      "ManufacturerModelName": "Prisma",
      "Modality": "MR",
      "NumberOfAverages": 1.0,
      "NumberOfPhaseEncodingSteps": 82,
      "PercentPhaseFieldOfView": 100.0,
      "PercentSampling": 100.0,
      "PerformedProcedureStepStartTime": "105329.455000",
      "PhotometricInterpretation": "MONOCHROME2",
      "PixelBandwidth": 3050.0,
      "PixelRepresentation": 0,
      "PixelSpacing": [2.6829268932343, 2.6829268932343],
      "ProtocolName": "func_run-04_task-social_acq-ap-mb8",
      "RepetitionTime": 460.0,
      "Rows": 656,
      "SAR": 0.10594556926288,
      "SamplesPerPixel": 1,
      "ScanOptions": "FS",
      "ScanningSequence": "EP",
      "SequenceName": "epfid2d1_82",
      "SequenceVariant": [
        "SK",
        "SS"
],
      "SeriesDescription": "func_run-04_task-social_acq-ap-mb8",
      "SeriesNumber": 18,
      "SeriesTime": "120137.851000",
      "SliceLocation": -80.968772356001,
      "SliceThickness": 2.7000000476837,
      "SmallestImagePixelValue": 0,
      "SoftwareVersions": "syngo MR E11",
      "SpacingBetweenSlices": 2.7000000791559,
      "SpecificCharacterSet": "ISO_IR 100",
      "StudyID": "1",
      "StudyTime": "105329.363000",
      "TransmitCoilName": "Body",
      "VariableFlipAngleFlag": "N",
      "WindowCenterWidthExplanation": "Algo1"
    },
    "slices": {}
  },
  "time": {
    "samples": {
      "AcquisitionNumber": [1, 2, 3, 4, 5, 6, 7, 8, 9, 10, 11, 12, 13, 14, 15, 16, 17, 18, 19, 20, 21, 22, 23, 24, 25, 26, 27, 28, 29, 30, 31, 32, 33, 34, 35, 36, 37, 38, 39, 40, 41, 42, 43, 44, 45, 46, 47, 48, 49, 50, 51, 52, 53, 54, 55, 56, 57, 58, 59, 60, 61, 62, 63, 64, 65, 66, 67, 68, 69, 70, 71, 72, 73, 74, 75, 76, 77, 78, 79, 80, 81, 82, 83, 84, 85, 86, 87, 88, 89, 90, 91, 92, 93, 94, 95, 96, 97, 98, 99, 100, 101, 102, 103, 104, 105, 106, 107, 108, 109, 110, 111, 112, 113, 114, 115, 116, 117, 118, 119, 120, 121, 122, 123, 124, 125, 126, 127, 128, 129, 130, 131, 132, 133, 134, 135, 136, 137, 138, 139, 140, 141, 142, 143, 144, 145, 146, 147, 148, 149, 150, 151, 152, 153, 154, 155, 156, 157, 158, 159, 160, 161, 162, 163, 164, 165, 166, 167, 168, 169, 170, 171, 172, 173, 174, 175, 176, 177, 178, 179, 180, 181, 182, 183, 184, 185, 186, 187, 188, 189, 190, 191, 192, 193, 194, 195, 196, 197, 198, 199, 200, 201, 202, 203, 204, 205, 206, 207, 208, 209, 210, 211, 212, 213, 214, 215, 216, 217, 218, 219, 220, 221, 222, 223, 224, 225, 226, 227, 228, 229, 230, 231, 232, 233, 234, 235, 236, 237, 238, 239, 240, 241, 242, 243, 244, 245, 246, 247, 248, 249, 250, 251, 252, 253, 254, 255, 256, 257, 258, 259, 260, 261, 262, 263, 264, 265, 266, 267, 268, 269, 270, 271, 272, 273, 274, 275, 276, 277, 278, 279, 280, 281, 282, 283, 284, 285, 286, 287, 288, 289, 290, 291, 292, 293, 294, 295, 296, 297, 298, 299, 300, 301, 302, 303, 304, 305, 306, 307, 308, 309, 310, 311, 312, 313, 314, 315, 316, 317, 318, 319, 320, 321, 322, 323, 324, 325, 326, 327, 328, 329, 330, 331, 332, 333, 334, 335, 336, 337, 338, 339, 340, 341, 342, 343, 344, 345, 346, 347, 348, 349, 350, 351, 352, 353, 354, 355, 356, 357, 358, 359, 360, 361, 362, 363, 364, 365, 366, 367, 368, 369, 370, 371, 372, 373, 374, 375, 376, 377, 378, 379, 380, 381, 382, 383, 384, 385, 386, 387, 388, 389, 390, 391, 392, 393, 394, 395, 396, 397, 398, 399, 400, 401, 402, 403, 404, 405, 406, 407, 408, 409, 410, 411, 412, 413, 414, 415, 416, 417, 418, 419, 420, 421, 422, 423, 424, 425, 426, 427, 428, 429, 430, 431, 432, 433, 434, 435, 436, 437, 438, 439, 440, 441, 442, 443, 444, 445, 446, 447, 448, 449, 450, 451, 452, 453, 454, 455, 456, 457, 458, 459, 460, 461, 462, 463, 464, 465, 466, 467, 468, 469, 470, 471, 472, 473, 474, 475, 476, 477, 478, 479, 480, 481, 482, 483, 484, 485, 486, 487, 488, 489, 490, 491, 492, 493, 494, 495, 496, 497, 498, 499, 500, 501, 502, 503, 504, 505, 506, 507, 508, 509, 510, 511, 512, 513, 514, 515, 516, 517, 518, 519, 520, 521, 522, 523, 524, 525, 526, 527, 528, 529, 530, 531, 532, 533, 534, 535, 536, 537, 538, 539, 540, 541, 542, 543, 544, 545, 546, 547, 548, 549, 550, 551, 552, 553, 554, 555, 556, 557, 558, 559, 560, 561, 562, 563, 564, 565, 566, 567, 568, 569, 570, 571, 572, 573, 574, 575, 576, 577, 578, 579, 580, 581, 582, 583, 584, 585, 586, 587, 588, 589, 590, 591, 592, 593, 594, 595, 596, 597, 598, 599, 600, 601, 602, 603, 604, 605, 606, 607, 608, 609, 610, 611, 612, 613, 614, 615, 616, 617, 618, 619, 620, 621, 622, 623, 624, 625, 626, 627, 628, 629, 630, 631, 632, 633, 634, 635, 636, 637, 638, 639, 640, 641, 642, 643, 644, 645, 646, 647, 648, 649, 650, 651, 652, 653, 654, 655, 656, 657, 658, 659, 660, 661, 662, 663, 664, 665, 666, 667, 668, 669, 670, 671, 672, 673, 674, 675, 676, 677, 678, 679, 680, 681, 682, 683, 684, 685, 686, 687, 688, 689, 690, 691, 692, 693, 694, 695, 696, 697, 698, 699, 700, 701, 702, 703, 704, 705, 706, 707, 708, 709, 710, 711, 712, 713, 714, 715, 716, 717, 718, 719, 720, 721, 722, 723, 724, 725, 726, 727, 728, 729, 730, 731, 732, 733, 734, 735, 736, 737, 738, 739, 740, 741, 742, 743, 744, 745, 746, 747, 748, 749, 750, 751, 752, 753, 754, 755, 756, 757, 758, 759, 760, 761, 762, 763, 764, 765, 766, 767, 768, 769, 770, 771, 772, 773, 774, 775, 776, 777, 778, 779, 780, 781, 782, 783, 784, 785, 786, 787, 788, 789, 790, 791, 792, 793, 794, 795, 796, 797, 798, 799, 800, 801, 802, 803, 804, 805, 806, 807, 808, 809, 810, 811, 812, 813, 814, 815, 816, 817, 818, 819, 820, 821, 822, 823, 824, 825, 826, 827, 828, 829, 830, 831, 832, 833, 834, 835, 836, 837, 838, 839, 840, 841, 842, 843, 844, 845, 846, 847, 848, 849, 850, 851, 852, 853, 854, 855, 856, 857, 858, 859, 860, 861, 862, 863, 864, 865, 866, 867, 868, 869, 870, 871, 872],
      "AcquisitionTime": ["120116.305000", "120116.765000", "120117.225000", "120117.685000", "120118.145000", "120118.605000", "120119.065000", "120119.525000", "120119.985000", "120120.445000", "120120.905000", "120121.365000", "120121.825000", "120122.285000", "120122.745000", "120123.205000", "120123.665000", "120124.125000", "120124.585000", "120125.045000", "120125.505000", "120125.965000", "120126.425000", "120126.885000", "120127.345000", "120127.805000", "120128.265000", "120128.725000", "120129.185000", "120129.645000", "120130.105000", "120130.565000", "120131.025000", "120131.485000", "120131.945000", "120132.405000", "120132.865000", "120133.325000", "120133.785000", "120134.245000", "120134.705000", "120135.165000", "120135.625000", "120136.085000", "120136.545000", "120137.005000", "120137.465000", "120137.925000", "120138.385000", "120138.845000", "120139.305000", "120139.765000", "120140.225000", "120140.685000", "120141.145000", "120141.605000", "120142.065000", "120142.525000", "120142.985000", "120143.445000", "120143.905000", "120144.365000", "120144.825000", "120145.285000", "120145.745000", "120146.205000", "120146.665000", "120147.125000", "120147.585000", "120148.045000", "120148.505000", "120148.965000", "120149.425000", "120149.885000", "120150.345000", "120150.805000", "120151.265000", "120151.725000", "120152.185000", "120152.645000", "120153.105000", "120153.565000", "120154.025000", "120154.485000", "120154.945000", "120155.405000", "120155.865000", "120156.325000", "120156.785000", "120157.245000", "120157.705000", "120158.165000", "120158.625000", "120159.085000", "120159.545000", "120200.005000", "120200.465000", "120200.925000", "120201.385000", "120201.845000", "120202.305000", "120202.765000", "120203.225000", "120203.685000", "120204.145000", "120204.605000", "120205.065000", "120205.525000", "120205.985000", "120206.445000", "120206.905000", "120207.365000", "120207.825000", "120208.285000", "120208.745000", "120209.205000", "120209.665000", "120210.125000", "120210.585000", "120211.045000", "120211.505000", "120211.965000", "120212.425000", "120212.885000", "120213.345000", "120213.805000", "120214.265000", "120214.725000", "120215.185000", "120215.645000", "120216.105000", "120216.565000", "120217.025000", "120217.485000", "120217.945000", "120218.405000", "120218.865000", "120219.325000", "120219.785000", "120220.245000", "120220.705000", "120221.165000", "120221.625000", "120222.085000", "120222.545000", "120223.005000", "120223.465000", "120223.925000", "120224.385000", "120224.845000", "120225.305000", "120225.765000", "120226.225000", "120226.685000", "120227.145000", "120227.605000", "120228.065000", "120228.525000", "120228.985000", "120229.445000", "120229.905000", "120230.365000", "120230.825000", "120231.285000", "120231.745000", "120232.205000", "120232.665000", "120233.125000", "120233.585000", "120234.045000", "120234.505000", "120234.965000", "120235.425000", "120235.885000", "120236.345000", "120236.805000", "120237.265000", "120237.725000", "120238.185000", "120238.645000", "120239.105000", "120239.565000", "120240.025000", "120240.485000", "120240.945000", "120241.405000", "120241.865000", "120242.325000", "120242.785000", "120243.245000", "120243.705000", "120244.165000", "120244.625000", "120245.085000", "120245.545000", "120246.005000", "120246.465000", "120246.925000", "120247.385000", "120247.845000", "120248.305000", "120248.765000", "120249.225000", "120249.685000", "120250.145000", "120250.605000", "120251.065000", "120251.525000", "120251.985000", "120252.445000", "120252.905000", "120253.365000", "120253.825000", "120254.285000", "120254.745000", "120255.205000", "120255.665000", "120256.125000", "120256.585000", "120257.045000", "120257.505000", "120257.965000", "120258.425000", "120258.885000", "120259.345000", "120259.805000", "120300.265000", "120300.725000", "120301.185000", "120301.645000", "120302.105000", "120302.565000", "120303.025000", "120303.485000", "120303.945000", "120304.405000", "120304.865000", "120305.325000", "120305.785000", "120306.245000", "120306.705000", "120307.165000", "120307.625000", "120308.085000", "120308.545000", "120309.005000", "120309.465000", "120309.925000", "120310.385000", "120310.845000", "120311.305000", "120311.765000", "120312.225000", "120312.685000", "120313.145000", "120313.605000", "120314.065000", "120314.525000", "120314.985000", "120315.445000", "120315.905000", "120316.365000", "120316.825000", "120317.285000", "120317.745000", "120318.205000", "120318.665000", "120319.125000", "120319.585000", "120320.045000", "120320.505000", "120320.965000", "120321.425000", "120321.885000", "120322.345000", "120322.805000", "120323.265000", "120323.725000", "120324.185000", "120324.645000", "120325.105000", "120325.565000", "120326.025000", "120326.485000", "120326.945000", "120327.405000", "120327.865000", "120328.325000", "120328.785000", "120329.245000", "120329.705000", "120330.165000", "120330.625000", "120331.085000", "120331.545000", "120332.005000", "120332.465000", "120332.925000", "120333.385000", "120333.845000", "120334.305000", "120334.765000", "120335.225000", "120335.685000", "120336.145000", "120336.605000", "120337.065000", "120337.525000", "120337.985000", "120338.445000", "120338.905000", "120339.365000", "120339.825000", "120340.285000", "120340.745000", "120341.205000", "120341.665000", "120342.125000", "120342.585000", "120343.045000", "120343.505000", "120343.965000", "120344.425000", "120344.885000", "120345.345000", "120345.805000", "120346.265000", "120346.725000", "120347.185000", "120347.645000", "120348.105000", "120348.565000", "120349.025000", "120349.485000", "120349.945000", "120350.405000", "120350.865000", "120351.325000", "120351.785000", "120352.245000", "120352.705000", "120353.165000", "120353.625000", "120354.085000", "120354.545000", "120355.005000", "120355.465000", "120355.925000", "120356.385000", "120356.845000", "120357.305000", "120357.765000", "120358.225000", "120358.685000", "120359.145000", "120359.605000", "120400.065000", "120400.525000", "120400.985000", "120401.445000", "120401.905000", "120402.365000", "120402.825000", "120403.285000", "120403.745000", "120404.205000", "120404.665000", "120405.125000", "120405.585000", "120406.045000", "120406.505000", "120406.965000", "120407.425000", "120407.885000", "120408.345000", "120408.805000", "120409.265000", "120409.725000", "120410.185000", "120410.645000", "120411.105000", "120411.565000", "120412.025000", "120412.485000", "120412.945000", "120413.405000", "120413.865000", "120414.325000", "120414.785000", "120415.245000", "120415.705000", "120416.165000", "120416.625000", "120417.085000", "120417.545000", "120418.005000", "120418.465000", "120418.925000", "120419.385000", "120419.845000", "120420.305000", "120420.765000", "120421.225000", "120421.685000", "120422.145000", "120422.605000", "120423.065000", "120423.525000", "120423.985000", "120424.445000", "120424.905000", "120425.365000", "120425.825000", "120426.285000", "120426.745000", "120427.205000", "120427.665000", "120428.125000", "120428.585000", "120429.045000", "120429.505000", "120429.965000", "120430.425000", "120430.885000", "120431.345000", "120431.805000", "120432.265000", "120432.725000", "120433.185000", "120433.645000", "120434.105000", "120434.565000", "120435.025000", "120435.485000", "120435.945000", "120436.405000", "120436.865000", "120437.325000", "120437.785000", "120438.245000", "120438.705000", "120439.165000", "120439.625000", "120440.085000", "120440.545000", "120441.005000", "120441.465000", "120441.925000", "120442.385000", "120442.845000", "120443.305000", "120443.765000", "120444.225000", "120444.685000", "120445.145000", "120445.605000", "120446.065000", "120446.525000", "120446.985000", "120447.445000", "120447.905000", "120448.365000", "120448.825000", "120449.285000", "120449.745000", "120450.205000", "120450.665000", "120451.125000", "120451.585000", "120452.045000", "120452.505000", "120452.965000", "120453.425000", "120453.885000", "120454.345000", "120454.805000", "120455.265000", "120455.725000", "120456.185000", "120456.645000", "120457.105000", "120457.565000", "120458.025000", "120458.485000", "120458.945000", "120459.405000", "120459.865000", "120500.325000", "120500.785000", "120501.245000", "120501.705000", "120502.165000", "120502.625000", "120503.085000", "120503.545000", "120504.005000", "120504.465000", "120504.925000", "120505.385000", "120505.845000", "120506.305000", "120506.765000", "120507.225000", "120507.685000", "120508.145000", "120508.605000", "120509.065000", "120509.525000", "120509.985000", "120510.445000", "120510.905000", "120511.365000", "120511.825000", "120512.285000", "120512.745000", "120513.205000", "120513.665000", "120514.125000", "120514.585000", "120515.045000", "120515.505000", "120515.965000", "120516.425000", "120516.885000", "120517.345000", "120517.805000", "120518.265000", "120518.725000", "120519.185000", "120519.645000", "120520.105000", "120520.565000", "120521.025000", "120521.485000", "120521.945000", "120522.405000", "120522.865000", "120523.325000", "120523.785000", "120524.245000", "120524.705000", "120525.165000", "120525.625000", "120526.085000", "120526.545000", "120527.005000", "120527.465000", "120527.925000", "120528.385000", "120528.845000", "120529.305000", "120529.765000", "120530.225000", "120530.685000", "120531.145000", "120531.605000", "120532.065000", "120532.525000", "120532.985000", "120533.445000", "120533.905000", "120534.365000", "120534.825000", "120535.285000", "120535.745000", "120536.205000", "120536.665000", "120537.125000", "120537.585000", "120538.045000", "120538.505000", "120538.965000", "120539.425000", "120539.885000", "120540.345000", "120540.805000", "120541.265000", "120541.725000", "120542.185000", "120542.645000", "120543.105000", "120543.565000", "120544.025000", "120544.485000", "120544.945000", "120545.405000", "120545.865000", "120546.325000", "120546.785000", "120547.245000", "120547.705000", "120548.165000", "120548.625000", "120549.085000", "120549.545000", "120550.005000", "120550.465000", "120550.925000", "120551.385000", "120551.845000", "120552.305000", "120552.765000", "120553.225000", "120553.685000", "120554.145000", "120554.605000", "120555.065000", "120555.525000", "120555.985000", "120556.445000", "120556.905000", "120557.365000", "120557.825000", "120558.285000", "120558.745000", "120559.205000", "120559.665000", "120600.125000", "120600.585000", "120601.045000", "120601.505000", "120601.965000", "120602.425000", "120602.885000", "120603.345000", "120603.805000", "120604.265000", "120604.725000", "120605.185000", "120605.645000", "120606.105000", "120606.565000", "120607.025000", "120607.485000", "120607.945000", "120608.405000", "120608.865000", "120609.325000", "120609.785000", "120610.245000", "120610.705000", "120611.165000", "120611.625000", "120612.085000", "120612.545000", "120613.005000", "120613.465000", "120613.925000", "120614.385000", "120614.845000", "120615.305000", "120615.765000", "120616.225000", "120616.685000", "120617.145000", "120617.605000", "120618.065000", "120618.525000", "120618.985000", "120619.445000", "120619.905000", "120620.365000", "120620.825000", "120621.285000", "120621.745000", "120622.205000", "120622.665000", "120623.125000", "120623.585000", "120624.045000", "120624.505000", "120624.965000", "120625.425000", "120625.885000", "120626.345000", "120626.805000", "120627.265000", "120627.725000", "120628.185000", "120628.645000", "120629.105000", "120629.565000", "120630.025000", "120630.485000", "120630.945000", "120631.405000", "120631.865000", "120632.325000", "120632.785000", "120633.245000", "120633.705000", "120634.165000", "120634.625000", "120635.085000", "120635.545000", "120636.005000", "120636.465000", "120636.925000", "120637.385000", "120637.845000", "120638.305000", "120638.765000", "120639.225000", "120639.685000", "120640.145000", "120640.605000", "120641.065000", "120641.525000", "120641.985000", "120642.445000", "120642.905000", "120643.365000", "120643.825000", "120644.285000", "120644.745000", "120645.205000", "120645.665000", "120646.125000", "120646.585000", "120647.045000", "120647.505000", "120647.965000", "120648.425000", "120648.885000", "120649.345000", "120649.805000", "120650.265000", "120650.725000", "120651.185000", "120651.645000", "120652.105000", "120652.565000", "120653.025000", "120653.485000", "120653.945000", "120654.405000", "120654.865000", "120655.325000", "120655.785000", "120656.245000", "120656.705000", "120657.165000", "120657.625000", "120658.085000", "120658.545000", "120659.005000", "120659.465000", "120659.925000", "120700.385000", "120700.845000", "120701.305000", "120701.765000", "120702.225000", "120702.685000", "120703.145000", "120703.605000", "120704.065000", "120704.525000", "120704.985000", "120705.445000", "120705.905000", "120706.365000", "120706.825000", "120707.285000", "120707.745000", "120708.205000", "120708.665000", "120709.125000", "120709.585000", "120710.045000", "120710.505000", "120710.965000", "120711.425000", "120711.885000", "120712.345000", "120712.805000", "120713.265000", "120713.725000", "120714.185000", "120714.645000", "120715.105000", "120715.565000", "120716.025000", "120716.485000", "120716.945000", "120717.405000", "120717.865000", "120718.325000", "120718.785000", "120719.245000", "120719.705000", "120720.165000", "120720.625000", "120721.085000", "120721.545000", "120722.005000", "120722.465000", "120722.925000", "120723.385000", "120723.845000", "120724.305000", "120724.765000", "120725.225000", "120725.685000", "120726.145000", "120726.605000", "120727.065000", "120727.525000", "120727.985000", "120728.445000", "120728.905000", "120729.365000", "120729.825000", "120730.285000", "120730.745000", "120731.205000", "120731.665000", "120732.125000", "120732.585000", "120733.045000", "120733.505000", "120733.965000", "120734.425000", "120734.885000", "120735.345000", "120735.805000", "120736.265000", "120736.725000", "120737.185000", "120737.645000", "120738.105000", "120738.565000", "120739.025000", "120739.485000", "120739.945000", "120740.405000", "120740.865000", "120741.325000", "120741.785000", "120742.245000", "120742.705000", "120743.165000", "120743.625000", "120744.085000", "120744.545000", "120745.005000", "120745.465000", "120745.925000", "120746.385000", "120746.845000", "120747.305000", "120747.765000", "120748.225000", "120748.685000", "120749.145000", "120749.605000", "120750.065000", "120750.525000", "120750.985000", "120751.445000", "120751.905000", "120752.365000", "120752.825000", "120753.285000", "120753.745000", "120754.205000", "120754.665000", "120755.125000", "120755.585000", "120756.045000", "120756.505000", "120756.965000"],
