{
  "AcquisitionMatrixPE": 82,
  "AcquisitionNumber": 1,
  "AcquisitionTime": "11:53:46.457500",
  "BandwidthPerPixelPhaseEncode": 24.888,
  "BaseResolution": 82,
  "BodyPartExamined": "BRAIN",
  "ConsistencyInfo": "N4_VE11E_LATEST_20181129",
  "ConversionSoftware": "dcm2niix",
  "ConversionSoftwareVersion": "v1.0.20201102",
  "DerivedVendorReportedEchoSpacing": 0.00049,
  "DeviceSerialNumber": "66112",
  "DwellTime": 2e-06,
  "EchoTime": 0.0272,
  "EchoTrainLength": 82,
  "EffectiveEchoSpacing": 0.00049,
  "FlipAngle": 44,
  "ImageComments": "Unaliased MB8/PE3",
  "ImageOrientationPatientDICOM": [0.996098, 0.0223451, -0.085374, -0.024866, 0.999282, -0.0285787],
  "ImageType": [
    "ORIGINAL",
    "PRIMARY",
    "M",
    "MB",
    "ND",
    "NORM",
    "MOSAIC"
],
  "ImagingFrequency": 123.252,
  "InPlanePhaseEncodingDirectionDICOM": "COL",
  "InstitutionAddress": "Maynard 3,Hanover,NH,US,03755",
  "InstitutionName": "Dartmouth College - PBS",
  "InstitutionalDepartmentName": "Department",
  "MRAcquisitionType": "2D",
  "MagneticFieldStrength": 3,
  "Manufacturer": "Siemens",
  "ManufacturersModelName": "Prisma",
  "Modality": "MR",
  "MultibandAccelerationFactor": 8,
  "PartialFourier": 1,
  "PatientPosition": "HFS",
  "PercentPhaseFOV": 100,
  "PercentSampling": 100,
  "PhaseEncodingDirection": "j-",
  "PhaseEncodingSteps": 82,
  "PhaseResolution": 1,
  "PixelBandwidth": 3050,
  "ProcedureStepDescription": "Wager_Wager^1076_spacetop",
  "ProtocolName": "func_run-03_task-social_acq-ap-mb8",
  "PulseSequenceDetails": "%CustomerSeq%\\cmrr_mbep2d_bold",
  "ReceiveCoilActiveElements": "HEA;HEP",
  "ReceiveCoilName": "Head_32",
  "ReconMatrixPE": 82,
  "RepetitionTime": 0.46,
  "SAR": 0.105946,
  "ScanOptions": "FS",
  "ScanningSequence": "EP",
  "SequenceName": "epfid2d1_82",
  "SequenceVariant": "SK\\SS",
  "SeriesDescription": "func_run-03_task-social_acq-ap-mb8",
  "SeriesNumber": 16,
  "ShimSetting": [4121, -7714, -7286, 630, -89, -38, 4, 116],
  "SliceThickness": 2.7,
  "SliceTiming": [0, 0.2525, 0.0625, 0.315, 0.125, 0.3775, 0.1875, 0, 0.2525, 0.0625, 0.315, 0.125, 0.3775, 0.1875, 0, 0.2525, 0.0625, 0.315, 0.125, 0.3775, 0.1875, 0, 0.2525, 0.0625, 0.315, 0.125, 0.3775, 0.1875, 0, 0.2525, 0.0625, 0.315, 0.125, 0.3775, 0.1875, 0, 0.2525, 0.0625, 0.315, 0.125, 0.3775, 0.1875, 0, 0.2525, 0.0625, 0.315, 0.125, 0.3775, 0.1875, 0, 0.2525, 0.0625, 0.315, 0.125, 0.3775, 0.1875],
  "SoftwareVersions": "syngo MR E11",
  "SpacingBetweenSlices": 2.7,
  "StationName": "AWP66112",
  "TaskName": "social",
  "TotalReadoutTime": 0.03969,
  "TxRefAmp": 255.766,
  "WipMemBlock": "13d3c482-e519-422a-a031-e21dc0ec8e4e||Sequence: R016 ve11e/master r/434b28f1; Aug  7 2019 18:53:46 by eja",
  "dcmmeta_affine": [
    [-2.672459125518799, -0.06671367585659027, -0.2286200225353241, 118.4611587524414],
    [-0.05995040014386177, 2.6810011863708496, -0.08259332180023193, -88.66121673583984],
    [-0.2290520817041397, 0.07667459547519684, 2.689035415649414, -73.95065307617188],
    [0.0, 0.0, 0.0, 1.0]
],
  "dcmmeta_reorient_transform": [
    [0.0, -1.0, 0.0, 81.0],
    [1.0, 0.0, 0.0, 0.0],
    [0.0, 0.0, 1.0, 0.0],
    [0.0, 0.0, 0.0, 1.0]
],
  "dcmmeta_shape": [82, 82, 56, 872],
  "dcmmeta_slice_dim": 2,
  "dcmmeta_version": 0.6,
  "global": {
    "const": {
      "AccessionNumber": "A003920",
      "AcquisitionMatrix": [82, 0, 0, 82],
      "AngioFlag": "N",
      "BitsAllocated": 16,
      "BitsStored": 16,
      "BodyPartExamined": "BRAIN",
      "Columns": 656,
      "EchoNumbers": 1,
      "EchoTime": 27.2,
      "EchoTrainLength": 82,
      "FlipAngle": 44.0,
      "HighBit": 15,
      "ImageOrientationPatient": [0.99609837957701, 0.02234514897981, -0.0853739569256, -0.0248660054661, 0.99928221184367, -0.0285787134943],
      "ImagePositionPatient": [-860.90629514019, -915.15296001272, 20.003549198692],
      "ImageType": [
        "ORIGINAL",
        "PRIMARY",
        "M",
        "MB",
        "ND",
        "NORM",
        "MOSAIC"
],
      "ImagedNucleus": "1H",
      "ImagingFrequency": 123.252197,
      "InPlanePhaseEncodingDirection": "COL",
      "MRAcquisitionType": "2D",
      "MagneticFieldStrength": 3.0,
      "Manufacturer": "SIEMENS",
      "ManufacturerModelName": "Prisma",
      "Modality": "MR",
      "NumberOfAverages": 1.0,
      "NumberOfPhaseEncodingSteps": 82,
      "PercentPhaseFieldOfView": 100.0,
      "PercentSampling": 100.0,
      "PerformedProcedureStepStartTime": "105329.455000",
      "PhotometricInterpretation": "MONOCHROME2",
      "PixelBandwidth": 3050.0,
      "PixelRepresentation": 0,
      "PixelSpacing": [2.6829268932343, 2.6829268932343],
      "ProtocolName": "func_run-03_task-social_acq-ap-mb8",
      "RepetitionTime": 460.0,
      "Rows": 656,
      "SAR": 0.10594556926288,
      "SamplesPerPixel": 1,
      "ScanOptions": "FS",
      "ScanningSequence": "EP",
      "SequenceName": "epfid2d1_82",
      "SequenceVariant": [
        "SK",
        "SS"
],
      "SeriesDescription": "func_run-03_task-social_acq-ap-mb8",
      "SeriesNumber": 16,
      "SeriesTime": "115358.032000",
      "SliceLocation": -80.968772356001,
      "SliceThickness": 2.7000000476837,
      "SmallestImagePixelValue": 0,
      "SoftwareVersions": "syngo MR E11",
      "SpacingBetweenSlices": 2.7000000791559,
      "SpecificCharacterSet": "ISO_IR 100",
      "StudyID": "1",
      "StudyTime": "105329.363000",
      "TransmitCoilName": "Body",
      "VariableFlipAngleFlag": "N",
      "WindowCenterWidthExplanation": "Algo1"
    },
    "slices": {}
  },
  "time": {
    "samples": {
      "AcquisitionNumber": [1, 2, 3, 4, 5, 6, 7, 8, 9, 10, 11, 12, 13, 14, 15, 16, 17, 18, 19, 20, 21, 22, 23, 24, 25, 26, 27, 28, 29, 30, 31, 32, 33, 34, 35, 36, 37, 38, 39, 40, 41, 42, 43, 44, 45, 46, 47, 48, 49, 50, 51, 52, 53, 54, 55, 56, 57, 58, 59, 60, 61, 62, 63, 64, 65, 66, 67, 68, 69, 70, 71, 72, 73, 74, 75, 76, 77, 78, 79, 80, 81, 82, 83, 84, 85, 86, 87, 88, 89, 90, 91, 92, 93, 94, 95, 96, 97, 98, 99, 100, 101, 102, 103, 104, 105, 106, 107, 108, 109, 110, 111, 112, 113, 114, 115, 116, 117, 118, 119, 120, 121, 122, 123, 124, 125, 126, 127, 128, 129, 130, 131, 132, 133, 134, 135, 136, 137, 138, 139, 140, 141, 142, 143, 144, 145, 146, 147, 148, 149, 150, 151, 152, 153, 154, 155, 156, 157, 158, 159, 160, 161, 162, 163, 164, 165, 166, 167, 168, 169, 170, 171, 172, 173, 174, 175, 176, 177, 178, 179, 180, 181, 182, 183, 184, 185, 186, 187, 188, 189, 190, 191, 192, 193, 194, 195, 196, 197, 198, 199, 200, 201, 202, 203, 204, 205, 206, 207, 208, 209, 210, 211, 212, 213, 214, 215, 216, 217, 218, 219, 220, 221, 222, 223, 224, 225, 226, 227, 228, 229, 230, 231, 232, 233, 234, 235, 236, 237, 238, 239, 240, 241, 242, 243, 244, 245, 246, 247, 248, 249, 250, 251, 252, 253, 254, 255, 256, 257, 258, 259, 260, 261, 262, 263, 264, 265, 266, 267, 268, 269, 270, 271, 272, 273, 274, 275, 276, 277, 278, 279, 280, 281, 282, 283, 284, 285, 286, 287, 288, 289, 290, 291, 292, 293, 294, 295, 296, 297, 298, 299, 300, 301, 302, 303, 304, 305, 306, 307, 308, 309, 310, 311, 312, 313, 314, 315, 316, 317, 318, 319, 320, 321, 322, 323, 324, 325, 326, 327, 328, 329, 330, 331, 332, 333, 334, 335, 336, 337, 338, 339, 340, 341, 342, 343, 344, 345, 346, 347, 348, 349, 350, 351, 352, 353, 354, 355, 356, 357, 358, 359, 360, 361, 362, 363, 364, 365, 366, 367, 368, 369, 370, 371, 372, 373, 374, 375, 376, 377, 378, 379, 380, 381, 382, 383, 384, 385, 386, 387, 388, 389, 390, 391, 392, 393, 394, 395, 396, 397, 398, 399, 400, 401, 402, 403, 404, 405, 406, 407, 408, 409, 410, 411, 412, 413, 414, 415, 416, 417, 418, 419, 420, 421, 422, 423, 424, 425, 426, 427, 428, 429, 430, 431, 432, 433, 434, 435, 436, 437, 438, 439, 440, 441, 442, 443, 444, 445, 446, 447, 448, 449, 450, 451, 452, 453, 454, 455, 456, 457, 458, 459, 460, 461, 462, 463, 464, 465, 466, 467, 468, 469, 470, 471, 472, 473, 474, 475, 476, 477, 478, 479, 480, 481, 482, 483, 484, 485, 486, 487, 488, 489, 490, 491, 492, 493, 494, 495, 496, 497, 498, 499, 500, 501, 502, 503, 504, 505, 506, 507, 508, 509, 510, 511, 512, 513, 514, 515, 516, 517, 518, 519, 520, 521, 522, 523, 524, 525, 526, 527, 528, 529, 530, 531, 532, 533, 534, 535, 536, 537, 538, 539, 540, 541, 542, 543, 544, 545, 546, 547, 548, 549, 550, 551, 552, 553, 554, 555, 556, 557, 558, 559, 560, 561, 562, 563, 564, 565, 566, 567, 568, 569, 570, 571, 572, 573, 574, 575, 576, 577, 578, 579, 580, 581, 582, 583, 584, 585, 586, 587, 588, 589, 590, 591, 592, 593, 594, 595, 596, 597, 598, 599, 600, 601, 602, 603, 604, 605, 606, 607, 608, 609, 610, 611, 612, 613, 614, 615, 616, 617, 618, 619, 620, 621, 622, 623, 624, 625, 626, 627, 628, 629, 630, 631, 632, 633, 634, 635, 636, 637, 638, 639, 640, 641, 642, 643, 644, 645, 646, 647, 648, 649, 650, 651, 652, 653, 654, 655, 656, 657, 658, 659, 660, 661, 662, 663, 664, 665, 666, 667, 668, 669, 670, 671, 672, 673, 674, 675, 676, 677, 678, 679, 680, 681, 682, 683, 684, 685, 686, 687, 688, 689, 690, 691, 692, 693, 694, 695, 696, 697, 698, 699, 700, 701, 702, 703, 704, 705, 706, 707, 708, 709, 710, 711, 712, 713, 714, 715, 716, 717, 718, 719, 720, 721, 722, 723, 724, 725, 726, 727, 728, 729, 730, 731, 732, 733, 734, 735, 736, 737, 738, 739, 740, 741, 742, 743, 744, 745, 746, 747, 748, 749, 750, 751, 752, 753, 754, 755, 756, 757, 758, 759, 760, 761, 762, 763, 764, 765, 766, 767, 768, 769, 770, 771, 772, 773, 774, 775, 776, 777, 778, 779, 780, 781, 782, 783, 784, 785, 786, 787, 788, 789, 790, 791, 792, 793, 794, 795, 796, 797, 798, 799, 800, 801, 802, 803, 804, 805, 806, 807, 808, 809, 810, 811, 812, 813, 814, 815, 816, 817, 818, 819, 820, 821, 822, 823, 824, 825, 826, 827, 828, 829, 830, 831, 832, 833, 834, 835, 836, 837, 838, 839, 840, 841, 842, 843, 844, 845, 846, 847, 848, 849, 850, 851, 852, 853, 854, 855, 856, 857, 858, 859, 860, 861, 862, 863, 864, 865, 866, 867, 868, 869, 870, 871, 872],
      "AcquisitionTime": ["115346.457500", "115346.917500", "115347.377500", "115347.837500", "115348.297500", "115348.757500", "115349.217500", "115349.677500", "115350.137500", "115350.597500", "115351.057500", "115351.517500", "115351.977500", "115352.437500", "115352.897500", "115353.357500", "115353.817500", "115354.277500", "115354.737500", "115355.197500", "115355.657500", "115356.117500", "115356.577500", "115357.037500", "115357.497500", "115357.957500", "115358.417500", "115358.877500", "115359.337500", "115359.797500", "115400.257500", "115400.717500", "115401.177500", "115401.637500", "115402.097500", "115402.557500", "115403.017500", "115403.477500", "115403.937500", "115404.397500", "115404.857500", "115405.317500", "115405.777500", "115406.237500", "115406.697500", "115407.157500", "115407.617500", "115408.077500", "115408.537500", "115408.997500", "115409.457500", "115409.917500", "115410.377500", "115410.837500", "115411.297500", "115411.757500", "115412.217500", "115412.677500", "115413.137500", "115413.597500", "115414.057500", "115414.517500", "115414.977500", "115415.437500", "115415.897500", "115416.357500", "115416.817500", "115417.277500", "115417.737500", "115418.197500", "115418.657500", "115419.117500", "115419.577500", "115420.037500", "115420.497500", "115420.957500", "115421.417500", "115421.877500", "115422.337500", "115422.797500", "115423.257500", "115423.717500", "115424.177500", "115424.637500", "115425.097500", "115425.557500", "115426.017500", "115426.477500", "115426.937500", "115427.397500", "115427.857500", "115428.317500", "115428.777500", "115429.237500", "115429.697500", "115430.157500", "115430.617500", "115431.077500", "115431.537500", "115431.997500", "115432.457500", "115432.917500", "115433.377500", "115433.837500", "115434.297500", "115434.757500", "115435.217500", "115435.677500", "115436.137500", "115436.597500", "115437.057500", "115437.517500", "115437.977500", "115438.437500", "115438.897500", "115439.357500", "115439.817500", "115440.277500", "115440.737500", "115441.197500", "115441.657500", "115442.117500", "115442.577500", "115443.037500", "115443.497500", "115443.957500", "115444.417500", "115444.877500", "115445.337500", "115445.797500", "115446.257500", "115446.717500", "115447.177500", "115447.637500", "115448.097500", "115448.557500", "115449.017500", "115449.477500", "115449.937500", "115450.397500", "115450.857500", "115451.317500", "115451.777500", "115452.237500", "115452.697500", "115453.157500", "115453.617500", "115454.077500", "115454.537500", "115454.997500", "115455.457500", "115455.917500", "115456.377500", "115456.837500", "115457.297500", "115457.757500", "115458.217500", "115458.677500", "115459.137500", "115459.597500", "115500.057500", "115500.517500", "115500.977500", "115501.437500", "115501.897500", "115502.357500", "115502.817500", "115503.277500", "115503.737500", "115504.197500", "115504.657500", "115505.117500", "115505.577500", "115506.037500", "115506.497500", "115506.957500", "115507.417500", "115507.877500", "115508.337500", "115508.797500", "115509.257500", "115509.717500", "115510.177500", "115510.637500", "115511.097500", "115511.557500", "115512.017500", "115512.477500", "115512.937500", "115513.397500", "115513.857500", "115514.317500", "115514.777500", "115515.237500", "115515.697500", "115516.157500", "115516.617500", "115517.077500", "115517.537500", "115517.997500", "115518.457500", "115518.917500", "115519.377500", "115519.837500", "115520.297500", "115520.757500", "115521.217500", "115521.677500", "115522.137500", "115522.597500", "115523.057500", "115523.517500", "115523.977500", "115524.437500", "115524.897500", "115525.357500", "115525.817500", "115526.277500", "115526.737500", "115527.197500", "115527.657500", "115528.117500", "115528.577500", "115529.037500", "115529.497500", "115529.957500", "115530.417500", "115530.877500", "115531.337500", "115531.797500", "115532.257500", "115532.717500", "115533.177500", "115533.637500", "115534.097500", "115534.557500", "115535.017500", "115535.477500", "115535.937500", "115536.397500", "115536.857500", "115537.317500", "115537.777500", "115538.237500", "115538.697500", "115539.157500", "115539.617500", "115540.077500", "115540.537500", "115540.997500", "115541.457500", "115541.917500", "115542.377500", "115542.837500", "115543.297500", "115543.757500", "115544.217500", "115544.677500", "115545.137500", "115545.597500", "115546.057500", "115546.517500", "115546.977500", "115547.437500", "115547.897500", "115548.357500", "115548.817500", "115549.277500", "115549.737500", "115550.197500", "115550.657500", "115551.117500", "115551.577500", "115552.037500", "115552.497500", "115552.957500", "115553.417500", "115553.877500", "115554.337500", "115554.797500", "115555.257500", "115555.717500", "115556.177500", "115556.637500", "115557.097500", "115557.557500", "115558.017500", "115558.477500", "115558.937500", "115559.397500", "115559.857500", "115600.317500", "115600.777500", "115601.237500", "115601.697500", "115602.157500", "115602.617500", "115603.077500", "115603.537500", "115603.997500", "115604.457500", "115604.917500", "115605.377500", "115605.837500", "115606.297500", "115606.757500", "115607.217500", "115607.677500", "115608.137500", "115608.597500", "115609.057500", "115609.517500", "115609.977500", "115610.437500", "115610.897500", "115611.357500", "115611.817500", "115612.277500", "115612.737500", "115613.197500", "115613.657500", "115614.117500", "115614.577500", "115615.037500", "115615.497500", "115615.957500", "115616.417500", "115616.877500", "115617.337500", "115617.797500", "115618.257500", "115618.717500", "115619.177500", "115619.637500", "115620.097500", "115620.557500", "115621.017500", "115621.477500", "115621.937500", "115622.397500", "115622.857500", "115623.317500", "115623.777500", "115624.237500", "115624.697500", "115625.157500", "115625.617500", "115626.077500", "115626.537500", "115626.997500", "115627.457500", "115627.917500", "115628.377500", "115628.837500", "115629.297500", "115629.757500", "115630.217500", "115630.677500", "115631.137500", "115631.597500", "115632.057500", "115632.517500", "115632.977500", "115633.437500", "115633.897500", "115634.357500", "115634.817500", "115635.277500", "115635.737500", "115636.197500", "115636.657500", "115637.117500", "115637.577500", "115638.037500", "115638.497500", "115638.957500", "115639.417500", "115639.877500", "115640.337500", "115640.797500", "115641.257500", "115641.717500", "115642.177500", "115642.637500", "115643.097500", "115643.557500", "115644.017500", "115644.477500", "115644.937500", "115645.397500", "115645.857500", "115646.317500", "115646.777500", "115647.237500", "115647.697500", "115648.157500", "115648.617500", "115649.077500", "115649.537500", "115649.997500", "115650.457500", "115650.917500", "115651.377500", "115651.837500", "115652.297500", "115652.757500", "115653.217500", "115653.677500", "115654.137500", "115654.597500", "115655.057500", "115655.517500", "115655.977500", "115656.437500", "115656.897500", "115657.357500", "115657.817500", "115658.277500", "115658.737500", "115659.197500", "115659.657500", "115700.117500", "115700.577500", "115701.037500", "115701.497500", "115701.957500", "115702.417500", "115702.877500", "115703.337500", "115703.797500", "115704.257500", "115704.717500", "115705.177500", "115705.637500", "115706.097500", "115706.557500", "115707.017500", "115707.477500", "115707.937500", "115708.397500", "115708.857500", "115709.317500", "115709.777500", "115710.237500", "115710.697500", "115711.157500", "115711.617500", "115712.077500", "115712.537500", "115712.997500", "115713.457500", "115713.917500", "115714.377500", "115714.837500", "115715.297500", "115715.757500", "115716.217500", "115716.677500", "115717.137500", "115717.597500", "115718.057500", "115718.517500", "115718.977500", "115719.437500", "115719.897500", "115720.357500", "115720.817500", "115721.277500", "115721.737500", "115722.197500", "115722.657500", "115723.117500", "115723.577500", "115724.037500", "115724.497500", "115724.957500", "115725.417500", "115725.877500", "115726.337500", "115726.797500", "115727.257500", "115727.717500", "115728.177500", "115728.637500", "115729.097500", "115729.557500", "115730.017500", "115730.477500", "115730.937500", "115731.397500", "115731.857500", "115732.317500", "115732.777500", "115733.237500", "115733.697500", "115734.157500", "115734.617500", "115735.077500", "115735.537500", "115735.997500", "115736.457500", "115736.917500", "115737.377500", "115737.837500", "115738.297500", "115738.757500", "115739.217500", "115739.677500", "115740.137500", "115740.597500", "115741.057500", "115741.517500", "115741.977500", "115742.437500", "115742.897500", "115743.357500", "115743.817500", "115744.277500", "115744.737500", "115745.197500", "115745.657500", "115746.117500", "115746.577500", "115747.037500", "115747.497500", "115747.957500", "115748.417500", "115748.877500", "115749.337500", "115749.797500", "115750.257500", "115750.717500", "115751.177500", "115751.637500", "115752.097500", "115752.557500", "115753.017500", "115753.477500", "115753.937500", "115754.397500", "115754.857500", "115755.317500", "115755.777500", "115756.237500", "115756.697500", "115757.157500", "115757.617500", "115758.077500", "115758.537500", "115758.997500", "115759.457500", "115759.917500", "115800.377500", "115800.837500", "115801.297500", "115801.757500", "115802.217500", "115802.677500", "115803.137500", "115803.597500", "115804.057500", "115804.517500", "115804.977500", "115805.437500", "115805.897500", "115806.357500", "115806.817500", "115807.277500", "115807.737500", "115808.197500", "115808.657500", "115809.117500", "115809.577500", "115810.037500", "115810.497500", "115810.957500", "115811.417500", "115811.877500", "115812.337500", "115812.797500", "115813.257500", "115813.717500", "115814.177500", "115814.637500", "115815.097500", "115815.557500", "115816.017500", "115816.477500", "115816.937500", "115817.397500", "115817.857500", "115818.317500", "115818.777500", "115819.237500", "115819.697500", "115820.157500", "115820.617500", "115821.077500", "115821.537500", "115821.997500", "115822.457500", "115822.917500", "115823.377500", "115823.837500", "115824.297500", "115824.757500", "115825.217500", "115825.677500", "115826.137500", "115826.597500", "115827.057500", "115827.517500", "115827.977500", "115828.437500", "115828.897500", "115829.357500", "115829.817500", "115830.277500", "115830.737500", "115831.197500", "115831.657500", "115832.117500", "115832.577500", "115833.037500", "115833.497500", "115833.957500", "115834.417500", "115834.877500", "115835.337500", "115835.797500", "115836.257500", "115836.717500", "115837.177500", "115837.637500", "115838.097500", "115838.557500", "115839.017500", "115839.477500", "115839.937500", "115840.397500", "115840.857500", "115841.317500", "115841.777500", "115842.237500", "115842.697500", "115843.157500", "115843.617500", "115844.077500", "115844.537500", "115844.997500", "115845.457500", "115845.917500", "115846.377500", "115846.837500", "115847.297500", "115847.757500", "115848.217500", "115848.677500", "115849.137500", "115849.597500", "115850.057500", "115850.517500", "115850.977500", "115851.437500", "115851.897500", "115852.357500", "115852.817500", "115853.277500", "115853.737500", "115854.197500", "115854.657500", "115855.117500", "115855.577500", "115856.037500", "115856.497500", "115856.957500", "115857.417500", "115857.877500", "115858.337500", "115858.797500", "115859.257500", "115859.717500", "115900.177500", "115900.637500", "115901.097500", "115901.557500", "115902.017500", "115902.477500", "115902.937500", "115903.397500", "115903.857500", "115904.317500", "115904.777500", "115905.237500", "115905.697500", "115906.157500", "115906.617500", "115907.077500", "115907.537500", "115907.997500", "115908.457500", "115908.917500", "115909.377500", "115909.837500", "115910.297500", "115910.757500", "115911.217500", "115911.677500", "115912.137500", "115912.597500", "115913.057500", "115913.517500", "115913.977500", "115914.437500", "115914.897500", "115915.357500", "115915.817500", "115916.277500", "115916.737500", "115917.197500", "115917.657500", "115918.117500", "115918.577500", "115919.037500", "115919.497500", "115919.957500", "115920.417500", "115920.877500", "115921.337500", "115921.797500", "115922.257500", "115922.717500", "115923.177500", "115923.637500", "115924.097500", "115924.557500", "115925.017500", "115925.477500", "115925.937500", "115926.397500", "115926.857500", "115927.317500", "115927.777500", "115928.237500", "115928.697500", "115929.157500", "115929.617500", "115930.077500", "115930.537500", "115930.997500", "115931.457500", "115931.917500", "115932.377500", "115932.837500", "115933.297500", "115933.757500", "115934.217500", "115934.677500", "115935.137500", "115935.597500", "115936.057500", "115936.517500", "115936.977500", "115937.437500", "115937.897500", "115938.357500", "115938.817500", "115939.277500", "115939.737500", "115940.197500", "115940.657500", "115941.117500", "115941.577500", "115942.037500", "115942.497500", "115942.957500", "115943.417500", "115943.877500", "115944.337500", "115944.797500", "115945.257500", "115945.717500", "115946.177500", "115946.637500", "115947.097500", "115947.557500", "115948.017500", "115948.477500", "115948.937500", "115949.397500", "115949.857500", "115950.317500", "115950.777500", "115951.237500", "115951.697500", "115952.157500", "115952.617500", "115953.077500", "115953.537500", "115953.997500", "115954.457500", "115954.917500", "115955.377500", "115955.837500", "115956.297500", "115956.757500", "115957.217500", "115957.677500", "115958.137500", "115958.597500", "115959.057500", "115959.517500", "115959.977500", "120000.437500", "120000.897500", "120001.357500", "120001.817500", "120002.277500", "120002.737500", "120003.197500", "120003.657500", "120004.117500", "120004.577500", "120005.037500", "120005.497500", "120005.957500", "120006.417500", "120006.877500", "120007.337500", "120007.797500", "120008.257500", "120008.717500", "120009.177500", "120009.637500", "120010.097500", "120010.557500", "120011.017500", "120011.477500", "120011.937500", "120012.397500", "120012.857500", "120013.317500", "120013.777500", "120014.237500", "120014.697500", "120015.157500", "120015.617500", "120016.077500", "120016.537500", "120016.997500", "120017.457500", "120017.917500", "120018.377500", "120018.837500", "120019.297500", "120019.757500", "120020.217500", "120020.677500", "120021.137500", "120021.597500", "120022.057500", "120022.517500", "120022.977500", "120023.437500", "120023.897500", "120024.357500", "120024.817500", "120025.277500", "120025.737500", "120026.197500", "120026.657500", "120027.117500"],
