{
  "AcquisitionMatrixPE": 82,
  "AcquisitionNumber": 1,
  "AcquisitionTime": "17:24:51.982500",
  "BandwidthPerPixelPhaseEncode": 24.888,
  "BaseResolution": 82,
  "BodyPartExamined": "BRAIN",
  "ConsistencyInfo": "N4_VE11E_LATEST_20181129",
  "ConversionSoftware": "dcm2niix",
  "ConversionSoftwareVersion": "v1.0.20201102",
  "DerivedVendorReportedEchoSpacing": 0.00049,
  "DeviceSerialNumber": "66112",
  "DwellTime": 2e-06,
  "EchoTime": 0.0272,
  "EchoTrainLength": 82,
  "EffectiveEchoSpacing": 0.00049,
  "FlipAngle": 44,
  "ImageComments": "Unaliased MB8/PE3",
  "ImageOrientationPatientDICOM": [0.999718, -0.0144242, 0.0188667, 0.0116909, 0.990404, 0.137708],
  "ImageType": [
    "ORIGINAL",
    "PRIMARY",
    "M",
    "MB",
    "ND",
    "NORM",
    "MOSAIC"
],
  "ImagingFrequency": 123.252,
  "InPlanePhaseEncodingDirectionDICOM": "COL",
  "InstitutionAddress": "Maynard 3,Hanover,NH,US,03755",
  "InstitutionName": "Dartmouth College - PBS",
  "InstitutionalDepartmentName": "Department",
  "MRAcquisitionType": "2D",
  "MagneticFieldStrength": 3,
  "Manufacturer": "Siemens",
  "ManufacturersModelName": "Prisma",
  "Modality": "MR",
  "MultibandAccelerationFactor": 8,
  "PartialFourier": 1,
  "PatientPosition": "HFS",
  "PercentPhaseFOV": 100,
  "PercentSampling": 100,
  "PhaseEncodingDirection": "j-",
  "PhaseEncodingSteps": 82,
  "PhaseResolution": 1,
  "PixelBandwidth": 3050,
  "ProcedureStepDescription": "Wager_Wager^1076_spacetop",
  "ProtocolName": "func_run-02_task-alignvideo_acq-ap-mb8",
  "PulseSequenceDetails": "%CustomerSeq%\\cmrr_mbep2d_bold",
  "ReceiveCoilActiveElements": "HEA;HEP",
  "ReceiveCoilName": "Head_32",
  "ReconMatrixPE": 82,
  "RepetitionTime": 0.46,
  "SAR": 0.103751,
  "ScanOptions": "FS",
  "ScanningSequence": "EP",
  "SequenceName": "epfid2d1_82",
  "SequenceVariant": "SK\\SS",
  "SeriesDescription": "func_run-02_task-alignvideo_acq-ap-mb8",
  "SeriesNumber": 32,
  "ShimSetting": [4139, -7742, -7295, 565, -79, -124, 8, 47],
  "SliceThickness": 2.7,
  "SliceTiming": [0, 0.25, 0.0625, 0.3125, 0.125, 0.375, 0.1875, 0, 0.25, 0.0625, 0.3125, 0.125, 0.375, 0.1875, 0, 0.25, 0.0625, 0.3125, 0.125, 0.375, 0.1875, 0, 0.25, 0.0625, 0.3125, 0.125, 0.375, 0.1875, 0, 0.25, 0.0625, 0.3125, 0.125, 0.375, 0.1875, 0, 0.25, 0.0625, 0.3125, 0.125, 0.375, 0.1875, 0, 0.25, 0.0625, 0.3125, 0.125, 0.375, 0.1875, 0, 0.25, 0.0625, 0.3125, 0.125, 0.375, 0.1875],
  "SoftwareVersions": "syngo MR E11",
  "SpacingBetweenSlices": 2.7,
  "StationName": "AWP66112",
  "TaskName": "alignvideo",
  "TotalReadoutTime": 0.03969,
  "TxRefAmp": 243.703,
  "WipMemBlock": "3e9843e3-e785-4f9d-821f-4cd9ff66a1c8||Sequence: R016 ve11e/master r/434b28f1; Aug  7 2019 18:53:46 by eja",
  "dcmmeta_affine": [
    [-2.6821701526641846, 0.03136592358350754, 0.05581434816122055, 109.13540649414062],
    [0.038698960095644, 2.6571810245513916, 0.3711123466491699, -98.88445281982422],
    [0.05061797797679901, -0.36946162581443787, 2.6737914085388184, -58.79390335083008],
    [0.0, 0.0, 0.0, 1.0]
],
  "dcmmeta_reorient_transform": [
    [0.0, -1.0, 0.0, 81.0],
    [1.0, 0.0, 0.0, 0.0],
    [0.0, 0.0, 1.0, 0.0],
    [0.0, 0.0, 0.0, 1.0]
],
  "dcmmeta_shape": [82, 82, 56, 926],
  "dcmmeta_slice_dim": 2,
  "dcmmeta_version": 0.6,
  "global": {
    "const": {
      "AccessionNumber": "A004254",
      "AcquisitionMatrix": [82, 0, 0, 82],
      "AngioFlag": "N",
      "BitsAllocated": 16,
      "BitsStored": 16,
      "BodyPartExamined": "BRAIN",
      "Columns": 656,
      "EchoNumbers": 1,
      "EchoTime": 27.2,
      "EchoTrainLength": 82,
      "FlipAngle": 44.0,
      "HighBit": 15,
      "ImageOrientationPatient": [0.99971795588154, -0.0144241575427, 0.01886669995562, 0.01169093444239, 0.99040381244106, 0.13770842513831],
      "ImagePositionPatient": [-890.46091101924, -867.85156342744, -209.28314553326],
      "ImageType": [
        "ORIGINAL",
        "PRIMARY",
        "M",
        "MB",
        "ND",
        "NORM",
        "MOSAIC"
],
      "ImagedNucleus": "1H",
      "ImagingFrequency": 123.252224,
      "InPlanePhaseEncodingDirection": "COL",
      "MRAcquisitionType": "2D",
      "MagneticFieldStrength": 3.0,
      "Manufacturer": "SIEMENS",
      "ManufacturerModelName": "Prisma",
      "Modality": "MR",
      "NumberOfAverages": 1.0,
      "NumberOfPhaseEncodingSteps": 82,
      "PercentPhaseFieldOfView": 100.0,
      "PercentSampling": 100.0,
      "PerformedProcedureStepStartTime": "155334.919000",
      "PhotometricInterpretation": "MONOCHROME2",
      "PixelBandwidth": 3050.0,
      "PixelRepresentation": 0,
      "PixelSpacing": [2.6829268932343, 2.6829268932343],
      "ProtocolName": "func_run-02_task-alignvideo_acq-ap-mb8",
      "RepetitionTime": 460.0,
      "Rows": 656,
      "SAR": 0.10375070748765,
      "SamplesPerPixel": 1,
      "ScanOptions": "FS",
      "ScanningSequence": "EP",
      "SequenceName": "epfid2d1_82",
      "SequenceVariant": [
        "SK",
        "SS"
],
      "SeriesDescription": "func_run-02_task-alignvideo_acq-ap-mb8",
      "SeriesNumber": 32,
      "SeriesTime": "172508.585000",
      "SliceLocation": -69.55872323797,
      "SliceThickness": 2.7000000476837,
      "SmallestImagePixelValue": 0,
      "SoftwareVersions": "syngo MR E11",
      "SpacingBetweenSlices": 2.7000001186939,
      "SpecificCharacterSet": "ISO_IR 100",
      "StudyID": "1",
      "StudyTime": "155334.869000",
      "TransmitCoilName": "Body",
      "VariableFlipAngleFlag": "N",
      "WindowCenterWidthExplanation": "Algo1"
    },
    "slices": {}
  },
  "time": {
    "samples": {
      "AcquisitionNumber": [1, 2, 3, 4, 5, 6, 7, 8, 9, 10, 11, 12, 13, 14, 15, 16, 17, 18, 19, 20, 21, 22, 23, 24, 25, 26, 27, 28, 29, 30, 31, 32, 33, 34, 35, 36, 37, 38, 39, 40, 41, 42, 43, 44, 45, 46, 47, 48, 49, 50, 51, 52, 53, 54, 55, 56, 57, 58, 59, 60, 61, 62, 63, 64, 65, 66, 67, 68, 69, 70, 71, 72, 73, 74, 75, 76, 77, 78, 79, 80, 81, 82, 83, 84, 85, 86, 87, 88, 89, 90, 91, 92, 93, 94, 95, 96, 97, 98, 99, 100, 101, 102, 103, 104, 105, 106, 107, 108, 109, 110, 111, 112, 113, 114, 115, 116, 117, 118, 119, 120, 121, 122, 123, 124, 125, 126, 127, 128, 129, 130, 131, 132, 133, 134, 135, 136, 137, 138, 139, 140, 141, 142, 143, 144, 145, 146, 147, 148, 149, 150, 151, 152, 153, 154, 155, 156, 157, 158, 159, 160, 161, 162, 163, 164, 165, 166, 167, 168, 169, 170, 171, 172, 173, 174, 175, 176, 177, 178, 179, 180, 181, 182, 183, 184, 185, 186, 187, 188, 189, 190, 191, 192, 193, 194, 195, 196, 197, 198, 199, 200, 201, 202, 203, 204, 205, 206, 207, 208, 209, 210, 211, 212, 213, 214, 215, 216, 217, 218, 219, 220, 221, 222, 223, 224, 225, 226, 227, 228, 229, 230, 231, 232, 233, 234, 235, 236, 237, 238, 239, 240, 241, 242, 243, 244, 245, 246, 247, 248, 249, 250, 251, 252, 253, 254, 255, 256, 257, 258, 259, 260, 261, 262, 263, 264, 265, 266, 267, 268, 269, 270, 271, 272, 273, 274, 275, 276, 277, 278, 279, 280, 281, 282, 283, 284, 285, 286, 287, 288, 289, 290, 291, 292, 293, 294, 295, 296, 297, 298, 299, 300, 301, 302, 303, 304, 305, 306, 307, 308, 309, 310, 311, 312, 313, 314, 315, 316, 317, 318, 319, 320, 321, 322, 323, 324, 325, 326, 327, 328, 329, 330, 331, 332, 333, 334, 335, 336, 337, 338, 339, 340, 341, 342, 343, 344, 345, 346, 347, 348, 349, 350, 351, 352, 353, 354, 355, 356, 357, 358, 359, 360, 361, 362, 363, 364, 365, 366, 367, 368, 369, 370, 371, 372, 373, 374, 375, 376, 377, 378, 379, 380, 381, 382, 383, 384, 385, 386, 387, 388, 389, 390, 391, 392, 393, 394, 395, 396, 397, 398, 399, 400, 401, 402, 403, 404, 405, 406, 407, 408, 409, 410, 411, 412, 413, 414, 415, 416, 417, 418, 419, 420, 421, 422, 423, 424, 425, 426, 427, 428, 429, 430, 431, 432, 433, 434, 435, 436, 437, 438, 439, 440, 441, 442, 443, 444, 445, 446, 447, 448, 449, 450, 451, 452, 453, 454, 455, 456, 457, 458, 459, 460, 461, 462, 463, 464, 465, 466, 467, 468, 469, 470, 471, 472, 473, 474, 475, 476, 477, 478, 479, 480, 481, 482, 483, 484, 485, 486, 487, 488, 489, 490, 491, 492, 493, 494, 495, 496, 497, 498, 499, 500, 501, 502, 503, 504, 505, 506, 507, 508, 509, 510, 511, 512, 513, 514, 515, 516, 517, 518, 519, 520, 521, 522, 523, 524, 525, 526, 527, 528, 529, 530, 531, 532, 533, 534, 535, 536, 537, 538, 539, 540, 541, 542, 543, 544, 545, 546, 547, 548, 549, 550, 551, 552, 553, 554, 555, 556, 557, 558, 559, 560, 561, 562, 563, 564, 565, 566, 567, 568, 569, 570, 571, 572, 573, 574, 575, 576, 577, 578, 579, 580, 581, 582, 583, 584, 585, 586, 587, 588, 589, 590, 591, 592, 593, 594, 595, 596, 597, 598, 599, 600, 601, 602, 603, 604, 605, 606, 607, 608, 609, 610, 611, 612, 613, 614, 615, 616, 617, 618, 619, 620, 621, 622, 623, 624, 625, 626, 627, 628, 629, 630, 631, 632, 633, 634, 635, 636, 637, 638, 639, 640, 641, 642, 643, 644, 645, 646, 647, 648, 649, 650, 651, 652, 653, 654, 655, 656, 657, 658, 659, 660, 661, 662, 663, 664, 665, 666, 667, 668, 669, 670, 671, 672, 673, 674, 675, 676, 677, 678, 679, 680, 681, 682, 683, 684, 685, 686, 687, 688, 689, 690, 691, 692, 693, 694, 695, 696, 697, 698, 699, 700, 701, 702, 703, 704, 705, 706, 707, 708, 709, 710, 711, 712, 713, 714, 715, 716, 717, 718, 719, 720, 721, 722, 723, 724, 725, 726, 727, 728, 729, 730, 731, 732, 733, 734, 735, 736, 737, 738, 739, 740, 741, 742, 743, 744, 745, 746, 747, 748, 749, 750, 751, 752, 753, 754, 755, 756, 757, 758, 759, 760, 761, 762, 763, 764, 765, 766, 767, 768, 769, 770, 771, 772, 773, 774, 775, 776, 777, 778, 779, 780, 781, 782, 783, 784, 785, 786, 787, 788, 789, 790, 791, 792, 793, 794, 795, 796, 797, 798, 799, 800, 801, 802, 803, 804, 805, 806, 807, 808, 809, 810, 811, 812, 813, 814, 815, 816, 817, 818, 819, 820, 821, 822, 823, 824, 825, 826, 827, 828, 829, 830, 831, 832, 833, 834, 835, 836, 837, 838, 839, 840, 841, 842, 843, 844, 845, 846, 847, 848, 849, 850, 851, 852, 853, 854, 855, 856, 857, 858, 859, 860, 861, 862, 863, 864, 865, 866, 867, 868, 869, 870, 871, 872, 873, 874, 875, 876, 877, 878, 879, 880, 881, 882, 883, 884, 885, 886, 887, 888, 889, 890, 891, 892, 893, 894, 895, 896, 897, 898, 899, 900, 901, 902, 903, 904, 905, 906, 907, 908, 909, 910, 911, 912, 913, 914, 915, 916, 917, 918, 919, 920, 921, 922, 923, 924, 925, 926],
      "AcquisitionTime": ["172451.982500", "172452.442500", "172452.902500", "172453.362500", "172453.822500", "172454.282500", "172454.742500", "172455.202500", "172455.662500", "172456.122500", "172456.582500", "172457.042500", "172457.502500", "172457.962500", "172458.422500", "172458.882500", "172459.342500", "172459.802500", "172500.262500", "172500.722500", "172501.182500", "172501.642500", "172502.102500", "172502.562500", "172503.022500", "172503.482500", "172503.942500", "172504.402500", "172504.862500", "172505.322500", "172505.782500", "172506.242500", "172506.702500", "172507.162500", "172507.622500", "172508.082500", "172508.542500", "172509.002500", "172509.462500", "172509.922500", "172510.382500", "172510.842500", "172511.302500", "172511.762500", "172512.222500", "172512.682500", "172513.142500", "172513.602500", "172514.062500", "172514.522500", "172514.982500", "172515.442500", "172515.902500", "172516.362500", "172516.822500", "172517.282500", "172517.742500", "172518.202500", "172518.662500", "172519.122500", "172519.582500", "172520.042500", "172520.502500", "172520.962500", "172521.422500", "172521.882500", "172522.342500", "172522.802500", "172523.262500", "172523.722500", "172524.182500", "172524.642500", "172525.102500", "172525.562500", "172526.022500", "172526.482500", "172526.942500", "172527.402500", "172527.862500", "172528.322500", "172528.782500", "172529.242500", "172529.702500", "172530.162500", "172530.622500", "172531.082500", "172531.542500", "172532.002500", "172532.462500", "172532.922500", "172533.382500", "172533.842500", "172534.302500", "172534.762500", "172535.222500", "172535.682500", "172536.142500", "172536.602500", "172537.062500", "172537.522500", "172537.982500", "172538.442500", "172538.902500", "172539.362500", "172539.822500", "172540.282500", "172540.742500", "172541.202500", "172541.662500", "172542.122500", "172542.582500", "172543.042500", "172543.502500", "172543.962500", "172544.422500", "172544.882500", "172545.342500", "172545.802500", "172546.262500", "172546.722500", "172547.182500", "172547.642500", "172548.102500", "172548.562500", "172549.022500", "172549.482500", "172549.942500", "172550.402500", "172550.862500", "172551.322500", "172551.782500", "172552.242500", "172552.702500", "172553.162500", "172553.622500", "172554.082500", "172554.542500", "172555.002500", "172555.462500", "172555.922500", "172556.382500", "172556.842500", "172557.302500", "172557.762500", "172558.222500", "172558.682500", "172559.142500", "172559.602500", "172600.062500", "172600.522500", "172600.982500", "172601.442500", "172601.902500", "172602.362500", "172602.822500", "172603.282500", "172603.742500", "172604.202500", "172604.662500", "172605.122500", "172605.582500", "172606.042500", "172606.502500", "172606.962500", "172607.422500", "172607.882500", "172608.342500", "172608.802500", "172609.262500", "172609.722500", "172610.182500", "172610.642500", "172611.102500", "172611.562500", "172612.022500", "172612.482500", "172612.942500", "172613.402500", "172613.862500", "172614.322500", "172614.782500", "172615.242500", "172615.702500", "172616.162500", "172616.622500", "172617.082500", "172617.542500", "172618.002500", "172618.462500", "172618.922500", "172619.382500", "172619.842500", "172620.302500", "172620.762500", "172621.222500", "172621.682500", "172622.142500", "172622.602500", "172623.062500", "172623.522500", "172623.982500", "172624.442500", "172624.902500", "172625.362500", "172625.822500", "172626.282500", "172626.742500", "172627.202500", "172627.662500", "172628.122500", "172628.582500", "172629.042500", "172629.502500", "172629.962500", "172630.422500", "172630.882500", "172631.342500", "172631.802500", "172632.262500", "172632.722500", "172633.182500", "172633.642500", "172634.102500", "172634.562500", "172635.022500", "172635.482500", "172635.942500", "172636.402500", "172636.862500", "172637.322500", "172637.782500", "172638.242500", "172638.702500", "172639.162500", "172639.622500", "172640.082500", "172640.542500", "172641.002500", "172641.462500", "172641.922500", "172642.382500", "172642.842500", "172643.302500", "172643.762500", "172644.222500", "172644.682500", "172645.142500", "172645.602500", "172646.062500", "172646.522500", "172646.982500", "172647.442500", "172647.902500", "172648.362500", "172648.822500", "172649.282500", "172649.742500", "172650.202500", "172650.662500", "172651.122500", "172651.582500", "172652.042500", "172652.502500", "172652.962500", "172653.422500", "172653.882500", "172654.342500", "172654.802500", "172655.262500", "172655.722500", "172656.182500", "172656.642500", "172657.102500", "172657.562500", "172658.022500", "172658.482500", "172658.942500", "172659.402500", "172659.862500", "172700.322500", "172700.782500", "172701.242500", "172701.702500", "172702.162500", "172702.622500", "172703.082500", "172703.542500", "172704.002500", "172704.462500", "172704.922500", "172705.382500", "172705.842500", "172706.302500", "172706.762500", "172707.222500", "172707.682500", "172708.142500", "172708.602500", "172709.062500", "172709.522500", "172709.982500", "172710.442500", "172710.902500", "172711.362500", "172711.822500", "172712.282500", "172712.742500", "172713.202500", "172713.662500", "172714.122500", "172714.582500", "172715.042500", "172715.502500", "172715.962500", "172716.422500", "172716.882500", "172717.342500", "172717.802500", "172718.262500", "172718.722500", "172719.182500", "172719.642500", "172720.102500", "172720.562500", "172721.022500", "172721.482500", "172721.942500", "172722.402500", "172722.862500", "172723.322500", "172723.782500", "172724.242500", "172724.702500", "172725.162500", "172725.622500", "172726.082500", "172726.542500", "172727.002500", "172727.462500", "172727.922500", "172728.382500", "172728.842500", "172729.302500", "172729.762500", "172730.222500", "172730.682500", "172731.142500", "172731.602500", "172732.062500", "172732.522500", "172732.982500", "172733.442500", "172733.902500", "172734.362500", "172734.822500", "172735.282500", "172735.742500", "172736.202500", "172736.662500", "172737.122500", "172737.582500", "172738.042500", "172738.502500", "172738.962500", "172739.422500", "172739.882500", "172740.342500", "172740.802500", "172741.262500", "172741.722500", "172742.182500", "172742.642500", "172743.102500", "172743.562500", "172744.022500", "172744.482500", "172744.942500", "172745.402500", "172745.862500", "172746.322500", "172746.782500", "172747.242500", "172747.702500", "172748.162500", "172748.622500", "172749.082500", "172749.542500", "172750.002500", "172750.462500", "172750.922500", "172751.382500", "172751.842500", "172752.302500", "172752.762500", "172753.222500", "172753.682500", "172754.142500", "172754.602500", "172755.062500", "172755.522500", "172755.982500", "172756.442500", "172756.902500", "172757.362500", "172757.822500", "172758.282500", "172758.742500", "172759.202500", "172759.662500", "172800.122500", "172800.582500", "172801.042500", "172801.502500", "172801.962500", "172802.422500", "172802.882500", "172803.342500", "172803.802500", "172804.262500", "172804.722500", "172805.182500", "172805.642500", "172806.102500", "172806.562500", "172807.022500", "172807.482500", "172807.942500", "172808.402500", "172808.862500", "172809.322500", "172809.782500", "172810.242500", "172810.702500", "172811.162500", "172811.622500", "172812.082500", "172812.542500", "172813.002500", "172813.462500", "172813.922500", "172814.382500", "172814.842500", "172815.302500", "172815.762500", "172816.222500", "172816.682500", "172817.142500", "172817.602500", "172818.062500", "172818.522500", "172818.982500", "172819.442500", "172819.902500", "172820.362500", "172820.822500", "172821.282500", "172821.742500", "172822.202500", "172822.662500", "172823.122500", "172823.582500", "172824.042500", "172824.502500", "172824.962500", "172825.422500", "172825.882500", "172826.342500", "172826.802500", "172827.262500", "172827.722500", "172828.182500", "172828.642500", "172829.102500", "172829.562500", "172830.022500", "172830.482500", "172830.942500", "172831.402500", "172831.862500", "172832.322500", "172832.782500", "172833.242500", "172833.702500", "172834.162500", "172834.622500", "172835.082500", "172835.542500", "172836.002500", "172836.462500", "172836.922500", "172837.382500", "172837.842500", "172838.302500", "172838.762500", "172839.222500", "172839.682500", "172840.142500", "172840.602500", "172841.062500", "172841.522500", "172841.982500", "172842.442500", "172842.902500", "172843.362500", "172843.822500", "172844.282500", "172844.742500", "172845.202500", "172845.662500", "172846.122500", "172846.582500", "172847.042500", "172847.502500", "172847.962500", "172848.422500", "172848.882500", "172849.342500", "172849.802500", "172850.262500", "172850.722500", "172851.182500", "172851.642500", "172852.102500", "172852.562500", "172853.022500", "172853.482500", "172853.942500", "172854.402500", "172854.862500", "172855.322500", "172855.782500", "172856.242500", "172856.702500", "172857.162500", "172857.622500", "172858.082500", "172858.542500", "172859.002500", "172859.462500", "172859.922500", "172900.382500", "172900.842500", "172901.302500", "172901.762500", "172902.222500", "172902.682500", "172903.142500", "172903.602500", "172904.062500", "172904.522500", "172904.982500", "172905.442500", "172905.902500", "172906.362500", "172906.822500", "172907.282500", "172907.742500", "172908.202500", "172908.662500", "172909.122500", "172909.582500", "172910.042500", "172910.502500", "172910.962500", "172911.422500", "172911.882500", "172912.342500", "172912.802500", "172913.262500", "172913.722500", "172914.182500", "172914.642500", "172915.102500", "172915.562500", "172916.022500", "172916.482500", "172916.942500", "172917.402500", "172917.862500", "172918.322500", "172918.782500", "172919.242500", "172919.702500", "172920.162500", "172920.622500", "172921.082500", "172921.542500", "172922.002500", "172922.462500", "172922.922500", "172923.382500", "172923.842500", "172924.302500", "172924.762500", "172925.222500", "172925.682500", "172926.142500", "172926.602500", "172927.062500", "172927.522500", "172927.982500", "172928.442500", "172928.902500", "172929.362500", "172929.822500", "172930.282500", "172930.742500", "172931.202500", "172931.662500", "172932.122500", "172932.582500", "172933.042500", "172933.502500", "172933.962500", "172934.422500", "172934.882500", "172935.342500", "172935.802500", "172936.262500", "172936.722500", "172937.182500", "172937.642500", "172938.102500", "172938.562500", "172939.022500", "172939.482500", "172939.942500", "172940.402500", "172940.862500", "172941.322500", "172941.782500", "172942.242500", "172942.702500", "172943.162500", "172943.622500", "172944.082500", "172944.542500", "172945.002500", "172945.462500", "172945.922500", "172946.382500", "172946.842500", "172947.302500", "172947.762500", "172948.222500", "172948.682500", "172949.142500", "172949.602500", "172950.062500", "172950.522500", "172950.982500", "172951.442500", "172951.902500", "172952.362500", "172952.822500", "172953.282500", "172953.742500", "172954.202500", "172954.662500", "172955.122500", "172955.582500", "172956.042500", "172956.502500", "172956.962500", "172957.422500", "172957.882500", "172958.342500", "172958.802500", "172959.262500", "172959.722500", "173000.182500", "173000.642500", "173001.102500", "173001.562500", "173002.022500", "173002.482500", "173002.942500", "173003.402500", "173003.862500", "173004.322500", "173004.782500", "173005.242500", "173005.702500", "173006.162500", "173006.622500", "173007.082500", "173007.542500", "173008.002500", "173008.462500", "173008.922500", "173009.382500", "173009.842500", "173010.302500", "173010.762500", "173011.222500", "173011.682500", "173012.142500", "173012.602500", "173013.062500", "173013.522500", "173013.982500", "173014.442500", "173014.902500", "173015.362500", "173015.822500", "173016.282500", "173016.742500", "173017.202500", "173017.662500", "173018.122500", "173018.582500", "173019.042500", "173019.502500", "173019.962500", "173020.422500", "173020.882500", "173021.342500", "173021.802500", "173022.262500", "173022.722500", "173023.182500", "173023.642500", "173024.102500", "173024.562500", "173025.022500", "173025.482500", "173025.942500", "173026.402500", "173026.862500", "173027.322500", "173027.782500", "173028.242500", "173028.702500", "173029.162500", "173029.622500", "173030.082500", "173030.542500", "173031.002500", "173031.462500", "173031.922500", "173032.382500", "173032.842500", "173033.302500", "173033.762500", "173034.222500", "173034.682500", "173035.142500", "173035.602500", "173036.062500", "173036.522500", "173036.982500", "173037.442500", "173037.902500", "173038.362500", "173038.822500", "173039.282500", "173039.742500", "173040.202500", "173040.662500", "173041.122500", "173041.582500", "173042.042500", "173042.502500", "173042.962500", "173043.422500", "173043.882500", "173044.342500", "173044.802500", "173045.262500", "173045.722500", "173046.182500", "173046.642500", "173047.102500", "173047.562500", "173048.022500", "173048.482500", "173048.942500", "173049.402500", "173049.862500", "173050.322500", "173050.782500", "173051.242500", "173051.702500", "173052.162500", "173052.622500", "173053.082500", "173053.542500", "173054.002500", "173054.462500", "173054.922500", "173055.382500", "173055.842500", "173056.302500", "173056.762500", "173057.222500", "173057.682500", "173058.142500", "173058.602500", "173059.062500", "173059.522500", "173059.982500", "173100.442500", "173100.902500", "173101.362500", "173101.822500", "173102.282500", "173102.742500", "173103.202500", "173103.662500", "173104.122500", "173104.582500", "173105.042500", "173105.502500", "173105.962500", "173106.422500", "173106.882500", "173107.342500", "173107.802500", "173108.262500", "173108.722500", "173109.182500", "173109.642500", "173110.102500", "173110.562500", "173111.022500", "173111.482500", "173111.942500", "173112.402500", "173112.862500", "173113.322500", "173113.782500", "173114.242500", "173114.702500", "173115.162500", "173115.622500", "173116.082500", "173116.542500", "173117.002500", "173117.462500", "173117.922500", "173118.382500", "173118.842500", "173119.302500", "173119.762500", "173120.222500", "173120.682500", "173121.142500", "173121.602500", "173122.062500", "173122.522500", "173122.982500", "173123.442500", "173123.902500", "173124.362500", "173124.822500", "173125.282500", "173125.742500", "173126.202500", "173126.662500", "173127.122500", "173127.582500", "173128.042500", "173128.502500", "173128.962500", "173129.422500", "173129.882500", "173130.342500", "173130.802500", "173131.262500", "173131.722500", "173132.182500", "173132.642500", "173133.102500", "173133.562500", "173134.022500", "173134.482500", "173134.942500", "173135.402500", "173135.862500", "173136.322500", "173136.782500", "173137.242500", "173137.702500", "173138.162500", "173138.622500", "173139.082500", "173139.542500", "173140.002500", "173140.462500", "173140.922500", "173141.382500", "173141.842500", "173142.302500", "173142.762500", "173143.222500", "173143.682500", "173144.142500", "173144.602500", "173145.062500", "173145.522500", "173145.982500", "173146.442500", "173146.902500", "173147.362500", "173147.822500", "173148.282500", "173148.742500", "173149.202500", "173149.662500", "173150.122500", "173150.582500", "173151.042500", "173151.502500", "173151.962500", "173152.422500", "173152.882500", "173153.342500", "173153.802500", "173154.262500", "173154.722500", "173155.182500", "173155.642500", "173156.102500", "173156.562500", "173157.022500", "173157.482500"],
