{
  "AcquisitionMatrixPE": 82,
  "AcquisitionNumber": 1,
  "AcquisitionTime": "16:48:13.367500",
  "BandwidthPerPixelPhaseEncode": 24.888,
  "BaseResolution": 82,
  "BodyPartExamined": "BRAIN",
  "ConsistencyInfo": "N4_VE11E_LATEST_20181129",
  "ConversionSoftware": "dcm2niix",
  "ConversionSoftwareVersion": "v1.0.20201102",
  "DerivedVendorReportedEchoSpacing": 0.00049,
  "DeviceSerialNumber": "66112",
  "DwellTime": 2e-06,
  "EchoTime": 0.0272,
  "EchoTrainLength": 82,
  "EffectiveEchoSpacing": 0.00049,
  "FlipAngle": 44,
  "ImageComments": "Unaliased MB8/PE3",
  "ImageOrientationPatientDICOM": [0.999299, -0.0342807, 0.0150419, 0.0345471, 0.999244, -0.0178245],
  "ImageType": [
    "ORIGINAL",
    "PRIMARY",
    "M",
    "MB",
    "ND",
    "NORM",
    "MOSAIC"
],
  "ImagingFrequency": 123.252,
  "InPlanePhaseEncodingDirectionDICOM": "COL",
  "InstitutionAddress": "Maynard 3,Hanover,NH,US,03755",
  "InstitutionName": "Dartmouth College - PBS",
  "InstitutionalDepartmentName": "Department",
  "MRAcquisitionType": "2D",
  "MagneticFieldStrength": 3,
  "Manufacturer": "Siemens",
  "ManufacturersModelName": "Prisma",
  "Modality": "MR",
  "MultibandAccelerationFactor": 8,
  "PartialFourier": 1,
  "PatientPosition": "HFS",
  "PercentPhaseFOV": 100,
  "PercentSampling": 100,
  "PhaseEncodingDirection": "j-",
  "PhaseEncodingSteps": 82,
  "PhaseResolution": 1,
  "PixelBandwidth": 3050,
  "ProcedureStepDescription": "Wager_Wager^1076_spacetop",
  "ProtocolName": "func_run-04_task-social_acq-ap-mb8",
  "PulseSequenceDetails": "%CustomerSeq%\\cmrr_mbep2d_bold",
  "ReceiveCoilActiveElements": "HEA;HEP",
  "ReceiveCoilName": "Head_32",
  "ReconMatrixPE": 82,
  "RepetitionTime": 0.46,
  "SAR": 0.103713,
  "ScanOptions": "FS",
  "ScanningSequence": "EP",
  "SequenceName": "epfid2d1_82",
  "SequenceVariant": "SK\\SS",
  "SeriesDescription": "func_run-04_task-social_acq-ap-mb8",
  "SeriesNumber": 18,
  "ShimSetting": [4140, -7744, -7290, 589, -68, -161, -1, 43],
  "SliceThickness": 2.7,
  "SliceTiming": [0, 0.2525, 0.0625, 0.315, 0.125, 0.3775, 0.19, 0, 0.2525, 0.0625, 0.315, 0.125, 0.3775, 0.19, 0, 0.2525, 0.0625, 0.315, 0.125, 0.3775, 0.19, 0, 0.2525, 0.0625, 0.315, 0.125, 0.3775, 0.19, 0, 0.2525, 0.0625, 0.315, 0.125, 0.3775, 0.19, 0, 0.2525, 0.0625, 0.315, 0.125, 0.3775, 0.19, 0, 0.2525, 0.0625, 0.315, 0.125, 0.3775, 0.19, 0, 0.2525, 0.0625, 0.315, 0.125, 0.3775, 0.19],
  "SoftwareVersions": "syngo MR E11",
  "SpacingBetweenSlices": 2.7,
  "StationName": "AWP66112",
  "TaskName": "social",
  "TotalReadoutTime": 0.03969,
  "TxRefAmp": 243.703,
  "WipMemBlock": "e8fb8a74-de05-4b75-9818-5f355a922fd4||Sequence: R016 ve11e/master r/434b28f1; Aug  7 2019 18:53:46 by eja",
  "dcmmeta_affine": [
    [-2.6810462474823, 0.09268734604120255, 0.03893275558948517, 106.62801361083984],
    [0.09197256714105606, 2.680898904800415, -0.049495380371809006, -97.31167602539062],
    [0.04035643860697746, 0.04782172664999962, 2.699265480041504, -80.82166290283203],
    [0.0, 0.0, 0.0, 1.0]
],
  "dcmmeta_reorient_transform": [
    [0.0, -1.0, 0.0, 81.0],
    [1.0, 0.0, 0.0, 0.0],
    [0.0, 0.0, 1.0, 0.0],
    [0.0, 0.0, 0.0, 1.0]
],
  "dcmmeta_shape": [82, 82, 56, 872],
  "dcmmeta_slice_dim": 2,
  "dcmmeta_version": 0.6,
  "global": {
    "const": {
      "AccessionNumber": "A004254",
      "AcquisitionMatrix": [82, 0, 0, 82],
      "AngioFlag": "N",
      "BitsAllocated": 16,
      "BitsStored": 16,
      "BodyPartExamined": "BRAIN",
      "Columns": 656,
      "EchoNumbers": 1,
      "EchoTime": 27.2,
      "EchoTrainLength": 82,
      "FlipAngle": 44.0,
      "HighBit": 15,
      "ImageOrientationPatient": [0.9992990416641, -0.034280683015, 0.01504194472893, 0.03454710113847, 0.99924410751154, -0.0178244609006],
      "ImagePositionPatient": [-910.19723535487, -862.86298608537, -74.805566618716],
      "ImageType": [
        "ORIGINAL",
        "PRIMARY",
        "M",
        "MB",
        "ND",
        "NORM",
        "MOSAIC"
],
      "ImagedNucleus": "1H",
      "ImagingFrequency": 123.252225,
      "InPlanePhaseEncodingDirection": "COL",
      "MRAcquisitionType": "2D",
      "MagneticFieldStrength": 3.0,
      "Manufacturer": "SIEMENS",
      "ManufacturerModelName": "Prisma",
      "Modality": "MR",
      "NumberOfAverages": 1.0,
      "NumberOfPhaseEncodingSteps": 82,
      "PercentPhaseFieldOfView": 100.0,
      "PercentSampling": 100.0,
      "PerformedProcedureStepStartTime": "155334.919000",
      "PhotometricInterpretation": "MONOCHROME2",
      "PixelBandwidth": 3050.0,
      "PixelRepresentation": 0,
      "PixelSpacing": [2.6829268932343, 2.6829268932343],
      "ProtocolName": "func_run-04_task-social_acq-ap-mb8",
      "RepetitionTime": 460.0,
      "Rows": 656,
      "SAR": 0.10371313404467,
      "SamplesPerPixel": 1,
      "ScanOptions": "FS",
      "ScanningSequence": "EP",
      "SequenceName": "epfid2d1_82",
      "SequenceVariant": [
        "SK",
        "SS"
],
      "SeriesDescription": "func_run-04_task-social_acq-ap-mb8",
      "SeriesNumber": 18,
      "SeriesTime": "164828.388000",
      "SliceLocation": -77.478270754548,
      "SliceThickness": 2.7000000476837,
      "SmallestImagePixelValue": 0,
      "SoftwareVersions": "syngo MR E11",
      "SpacingBetweenSlices": 2.6999999586179,
      "SpecificCharacterSet": "ISO_IR 100",
      "StudyID": "1",
      "StudyTime": "155334.869000",
      "TransmitCoilName": "Body",
      "VariableFlipAngleFlag": "N",
      "WindowCenterWidthExplanation": "Algo1"
    },
    "slices": {}
  },
  "time": {
    "samples": {
      "AcquisitionNumber": [1, 2, 3, 4, 5, 6, 7, 8, 9, 10, 11, 12, 13, 14, 15, 16, 17, 18, 19, 20, 21, 22, 23, 24, 25, 26, 27, 28, 29, 30, 31, 32, 33, 34, 35, 36, 37, 38, 39, 40, 41, 42, 43, 44, 45, 46, 47, 48, 49, 50, 51, 52, 53, 54, 55, 56, 57, 58, 59, 60, 61, 62, 63, 64, 65, 66, 67, 68, 69, 70, 71, 72, 73, 74, 75, 76, 77, 78, 79, 80, 81, 82, 83, 84, 85, 86, 87, 88, 89, 90, 91, 92, 93, 94, 95, 96, 97, 98, 99, 100, 101, 102, 103, 104, 105, 106, 107, 108, 109, 110, 111, 112, 113, 114, 115, 116, 117, 118, 119, 120, 121, 122, 123, 124, 125, 126, 127, 128, 129, 130, 131, 132, 133, 134, 135, 136, 137, 138, 139, 140, 141, 142, 143, 144, 145, 146, 147, 148, 149, 150, 151, 152, 153, 154, 155, 156, 157, 158, 159, 160, 161, 162, 163, 164, 165, 166, 167, 168, 169, 170, 171, 172, 173, 174, 175, 176, 177, 178, 179, 180, 181, 182, 183, 184, 185, 186, 187, 188, 189, 190, 191, 192, 193, 194, 195, 196, 197, 198, 199, 200, 201, 202, 203, 204, 205, 206, 207, 208, 209, 210, 211, 212, 213, 214, 215, 216, 217, 218, 219, 220, 221, 222, 223, 224, 225, 226, 227, 228, 229, 230, 231, 232, 233, 234, 235, 236, 237, 238, 239, 240, 241, 242, 243, 244, 245, 246, 247, 248, 249, 250, 251, 252, 253, 254, 255, 256, 257, 258, 259, 260, 261, 262, 263, 264, 265, 266, 267, 268, 269, 270, 271, 272, 273, 274, 275, 276, 277, 278, 279, 280, 281, 282, 283, 284, 285, 286, 287, 288, 289, 290, 291, 292, 293, 294, 295, 296, 297, 298, 299, 300, 301, 302, 303, 304, 305, 306, 307, 308, 309, 310, 311, 312, 313, 314, 315, 316, 317, 318, 319, 320, 321, 322, 323, 324, 325, 326, 327, 328, 329, 330, 331, 332, 333, 334, 335, 336, 337, 338, 339, 340, 341, 342, 343, 344, 345, 346, 347, 348, 349, 350, 351, 352, 353, 354, 355, 356, 357, 358, 359, 360, 361, 362, 363, 364, 365, 366, 367, 368, 369, 370, 371, 372, 373, 374, 375, 376, 377, 378, 379, 380, 381, 382, 383, 384, 385, 386, 387, 388, 389, 390, 391, 392, 393, 394, 395, 396, 397, 398, 399, 400, 401, 402, 403, 404, 405, 406, 407, 408, 409, 410, 411, 412, 413, 414, 415, 416, 417, 418, 419, 420, 421, 422, 423, 424, 425, 426, 427, 428, 429, 430, 431, 432, 433, 434, 435, 436, 437, 438, 439, 440, 441, 442, 443, 444, 445, 446, 447, 448, 449, 450, 451, 452, 453, 454, 455, 456, 457, 458, 459, 460, 461, 462, 463, 464, 465, 466, 467, 468, 469, 470, 471, 472, 473, 474, 475, 476, 477, 478, 479, 480, 481, 482, 483, 484, 485, 486, 487, 488, 489, 490, 491, 492, 493, 494, 495, 496, 497, 498, 499, 500, 501, 502, 503, 504, 505, 506, 507, 508, 509, 510, 511, 512, 513, 514, 515, 516, 517, 518, 519, 520, 521, 522, 523, 524, 525, 526, 527, 528, 529, 530, 531, 532, 533, 534, 535, 536, 537, 538, 539, 540, 541, 542, 543, 544, 545, 546, 547, 548, 549, 550, 551, 552, 553, 554, 555, 556, 557, 558, 559, 560, 561, 562, 563, 564, 565, 566, 567, 568, 569, 570, 571, 572, 573, 574, 575, 576, 577, 578, 579, 580, 581, 582, 583, 584, 585, 586, 587, 588, 589, 590, 591, 592, 593, 594, 595, 596, 597, 598, 599, 600, 601, 602, 603, 604, 605, 606, 607, 608, 609, 610, 611, 612, 613, 614, 615, 616, 617, 618, 619, 620, 621, 622, 623, 624, 625, 626, 627, 628, 629, 630, 631, 632, 633, 634, 635, 636, 637, 638, 639, 640, 641, 642, 643, 644, 645, 646, 647, 648, 649, 650, 651, 652, 653, 654, 655, 656, 657, 658, 659, 660, 661, 662, 663, 664, 665, 666, 667, 668, 669, 670, 671, 672, 673, 674, 675, 676, 677, 678, 679, 680, 681, 682, 683, 684, 685, 686, 687, 688, 689, 690, 691, 692, 693, 694, 695, 696, 697, 698, 699, 700, 701, 702, 703, 704, 705, 706, 707, 708, 709, 710, 711, 712, 713, 714, 715, 716, 717, 718, 719, 720, 721, 722, 723, 724, 725, 726, 727, 728, 729, 730, 731, 732, 733, 734, 735, 736, 737, 738, 739, 740, 741, 742, 743, 744, 745, 746, 747, 748, 749, 750, 751, 752, 753, 754, 755, 756, 757, 758, 759, 760, 761, 762, 763, 764, 765, 766, 767, 768, 769, 770, 771, 772, 773, 774, 775, 776, 777, 778, 779, 780, 781, 782, 783, 784, 785, 786, 787, 788, 789, 790, 791, 792, 793, 794, 795, 796, 797, 798, 799, 800, 801, 802, 803, 804, 805, 806, 807, 808, 809, 810, 811, 812, 813, 814, 815, 816, 817, 818, 819, 820, 821, 822, 823, 824, 825, 826, 827, 828, 829, 830, 831, 832, 833, 834, 835, 836, 837, 838, 839, 840, 841, 842, 843, 844, 845, 846, 847, 848, 849, 850, 851, 852, 853, 854, 855, 856, 857, 858, 859, 860, 861, 862, 863, 864, 865, 866, 867, 868, 869, 870, 871, 872],
      "AcquisitionTime": ["164813.367500", "164813.827500", "164814.287500", "164814.747500", "164815.207500", "164815.667500", "164816.127500", "164816.587500", "164817.047500", "164817.507500", "164817.967500", "164818.427500", "164818.887500", "164819.347500", "164819.807500", "164820.267500", "164820.727500", "164821.187500", "164821.647500", "164822.107500", "164822.567500", "164823.027500", "164823.487500", "164823.947500", "164824.407500", "164824.867500", "164825.327500", "164825.787500", "164826.247500", "164826.707500", "164827.167500", "164827.627500", "164828.087500", "164828.547500", "164829.007500", "164829.467500", "164829.927500", "164830.387500", "164830.847500", "164831.307500", "164831.767500", "164832.227500", "164832.687500", "164833.147500", "164833.607500", "164834.067500", "164834.527500", "164834.987500", "164835.447500", "164835.907500", "164836.367500", "164836.827500", "164837.287500", "164837.747500", "164838.207500", "164838.667500", "164839.127500", "164839.587500", "164840.047500", "164840.507500", "164840.967500", "164841.427500", "164841.887500", "164842.347500", "164842.807500", "164843.267500", "164843.727500", "164844.187500", "164844.647500", "164845.107500", "164845.567500", "164846.027500", "164846.487500", "164846.947500", "164847.407500", "164847.867500", "164848.327500", "164848.787500", "164849.247500", "164849.707500", "164850.167500", "164850.627500", "164851.087500", "164851.547500", "164852.007500", "164852.467500", "164852.927500", "164853.387500", "164853.847500", "164854.307500", "164854.767500", "164855.227500", "164855.687500", "164856.147500", "164856.607500", "164857.067500", "164857.527500", "164857.987500", "164858.447500", "164858.907500", "164859.367500", "164859.827500", "164900.287500", "164900.747500", "164901.207500", "164901.667500", "164902.127500", "164902.587500", "164903.047500", "164903.507500", "164903.967500", "164904.427500", "164904.887500", "164905.347500", "164905.807500", "164906.267500", "164906.727500", "164907.187500", "164907.647500", "164908.107500", "164908.567500", "164909.027500", "164909.487500", "164909.947500", "164910.407500", "164910.867500", "164911.327500", "164911.787500", "164912.247500", "164912.707500", "164913.167500", "164913.627500", "164914.087500", "164914.547500", "164915.007500", "164915.467500", "164915.927500", "164916.387500", "164916.847500", "164917.307500", "164917.767500", "164918.227500", "164918.687500", "164919.147500", "164919.607500", "164920.067500", "164920.527500", "164920.987500", "164921.447500", "164921.907500", "164922.367500", "164922.827500", "164923.287500", "164923.747500", "164924.207500", "164924.667500", "164925.127500", "164925.587500", "164926.047500", "164926.507500", "164926.967500", "164927.427500", "164927.887500", "164928.347500", "164928.807500", "164929.267500", "164929.727500", "164930.187500", "164930.647500", "164931.107500", "164931.567500", "164932.027500", "164932.487500", "164932.947500", "164933.407500", "164933.867500", "164934.327500", "164934.787500", "164935.247500", "164935.707500", "164936.167500", "164936.627500", "164937.087500", "164937.547500", "164938.007500", "164938.467500", "164938.927500", "164939.387500", "164939.847500", "164940.307500", "164940.767500", "164941.227500", "164941.687500", "164942.147500", "164942.607500", "164943.067500", "164943.527500", "164943.987500", "164944.447500", "164944.907500", "164945.367500", "164945.827500", "164946.287500", "164946.747500", "164947.207500", "164947.667500", "164948.127500", "164948.587500", "164949.047500", "164949.507500", "164949.967500", "164950.427500", "164950.887500", "164951.347500", "164951.807500", "164952.267500", "164952.727500", "164953.187500", "164953.647500", "164954.107500", "164954.567500", "164955.027500", "164955.487500", "164955.947500", "164956.407500", "164956.867500", "164957.327500", "164957.787500", "164958.247500", "164958.707500", "164959.167500", "164959.627500", "165000.087500", "165000.547500", "165001.007500", "165001.467500", "165001.927500", "165002.387500", "165002.847500", "165003.307500", "165003.767500", "165004.227500", "165004.687500", "165005.147500", "165005.607500", "165006.067500", "165006.527500", "165006.987500", "165007.447500", "165007.907500", "165008.367500", "165008.827500", "165009.287500", "165009.747500", "165010.207500", "165010.667500", "165011.127500", "165011.587500", "165012.047500", "165012.507500", "165012.967500", "165013.427500", "165013.887500", "165014.347500", "165014.807500", "165015.267500", "165015.727500", "165016.187500", "165016.647500", "165017.107500", "165017.567500", "165018.027500", "165018.487500", "165018.947500", "165019.407500", "165019.867500", "165020.327500", "165020.787500", "165021.247500", "165021.707500", "165022.167500", "165022.627500", "165023.087500", "165023.547500", "165024.007500", "165024.467500", "165024.927500", "165025.387500", "165025.847500", "165026.307500", "165026.767500", "165027.227500", "165027.687500", "165028.147500", "165028.607500", "165029.067500", "165029.527500", "165029.987500", "165030.447500", "165030.907500", "165031.367500", "165031.827500", "165032.287500", "165032.747500", "165033.207500", "165033.667500", "165034.127500", "165034.587500", "165035.047500", "165035.507500", "165035.967500", "165036.427500", "165036.887500", "165037.347500", "165037.807500", "165038.267500", "165038.727500", "165039.187500", "165039.647500", "165040.107500", "165040.567500", "165041.027500", "165041.487500", "165041.947500", "165042.407500", "165042.867500", "165043.327500", "165043.787500", "165044.247500", "165044.707500", "165045.167500", "165045.627500", "165046.087500", "165046.547500", "165047.007500", "165047.467500", "165047.927500", "165048.387500", "165048.847500", "165049.307500", "165049.767500", "165050.227500", "165050.687500", "165051.147500", "165051.607500", "165052.067500", "165052.527500", "165052.987500", "165053.447500", "165053.907500", "165054.367500", "165054.827500", "165055.287500", "165055.747500", "165056.207500", "165056.667500", "165057.127500", "165057.587500", "165058.047500", "165058.507500", "165058.967500", "165059.427500", "165059.887500", "165100.347500", "165100.807500", "165101.267500", "165101.727500", "165102.187500", "165102.647500", "165103.107500", "165103.567500", "165104.027500", "165104.487500", "165104.947500", "165105.407500", "165105.867500", "165106.327500", "165106.787500", "165107.247500", "165107.707500", "165108.167500", "165108.627500", "165109.087500", "165109.547500", "165110.007500", "165110.467500", "165110.927500", "165111.387500", "165111.847500", "165112.307500", "165112.767500", "165113.227500", "165113.687500", "165114.147500", "165114.607500", "165115.067500", "165115.527500", "165115.987500", "165116.447500", "165116.907500", "165117.367500", "165117.827500", "165118.287500", "165118.747500", "165119.207500", "165119.667500", "165120.127500", "165120.587500", "165121.047500", "165121.507500", "165121.967500", "165122.427500", "165122.887500", "165123.347500", "165123.807500", "165124.267500", "165124.727500", "165125.187500", "165125.647500", "165126.107500", "165126.567500", "165127.027500", "165127.487500", "165127.947500", "165128.407500", "165128.867500", "165129.327500", "165129.787500", "165130.247500", "165130.707500", "165131.167500", "165131.627500", "165132.087500", "165132.547500", "165133.007500", "165133.467500", "165133.927500", "165134.387500", "165134.847500", "165135.307500", "165135.767500", "165136.227500", "165136.687500", "165137.147500", "165137.607500", "165138.067500", "165138.527500", "165138.987500", "165139.447500", "165139.907500", "165140.367500", "165140.827500", "165141.287500", "165141.747500", "165142.207500", "165142.667500", "165143.127500", "165143.587500", "165144.047500", "165144.507500", "165144.967500", "165145.427500", "165145.887500", "165146.347500", "165146.807500", "165147.267500", "165147.727500", "165148.187500", "165148.647500", "165149.107500", "165149.567500", "165150.027500", "165150.487500", "165150.947500", "165151.407500", "165151.867500", "165152.327500", "165152.787500", "165153.247500", "165153.707500", "165154.167500", "165154.627500", "165155.087500", "165155.547500", "165156.007500", "165156.467500", "165156.927500", "165157.387500", "165157.847500", "165158.307500", "165158.767500", "165159.227500", "165159.687500", "165200.147500", "165200.607500", "165201.067500", "165201.527500", "165201.987500", "165202.447500", "165202.907500", "165203.367500", "165203.827500", "165204.287500", "165204.747500", "165205.207500", "165205.667500", "165206.127500", "165206.587500", "165207.047500", "165207.507500", "165207.967500", "165208.427500", "165208.887500", "165209.347500", "165209.807500", "165210.267500", "165210.727500", "165211.187500", "165211.647500", "165212.107500", "165212.567500", "165213.027500", "165213.487500", "165213.947500", "165214.407500", "165214.867500", "165215.327500", "165215.787500", "165216.247500", "165216.707500", "165217.167500", "165217.627500", "165218.087500", "165218.547500", "165219.007500", "165219.467500", "165219.927500", "165220.387500", "165220.847500", "165221.307500", "165221.767500", "165222.227500", "165222.687500", "165223.147500", "165223.607500", "165224.067500", "165224.527500", "165224.987500", "165225.447500", "165225.907500", "165226.367500", "165226.827500", "165227.287500", "165227.747500", "165228.207500", "165228.667500", "165229.127500", "165229.587500", "165230.047500", "165230.507500", "165230.967500", "165231.427500", "165231.887500", "165232.347500", "165232.807500", "165233.267500", "165233.727500", "165234.187500", "165234.647500", "165235.107500", "165235.567500", "165236.027500", "165236.487500", "165236.947500", "165237.407500", "165237.867500", "165238.327500", "165238.787500", "165239.247500", "165239.707500", "165240.167500", "165240.627500", "165241.087500", "165241.547500", "165242.007500", "165242.467500", "165242.927500", "165243.387500", "165243.847500", "165244.307500", "165244.767500", "165245.227500", "165245.687500", "165246.147500", "165246.607500", "165247.067500", "165247.527500", "165247.987500", "165248.447500", "165248.907500", "165249.367500", "165249.827500", "165250.287500", "165250.747500", "165251.207500", "165251.667500", "165252.127500", "165252.587500", "165253.047500", "165253.507500", "165253.967500", "165254.427500", "165254.887500", "165255.347500", "165255.807500", "165256.267500", "165256.727500", "165257.187500", "165257.647500", "165258.107500", "165258.567500", "165259.027500", "165259.487500", "165259.947500", "165300.407500", "165300.867500", "165301.327500", "165301.787500", "165302.247500", "165302.707500", "165303.167500", "165303.627500", "165304.087500", "165304.547500", "165305.007500", "165305.467500", "165305.927500", "165306.387500", "165306.847500", "165307.307500", "165307.767500", "165308.227500", "165308.687500", "165309.147500", "165309.607500", "165310.067500", "165310.527500", "165310.987500", "165311.447500", "165311.907500", "165312.367500", "165312.827500", "165313.287500", "165313.747500", "165314.207500", "165314.667500", "165315.127500", "165315.587500", "165316.047500", "165316.507500", "165316.967500", "165317.427500", "165317.887500", "165318.347500", "165318.807500", "165319.267500", "165319.727500", "165320.187500", "165320.647500", "165321.107500", "165321.567500", "165322.027500", "165322.487500", "165322.947500", "165323.407500", "165323.867500", "165324.327500", "165324.787500", "165325.247500", "165325.707500", "165326.167500", "165326.627500", "165327.087500", "165327.547500", "165328.007500", "165328.467500", "165328.927500", "165329.387500", "165329.847500", "165330.307500", "165330.767500", "165331.227500", "165331.687500", "165332.147500", "165332.607500", "165333.067500", "165333.527500", "165333.987500", "165334.447500", "165334.907500", "165335.367500", "165335.827500", "165336.287500", "165336.747500", "165337.207500", "165337.667500", "165338.127500", "165338.587500", "165339.047500", "165339.507500", "165339.967500", "165340.427500", "165340.887500", "165341.347500", "165341.807500", "165342.267500", "165342.727500", "165343.187500", "165343.647500", "165344.107500", "165344.567500", "165345.027500", "165345.487500", "165345.947500", "165346.407500", "165346.867500", "165347.327500", "165347.787500", "165348.247500", "165348.707500", "165349.167500", "165349.627500", "165350.087500", "165350.547500", "165351.007500", "165351.467500", "165351.927500", "165352.387500", "165352.847500", "165353.307500", "165353.767500", "165354.227500", "165354.687500", "165355.147500", "165355.607500", "165356.067500", "165356.527500", "165356.987500", "165357.447500", "165357.907500", "165358.367500", "165358.827500", "165359.287500", "165359.747500", "165400.207500", "165400.667500", "165401.127500", "165401.587500", "165402.047500", "165402.507500", "165402.967500", "165403.427500", "165403.887500", "165404.347500", "165404.807500", "165405.267500", "165405.727500", "165406.187500", "165406.647500", "165407.107500", "165407.567500", "165408.027500", "165408.487500", "165408.947500", "165409.407500", "165409.867500", "165410.327500", "165410.787500", "165411.247500", "165411.707500", "165412.167500", "165412.627500", "165413.087500", "165413.547500", "165414.007500", "165414.467500", "165414.927500", "165415.387500", "165415.847500", "165416.307500", "165416.767500", "165417.227500", "165417.687500", "165418.147500", "165418.607500", "165419.067500", "165419.527500", "165419.987500", "165420.447500", "165420.907500", "165421.367500", "165421.827500", "165422.287500", "165422.747500", "165423.207500", "165423.667500", "165424.127500", "165424.587500", "165425.047500", "165425.507500", "165425.967500", "165426.427500", "165426.887500", "165427.347500", "165427.807500", "165428.267500", "165428.727500", "165429.187500", "165429.647500", "165430.107500", "165430.567500", "165431.027500", "165431.487500", "165431.947500", "165432.407500", "165432.867500", "165433.327500", "165433.787500", "165434.247500", "165434.707500", "165435.167500", "165435.627500", "165436.087500", "165436.547500", "165437.007500", "165437.467500", "165437.927500", "165438.387500", "165438.847500", "165439.307500", "165439.767500", "165440.227500", "165440.687500", "165441.147500", "165441.607500", "165442.067500", "165442.527500", "165442.987500", "165443.447500", "165443.907500", "165444.367500", "165444.827500", "165445.287500", "165445.747500", "165446.207500", "165446.667500", "165447.127500", "165447.587500", "165448.047500", "165448.507500", "165448.967500", "165449.427500", "165449.887500", "165450.347500", "165450.807500", "165451.267500", "165451.727500", "165452.187500", "165452.647500", "165453.107500", "165453.567500", "165454.027500"],
