{
  "AcquisitionMatrixPE": 82,
  "AcquisitionNumber": 1,
  "AcquisitionTime": "16:23:55.682500",
  "BandwidthPerPixelPhaseEncode": 24.888,
  "BaseResolution": 82,
  "BodyPartExamined": "BRAIN",
  "ConsistencyInfo": "N4_VE11E_LATEST_20181129",
  "ConversionSoftware": "dcm2niix",
  "ConversionSoftwareVersion": "v1.0.20201102",
  "DerivedVendorReportedEchoSpacing": 0.00049,
  "DeviceSerialNumber": "66112",
  "DwellTime": 2e-06,
  "EchoTime": 0.0272,
  "EchoTrainLength": 82,
  "EffectiveEchoSpacing": 0.00049,
  "FlipAngle": 44,
  "ImageComments": "Unaliased MB8/PE3",
  "ImageOrientationPatientDICOM": [0.999299, -0.0342807, 0.0150419, 0.0345471, 0.999244, -0.0178245],
  "ImageType": [
    "ORIGINAL",
    "PRIMARY",
    "M",
    "MB",
    "ND",
    "NORM",
    "MOSAIC"
],
  "ImagingFrequency": 123.252,
  "InPlanePhaseEncodingDirectionDICOM": "COL",
  "InstitutionAddress": "Maynard 3,Hanover,NH,US,03755",
  "InstitutionName": "Dartmouth College - PBS",
  "InstitutionalDepartmentName": "Department",
  "MRAcquisitionType": "2D",
  "MagneticFieldStrength": 3,
  "Manufacturer": "Siemens",
  "ManufacturersModelName": "Prisma",
  "Modality": "MR",
  "MultibandAccelerationFactor": 8,
  "PartialFourier": 1,
  "PatientPosition": "HFS",
  "PercentPhaseFOV": 100,
  "PercentSampling": 100,
  "PhaseEncodingDirection": "j-",
  "PhaseEncodingSteps": 82,
  "PhaseResolution": 1,
  "PixelBandwidth": 3050,
  "ProcedureStepDescription": "Wager_Wager^1076_spacetop",
  "ProtocolName": "func_run-01_task-social_acq-ap-mb8",
  "PulseSequenceDetails": "%CustomerSeq%\\cmrr_mbep2d_bold",
  "ReceiveCoilActiveElements": "HEA;HEP",
  "ReceiveCoilName": "Head_32",
  "ReconMatrixPE": 82,
  "RepetitionTime": 0.46,
  "SAR": 0.103713,
  "ScanOptions": "FS",
  "ScanningSequence": "EP",
  "SequenceName": "epfid2d1_82",
  "SequenceVariant": "SK\\SS",
  "SeriesDescription": "func_run-01_task-social_acq-ap-mb8",
  "SeriesNumber": 12,
  "ShimSetting": [4140, -7744, -7290, 589, -68, -161, -1, 43],
  "SliceThickness": 2.7,
  "SliceTiming": [0, 0.25, 0.0625, 0.315, 0.125, 0.3775, 0.1875, 0, 0.25, 0.0625, 0.315, 0.125, 0.3775, 0.1875, 0, 0.25, 0.0625, 0.315, 0.125, 0.3775, 0.1875, 0, 0.25, 0.0625, 0.315, 0.125, 0.3775, 0.1875, 0, 0.25, 0.0625, 0.315, 0.125, 0.3775, 0.1875, 0, 0.25, 0.0625, 0.315, 0.125, 0.3775, 0.1875, 0, 0.25, 0.0625, 0.315, 0.125, 0.3775, 0.1875, 0, 0.25, 0.0625, 0.315, 0.125, 0.3775, 0.1875],
  "SoftwareVersions": "syngo MR E11",
  "SpacingBetweenSlices": 2.7,
  "StationName": "AWP66112",
  "TaskName": "social",
  "TotalReadoutTime": 0.03969,
  "TxRefAmp": 243.703,
  "WipMemBlock": "37b84464-82c4-45b5-b39a-3aaf0b448687||Sequence: R016 ve11e/master r/434b28f1; Aug  7 2019 18:53:46 by eja",
  "dcmmeta_affine": [
    [-2.6810462474823, 0.09268734604120255, 0.03893275558948517, 106.62801361083984],
    [0.09197256714105606, 2.680898904800415, -0.049495380371809006, -97.31167602539062],
    [0.04035643860697746, 0.04782172664999962, 2.699265480041504, -80.82166290283203],
    [0.0, 0.0, 0.0, 1.0]
],
  "dcmmeta_reorient_transform": [
    [0.0, -1.0, 0.0, 81.0],
    [1.0, 0.0, 0.0, 0.0],
    [0.0, 0.0, 1.0, 0.0],
    [0.0, 0.0, 0.0, 1.0]
],
  "dcmmeta_shape": [82, 82, 56, 872],
  "dcmmeta_slice_dim": 2,
  "dcmmeta_version": 0.6,
  "global": {
    "const": {
      "AccessionNumber": "A004254",
      "AcquisitionMatrix": [82, 0, 0, 82],
      "AngioFlag": "N",
      "BitsAllocated": 16,
      "BitsStored": 16,
      "BodyPartExamined": "BRAIN",
      "Columns": 656,
      "EchoNumbers": 1,
      "EchoTime": 27.2,
      "EchoTrainLength": 82,
      "FlipAngle": 44.0,
      "HighBit": 15,
      "ImageOrientationPatient": [0.9992990416641, -0.034280683015, 0.01504194472893, 0.03454710113847, 0.99924410751154, -0.0178244609006],
      "ImagePositionPatient": [-910.19723535487, -862.86298608537, -74.805566618716],
      "ImageType": [
        "ORIGINAL",
        "PRIMARY",
        "M",
        "MB",
        "ND",
        "NORM",
        "MOSAIC"
],
      "ImagedNucleus": "1H",
      "ImagingFrequency": 123.252212,
      "InPlanePhaseEncodingDirection": "COL",
      "MRAcquisitionType": "2D",
      "MagneticFieldStrength": 3.0,
      "Manufacturer": "SIEMENS",
      "ManufacturerModelName": "Prisma",
      "Modality": "MR",
      "NumberOfAverages": 1.0,
      "NumberOfPhaseEncodingSteps": 82,
      "PercentPhaseFieldOfView": 100.0,
      "PercentSampling": 100.0,
      "PerformedProcedureStepStartTime": "155334.919000",
      "PhotometricInterpretation": "MONOCHROME2",
      "PixelBandwidth": 3050.0,
      "PixelRepresentation": 0,
      "PixelSpacing": [2.6829268932343, 2.6829268932343],
      "ProtocolName": "func_run-01_task-social_acq-ap-mb8",
      "RepetitionTime": 460.0,
      "Rows": 656,
      "SAR": 0.10371313404467,
      "SamplesPerPixel": 1,
      "ScanOptions": "FS",
      "ScanningSequence": "EP",
      "SequenceName": "epfid2d1_82",
      "SequenceVariant": [
        "SK",
        "SS"
],
      "SeriesDescription": "func_run-01_task-social_acq-ap-mb8",
      "SeriesNumber": 12,
      "SeriesTime": "162408.420000",
      "SliceLocation": -77.478270754548,
      "SliceThickness": 2.7000000476837,
      "SmallestImagePixelValue": 0,
      "SoftwareVersions": "syngo MR E11",
      "SpacingBetweenSlices": 2.6999999586179,
      "SpecificCharacterSet": "ISO_IR 100",
      "StudyID": "1",
      "StudyTime": "155334.869000",
      "TransmitCoilName": "Body",
      "VariableFlipAngleFlag": "N",
      "WindowCenterWidthExplanation": "Algo1"
    },
    "slices": {}
  },
  "time": {
    "samples": {
      "AcquisitionNumber": [1, 2, 3, 4, 5, 6, 7, 8, 9, 10, 11, 12, 13, 14, 15, 16, 17, 18, 19, 20, 21, 22, 23, 24, 25, 26, 27, 28, 29, 30, 31, 32, 33, 34, 35, 36, 37, 38, 39, 40, 41, 42, 43, 44, 45, 46, 47, 48, 49, 50, 51, 52, 53, 54, 55, 56, 57, 58, 59, 60, 61, 62, 63, 64, 65, 66, 67, 68, 69, 70, 71, 72, 73, 74, 75, 76, 77, 78, 79, 80, 81, 82, 83, 84, 85, 86, 87, 88, 89, 90, 91, 92, 93, 94, 95, 96, 97, 98, 99, 100, 101, 102, 103, 104, 105, 106, 107, 108, 109, 110, 111, 112, 113, 114, 115, 116, 117, 118, 119, 120, 121, 122, 123, 124, 125, 126, 127, 128, 129, 130, 131, 132, 133, 134, 135, 136, 137, 138, 139, 140, 141, 142, 143, 144, 145, 146, 147, 148, 149, 150, 151, 152, 153, 154, 155, 156, 157, 158, 159, 160, 161, 162, 163, 164, 165, 166, 167, 168, 169, 170, 171, 172, 173, 174, 175, 176, 177, 178, 179, 180, 181, 182, 183, 184, 185, 186, 187, 188, 189, 190, 191, 192, 193, 194, 195, 196, 197, 198, 199, 200, 201, 202, 203, 204, 205, 206, 207, 208, 209, 210, 211, 212, 213, 214, 215, 216, 217, 218, 219, 220, 221, 222, 223, 224, 225, 226, 227, 228, 229, 230, 231, 232, 233, 234, 235, 236, 237, 238, 239, 240, 241, 242, 243, 244, 245, 246, 247, 248, 249, 250, 251, 252, 253, 254, 255, 256, 257, 258, 259, 260, 261, 262, 263, 264, 265, 266, 267, 268, 269, 270, 271, 272, 273, 274, 275, 276, 277, 278, 279, 280, 281, 282, 283, 284, 285, 286, 287, 288, 289, 290, 291, 292, 293, 294, 295, 296, 297, 298, 299, 300, 301, 302, 303, 304, 305, 306, 307, 308, 309, 310, 311, 312, 313, 314, 315, 316, 317, 318, 319, 320, 321, 322, 323, 324, 325, 326, 327, 328, 329, 330, 331, 332, 333, 334, 335, 336, 337, 338, 339, 340, 341, 342, 343, 344, 345, 346, 347, 348, 349, 350, 351, 352, 353, 354, 355, 356, 357, 358, 359, 360, 361, 362, 363, 364, 365, 366, 367, 368, 369, 370, 371, 372, 373, 374, 375, 376, 377, 378, 379, 380, 381, 382, 383, 384, 385, 386, 387, 388, 389, 390, 391, 392, 393, 394, 395, 396, 397, 398, 399, 400, 401, 402, 403, 404, 405, 406, 407, 408, 409, 410, 411, 412, 413, 414, 415, 416, 417, 418, 419, 420, 421, 422, 423, 424, 425, 426, 427, 428, 429, 430, 431, 432, 433, 434, 435, 436, 437, 438, 439, 440, 441, 442, 443, 444, 445, 446, 447, 448, 449, 450, 451, 452, 453, 454, 455, 456, 457, 458, 459, 460, 461, 462, 463, 464, 465, 466, 467, 468, 469, 470, 471, 472, 473, 474, 475, 476, 477, 478, 479, 480, 481, 482, 483, 484, 485, 486, 487, 488, 489, 490, 491, 492, 493, 494, 495, 496, 497, 498, 499, 500, 501, 502, 503, 504, 505, 506, 507, 508, 509, 510, 511, 512, 513, 514, 515, 516, 517, 518, 519, 520, 521, 522, 523, 524, 525, 526, 527, 528, 529, 530, 531, 532, 533, 534, 535, 536, 537, 538, 539, 540, 541, 542, 543, 544, 545, 546, 547, 548, 549, 550, 551, 552, 553, 554, 555, 556, 557, 558, 559, 560, 561, 562, 563, 564, 565, 566, 567, 568, 569, 570, 571, 572, 573, 574, 575, 576, 577, 578, 579, 580, 581, 582, 583, 584, 585, 586, 587, 588, 589, 590, 591, 592, 593, 594, 595, 596, 597, 598, 599, 600, 601, 602, 603, 604, 605, 606, 607, 608, 609, 610, 611, 612, 613, 614, 615, 616, 617, 618, 619, 620, 621, 622, 623, 624, 625, 626, 627, 628, 629, 630, 631, 632, 633, 634, 635, 636, 637, 638, 639, 640, 641, 642, 643, 644, 645, 646, 647, 648, 649, 650, 651, 652, 653, 654, 655, 656, 657, 658, 659, 660, 661, 662, 663, 664, 665, 666, 667, 668, 669, 670, 671, 672, 673, 674, 675, 676, 677, 678, 679, 680, 681, 682, 683, 684, 685, 686, 687, 688, 689, 690, 691, 692, 693, 694, 695, 696, 697, 698, 699, 700, 701, 702, 703, 704, 705, 706, 707, 708, 709, 710, 711, 712, 713, 714, 715, 716, 717, 718, 719, 720, 721, 722, 723, 724, 725, 726, 727, 728, 729, 730, 731, 732, 733, 734, 735, 736, 737, 738, 739, 740, 741, 742, 743, 744, 745, 746, 747, 748, 749, 750, 751, 752, 753, 754, 755, 756, 757, 758, 759, 760, 761, 762, 763, 764, 765, 766, 767, 768, 769, 770, 771, 772, 773, 774, 775, 776, 777, 778, 779, 780, 781, 782, 783, 784, 785, 786, 787, 788, 789, 790, 791, 792, 793, 794, 795, 796, 797, 798, 799, 800, 801, 802, 803, 804, 805, 806, 807, 808, 809, 810, 811, 812, 813, 814, 815, 816, 817, 818, 819, 820, 821, 822, 823, 824, 825, 826, 827, 828, 829, 830, 831, 832, 833, 834, 835, 836, 837, 838, 839, 840, 841, 842, 843, 844, 845, 846, 847, 848, 849, 850, 851, 852, 853, 854, 855, 856, 857, 858, 859, 860, 861, 862, 863, 864, 865, 866, 867, 868, 869, 870, 871, 872],
      "AcquisitionTime": ["162355.682500", "162356.142500", "162356.602500", "162357.062500", "162357.522500", "162357.982500", "162358.442500", "162358.902500", "162359.362500", "162359.822500", "162400.282500", "162400.742500", "162401.202500", "162401.662500", "162402.122500", "162402.582500", "162403.042500", "162403.502500", "162403.962500", "162404.422500", "162404.882500", "162405.342500", "162405.802500", "162406.262500", "162406.722500", "162407.182500", "162407.642500", "162408.102500", "162408.562500", "162409.022500", "162409.482500", "162409.942500", "162410.402500", "162410.862500", "162411.322500", "162411.782500", "162412.242500", "162412.702500", "162413.162500", "162413.622500", "162414.082500", "162414.542500", "162415.002500", "162415.462500", "162415.922500", "162416.382500", "162416.842500", "162417.302500", "162417.762500", "162418.222500", "162418.682500", "162419.142500", "162419.602500", "162420.062500", "162420.522500", "162420.982500", "162421.442500", "162421.902500", "162422.362500", "162422.822500", "162423.282500", "162423.742500", "162424.202500", "162424.662500", "162425.122500", "162425.582500", "162426.042500", "162426.502500", "162426.962500", "162427.422500", "162427.882500", "162428.342500", "162428.802500", "162429.262500", "162429.722500", "162430.182500", "162430.642500", "162431.102500", "162431.562500", "162432.022500", "162432.482500", "162432.942500", "162433.402500", "162433.862500", "162434.322500", "162434.782500", "162435.242500", "162435.702500", "162436.162500", "162436.622500", "162437.082500", "162437.542500", "162438.002500", "162438.462500", "162438.922500", "162439.382500", "162439.842500", "162440.302500", "162440.762500", "162441.222500", "162441.682500", "162442.142500", "162442.602500", "162443.062500", "162443.522500", "162443.982500", "162444.442500", "162444.902500", "162445.362500", "162445.822500", "162446.282500", "162446.742500", "162447.202500", "162447.662500", "162448.122500", "162448.582500", "162449.042500", "162449.502500", "162449.962500", "162450.422500", "162450.882500", "162451.342500", "162451.802500", "162452.262500", "162452.722500", "162453.182500", "162453.642500", "162454.102500", "162454.562500", "162455.022500", "162455.482500", "162455.942500", "162456.402500", "162456.862500", "162457.322500", "162457.782500", "162458.242500", "162458.702500", "162459.162500", "162459.622500", "162500.082500", "162500.542500", "162501.002500", "162501.462500", "162501.922500", "162502.382500", "162502.842500", "162503.302500", "162503.762500", "162504.222500", "162504.682500", "162505.142500", "162505.602500", "162506.062500", "162506.522500", "162506.982500", "162507.442500", "162507.902500", "162508.362500", "162508.822500", "162509.282500", "162509.742500", "162510.202500", "162510.662500", "162511.122500", "162511.582500", "162512.042500", "162512.502500", "162512.962500", "162513.422500", "162513.882500", "162514.342500", "162514.802500", "162515.262500", "162515.722500", "162516.182500", "162516.642500", "162517.102500", "162517.562500", "162518.022500", "162518.482500", "162518.942500", "162519.402500", "162519.862500", "162520.322500", "162520.782500", "162521.242500", "162521.702500", "162522.162500", "162522.622500", "162523.082500", "162523.542500", "162524.002500", "162524.462500", "162524.922500", "162525.382500", "162525.842500", "162526.302500", "162526.762500", "162527.222500", "162527.682500", "162528.142500", "162528.602500", "162529.062500", "162529.522500", "162529.982500", "162530.442500", "162530.902500", "162531.362500", "162531.822500", "162532.282500", "162532.742500", "162533.202500", "162533.662500", "162534.122500", "162534.582500", "162535.042500", "162535.502500", "162535.962500", "162536.422500", "162536.882500", "162537.342500", "162537.802500", "162538.262500", "162538.722500", "162539.182500", "162539.642500", "162540.102500", "162540.562500", "162541.022500", "162541.482500", "162541.942500", "162542.402500", "162542.862500", "162543.322500", "162543.782500", "162544.242500", "162544.702500", "162545.162500", "162545.622500", "162546.082500", "162546.542500", "162547.002500", "162547.462500", "162547.922500", "162548.382500", "162548.842500", "162549.302500", "162549.762500", "162550.222500", "162550.682500", "162551.142500", "162551.602500", "162552.062500", "162552.522500", "162552.982500", "162553.442500", "162553.902500", "162554.362500", "162554.822500", "162555.282500", "162555.742500", "162556.202500", "162556.662500", "162557.122500", "162557.582500", "162558.042500", "162558.502500", "162558.962500", "162559.422500", "162559.882500", "162600.342500", "162600.802500", "162601.262500", "162601.722500", "162602.182500", "162602.642500", "162603.102500", "162603.562500", "162604.022500", "162604.482500", "162604.942500", "162605.402500", "162605.862500", "162606.322500", "162606.782500", "162607.242500", "162607.702500", "162608.162500", "162608.622500", "162609.082500", "162609.542500", "162610.002500", "162610.462500", "162610.922500", "162611.382500", "162611.842500", "162612.302500", "162612.762500", "162613.222500", "162613.682500", "162614.142500", "162614.602500", "162615.062500", "162615.522500", "162615.982500", "162616.442500", "162616.902500", "162617.362500", "162617.822500", "162618.282500", "162618.742500", "162619.202500", "162619.662500", "162620.122500", "162620.582500", "162621.042500", "162621.502500", "162621.962500", "162622.422500", "162622.882500", "162623.342500", "162623.802500", "162624.262500", "162624.722500", "162625.182500", "162625.642500", "162626.102500", "162626.562500", "162627.022500", "162627.482500", "162627.942500", "162628.402500", "162628.862500", "162629.322500", "162629.782500", "162630.242500", "162630.702500", "162631.162500", "162631.622500", "162632.082500", "162632.542500", "162633.002500", "162633.462500", "162633.922500", "162634.382500", "162634.842500", "162635.302500", "162635.762500", "162636.222500", "162636.682500", "162637.142500", "162637.602500", "162638.062500", "162638.522500", "162638.982500", "162639.442500", "162639.902500", "162640.362500", "162640.822500", "162641.282500", "162641.742500", "162642.202500", "162642.662500", "162643.122500", "162643.582500", "162644.042500", "162644.502500", "162644.962500", "162645.422500", "162645.882500", "162646.342500", "162646.802500", "162647.262500", "162647.722500", "162648.182500", "162648.642500", "162649.102500", "162649.562500", "162650.022500", "162650.482500", "162650.942500", "162651.402500", "162651.862500", "162652.322500", "162652.782500", "162653.242500", "162653.702500", "162654.162500", "162654.622500", "162655.082500", "162655.542500", "162656.002500", "162656.462500", "162656.922500", "162657.382500", "162657.842500", "162658.302500", "162658.762500", "162659.222500", "162659.682500", "162700.142500", "162700.602500", "162701.062500", "162701.522500", "162701.982500", "162702.442500", "162702.902500", "162703.362500", "162703.822500", "162704.282500", "162704.742500", "162705.202500", "162705.662500", "162706.122500", "162706.582500", "162707.042500", "162707.502500", "162707.962500", "162708.422500", "162708.882500", "162709.342500", "162709.802500", "162710.262500", "162710.722500", "162711.182500", "162711.642500", "162712.102500", "162712.562500", "162713.022500", "162713.482500", "162713.942500", "162714.402500", "162714.862500", "162715.322500", "162715.782500", "162716.242500", "162716.702500", "162717.162500", "162717.622500", "162718.082500", "162718.542500", "162719.002500", "162719.462500", "162719.922500", "162720.382500", "162720.842500", "162721.302500", "162721.762500", "162722.222500", "162722.682500", "162723.142500", "162723.602500", "162724.062500", "162724.522500", "162724.982500", "162725.442500", "162725.902500", "162726.362500", "162726.822500", "162727.282500", "162727.742500", "162728.202500", "162728.662500", "162729.122500", "162729.582500", "162730.042500", "162730.502500", "162730.962500", "162731.422500", "162731.882500", "162732.342500", "162732.802500", "162733.262500", "162733.722500", "162734.182500", "162734.642500", "162735.102500", "162735.562500", "162736.022500", "162736.482500", "162736.942500", "162737.402500", "162737.862500", "162738.322500", "162738.782500", "162739.242500", "162739.702500", "162740.162500", "162740.622500", "162741.082500", "162741.542500", "162742.002500", "162742.462500", "162742.922500", "162743.382500", "162743.842500", "162744.302500", "162744.762500", "162745.222500", "162745.682500", "162746.142500", "162746.602500", "162747.062500", "162747.522500", "162747.982500", "162748.442500", "162748.902500", "162749.362500", "162749.822500", "162750.282500", "162750.742500", "162751.202500", "162751.662500", "162752.122500", "162752.582500", "162753.042500", "162753.502500", "162753.962500", "162754.422500", "162754.882500", "162755.342500", "162755.802500", "162756.262500", "162756.722500", "162757.182500", "162757.642500", "162758.102500", "162758.562500", "162759.022500", "162759.482500", "162759.942500", "162800.402500", "162800.862500", "162801.322500", "162801.782500", "162802.242500", "162802.702500", "162803.162500", "162803.622500", "162804.082500", "162804.542500", "162805.002500", "162805.462500", "162805.922500", "162806.382500", "162806.842500", "162807.302500", "162807.762500", "162808.222500", "162808.682500", "162809.142500", "162809.602500", "162810.062500", "162810.522500", "162810.982500", "162811.442500", "162811.902500", "162812.362500", "162812.822500", "162813.282500", "162813.742500", "162814.202500", "162814.662500", "162815.122500", "162815.582500", "162816.042500", "162816.502500", "162816.962500", "162817.422500", "162817.882500", "162818.342500", "162818.802500", "162819.262500", "162819.722500", "162820.182500", "162820.642500", "162821.102500", "162821.562500", "162822.022500", "162822.482500", "162822.942500", "162823.402500", "162823.862500", "162824.322500", "162824.782500", "162825.242500", "162825.702500", "162826.162500", "162826.622500", "162827.082500", "162827.542500", "162828.002500", "162828.462500", "162828.922500", "162829.382500", "162829.842500", "162830.302500", "162830.762500", "162831.222500", "162831.682500", "162832.142500", "162832.602500", "162833.062500", "162833.522500", "162833.982500", "162834.442500", "162834.902500", "162835.362500", "162835.822500", "162836.282500", "162836.742500", "162837.202500", "162837.662500", "162838.122500", "162838.582500", "162839.042500", "162839.502500", "162839.962500", "162840.422500", "162840.882500", "162841.342500", "162841.802500", "162842.262500", "162842.722500", "162843.182500", "162843.642500", "162844.102500", "162844.562500", "162845.022500", "162845.482500", "162845.942500", "162846.402500", "162846.862500", "162847.322500", "162847.782500", "162848.242500", "162848.702500", "162849.162500", "162849.622500", "162850.082500", "162850.542500", "162851.002500", "162851.462500", "162851.922500", "162852.382500", "162852.842500", "162853.302500", "162853.762500", "162854.222500", "162854.682500", "162855.142500", "162855.602500", "162856.062500", "162856.522500", "162856.982500", "162857.442500", "162857.902500", "162858.362500", "162858.822500", "162859.282500", "162859.742500", "162900.202500", "162900.662500", "162901.122500", "162901.582500", "162902.042500", "162902.502500", "162902.962500", "162903.422500", "162903.882500", "162904.342500", "162904.802500", "162905.262500", "162905.722500", "162906.182500", "162906.642500", "162907.102500", "162907.562500", "162908.022500", "162908.482500", "162908.942500", "162909.402500", "162909.862500", "162910.322500", "162910.782500", "162911.242500", "162911.702500", "162912.162500", "162912.622500", "162913.082500", "162913.542500", "162914.002500", "162914.462500", "162914.922500", "162915.382500", "162915.842500", "162916.302500", "162916.762500", "162917.222500", "162917.682500", "162918.142500", "162918.602500", "162919.062500", "162919.522500", "162919.982500", "162920.442500", "162920.902500", "162921.362500", "162921.822500", "162922.282500", "162922.742500", "162923.202500", "162923.662500", "162924.122500", "162924.582500", "162925.042500", "162925.502500", "162925.962500", "162926.422500", "162926.882500", "162927.342500", "162927.802500", "162928.262500", "162928.722500", "162929.182500", "162929.642500", "162930.102500", "162930.562500", "162931.022500", "162931.482500", "162931.942500", "162932.402500", "162932.862500", "162933.322500", "162933.782500", "162934.242500", "162934.702500", "162935.162500", "162935.622500", "162936.082500", "162936.542500", "162937.002500", "162937.462500", "162937.922500", "162938.382500", "162938.842500", "162939.302500", "162939.762500", "162940.222500", "162940.682500", "162941.142500", "162941.602500", "162942.062500", "162942.522500", "162942.982500", "162943.442500", "162943.902500", "162944.362500", "162944.822500", "162945.282500", "162945.742500", "162946.202500", "162946.662500", "162947.122500", "162947.582500", "162948.042500", "162948.502500", "162948.962500", "162949.422500", "162949.882500", "162950.342500", "162950.802500", "162951.262500", "162951.722500", "162952.182500", "162952.642500", "162953.102500", "162953.562500", "162954.022500", "162954.482500", "162954.942500", "162955.402500", "162955.862500", "162956.322500", "162956.782500", "162957.242500", "162957.702500", "162958.162500", "162958.622500", "162959.082500", "162959.542500", "163000.002500", "163000.462500", "163000.922500", "163001.382500", "163001.842500", "163002.302500", "163002.762500", "163003.222500", "163003.682500", "163004.142500", "163004.602500", "163005.062500", "163005.522500", "163005.982500", "163006.442500", "163006.902500", "163007.362500", "163007.822500", "163008.282500", "163008.742500", "163009.202500", "163009.662500", "163010.122500", "163010.582500", "163011.042500", "163011.502500", "163011.962500", "163012.422500", "163012.882500", "163013.342500", "163013.802500", "163014.262500", "163014.722500", "163015.182500", "163015.642500", "163016.102500", "163016.562500", "163017.022500", "163017.482500", "163017.942500", "163018.402500", "163018.862500", "163019.322500", "163019.782500", "163020.242500", "163020.702500", "163021.162500", "163021.622500", "163022.082500", "163022.542500", "163023.002500", "163023.462500", "163023.922500", "163024.382500", "163024.842500", "163025.302500", "163025.762500", "163026.222500", "163026.682500", "163027.142500", "163027.602500", "163028.062500", "163028.522500", "163028.982500", "163029.442500", "163029.902500", "163030.362500", "163030.822500", "163031.282500", "163031.742500", "163032.202500", "163032.662500", "163033.122500", "163033.582500", "163034.042500", "163034.502500", "163034.962500", "163035.422500", "163035.882500", "163036.342500"],
