{
  "AcquisitionMatrixPE": 82,
  "AcquisitionNumber": 1,
  "AcquisitionTime": "17:04:46.127500",
  "BandwidthPerPixelPhaseEncode": 24.888,
  "BaseResolution": 82,
  "BodyPartExamined": "BRAIN",
  "ConsistencyInfo": "N4_VE11E_LATEST_20181129",
  "ConversionSoftware": "dcm2niix",
  "ConversionSoftwareVersion": "v1.0.20201102",
  "DerivedVendorReportedEchoSpacing": 0.00049,
  "DeviceSerialNumber": "66112",
  "DwellTime": 2e-06,
  "EchoTime": 0.0272,
  "EchoTrainLength": 82,
  "EffectiveEchoSpacing": 0.00049,
  "FlipAngle": 44,
  "ImageComments": "Unaliased MB8/PE3",
  "ImageOrientationPatientDICOM": [0.999299, -0.0342807, 0.0150419, 0.0345471, 0.999244, -0.0178245],
  "ImageType": [
    "ORIGINAL",
    "PRIMARY",
    "M",
    "MB",
    "ND",
    "NORM",
    "MOSAIC"
],
  "ImagingFrequency": 123.252,
  "InPlanePhaseEncodingDirectionDICOM": "COL",
  "InstitutionAddress": "Maynard 3,Hanover,NH,US,03755",
  "InstitutionName": "Dartmouth College - PBS",
  "InstitutionalDepartmentName": "Department",
  "MRAcquisitionType": "2D",
  "MagneticFieldStrength": 3,
  "Manufacturer": "Siemens",
  "ManufacturersModelName": "Prisma",
  "Modality": "MR",
  "MultibandAccelerationFactor": 8,
  "PartialFourier": 1,
  "PatientPosition": "HFS",
  "PercentPhaseFOV": 100,
  "PercentSampling": 100,
  "PhaseEncodingDirection": "j-",
  "PhaseEncodingSteps": 82,
  "PhaseResolution": 1,
  "PixelBandwidth": 3050,
  "ProcedureStepDescription": "Wager_Wager^1076_spacetop",
  "ProtocolName": "func_run-06_task-social_acq-ap-mb8",
  "PulseSequenceDetails": "%CustomerSeq%\\cmrr_mbep2d_bold",
  "ReceiveCoilActiveElements": "HEA;HEP",
  "ReceiveCoilName": "Head_32",
  "ReconMatrixPE": 82,
  "RepetitionTime": 0.46,
  "SAR": 0.103713,
  "ScanOptions": "FS",
  "ScanningSequence": "EP",
  "SequenceName": "epfid2d1_82",
  "SequenceVariant": "SK\\SS",
  "SeriesDescription": "func_run-06_task-social_acq-ap-mb8",
  "SeriesNumber": 22,
  "ShimSetting": [4140, -7744, -7290, 589, -68, -161, -1, 43],
  "SliceThickness": 2.7,
  "SliceTiming": [0, 0.2525, 0.0625, 0.315, 0.125, 0.3775, 0.19, 0, 0.2525, 0.0625, 0.315, 0.125, 0.3775, 0.19, 0, 0.2525, 0.0625, 0.315, 0.125, 0.3775, 0.19, 0, 0.2525, 0.0625, 0.315, 0.125, 0.3775, 0.19, 0, 0.2525, 0.0625, 0.315, 0.125, 0.3775, 0.19, 0, 0.2525, 0.0625, 0.315, 0.125, 0.3775, 0.19, 0, 0.2525, 0.0625, 0.315, 0.125, 0.3775, 0.19, 0, 0.2525, 0.0625, 0.315, 0.125, 0.3775, 0.19],
  "SoftwareVersions": "syngo MR E11",
  "SpacingBetweenSlices": 2.7,
  "StationName": "AWP66112",
  "TaskName": "social",
  "TotalReadoutTime": 0.03969,
  "TxRefAmp": 243.703,
  "WipMemBlock": "6e15e318-69f7-4939-8f79-b06f0a8181be||Sequence: R016 ve11e/master r/434b28f1; Aug  7 2019 18:53:46 by eja",
  "dcmmeta_affine": [
    [-2.6810462474823, 0.09268734604120255, 0.03893275558948517, 106.62801361083984],
    [0.09197256714105606, 2.680898904800415, -0.049495380371809006, -97.31167602539062],
    [0.04035643860697746, 0.04782172664999962, 2.699265480041504, -80.82166290283203],
    [0.0, 0.0, 0.0, 1.0]
],
  "dcmmeta_reorient_transform": [
    [0.0, -1.0, 0.0, 81.0],
    [1.0, 0.0, 0.0, 0.0],
    [0.0, 0.0, 1.0, 0.0],
    [0.0, 0.0, 0.0, 1.0]
],
  "dcmmeta_shape": [82, 82, 56, 872],
  "dcmmeta_slice_dim": 2,
  "dcmmeta_version": 0.6,
  "global": {
    "const": {
      "AccessionNumber": "A004254",
      "AcquisitionMatrix": [82, 0, 0, 82],
      "AngioFlag": "N",
      "BitsAllocated": 16,
      "BitsStored": 16,
      "BodyPartExamined": "BRAIN",
      "Columns": 656,
      "EchoNumbers": 1,
      "EchoTime": 27.2,
      "EchoTrainLength": 82,
      "FlipAngle": 44.0,
      "HighBit": 15,
      "ImageOrientationPatient": [0.9992990416641, -0.034280683015, 0.01504194472893, 0.03454710113847, 0.99924410751154, -0.0178244609006],
      "ImagePositionPatient": [-910.19723535487, -862.86298608537, -74.805566618716],
      "ImageType": [
        "ORIGINAL",
        "PRIMARY",
        "M",
        "MB",
        "ND",
        "NORM",
        "MOSAIC"
],
      "ImagedNucleus": "1H",
      "ImagingFrequency": 123.252217,
      "InPlanePhaseEncodingDirection": "COL",
      "MRAcquisitionType": "2D",
      "MagneticFieldStrength": 3.0,
      "Manufacturer": "SIEMENS",
      "ManufacturerModelName": "Prisma",
      "Modality": "MR",
      "NumberOfAverages": 1.0,
      "NumberOfPhaseEncodingSteps": 82,
      "PercentPhaseFieldOfView": 100.0,
      "PercentSampling": 100.0,
      "PerformedProcedureStepStartTime": "155334.919000",
      "PhotometricInterpretation": "MONOCHROME2",
      "PixelBandwidth": 3050.0,
      "PixelRepresentation": 0,
      "PixelSpacing": [2.6829268932343, 2.6829268932343],
      "ProtocolName": "func_run-06_task-social_acq-ap-mb8",
      "RepetitionTime": 460.0,
      "Rows": 656,
      "SAR": 0.10371313404467,
      "SamplesPerPixel": 1,
      "ScanOptions": "FS",
      "ScanningSequence": "EP",
      "SequenceName": "epfid2d1_82",
      "SequenceVariant": [
        "SK",
        "SS"
],
      "SeriesDescription": "func_run-06_task-social_acq-ap-mb8",
      "SeriesNumber": 22,
      "SeriesTime": "170508.410000",
      "SliceLocation": -77.478270754548,
      "SliceThickness": 2.7000000476837,
      "SmallestImagePixelValue": 0,
      "SoftwareVersions": "syngo MR E11",
      "SpacingBetweenSlices": 2.6999999586179,
      "SpecificCharacterSet": "ISO_IR 100",
      "StudyID": "1",
      "StudyTime": "155334.869000",
      "TransmitCoilName": "Body",
      "VariableFlipAngleFlag": "N",
      "WindowCenterWidthExplanation": "Algo1"
    },
    "slices": {}
  },
  "time": {
    "samples": {
      "AcquisitionNumber": [1, 2, 3, 4, 5, 6, 7, 8, 9, 10, 11, 12, 13, 14, 15, 16, 17, 18, 19, 20, 21, 22, 23, 24, 25, 26, 27, 28, 29, 30, 31, 32, 33, 34, 35, 36, 37, 38, 39, 40, 41, 42, 43, 44, 45, 46, 47, 48, 49, 50, 51, 52, 53, 54, 55, 56, 57, 58, 59, 60, 61, 62, 63, 64, 65, 66, 67, 68, 69, 70, 71, 72, 73, 74, 75, 76, 77, 78, 79, 80, 81, 82, 83, 84, 85, 86, 87, 88, 89, 90, 91, 92, 93, 94, 95, 96, 97, 98, 99, 100, 101, 102, 103, 104, 105, 106, 107, 108, 109, 110, 111, 112, 113, 114, 115, 116, 117, 118, 119, 120, 121, 122, 123, 124, 125, 126, 127, 128, 129, 130, 131, 132, 133, 134, 135, 136, 137, 138, 139, 140, 141, 142, 143, 144, 145, 146, 147, 148, 149, 150, 151, 152, 153, 154, 155, 156, 157, 158, 159, 160, 161, 162, 163, 164, 165, 166, 167, 168, 169, 170, 171, 172, 173, 174, 175, 176, 177, 178, 179, 180, 181, 182, 183, 184, 185, 186, 187, 188, 189, 190, 191, 192, 193, 194, 195, 196, 197, 198, 199, 200, 201, 202, 203, 204, 205, 206, 207, 208, 209, 210, 211, 212, 213, 214, 215, 216, 217, 218, 219, 220, 221, 222, 223, 224, 225, 226, 227, 228, 229, 230, 231, 232, 233, 234, 235, 236, 237, 238, 239, 240, 241, 242, 243, 244, 245, 246, 247, 248, 249, 250, 251, 252, 253, 254, 255, 256, 257, 258, 259, 260, 261, 262, 263, 264, 265, 266, 267, 268, 269, 270, 271, 272, 273, 274, 275, 276, 277, 278, 279, 280, 281, 282, 283, 284, 285, 286, 287, 288, 289, 290, 291, 292, 293, 294, 295, 296, 297, 298, 299, 300, 301, 302, 303, 304, 305, 306, 307, 308, 309, 310, 311, 312, 313, 314, 315, 316, 317, 318, 319, 320, 321, 322, 323, 324, 325, 326, 327, 328, 329, 330, 331, 332, 333, 334, 335, 336, 337, 338, 339, 340, 341, 342, 343, 344, 345, 346, 347, 348, 349, 350, 351, 352, 353, 354, 355, 356, 357, 358, 359, 360, 361, 362, 363, 364, 365, 366, 367, 368, 369, 370, 371, 372, 373, 374, 375, 376, 377, 378, 379, 380, 381, 382, 383, 384, 385, 386, 387, 388, 389, 390, 391, 392, 393, 394, 395, 396, 397, 398, 399, 400, 401, 402, 403, 404, 405, 406, 407, 408, 409, 410, 411, 412, 413, 414, 415, 416, 417, 418, 419, 420, 421, 422, 423, 424, 425, 426, 427, 428, 429, 430, 431, 432, 433, 434, 435, 436, 437, 438, 439, 440, 441, 442, 443, 444, 445, 446, 447, 448, 449, 450, 451, 452, 453, 454, 455, 456, 457, 458, 459, 460, 461, 462, 463, 464, 465, 466, 467, 468, 469, 470, 471, 472, 473, 474, 475, 476, 477, 478, 479, 480, 481, 482, 483, 484, 485, 486, 487, 488, 489, 490, 491, 492, 493, 494, 495, 496, 497, 498, 499, 500, 501, 502, 503, 504, 505, 506, 507, 508, 509, 510, 511, 512, 513, 514, 515, 516, 517, 518, 519, 520, 521, 522, 523, 524, 525, 526, 527, 528, 529, 530, 531, 532, 533, 534, 535, 536, 537, 538, 539, 540, 541, 542, 543, 544, 545, 546, 547, 548, 549, 550, 551, 552, 553, 554, 555, 556, 557, 558, 559, 560, 561, 562, 563, 564, 565, 566, 567, 568, 569, 570, 571, 572, 573, 574, 575, 576, 577, 578, 579, 580, 581, 582, 583, 584, 585, 586, 587, 588, 589, 590, 591, 592, 593, 594, 595, 596, 597, 598, 599, 600, 601, 602, 603, 604, 605, 606, 607, 608, 609, 610, 611, 612, 613, 614, 615, 616, 617, 618, 619, 620, 621, 622, 623, 624, 625, 626, 627, 628, 629, 630, 631, 632, 633, 634, 635, 636, 637, 638, 639, 640, 641, 642, 643, 644, 645, 646, 647, 648, 649, 650, 651, 652, 653, 654, 655, 656, 657, 658, 659, 660, 661, 662, 663, 664, 665, 666, 667, 668, 669, 670, 671, 672, 673, 674, 675, 676, 677, 678, 679, 680, 681, 682, 683, 684, 685, 686, 687, 688, 689, 690, 691, 692, 693, 694, 695, 696, 697, 698, 699, 700, 701, 702, 703, 704, 705, 706, 707, 708, 709, 710, 711, 712, 713, 714, 715, 716, 717, 718, 719, 720, 721, 722, 723, 724, 725, 726, 727, 728, 729, 730, 731, 732, 733, 734, 735, 736, 737, 738, 739, 740, 741, 742, 743, 744, 745, 746, 747, 748, 749, 750, 751, 752, 753, 754, 755, 756, 757, 758, 759, 760, 761, 762, 763, 764, 765, 766, 767, 768, 769, 770, 771, 772, 773, 774, 775, 776, 777, 778, 779, 780, 781, 782, 783, 784, 785, 786, 787, 788, 789, 790, 791, 792, 793, 794, 795, 796, 797, 798, 799, 800, 801, 802, 803, 804, 805, 806, 807, 808, 809, 810, 811, 812, 813, 814, 815, 816, 817, 818, 819, 820, 821, 822, 823, 824, 825, 826, 827, 828, 829, 830, 831, 832, 833, 834, 835, 836, 837, 838, 839, 840, 841, 842, 843, 844, 845, 846, 847, 848, 849, 850, 851, 852, 853, 854, 855, 856, 857, 858, 859, 860, 861, 862, 863, 864, 865, 866, 867, 868, 869, 870, 871, 872],
      "AcquisitionTime": ["170446.127500", "170446.587500", "170447.047500", "170447.507500", "170447.967500", "170448.427500", "170448.887500", "170449.347500", "170449.807500", "170450.267500", "170450.727500", "170451.187500", "170451.647500", "170452.107500", "170452.567500", "170453.027500", "170453.487500", "170453.947500", "170454.407500", "170454.867500", "170455.327500", "170455.787500", "170456.247500", "170456.707500", "170457.167500", "170457.627500", "170458.087500", "170458.547500", "170459.007500", "170459.467500", "170459.927500", "170500.387500", "170500.847500", "170501.307500", "170501.767500", "170502.227500", "170502.687500", "170503.147500", "170503.607500", "170504.067500", "170504.527500", "170504.987500", "170505.447500", "170505.907500", "170506.367500", "170506.827500", "170507.287500", "170507.747500", "170508.207500", "170508.667500", "170509.127500", "170509.587500", "170510.047500", "170510.507500", "170510.967500", "170511.427500", "170511.887500", "170512.347500", "170512.807500", "170513.267500", "170513.727500", "170514.187500", "170514.647500", "170515.107500", "170515.567500", "170516.027500", "170516.487500", "170516.947500", "170517.407500", "170517.867500", "170518.327500", "170518.787500", "170519.247500", "170519.707500", "170520.167500", "170520.627500", "170521.087500", "170521.547500", "170522.007500", "170522.467500", "170522.927500", "170523.387500", "170523.847500", "170524.307500", "170524.767500", "170525.227500", "170525.687500", "170526.147500", "170526.607500", "170527.067500", "170527.527500", "170527.987500", "170528.447500", "170528.907500", "170529.367500", "170529.827500", "170530.287500", "170530.747500", "170531.207500", "170531.667500", "170532.127500", "170532.587500", "170533.047500", "170533.507500", "170533.967500", "170534.427500", "170534.887500", "170535.347500", "170535.807500", "170536.267500", "170536.727500", "170537.187500", "170537.647500", "170538.107500", "170538.567500", "170539.027500", "170539.487500", "170539.947500", "170540.407500", "170540.867500", "170541.327500", "170541.787500", "170542.247500", "170542.707500", "170543.167500", "170543.627500", "170544.087500", "170544.547500", "170545.007500", "170545.467500", "170545.927500", "170546.387500", "170546.847500", "170547.307500", "170547.767500", "170548.227500", "170548.687500", "170549.147500", "170549.607500", "170550.067500", "170550.527500", "170550.987500", "170551.447500", "170551.907500", "170552.367500", "170552.827500", "170553.287500", "170553.747500", "170554.207500", "170554.667500", "170555.127500", "170555.587500", "170556.047500", "170556.507500", "170556.967500", "170557.427500", "170557.887500", "170558.347500", "170558.807500", "170559.267500", "170559.727500", "170600.187500", "170600.647500", "170601.107500", "170601.567500", "170602.027500", "170602.487500", "170602.947500", "170603.407500", "170603.867500", "170604.327500", "170604.787500", "170605.247500", "170605.707500", "170606.167500", "170606.627500", "170607.087500", "170607.547500", "170608.007500", "170608.467500", "170608.927500", "170609.387500", "170609.847500", "170610.307500", "170610.767500", "170611.227500", "170611.687500", "170612.147500", "170612.607500", "170613.067500", "170613.527500", "170613.987500", "170614.447500", "170614.907500", "170615.367500", "170615.827500", "170616.287500", "170616.747500", "170617.207500", "170617.667500", "170618.127500", "170618.587500", "170619.047500", "170619.507500", "170619.967500", "170620.427500", "170620.887500", "170621.347500", "170621.807500", "170622.267500", "170622.727500", "170623.187500", "170623.647500", "170624.107500", "170624.567500", "170625.027500", "170625.487500", "170625.947500", "170626.407500", "170626.867500", "170627.327500", "170627.787500", "170628.247500", "170628.707500", "170629.167500", "170629.627500", "170630.087500", "170630.547500", "170631.007500", "170631.467500", "170631.927500", "170632.387500", "170632.847500", "170633.307500", "170633.767500", "170634.227500", "170634.687500", "170635.147500", "170635.607500", "170636.067500", "170636.527500", "170636.987500", "170637.447500", "170637.907500", "170638.367500", "170638.827500", "170639.287500", "170639.747500", "170640.207500", "170640.667500", "170641.127500", "170641.587500", "170642.047500", "170642.507500", "170642.967500", "170643.427500", "170643.887500", "170644.347500", "170644.807500", "170645.267500", "170645.727500", "170646.187500", "170646.647500", "170647.107500", "170647.567500", "170648.027500", "170648.487500", "170648.947500", "170649.407500", "170649.867500", "170650.327500", "170650.787500", "170651.247500", "170651.707500", "170652.167500", "170652.627500", "170653.087500", "170653.547500", "170654.007500", "170654.467500", "170654.927500", "170655.387500", "170655.847500", "170656.307500", "170656.767500", "170657.227500", "170657.687500", "170658.147500", "170658.607500", "170659.067500", "170659.527500", "170659.987500", "170700.447500", "170700.907500", "170701.367500", "170701.827500", "170702.287500", "170702.747500", "170703.207500", "170703.667500", "170704.127500", "170704.587500", "170705.047500", "170705.507500", "170705.967500", "170706.427500", "170706.887500", "170707.347500", "170707.807500", "170708.267500", "170708.727500", "170709.187500", "170709.647500", "170710.107500", "170710.567500", "170711.027500", "170711.487500", "170711.947500", "170712.407500", "170712.867500", "170713.327500", "170713.787500", "170714.247500", "170714.707500", "170715.167500", "170715.627500", "170716.087500", "170716.547500", "170717.007500", "170717.467500", "170717.927500", "170718.387500", "170718.847500", "170719.307500", "170719.767500", "170720.227500", "170720.687500", "170721.147500", "170721.607500", "170722.067500", "170722.527500", "170722.987500", "170723.447500", "170723.907500", "170724.367500", "170724.827500", "170725.287500", "170725.747500", "170726.207500", "170726.667500", "170727.127500", "170727.587500", "170728.047500", "170728.507500", "170728.967500", "170729.427500", "170729.887500", "170730.347500", "170730.807500", "170731.267500", "170731.727500", "170732.187500", "170732.647500", "170733.107500", "170733.567500", "170734.027500", "170734.487500", "170734.947500", "170735.407500", "170735.867500", "170736.327500", "170736.787500", "170737.247500", "170737.707500", "170738.167500", "170738.627500", "170739.087500", "170739.547500", "170740.007500", "170740.467500", "170740.927500", "170741.387500", "170741.847500", "170742.307500", "170742.767500", "170743.227500", "170743.687500", "170744.147500", "170744.607500", "170745.067500", "170745.527500", "170745.987500", "170746.447500", "170746.907500", "170747.367500", "170747.827500", "170748.287500", "170748.747500", "170749.207500", "170749.667500", "170750.127500", "170750.587500", "170751.047500", "170751.507500", "170751.967500", "170752.427500", "170752.887500", "170753.347500", "170753.807500", "170754.267500", "170754.727500", "170755.187500", "170755.647500", "170756.107500", "170756.567500", "170757.027500", "170757.487500", "170757.947500", "170758.407500", "170758.867500", "170759.327500", "170759.787500", "170800.247500", "170800.707500", "170801.167500", "170801.627500", "170802.087500", "170802.547500", "170803.007500", "170803.467500", "170803.927500", "170804.387500", "170804.847500", "170805.307500", "170805.767500", "170806.227500", "170806.687500", "170807.147500", "170807.607500", "170808.067500", "170808.527500", "170808.987500", "170809.447500", "170809.907500", "170810.367500", "170810.827500", "170811.287500", "170811.747500", "170812.207500", "170812.667500", "170813.127500", "170813.587500", "170814.047500", "170814.507500", "170814.967500", "170815.427500", "170815.887500", "170816.347500", "170816.807500", "170817.267500", "170817.727500", "170818.187500", "170818.647500", "170819.107500", "170819.567500", "170820.027500", "170820.487500", "170820.947500", "170821.407500", "170821.867500", "170822.327500", "170822.787500", "170823.247500", "170823.707500", "170824.167500", "170824.627500", "170825.087500", "170825.547500", "170826.007500", "170826.467500", "170826.927500", "170827.387500", "170827.847500", "170828.307500", "170828.767500", "170829.227500", "170829.687500", "170830.147500", "170830.607500", "170831.067500", "170831.527500", "170831.987500", "170832.447500", "170832.907500", "170833.367500", "170833.827500", "170834.287500", "170834.747500", "170835.207500", "170835.667500", "170836.127500", "170836.587500", "170837.047500", "170837.507500", "170837.967500", "170838.427500", "170838.887500", "170839.347500", "170839.807500", "170840.267500", "170840.727500", "170841.187500", "170841.647500", "170842.107500", "170842.567500", "170843.027500", "170843.487500", "170843.947500", "170844.407500", "170844.867500", "170845.327500", "170845.787500", "170846.247500", "170846.707500", "170847.167500", "170847.627500", "170848.087500", "170848.547500", "170849.007500", "170849.467500", "170849.927500", "170850.387500", "170850.847500", "170851.307500", "170851.767500", "170852.227500", "170852.687500", "170853.147500", "170853.607500", "170854.067500", "170854.527500", "170854.987500", "170855.447500", "170855.907500", "170856.367500", "170856.827500", "170857.287500", "170857.747500", "170858.207500", "170858.667500", "170859.127500", "170859.587500", "170900.047500", "170900.507500", "170900.967500", "170901.427500", "170901.887500", "170902.347500", "170902.807500", "170903.267500", "170903.727500", "170904.187500", "170904.647500", "170905.107500", "170905.567500", "170906.027500", "170906.487500", "170906.947500", "170907.407500", "170907.867500", "170908.327500", "170908.787500", "170909.247500", "170909.707500", "170910.167500", "170910.627500", "170911.087500", "170911.547500", "170912.007500", "170912.467500", "170912.927500", "170913.387500", "170913.847500", "170914.307500", "170914.767500", "170915.227500", "170915.687500", "170916.147500", "170916.607500", "170917.067500", "170917.527500", "170917.987500", "170918.447500", "170918.907500", "170919.367500", "170919.827500", "170920.287500", "170920.747500", "170921.207500", "170921.667500", "170922.127500", "170922.587500", "170923.047500", "170923.507500", "170923.967500", "170924.427500", "170924.887500", "170925.347500", "170925.807500", "170926.267500", "170926.727500", "170927.187500", "170927.647500", "170928.107500", "170928.567500", "170929.027500", "170929.487500", "170929.947500", "170930.407500", "170930.867500", "170931.327500", "170931.787500", "170932.247500", "170932.707500", "170933.167500", "170933.627500", "170934.087500", "170934.547500", "170935.007500", "170935.467500", "170935.927500", "170936.387500", "170936.847500", "170937.307500", "170937.767500", "170938.227500", "170938.687500", "170939.147500", "170939.607500", "170940.067500", "170940.527500", "170940.987500", "170941.447500", "170941.907500", "170942.367500", "170942.827500", "170943.287500", "170943.747500", "170944.207500", "170944.667500", "170945.127500", "170945.587500", "170946.047500", "170946.507500", "170946.967500", "170947.427500", "170947.887500", "170948.347500", "170948.807500", "170949.267500", "170949.727500", "170950.187500", "170950.647500", "170951.107500", "170951.567500", "170952.027500", "170952.487500", "170952.947500", "170953.407500", "170953.867500", "170954.327500", "170954.787500", "170955.247500", "170955.707500", "170956.167500", "170956.627500", "170957.087500", "170957.547500", "170958.007500", "170958.467500", "170958.927500", "170959.387500", "170959.847500", "171000.307500", "171000.767500", "171001.227500", "171001.687500", "171002.147500", "171002.607500", "171003.067500", "171003.527500", "171003.987500", "171004.447500", "171004.907500", "171005.367500", "171005.827500", "171006.287500", "171006.747500", "171007.207500", "171007.667500", "171008.127500", "171008.587500", "171009.047500", "171009.507500", "171009.967500", "171010.427500", "171010.887500", "171011.347500", "171011.807500", "171012.267500", "171012.727500", "171013.187500", "171013.647500", "171014.107500", "171014.567500", "171015.027500", "171015.487500", "171015.947500", "171016.407500", "171016.867500", "171017.327500", "171017.787500", "171018.247500", "171018.707500", "171019.167500", "171019.627500", "171020.087500", "171020.547500", "171021.007500", "171021.467500", "171021.927500", "171022.387500", "171022.847500", "171023.307500", "171023.767500", "171024.227500", "171024.687500", "171025.147500", "171025.607500", "171026.067500", "171026.527500", "171026.987500", "171027.447500", "171027.907500", "171028.367500", "171028.827500", "171029.287500", "171029.747500", "171030.207500", "171030.667500", "171031.127500", "171031.587500", "171032.047500", "171032.507500", "171032.967500", "171033.427500", "171033.887500", "171034.347500", "171034.807500", "171035.267500", "171035.727500", "171036.187500", "171036.647500", "171037.107500", "171037.567500", "171038.027500", "171038.487500", "171038.947500", "171039.407500", "171039.867500", "171040.327500", "171040.787500", "171041.247500", "171041.707500", "171042.167500", "171042.627500", "171043.087500", "171043.547500", "171044.007500", "171044.467500", "171044.927500", "171045.387500", "171045.847500", "171046.307500", "171046.767500", "171047.227500", "171047.687500", "171048.147500", "171048.607500", "171049.067500", "171049.527500", "171049.987500", "171050.447500", "171050.907500", "171051.367500", "171051.827500", "171052.287500", "171052.747500", "171053.207500", "171053.667500", "171054.127500", "171054.587500", "171055.047500", "171055.507500", "171055.967500", "171056.427500", "171056.887500", "171057.347500", "171057.807500", "171058.267500", "171058.727500", "171059.187500", "171059.647500", "171100.107500", "171100.567500", "171101.027500", "171101.487500", "171101.947500", "171102.407500", "171102.867500", "171103.327500", "171103.787500", "171104.247500", "171104.707500", "171105.167500", "171105.627500", "171106.087500", "171106.547500", "171107.007500", "171107.467500", "171107.927500", "171108.387500", "171108.847500", "171109.307500", "171109.767500", "171110.227500", "171110.687500", "171111.147500", "171111.607500", "171112.067500", "171112.527500", "171112.987500", "171113.447500", "171113.907500", "171114.367500", "171114.827500", "171115.287500", "171115.747500", "171116.207500", "171116.667500", "171117.127500", "171117.587500", "171118.047500", "171118.507500", "171118.967500", "171119.427500", "171119.887500", "171120.347500", "171120.807500", "171121.267500", "171121.727500", "171122.187500", "171122.647500", "171123.107500", "171123.567500", "171124.027500", "171124.487500", "171124.947500", "171125.407500", "171125.867500", "171126.327500", "171126.787500"],
