{
  "AcquisitionMatrixPE": 82,
  "AcquisitionNumber": 1,
  "AcquisitionTime": "16:33:50.950000",
  "BandwidthPerPixelPhaseEncode": 24.888,
  "BaseResolution": 82,
  "BodyPartExamined": "BRAIN",
  "ConsistencyInfo": "N4_VE11E_LATEST_20181129",
  "ConversionSoftware": "dcm2niix",
  "ConversionSoftwareVersion": "v1.0.20201102",
  "DerivedVendorReportedEchoSpacing": 0.00049,
  "DeviceSerialNumber": "66112",
  "DwellTime": 2e-06,
  "EchoTime": 0.0272,
  "EchoTrainLength": 82,
  "EffectiveEchoSpacing": 0.00049,
  "FlipAngle": 44,
  "ImageComments": "Unaliased MB8/PE3",
  "ImageOrientationPatientDICOM": [0.999299, -0.0342807, 0.0150419, 0.0345471, 0.999244, -0.0178245],
  "ImageType": [
    "ORIGINAL",
    "PRIMARY",
    "M",
    "MB",
    "ND",
    "NORM",
    "MOSAIC"
],
  "ImagingFrequency": 123.252,
  "InPlanePhaseEncodingDirectionDICOM": "COL",
  "InstitutionAddress": "Maynard 3,Hanover,NH,US,03755",
  "InstitutionName": "Dartmouth College - PBS",
  "InstitutionalDepartmentName": "Department",
  "MRAcquisitionType": "2D",
  "MagneticFieldStrength": 3,
  "Manufacturer": "Siemens",
  "ManufacturersModelName": "Prisma",
  "Modality": "MR",
  "MultibandAccelerationFactor": 8,
  "PartialFourier": 1,
  "PatientPosition": "HFS",
  "PercentPhaseFOV": 100,
  "PercentSampling": 100,
  "PhaseEncodingDirection": "j-",
  "PhaseEncodingSteps": 82,
  "PhaseResolution": 1,
  "PixelBandwidth": 3050,
  "ProcedureStepDescription": "Wager_Wager^1076_spacetop",
  "ProtocolName": "func_run-02_task-social_acq-ap-mb8",
  "PulseSequenceDetails": "%CustomerSeq%\\cmrr_mbep2d_bold",
  "ReceiveCoilActiveElements": "HEA;HEP",
  "ReceiveCoilName": "Head_32",
  "ReconMatrixPE": 82,
  "RepetitionTime": 0.46,
  "SAR": 0.103713,
  "ScanOptions": "FS",
  "ScanningSequence": "EP",
  "SequenceName": "epfid2d1_82",
  "SequenceVariant": "SK\\SS",
  "SeriesDescription": "func_run-02_task-social_acq-ap-mb8",
  "SeriesNumber": 14,
  "ShimSetting": [4140, -7744, -7290, 589, -68, -161, -1, 43],
  "SliceThickness": 2.7,
  "SliceTiming": [0, 0.25, 0.0625, 0.3125, 0.125, 0.3775, 0.1875, 0, 0.25, 0.0625, 0.3125, 0.125, 0.3775, 0.1875, 0, 0.25, 0.0625, 0.3125, 0.125, 0.3775, 0.1875, 0, 0.25, 0.0625, 0.3125, 0.125, 0.3775, 0.1875, 0, 0.25, 0.0625, 0.3125, 0.125, 0.3775, 0.1875, 0, 0.25, 0.0625, 0.3125, 0.125, 0.3775, 0.1875, 0, 0.25, 0.0625, 0.3125, 0.125, 0.3775, 0.1875, 0, 0.25, 0.0625, 0.3125, 0.125, 0.3775, 0.1875],
  "SoftwareVersions": "syngo MR E11",
  "SpacingBetweenSlices": 2.7,
  "StationName": "AWP66112",
  "TaskName": "social",
  "TotalReadoutTime": 0.03969,
  "TxRefAmp": 243.703,
  "WipMemBlock": "5a0811fb-bd37-4f12-ae11-d41958d47fa6||Sequence: R016 ve11e/master r/434b28f1; Aug  7 2019 18:53:46 by eja",
  "dcmmeta_affine": [
    [-2.6810462474823, 0.09268734604120255, 0.03893275558948517, 106.62801361083984],
    [0.09197256714105606, 2.680898904800415, -0.049495380371809006, -97.31167602539062],
    [0.04035643860697746, 0.04782172664999962, 2.699265480041504, -80.82166290283203],
    [0.0, 0.0, 0.0, 1.0]
],
  "dcmmeta_reorient_transform": [
    [0.0, -1.0, 0.0, 81.0],
    [1.0, 0.0, 0.0, 0.0],
    [0.0, 0.0, 1.0, 0.0],
    [0.0, 0.0, 0.0, 1.0]
],
  "dcmmeta_shape": [82, 82, 56, 872],
  "dcmmeta_slice_dim": 2,
  "dcmmeta_version": 0.6,
  "global": {
    "const": {
      "AccessionNumber": "A004254",
      "AcquisitionMatrix": [82, 0, 0, 82],
      "AngioFlag": "N",
      "BitsAllocated": 16,
      "BitsStored": 16,
      "BodyPartExamined": "BRAIN",
      "Columns": 656,
      "EchoNumbers": 1,
      "EchoTime": 27.2,
      "EchoTrainLength": 82,
      "FlipAngle": 44.0,
      "HighBit": 15,
      "ImageOrientationPatient": [0.9992990416641, -0.034280683015, 0.01504194472893, 0.03454710113847, 0.99924410751154, -0.0178244609006],
      "ImagePositionPatient": [-910.19723535487, -862.86298608537, -74.805566618716],
      "ImageType": [
        "ORIGINAL",
        "PRIMARY",
        "M",
        "MB",
        "ND",
        "NORM",
        "MOSAIC"
],
      "ImagedNucleus": "1H",
      "ImagingFrequency": 123.252217,
      "InPlanePhaseEncodingDirection": "COL",
      "MRAcquisitionType": "2D",
      "MagneticFieldStrength": 3.0,
      "Manufacturer": "SIEMENS",
      "ManufacturerModelName": "Prisma",
      "Modality": "MR",
      "NumberOfAverages": 1.0,
      "NumberOfPhaseEncodingSteps": 82,
      "PercentPhaseFieldOfView": 100.0,
      "PercentSampling": 100.0,
      "PerformedProcedureStepStartTime": "155334.919000",
      "PhotometricInterpretation": "MONOCHROME2",
      "PixelBandwidth": 3050.0,
      "PixelRepresentation": 0,
      "PixelSpacing": [2.6829268932343, 2.6829268932343],
      "ProtocolName": "func_run-02_task-social_acq-ap-mb8",
      "RepetitionTime": 460.0,
      "Rows": 656,
      "SAR": 0.10371313404467,
      "SamplesPerPixel": 1,
      "ScanOptions": "FS",
      "ScanningSequence": "EP",
      "SequenceName": "epfid2d1_82",
      "SequenceVariant": [
        "SK",
        "SS"
],
      "SeriesDescription": "func_run-02_task-social_acq-ap-mb8",
      "SeriesNumber": 14,
      "SeriesTime": "163408.490000",
      "SliceLocation": -77.478270754548,
      "SliceThickness": 2.7000000476837,
      "SmallestImagePixelValue": 0,
      "SoftwareVersions": "syngo MR E11",
      "SpacingBetweenSlices": 2.6999999586179,
      "SpecificCharacterSet": "ISO_IR 100",
      "StudyID": "1",
      "StudyTime": "155334.869000",
      "TransmitCoilName": "Body",
      "VariableFlipAngleFlag": "N",
      "WindowCenterWidthExplanation": "Algo1"
    },
    "slices": {}
  },
  "time": {
    "samples": {
      "AcquisitionNumber": [1, 2, 3, 4, 5, 6, 7, 8, 9, 10, 11, 12, 13, 14, 15, 16, 17, 18, 19, 20, 21, 22, 23, 24, 25, 26, 27, 28, 29, 30, 31, 32, 33, 34, 35, 36, 37, 38, 39, 40, 41, 42, 43, 44, 45, 46, 47, 48, 49, 50, 51, 52, 53, 54, 55, 56, 57, 58, 59, 60, 61, 62, 63, 64, 65, 66, 67, 68, 69, 70, 71, 72, 73, 74, 75, 76, 77, 78, 79, 80, 81, 82, 83, 84, 85, 86, 87, 88, 89, 90, 91, 92, 93, 94, 95, 96, 97, 98, 99, 100, 101, 102, 103, 104, 105, 106, 107, 108, 109, 110, 111, 112, 113, 114, 115, 116, 117, 118, 119, 120, 121, 122, 123, 124, 125, 126, 127, 128, 129, 130, 131, 132, 133, 134, 135, 136, 137, 138, 139, 140, 141, 142, 143, 144, 145, 146, 147, 148, 149, 150, 151, 152, 153, 154, 155, 156, 157, 158, 159, 160, 161, 162, 163, 164, 165, 166, 167, 168, 169, 170, 171, 172, 173, 174, 175, 176, 177, 178, 179, 180, 181, 182, 183, 184, 185, 186, 187, 188, 189, 190, 191, 192, 193, 194, 195, 196, 197, 198, 199, 200, 201, 202, 203, 204, 205, 206, 207, 208, 209, 210, 211, 212, 213, 214, 215, 216, 217, 218, 219, 220, 221, 222, 223, 224, 225, 226, 227, 228, 229, 230, 231, 232, 233, 234, 235, 236, 237, 238, 239, 240, 241, 242, 243, 244, 245, 246, 247, 248, 249, 250, 251, 252, 253, 254, 255, 256, 257, 258, 259, 260, 261, 262, 263, 264, 265, 266, 267, 268, 269, 270, 271, 272, 273, 274, 275, 276, 277, 278, 279, 280, 281, 282, 283, 284, 285, 286, 287, 288, 289, 290, 291, 292, 293, 294, 295, 296, 297, 298, 299, 300, 301, 302, 303, 304, 305, 306, 307, 308, 309, 310, 311, 312, 313, 314, 315, 316, 317, 318, 319, 320, 321, 322, 323, 324, 325, 326, 327, 328, 329, 330, 331, 332, 333, 334, 335, 336, 337, 338, 339, 340, 341, 342, 343, 344, 345, 346, 347, 348, 349, 350, 351, 352, 353, 354, 355, 356, 357, 358, 359, 360, 361, 362, 363, 364, 365, 366, 367, 368, 369, 370, 371, 372, 373, 374, 375, 376, 377, 378, 379, 380, 381, 382, 383, 384, 385, 386, 387, 388, 389, 390, 391, 392, 393, 394, 395, 396, 397, 398, 399, 400, 401, 402, 403, 404, 405, 406, 407, 408, 409, 410, 411, 412, 413, 414, 415, 416, 417, 418, 419, 420, 421, 422, 423, 424, 425, 426, 427, 428, 429, 430, 431, 432, 433, 434, 435, 436, 437, 438, 439, 440, 441, 442, 443, 444, 445, 446, 447, 448, 449, 450, 451, 452, 453, 454, 455, 456, 457, 458, 459, 460, 461, 462, 463, 464, 465, 466, 467, 468, 469, 470, 471, 472, 473, 474, 475, 476, 477, 478, 479, 480, 481, 482, 483, 484, 485, 486, 487, 488, 489, 490, 491, 492, 493, 494, 495, 496, 497, 498, 499, 500, 501, 502, 503, 504, 505, 506, 507, 508, 509, 510, 511, 512, 513, 514, 515, 516, 517, 518, 519, 520, 521, 522, 523, 524, 525, 526, 527, 528, 529, 530, 531, 532, 533, 534, 535, 536, 537, 538, 539, 540, 541, 542, 543, 544, 545, 546, 547, 548, 549, 550, 551, 552, 553, 554, 555, 556, 557, 558, 559, 560, 561, 562, 563, 564, 565, 566, 567, 568, 569, 570, 571, 572, 573, 574, 575, 576, 577, 578, 579, 580, 581, 582, 583, 584, 585, 586, 587, 588, 589, 590, 591, 592, 593, 594, 595, 596, 597, 598, 599, 600, 601, 602, 603, 604, 605, 606, 607, 608, 609, 610, 611, 612, 613, 614, 615, 616, 617, 618, 619, 620, 621, 622, 623, 624, 625, 626, 627, 628, 629, 630, 631, 632, 633, 634, 635, 636, 637, 638, 639, 640, 641, 642, 643, 644, 645, 646, 647, 648, 649, 650, 651, 652, 653, 654, 655, 656, 657, 658, 659, 660, 661, 662, 663, 664, 665, 666, 667, 668, 669, 670, 671, 672, 673, 674, 675, 676, 677, 678, 679, 680, 681, 682, 683, 684, 685, 686, 687, 688, 689, 690, 691, 692, 693, 694, 695, 696, 697, 698, 699, 700, 701, 702, 703, 704, 705, 706, 707, 708, 709, 710, 711, 712, 713, 714, 715, 716, 717, 718, 719, 720, 721, 722, 723, 724, 725, 726, 727, 728, 729, 730, 731, 732, 733, 734, 735, 736, 737, 738, 739, 740, 741, 742, 743, 744, 745, 746, 747, 748, 749, 750, 751, 752, 753, 754, 755, 756, 757, 758, 759, 760, 761, 762, 763, 764, 765, 766, 767, 768, 769, 770, 771, 772, 773, 774, 775, 776, 777, 778, 779, 780, 781, 782, 783, 784, 785, 786, 787, 788, 789, 790, 791, 792, 793, 794, 795, 796, 797, 798, 799, 800, 801, 802, 803, 804, 805, 806, 807, 808, 809, 810, 811, 812, 813, 814, 815, 816, 817, 818, 819, 820, 821, 822, 823, 824, 825, 826, 827, 828, 829, 830, 831, 832, 833, 834, 835, 836, 837, 838, 839, 840, 841, 842, 843, 844, 845, 846, 847, 848, 849, 850, 851, 852, 853, 854, 855, 856, 857, 858, 859, 860, 861, 862, 863, 864, 865, 866, 867, 868, 869, 870, 871, 872],
      "AcquisitionTime": ["163350.950000", "163351.410000", "163351.870000", "163352.330000", "163352.790000", "163353.250000", "163353.710000", "163354.170000", "163354.630000", "163355.090000", "163355.550000", "163356.010000", "163356.470000", "163356.930000", "163357.390000", "163357.850000", "163358.310000", "163358.770000", "163359.230000", "163359.690000", "163400.150000", "163400.610000", "163401.070000", "163401.530000", "163401.990000", "163402.450000", "163402.910000", "163403.370000", "163403.830000", "163404.290000", "163404.750000", "163405.210000", "163405.670000", "163406.130000", "163406.590000", "163407.050000", "163407.510000", "163407.970000", "163408.430000", "163408.890000", "163409.350000", "163409.810000", "163410.270000", "163410.730000", "163411.190000", "163411.650000", "163412.110000", "163412.570000", "163413.030000", "163413.490000", "163413.950000", "163414.410000", "163414.870000", "163415.330000", "163415.790000", "163416.250000", "163416.710000", "163417.170000", "163417.630000", "163418.090000", "163418.550000", "163419.010000", "163419.470000", "163419.930000", "163420.390000", "163420.850000", "163421.310000", "163421.770000", "163422.230000", "163422.690000", "163423.150000", "163423.610000", "163424.070000", "163424.530000", "163424.990000", "163425.450000", "163425.910000", "163426.370000", "163426.830000", "163427.290000", "163427.750000", "163428.210000", "163428.670000", "163429.130000", "163429.590000", "163430.050000", "163430.510000", "163430.970000", "163431.430000", "163431.890000", "163432.350000", "163432.810000", "163433.270000", "163433.730000", "163434.190000", "163434.650000", "163435.110000", "163435.570000", "163436.030000", "163436.490000", "163436.950000", "163437.410000", "163437.870000", "163438.330000", "163438.790000", "163439.250000", "163439.710000", "163440.170000", "163440.630000", "163441.090000", "163441.550000", "163442.010000", "163442.470000", "163442.930000", "163443.390000", "163443.850000", "163444.310000", "163444.770000", "163445.230000", "163445.690000", "163446.150000", "163446.610000", "163447.070000", "163447.530000", "163447.990000", "163448.450000", "163448.910000", "163449.370000", "163449.830000", "163450.290000", "163450.750000", "163451.210000", "163451.670000", "163452.130000", "163452.590000", "163453.050000", "163453.510000", "163453.970000", "163454.430000", "163454.890000", "163455.350000", "163455.810000", "163456.270000", "163456.730000", "163457.190000", "163457.650000", "163458.110000", "163458.570000", "163459.030000", "163459.490000", "163459.950000", "163500.410000", "163500.870000", "163501.330000", "163501.790000", "163502.250000", "163502.710000", "163503.170000", "163503.630000", "163504.090000", "163504.550000", "163505.010000", "163505.470000", "163505.930000", "163506.390000", "163506.850000", "163507.310000", "163507.770000", "163508.230000", "163508.690000", "163509.150000", "163509.610000", "163510.070000", "163510.530000", "163510.990000", "163511.450000", "163511.910000", "163512.370000", "163512.830000", "163513.290000", "163513.750000", "163514.210000", "163514.670000", "163515.130000", "163515.590000", "163516.050000", "163516.510000", "163516.970000", "163517.430000", "163517.890000", "163518.350000", "163518.810000", "163519.270000", "163519.730000", "163520.190000", "163520.650000", "163521.110000", "163521.570000", "163522.030000", "163522.490000", "163522.950000", "163523.410000", "163523.870000", "163524.330000", "163524.790000", "163525.250000", "163525.710000", "163526.170000", "163526.630000", "163527.090000", "163527.550000", "163528.010000", "163528.470000", "163528.930000", "163529.390000", "163529.850000", "163530.310000", "163530.770000", "163531.230000", "163531.690000", "163532.150000", "163532.610000", "163533.070000", "163533.530000", "163533.990000", "163534.450000", "163534.910000", "163535.370000", "163535.830000", "163536.290000", "163536.750000", "163537.210000", "163537.670000", "163538.130000", "163538.590000", "163539.050000", "163539.510000", "163539.970000", "163540.430000", "163540.890000", "163541.350000", "163541.810000", "163542.270000", "163542.730000", "163543.190000", "163543.650000", "163544.110000", "163544.570000", "163545.030000", "163545.490000", "163545.950000", "163546.410000", "163546.870000", "163547.330000", "163547.790000", "163548.250000", "163548.710000", "163549.170000", "163549.630000", "163550.090000", "163550.550000", "163551.010000", "163551.470000", "163551.930000", "163552.390000", "163552.850000", "163553.310000", "163553.770000", "163554.230000", "163554.690000", "163555.150000", "163555.610000", "163556.070000", "163556.530000", "163556.990000", "163557.450000", "163557.910000", "163558.370000", "163558.830000", "163559.290000", "163559.750000", "163600.210000", "163600.670000", "163601.130000", "163601.590000", "163602.050000", "163602.510000", "163602.970000", "163603.430000", "163603.890000", "163604.350000", "163604.810000", "163605.270000", "163605.730000", "163606.190000", "163606.650000", "163607.110000", "163607.570000", "163608.030000", "163608.490000", "163608.950000", "163609.410000", "163609.870000", "163610.330000", "163610.790000", "163611.250000", "163611.710000", "163612.170000", "163612.630000", "163613.090000", "163613.550000", "163614.010000", "163614.470000", "163614.930000", "163615.390000", "163615.850000", "163616.310000", "163616.770000", "163617.230000", "163617.690000", "163618.150000", "163618.610000", "163619.070000", "163619.530000", "163619.990000", "163620.450000", "163620.910000", "163621.370000", "163621.830000", "163622.290000", "163622.750000", "163623.210000", "163623.670000", "163624.130000", "163624.590000", "163625.050000", "163625.510000", "163625.970000", "163626.430000", "163626.890000", "163627.350000", "163627.810000", "163628.270000", "163628.730000", "163629.190000", "163629.650000", "163630.110000", "163630.570000", "163631.030000", "163631.490000", "163631.950000", "163632.410000", "163632.870000", "163633.330000", "163633.790000", "163634.250000", "163634.710000", "163635.170000", "163635.630000", "163636.090000", "163636.550000", "163637.010000", "163637.470000", "163637.930000", "163638.390000", "163638.850000", "163639.310000", "163639.770000", "163640.230000", "163640.690000", "163641.150000", "163641.610000", "163642.070000", "163642.530000", "163642.990000", "163643.450000", "163643.910000", "163644.370000", "163644.830000", "163645.290000", "163645.750000", "163646.210000", "163646.670000", "163647.130000", "163647.590000", "163648.050000", "163648.510000", "163648.970000", "163649.430000", "163649.890000", "163650.350000", "163650.810000", "163651.270000", "163651.730000", "163652.190000", "163652.650000", "163653.110000", "163653.570000", "163654.030000", "163654.490000", "163654.950000", "163655.410000", "163655.870000", "163656.330000", "163656.790000", "163657.250000", "163657.710000", "163658.170000", "163658.630000", "163659.090000", "163659.550000", "163700.010000", "163700.470000", "163700.930000", "163701.390000", "163701.850000", "163702.310000", "163702.770000", "163703.230000", "163703.690000", "163704.150000", "163704.610000", "163705.070000", "163705.530000", "163705.990000", "163706.450000", "163706.910000", "163707.370000", "163707.830000", "163708.290000", "163708.750000", "163709.210000", "163709.670000", "163710.130000", "163710.590000", "163711.050000", "163711.510000", "163711.970000", "163712.430000", "163712.890000", "163713.350000", "163713.810000", "163714.270000", "163714.730000", "163715.190000", "163715.650000", "163716.110000", "163716.570000", "163717.030000", "163717.490000", "163717.950000", "163718.410000", "163718.870000", "163719.330000", "163719.790000", "163720.250000", "163720.710000", "163721.170000", "163721.630000", "163722.090000", "163722.550000", "163723.010000", "163723.470000", "163723.930000", "163724.390000", "163724.850000", "163725.310000", "163725.770000", "163726.230000", "163726.690000", "163727.150000", "163727.610000", "163728.070000", "163728.530000", "163728.990000", "163729.450000", "163729.910000", "163730.370000", "163730.830000", "163731.290000", "163731.750000", "163732.210000", "163732.670000", "163733.130000", "163733.590000", "163734.050000", "163734.510000", "163734.970000", "163735.430000", "163735.890000", "163736.350000", "163736.810000", "163737.270000", "163737.730000", "163738.190000", "163738.650000", "163739.110000", "163739.570000", "163740.030000", "163740.490000", "163740.950000", "163741.410000", "163741.870000", "163742.330000", "163742.790000", "163743.250000", "163743.710000", "163744.170000", "163744.630000", "163745.090000", "163745.550000", "163746.010000", "163746.470000", "163746.930000", "163747.390000", "163747.850000", "163748.310000", "163748.770000", "163749.230000", "163749.690000", "163750.150000", "163750.610000", "163751.070000", "163751.530000", "163751.990000", "163752.450000", "163752.910000", "163753.370000", "163753.830000", "163754.290000", "163754.750000", "163755.210000", "163755.670000", "163756.130000", "163756.590000", "163757.050000", "163757.510000", "163757.970000", "163758.430000", "163758.890000", "163759.350000", "163759.810000", "163800.270000", "163800.730000", "163801.190000", "163801.650000", "163802.110000", "163802.570000", "163803.030000", "163803.490000", "163803.950000", "163804.410000", "163804.870000", "163805.330000", "163805.790000", "163806.250000", "163806.710000", "163807.170000", "163807.630000", "163808.090000", "163808.550000", "163809.010000", "163809.470000", "163809.930000", "163810.390000", "163810.850000", "163811.310000", "163811.770000", "163812.230000", "163812.690000", "163813.150000", "163813.610000", "163814.070000", "163814.530000", "163814.990000", "163815.450000", "163815.910000", "163816.370000", "163816.830000", "163817.290000", "163817.750000", "163818.210000", "163818.670000", "163819.130000", "163819.590000", "163820.050000", "163820.510000", "163820.970000", "163821.430000", "163821.890000", "163822.350000", "163822.810000", "163823.270000", "163823.730000", "163824.190000", "163824.650000", "163825.110000", "163825.570000", "163826.030000", "163826.490000", "163826.950000", "163827.410000", "163827.870000", "163828.330000", "163828.790000", "163829.250000", "163829.710000", "163830.170000", "163830.630000", "163831.090000", "163831.550000", "163832.010000", "163832.470000", "163832.930000", "163833.390000", "163833.850000", "163834.310000", "163834.770000", "163835.230000", "163835.690000", "163836.150000", "163836.610000", "163837.070000", "163837.530000", "163837.990000", "163838.450000", "163838.910000", "163839.370000", "163839.830000", "163840.290000", "163840.750000", "163841.210000", "163841.670000", "163842.130000", "163842.590000", "163843.050000", "163843.510000", "163843.970000", "163844.430000", "163844.890000", "163845.350000", "163845.810000", "163846.270000", "163846.730000", "163847.190000", "163847.650000", "163848.110000", "163848.570000", "163849.030000", "163849.490000", "163849.950000", "163850.410000", "163850.870000", "163851.330000", "163851.790000", "163852.250000", "163852.710000", "163853.170000", "163853.630000", "163854.090000", "163854.550000", "163855.010000", "163855.470000", "163855.930000", "163856.390000", "163856.850000", "163857.310000", "163857.770000", "163858.230000", "163858.690000", "163859.150000", "163859.610000", "163900.070000", "163900.530000", "163900.990000", "163901.450000", "163901.910000", "163902.370000", "163902.830000", "163903.290000", "163903.750000", "163904.210000", "163904.670000", "163905.130000", "163905.590000", "163906.050000", "163906.510000", "163906.970000", "163907.430000", "163907.890000", "163908.350000", "163908.810000", "163909.270000", "163909.730000", "163910.190000", "163910.650000", "163911.110000", "163911.570000", "163912.030000", "163912.490000", "163912.950000", "163913.410000", "163913.870000", "163914.330000", "163914.790000", "163915.250000", "163915.710000", "163916.170000", "163916.630000", "163917.090000", "163917.550000", "163918.010000", "163918.470000", "163918.930000", "163919.390000", "163919.850000", "163920.310000", "163920.770000", "163921.230000", "163921.690000", "163922.150000", "163922.610000", "163923.070000", "163923.530000", "163923.990000", "163924.450000", "163924.910000", "163925.370000", "163925.830000", "163926.290000", "163926.750000", "163927.210000", "163927.670000", "163928.130000", "163928.590000", "163929.050000", "163929.510000", "163929.970000", "163930.430000", "163930.890000", "163931.350000", "163931.810000", "163932.270000", "163932.730000", "163933.190000", "163933.650000", "163934.110000", "163934.570000", "163935.030000", "163935.490000", "163935.950000", "163936.410000", "163936.870000", "163937.330000", "163937.790000", "163938.250000", "163938.710000", "163939.170000", "163939.630000", "163940.090000", "163940.550000", "163941.010000", "163941.470000", "163941.930000", "163942.390000", "163942.850000", "163943.310000", "163943.770000", "163944.230000", "163944.690000", "163945.150000", "163945.610000", "163946.070000", "163946.530000", "163946.990000", "163947.450000", "163947.910000", "163948.370000", "163948.830000", "163949.290000", "163949.750000", "163950.210000", "163950.670000", "163951.130000", "163951.590000", "163952.050000", "163952.510000", "163952.970000", "163953.430000", "163953.890000", "163954.350000", "163954.810000", "163955.270000", "163955.730000", "163956.190000", "163956.650000", "163957.110000", "163957.570000", "163958.030000", "163958.490000", "163958.950000", "163959.410000", "163959.870000", "164000.330000", "164000.790000", "164001.250000", "164001.710000", "164002.170000", "164002.630000", "164003.090000", "164003.550000", "164004.010000", "164004.470000", "164004.930000", "164005.390000", "164005.850000", "164006.310000", "164006.770000", "164007.230000", "164007.690000", "164008.150000", "164008.610000", "164009.070000", "164009.530000", "164009.990000", "164010.450000", "164010.910000", "164011.370000", "164011.830000", "164012.290000", "164012.750000", "164013.210000", "164013.670000", "164014.130000", "164014.590000", "164015.050000", "164015.510000", "164015.970000", "164016.430000", "164016.890000", "164017.350000", "164017.810000", "164018.270000", "164018.730000", "164019.190000", "164019.650000", "164020.110000", "164020.570000", "164021.030000", "164021.490000", "164021.950000", "164022.410000", "164022.870000", "164023.330000", "164023.790000", "164024.250000", "164024.710000", "164025.170000", "164025.630000", "164026.090000", "164026.550000", "164027.010000", "164027.470000", "164027.930000", "164028.390000", "164028.850000", "164029.310000", "164029.770000", "164030.230000", "164030.690000", "164031.150000", "164031.610000"],
