{
  "AcquisitionMatrixPE": 140,
  "AcquisitionNumber": 1,
  "AcquisitionTime": "17:52:21.070000",
  "BandwidthPerPixelPhaseEncode": 10.352,
  "BaseResolution": 140,
  "BodyPartExamined": "BRAIN",
  "ConsistencyInfo": "N4_VE11E_LATEST_20181129",
  "ConversionSoftware": "dcm2niix",
  "ConversionSoftwareVersion": "v1.0.20201102",
  "DerivedVendorReportedEchoSpacing": 0.000689998,
  "DeviceSerialNumber": "66112",
  "DiffusionScheme": "Monopolar",
  "DwellTime": 2.1e-06,
  "EchoTime": 0.0884,
  "EchoTrainLength": 105,
  "EffectiveEchoSpacing": 0.000689998,
  "FlipAngle": 90,
  "ImageComments": "Unaliased MB3/PE3 SENSE1",
  "ImageOrientationPatientDICOM": [0.998976, -0.0452389, 0.000620834, 0.0451886, 0.998351, 0.0354023],
  "ImageType": [
    "ORIGINAL",
    "PRIMARY",
    "DIFFUSION",
    "NONE",
    "MB",
    "ND",
    "MOSAIC"
],
  "ImagingFrequency": 123.259,
  "InPlanePhaseEncodingDirectionDICOM": "COL",
  "InstitutionAddress": "Maynard 3,Hanover,NH,US,03755",
  "InstitutionName": "Dartmouth College - PBS",
  "InstitutionalDepartmentName": "Department",
  "MRAcquisitionType": "2D",
  "MagneticFieldStrength": 3,
  "Manufacturer": "Siemens",
  "ManufacturersModelName": "Prisma",
  "Modality": "MR",
  "MultibandAccelerationFactor": 3,
  "PartialFourier": 0.75,
  "PatientPosition": "HFS",
  "PercentPhaseFOV": 100,
  "PercentSampling": 100,
  "PhaseEncodingDirection": "j-",
  "PhaseEncodingSteps": 105,
  "PhaseResolution": 1,
  "PixelBandwidth": 1700,
  "ProcedureStepDescription": "Wager_Wager^1076_spacetop",
  "ProtocolName": "dwi_acq-96dir-6b0-mb",
  "PulseSequenceDetails": "%CustomerSeq%\\cmrr_mbep2d_diff",
  "ReceiveCoilActiveElements": "HEA;HEP",
  "ReceiveCoilName": "Head_32",
  "ReconMatrixPE": 140,
  "RepetitionTime": 4.11,
  "SAR": 0.226156,
  "ScanOptions": "PFP\\FS",
  "ScanningSequence": "EP",
  "SequenceName": "ep_b5#1",
  "SequenceVariant": "SK\\SS",
  "SeriesDescription": "dwi_acq-96dir-6b0-mb",
  "SeriesNumber": 8,
  "ShimSetting": [4229, -7759, -7287, 104, -111, -125, -71, 91],
  "SliceThickness": 1.7,
  "SliceTiming": [0, 2.12, 0.1525, 2.2725, 0.3025, 2.425, 0.455, 2.575, 0.605, 2.7275, 0.7575, 2.8775, 0.91, 3.03, 1.06, 3.18, 1.2125, 3.3325, 1.3625, 3.485, 1.515, 3.635, 1.6675, 3.7875, 1.8175, 3.9375, 1.97, 0, 2.12, 0.1525, 2.2725, 0.3025, 2.425, 0.455, 2.575, 0.605, 2.7275, 0.7575, 2.8775, 0.91, 3.03, 1.06, 3.18, 1.2125, 3.3325, 1.3625, 3.485, 1.515, 3.635, 1.6675, 3.7875, 1.8175, 3.9375, 1.97, 0, 2.12, 0.1525, 2.2725, 0.3025, 2.425, 0.455, 2.575, 0.605, 2.7275, 0.7575, 2.8775, 0.91, 3.03, 1.06, 3.18, 1.2125, 3.3325, 1.3625, 3.485, 1.515, 3.635, 1.6675, 3.7875, 1.8175, 3.9375, 1.97],
  "SoftwareVersions": "syngo MR E11",
  "SpacingBetweenSlices": 1.7,
  "StationName": "AWP66112",
  "TotalReadoutTime": 0.0959097,
  "TxRefAmp": 237.023,
  "WipMemBlock": "081a29e0-6574-473e-b6b9-7de3b469a3b7||Sequence: R016 ve11e/master r/434b28f1; Aug  7 2019 19:06:17 by eja",
  "dcmmeta_affine": [
    [-1.712530255317688, 0.07746617496013641, 0.0037763325963169336, 117.66454315185547],
    [0.0775524154305458, 1.7114588022232056, 0.060074612498283386, -97.08937072753906],
    [0.0010642865672707558, -0.06068968400359154, 1.6989339590072632, -79.1500015258789],
    [0.0, 0.0, 0.0, 1.0]
],
  "dcmmeta_reorient_transform": [
    [0.0, -1.0, 0.0, 139.0],
    [1.0, 0.0, 0.0, 0.0],
    [0.0, 0.0, 1.0, 0.0],
    [0.0, 0.0, 0.0, 1.0]
],
  "dcmmeta_shape": [140, 140, 81, 103],
  "dcmmeta_slice_dim": 2,
  "dcmmeta_version": 0.6,
  "global": {
    "const": {
      "AccessionNumber": "A004477",
      "AcquisitionMatrix": [140, 0, 0, 140],
      "AngioFlag": "N",
      "BitsAllocated": 16,
      "BitsStored": 16,
      "BodyPartExamined": "BRAIN",
      "Columns": 1260,
      "EchoNumbers": 1,
      "EchoTime": 88.4,
      "EchoTrainLength": 105,
      "FlipAngle": 90.0,
      "HighBit": 15,
      "ImageOrientationPatient": [0.99897600352557, -0.0452389096399, 0.00062083384389, 0.04518860349411, 0.99835097348282, 0.03540231433328],
      "ImagePositionPatient": [-1130.8303756473, -1055.7909994269, -122.16809245885],
      "ImageType": [
        "ORIGINAL",
        "PRIMARY",
        "DIFFUSION",
        "NONE",
        "MB",
        "ND",
        "MOSAIC"
],
      "ImagedNucleus": "1H",
      "ImagingFrequency": 123.259102,
      "InPlanePhaseEncodingDirection": "COL",
      "MRAcquisitionType": "2D",
      "MagneticFieldStrength": 3.0,
      "Manufacturer": "SIEMENS",
      "ManufacturerModelName": "Prisma",
      "Modality": "MR",
      "NumberOfAverages": 1.0,
      "NumberOfPhaseEncodingSteps": 105,
      "PercentPhaseFieldOfView": 100.0,
      "PercentSampling": 100.0,
      "PerformedProcedureStepStartTime": "172338.285000",
      "PhotometricInterpretation": "MONOCHROME2",
      "PixelBandwidth": 1700.0,
      "PixelRepresentation": 0,
      "PixelSpacing": [1.7142857313156, 1.7142857313156],
      "ProtocolName": "dwi_acq-96dir-6b0-mb",
      "RepetitionTime": 4110.0,
      "Rows": 1260,
      "SAR": 0.22615592990628,
      "SamplesPerPixel": 1,
      "ScanOptions": [
        "PFP",
        "FS"
],
      "ScanningSequence": "EP",
      "SequenceVariant": [
        "SK",
        "SS"
],
      "SeriesDescription": "dwi_acq-96dir-6b0-mb",
      "SeriesNumber": 8,
      "SeriesTime": "175351.916000",
      "SliceLocation": -82.269941026394,
      "SliceThickness": 1.7000000476837,
      "SmallestImagePixelValue": 0,
      "SoftwareVersions": "syngo MR E11",
      "SpacingBetweenSlices": 1.6999999700503,
      "SpecificCharacterSet": "ISO_IR 100",
      "StudyID": "1",
      "StudyTime": "172338.221000",
      "TransmitCoilName": "Body",
      "VariableFlipAngleFlag": "N",
      "WindowCenterWidthExplanation": "Algo1"
    },
    "slices": {}
  },
  "time": {
    "samples": {
      "AcquisitionNumber": [1, 2, 3, 4, 5, 6, 7, 8, 9, 10, 11, 12, 13, 14, 15, 16, 17, 18, 19, 20, 21, 22, 23, 24, 25, 26, 27, 28, 29, 30, 31, 32, 33, 34, 35, 36, 37, 38, 39, 40, 41, 42, 43, 44, 45, 46, 47, 48, 49, 50, 51, 52, 53, 54, 55, 56, 57, 58, 59, 60, 61, 62, 63, 64, 65, 66, 67, 68, 69, 70, 71, 72, 73, 74, 75, 76, 77, 78, 79, 80, 81, 82, 83, 84, 85, 86, 87, 88, 89, 90, 91, 92, 93, 94, 95, 96, 97, 98, 99, 100, 101, 102, 103],
      "AcquisitionTime": ["175221.070000", "175225.180000", "175229.290000", "175233.400000", "175237.510000", "175241.620000", "175245.730000", "175249.840000", "175253.950000", "175258.060000", "175302.170000", "175306.280000", "175310.390000", "175314.500000", "175318.610000", "175322.720000", "175326.830000", "175330.940000", "175335.050000", "175339.160000", "175343.270000", "175347.380000", "175351.490000", "175355.600000", "175359.710000", "175403.820000", "175407.930000", "175412.040000", "175416.150000", "175420.260000", "175424.370000", "175428.480000", "175432.590000", "175436.700000", "175440.810000", "175444.920000", "175449.030000", "175453.140000", "175457.250000", "175501.360000", "175505.470000", "175509.580000", "175513.690000", "175517.800000", "175521.910000", "175526.020000", "175530.130000", "175534.240000", "175538.350000", "175542.460000", "175546.570000", "175550.680000", "175554.790000", "175558.900000", "175603.010000", "175607.120000", "175611.230000", "175615.340000", "175619.450000", "175623.560000", "175627.670000", "175631.780000", "175635.890000", "175640.000000", "175644.110000", "175648.220000", "175652.330000", "175656.440000", "175700.550000", "175704.660000", "175708.770000", "175712.880000", "175716.990000", "175721.100000", "175725.210000", "175729.320000", "175733.430000", "175737.540000", "175741.650000", "175745.760000", "175749.870000", "175753.980000", "175758.090000", "175802.200000", "175806.310000", "175810.420000", "175814.530000", "175818.640000", "175822.750000", "175826.860000", "175830.970000", "175835.080000", "175839.190000", "175843.300000", "175847.410000", "175851.520000", "175855.630000", "175859.740000", "175903.850000", "175907.960000", "175912.070000", "175916.180000", "175920.290000"],
      "ContentTime": ["175351.920000", "175351.924000", "175351.927000", "175351.930000", "175351.933000", "175351.936000", "175351.939000", "175351.942000", "175351.945000", "175351.948000", "175351.951000", "175351.954000", "175351.957000", "175351.960000", "175351.973000", "175351.976000", "175351.979000", "175351.982000", "175351.985000", "175351.988000", "175351.991000", "175431.915000", "175431.918000", "175431.921000", "175431.924000", "175431.927000", "175431.930000", "175431.933000", "175431.936000", "175431.939000", "175431.942000", "175551.915000", "175551.918000", "175551.927000", "175551.930000", "175551.933000", "175551.936000", "175551.939000", "175551.942000", "175551.945000", "175551.948000", "175551.951000", "175551.954000", "175551.957000", "175551.960000", "175551.963000", "175551.966000", "175551.969000", "175551.972000", "175551.975000", "175551.978000", "175731.915000", "175731.918000", "175731.921000", "175731.924000", "175731.927000", "175731.930000", "175731.933000", "175731.936000", "175731.939000", "175731.942000", "175731.945000", "175731.948000", "175731.951000", "175731.954000", "175731.957000", "175731.960000", "175731.963000", "175731.966000", "175731.969000", "175731.972000", "175731.975000", "175731.978000", "175731.981000", "175731.984000", "175911.915000", "175911.918000", "175911.921000", "175911.924000", "175911.927000", "175911.930000", "175911.933000", "175911.936000", "175911.962000", "175911.980000", "175911.983000", "175911.986000", "175911.989000", "175911.992000", "175911.995000", "175911.998000", "175912.002000", "175912.005000", "175912.008000", "175912.011000", "175912.014000", "175912.017000", "175912.020000", "175912.023000", "175925.306000", "175925.310000", "175925.313000", "175925.316000"],
      "InstanceCreationTime": ["175351.920000", "175351.924000", "175351.927000", "175351.930000", "175351.933000", "175351.936000", "175351.939000", "175351.942000", "175351.945000", "175351.948000", "175351.951000", "175351.954000", "175351.957000", "175351.960000", "175351.973000", "175351.976000", "175351.979000", "175351.982000", "175351.985000", "175351.988000", "175351.991000", "175431.915000", "175431.918000", "175431.921000", "175431.924000", "175431.927000", "175431.930000", "175431.933000", "175431.936000", "175431.939000", "175431.942000", "175551.915000", "175551.918000", "175551.927000", "175551.930000", "175551.933000", "175551.936000", "175551.939000", "175551.942000", "175551.945000", "175551.948000", "175551.951000", "175551.954000", "175551.957000", "175551.960000", "175551.963000", "175551.966000", "175551.969000", "175551.972000", "175551.975000", "175551.978000", "175731.915000", "175731.918000", "175731.921000", "175731.924000", "175731.927000", "175731.930000", "175731.933000", "175731.936000", "175731.939000", "175731.942000", "175731.945000", "175731.948000", "175731.951000", "175731.954000", "175731.957000", "175731.960000", "175731.963000", "175731.966000", "175731.969000", "175731.972000", "175731.975000", "175731.978000", "175731.981000", "175731.984000", "175911.915000", "175911.918000", "175911.921000", "175911.924000", "175911.927000", "175911.930000", "175911.933000", "175911.936000", "175911.962000", "175911.980000", "175911.983000", "175911.986000", "175911.989000", "175911.992000", "175911.995000", "175911.998000", "175912.002000", "175912.005000", "175912.008000", "175912.011000", "175912.014000", "175912.017000", "175912.020000", "175912.023000", "175925.306000", "175925.310000", "175925.313000", "175925.316000"],
      "InstanceNumber": [1, 2, 3, 4, 5, 6, 7, 8, 9, 10, 11, 12, 13, 14, 15, 16, 17, 18, 19, 20, 21, 22, 23, 24, 25, 26, 27, 28, 29, 30, 31, 32, 33, 34, 35, 36, 37, 38, 39, 40, 41, 42, 43, 44, 45, 46, 47, 48, 49, 50, 51, 52, 53, 54, 55, 56, 57, 58, 59, 60, 61, 62, 63, 64, 65, 66, 67, 68, 69, 70, 71, 72, 73, 74, 75, 76, 77, 78, 79, 80, 81, 82, 83, 84, 85, 86, 87, 88, 89, 90, 91, 92, 93, 94, 95, 96, 97, 98, 99, 100, 101, 102, 103],
      "LargestImagePixelValue": [65535, 65535, 55636, 56953, 55921, 61454, 58253, 55131, 65535, 35866, 42394, 40857, 37331, 38587, 36996, 37496, 37748, 38146, 36609, 36829, 37178, 36340, 39397, 36944, 65535, 17113, 19388, 18826, 19553, 21176, 21859, 19623, 20146, 18926, 21035, 20344, 18871, 19219, 18917, 18935, 65535, 10121, 11806, 13968, 14427, 11168, 10883, 10853, 10928, 9868, 11473, 12460, 11641, 12443, 12154, 9965, 11066, 11479, 13213, 13301, 10705, 13207, 11119, 11083, 10858, 13640, 10503, 11464, 14136, 12431, 10772, 10815, 9941, 65535, 12467, 11577, 10533, 11743, 10643, 10978, 10194, 12716, 11365, 13152, 10518, 10345, 10688, 15397, 17452, 12210, 14910, 11131, 11001, 11400, 12146, 13068, 11754, 11531, 17502, 10076, 10926, 11603, 65535],
      "SequenceName": [
 "ep_b5#1",
 "ep_b5#1",
 "ep_b500#2",
 "ep_b495#3",
 "ep_b500#4",
 "ep_b505#5",
 "ep_b495#6",
 "ep_b500#7",
 "ep_b5#8",
 "ep_b1000#9",
 "ep_b1005#10",
 "ep_b995#11",
 "ep_b1005#12",
 "ep_b995#13",
 "ep_b995#14",
 "ep_b1005#15",
 "ep_b1000#16",
 "ep_b1005#17",
 "ep_b995#18",
 "ep_b1000#19",
 "ep_b995#20",
 "ep_b1000#21",
 "ep_b1005#22",
 "ep_b1005#23",
 "ep_b5#24",
 "ep_b2000#25",
 "ep_b1995#26",
 "ep_b1990#27",
 "ep_b1995#28",
 "ep_b2005#29",
 "ep_b2010#30",
 "ep_b2000#31",
 "ep_b2010#32",
 "ep_b2000#33",
 "ep_b1995#34",
 "ep_b1995#35",
 "ep_b2005#36",
 "ep_b2000#37",
 "ep_b2005#38",
 "ep_b1995#39",
 "ep_b5#40",
 "ep_b3000#41",
 "ep_b3005#42",
 "ep_b3010#43",
 "ep_b3010#44",
 "ep_b3000#45",
 "ep_b3000#46",
 "ep_b2990#47",
 "ep_b3005#48",
 "ep_b3000#49",
 "ep_b2990#50",
 "ep_b2990#51",
 "ep_b2995#52",
 "ep_b2995#53",
 "ep_b3010#54",
 "ep_b3000#55",
 "ep_b2995#56",
 "ep_b2995#57",
 "ep_b2990#58",
 "ep_b2990#59",
 "ep_b3000#60",
 "ep_b2990#61",
 "ep_b2990#62",
 "ep_b2995#63",
 "ep_b3000#64",
 "ep_b3010#65",
 "ep_b3000#66",
 "ep_b3005#67",
 "ep_b3010#68",
 "ep_b3005#69",
 "ep_b3005#70",
 "ep_b3005#71",
 "ep_b2990#72",
 "ep_b5#73",
 "ep_b3010#74",
 "ep_b3000#75",
 "ep_b3005#76",
 "ep_b3000#77",
 "ep_b2990#78",
 "ep_b3005#79",
 "ep_b2995#80",
 "ep_b3010#81",
 "ep_b3005#82",
 "ep_b3005#83",
 "ep_b3000#84",
 "ep_b3000#85",
 "ep_b3010#86",
 "ep_b3010#87",
 "ep_b2990#88",
 "ep_b3010#89",
 "ep_b2995#90",
 "ep_b2995#91",
 "ep_b2990#92",
 "ep_b2995#93",
 "ep_b3005#94",
 "ep_b3005#95",
 "ep_b2995#96",
 "ep_b3000#97",
 "ep_b2990#98",
 "ep_b3000#99",
 "ep_b2995#100",
 "ep_b2995#101",
 "ep_b5#102"
],
      "WindowCenter": [10663.0, 10663.0, 6989.0, 7073.0, 6999.0, 7017.0, 7091.0, 6996.0, 10638.0, 5071.0, 5181.0, 5189.0, 5088.0, 5192.0, 5141.0, 5110.0, 5147.0, 5162.0, 5113.0, 5113.0, 5175.0, 5119.0, 5136.0, 5145.0, 10644.0, 3116.0, 3190.0, 3188.0, 3212.0, 3205.0, 3237.0, 3160.0, 3210.0, 3213.0, 3253.0, 3220.0, 3112.0, 3202.0, 3210.0, 3165.0, 10652.0, 2154.0, 2209.0, 2286.0, 2299.0, 2208.0, 2211.0, 2257.0, 2141.0, 2103.0, 2225.0, 2265.0, 2180.0, 2223.0, 2238.0, 2114.0, 2182.0, 2222.0, 2276.0, 2276.0, 2154.0, 2275.0, 2270.0, 2209.0, 2226.0, 2301.0, 2183.0, 2239.0, 2298.0, 2231.0, 2156.0, 2241.0, 2219.0, 10625.0, 2263.0, 2206.0, 2144.0, 2190.0, 2174.0, 2184.0, 2129.0, 2247.0, 2269.0, 2216.0, 2182.0, 2141.0, 2189.0, 2278.0, 2353.0, 2237.0, 2308.0, 2198.0, 2212.0, 2252.0, 2232.0, 2261.0, 2294.0, 2222.0, 2369.0, 2128.0, 2181.0, 2226.0, 10633.0],
      "WindowWidth": [24302.0, 24300.0, 14913.0, 15063.0, 14915.0, 14962.0, 15101.0, 14913.0, 24239.0, 11103.0, 11306.0, 11295.0, 11137.0, 11336.0, 11236.0, 11180.0, 11217.0, 11269.0, 11170.0, 11165.0, 11286.0, 11181.0, 11227.0, 11218.0, 24256.0, 7241.0, 7368.0, 7394.0, 7403.0, 7406.0, 7477.0, 7308.0, 7434.0, 7413.0, 7477.0, 7432.0, 7233.0, 7395.0, 7417.0, 7336.0, 24278.0, 5284.0, 5400.0, 5534.0, 5546.0, 5391.0, 5407.0, 5493.0, 5266.0, 5197.0, 5424.0, 5495.0, 5338.0, 5423.0, 5456.0, 5214.0, 5339.0, 5416.0, 5511.0, 5515.0, 5287.0, 5511.0, 5519.0, 5394.0, 5432.0, 5558.0, 5344.0, 5460.0, 5554.0, 5428.0, 5296.0, 5465.0, 5421.0, 24193.0, 5488.0, 5386.0, 5278.0, 5350.0, 5339.0, 5350.0, 5245.0, 5460.0, 5522.0, 5396.0, 5341.0, 5263.0, 5370.0, 5503.0, 5632.0, 5447.0, 5567.0, 5380.0, 5404.0, 5484.0, 5429.0, 5492.0, 5564.0, 5417.0, 5657.0, 5238.0, 5334.0, 5437.0, 24206.0]
    },
    "slices": {}
  }
}