{
  "AcquisitionMatrixPE": 82,
  "AcquisitionNumber": 1,
  "AcquisitionTime": "11:55:49.672500",
  "BandwidthPerPixelPhaseEncode": 24.888,
  "BaseResolution": 82,
  "BodyPartExamined": "BRAIN",
  "ConsistencyInfo": "N4_VE11C_LATEST_20160120",
  "ConversionSoftware": "dcm2niix",
  "ConversionSoftwareVersion": "v1.0.20201102",
  "DerivedVendorReportedEchoSpacing": 0.00049,
  "DeviceSerialNumber": "66112",
  "DwellTime": 2e-06,
  "EchoTime": 0.0272,
  "EchoTrainLength": 82,
  "EffectiveEchoSpacing": 0.00049,
  "FlipAngle": 44,
  "ImageComments": "Unaliased MB8/PE3",
  "ImageOrientationPatientDICOM": [0.999379, 0.00537113, 0.0348293, -0.00645386, 0.999497, 0.0310493],
  "ImageType": [
    "ORIGINAL",
    "PRIMARY",
    "M",
    "MB",
    "ND",
    "NORM",
    "MOSAIC"
],
  "ImagingFrequency": 123.252,
  "InPlanePhaseEncodingDirectionDICOM": "COL",
  "InstitutionAddress": "Maynard 3,Hanover,NH,US,03755",
  "InstitutionName": "Dartmouth College - PBS",
  "InstitutionalDepartmentName": "Department",
  "MRAcquisitionType": "2D",
  "MagneticFieldStrength": 3,
  "Manufacturer": "Siemens",
  "ManufacturersModelName": "Prisma",
  "Modality": "MR",
  "MultibandAccelerationFactor": 8,
  "PartialFourier": 1,
  "PatientPosition": "HFS",
  "PercentPhaseFOV": 100,
  "PercentSampling": 100,
  "PhaseEncodingDirection": "j-",
  "PhaseEncodingSteps": 82,
  "PhaseResolution": 1,
  "PixelBandwidth": 3050,
  "ProcedureStepDescription": "Wager_Wager^1076_spacetop",
  "ProtocolName": "func_run-01_task-alignvideo_acq-ap-mb8",
  "PulseSequenceDetails": "%CustomerSeq%\\cmrr_mbep2d_bold",
  "ReceiveCoilActiveElements": "HEA;HEP",
  "ReceiveCoilName": "Head_32",
  "ReconMatrixPE": 82,
  "RepetitionTime": 0.46,
  "SAR": 0.100439,
  "ScanOptions": "FS",
  "ScanningSequence": "EP",
  "SequenceName": "epfid2d1_82",
  "SequenceVariant": "SK\\SS",
  "SeriesDescription": "func_run-01_task-alignvideo_acq-ap-mb8",
  "SeriesNumber": 30,
  "ShimSetting": [4155, -7752, -7249, 596, -56, -219, 53, 36],
  "SliceThickness": 2.7,
  "SliceTiming": [0, 0.25, 0.0625, 0.3125, 0.125, 0.3775, 0.1875, 0, 0.25, 0.0625, 0.3125, 0.125, 0.3775, 0.1875, 0, 0.25, 0.0625, 0.3125, 0.125, 0.3775, 0.1875, 0, 0.25, 0.0625, 0.3125, 0.125, 0.3775, 0.1875, 0, 0.25, 0.0625, 0.3125, 0.125, 0.3775, 0.1875, 0, 0.25, 0.0625, 0.3125, 0.125, 0.3775, 0.1875, 0, 0.25, 0.0625, 0.3125, 0.125, 0.3775, 0.1875, 0, 0.25, 0.0625, 0.3125, 0.125, 0.3775, 0.1875],
  "SoftwareVersions": "syngo MR E11",
  "SpacingBetweenSlices": 2.7,
  "StationName": "AWP66112",
  "TaskName": "alignvideo",
  "TotalReadoutTime": 0.03969,
  "TxRefAmp": 269.307,
  "WipMemBlock": "6b3bd711-a679-4026-b7c2-f0df23281b76||Sequence: R016 ve11c/master r/e634e98; Dec 19 2017 11:00:25 by eja",
  "dcmmeta_affine": [
    [-2.681260347366333, -0.017315231263637543, 0.0935414656996727, 111.1883316040039],
    [-0.014410344883799553, 2.681577444076538, 0.08438784629106522, -87.11260986328125],
    [0.09344439953565598, -0.08330290019512177, 2.697059392929077, -79.98076629638672],
    [0.0, 0.0, 0.0, 1.0]
],
  "dcmmeta_reorient_transform": [
    [0.0, -1.0, 0.0, 81.0],
    [1.0, 0.0, 0.0, 0.0],
    [0.0, 0.0, 1.0, 0.0],
    [0.0, 0.0, 0.0, 1.0]
],
  "dcmmeta_shape": [82, 82, 56, 1073],
  "dcmmeta_slice_dim": 2,
  "dcmmeta_version": 0.6,
  "global": {
    "const": {
      "AccessionNumber": "A003801",
      "AcquisitionMatrix": [82, 0, 0, 82],
      "AngioFlag": "N",
      "BitsAllocated": 16,
      "BitsStored": 16,
      "BodyPartExamined": "BRAIN",
      "Columns": 656,
      "EchoNumbers": 1,
      "EchoTime": 27.2,
      "EchoTrainLength": 82,
      "FlipAngle": 44.0,
      "HighBit": 15,
      "ImageOrientationPatient": [0.99937884336333, 0.00537112842362, 0.03482927529016, -0.0064538589692, 0.99949701904887, 0.03104926113191],
      "ImagePositionPatient": [-874.33805330333, -903.84365463134, -137.45477236916],
      "ImageType": [
        "ORIGINAL",
        "PRIMARY",
        "M",
        "MB",
        "ND",
        "NORM",
        "MOSAIC"
],
      "ImagedNucleus": "1H",
      "ImagingFrequency": 123.252198,
      "InPlanePhaseEncodingDirection": "COL",
      "MRAcquisitionType": "2D",
      "MagneticFieldStrength": 3.0,
      "Manufacturer": "SIEMENS",
      "ManufacturerModelName": "Prisma",
      "Modality": "MR",
      "NumberOfAverages": 1.0,
      "NumberOfPhaseEncodingSteps": 82,
      "PercentPhaseFieldOfView": 100.0,
      "PercentSampling": 100.0,
      "PerformedProcedureStepStartTime": "104253.287000",
      "PhotometricInterpretation": "MONOCHROME2",
      "PixelBandwidth": 3050.0,
      "PixelRepresentation": 0,
      "PixelSpacing": [2.6829268932343, 2.6829268932343],
      "ProtocolName": "func_run-01_task-alignvideo_acq-ap-mb8",
      "RepetitionTime": 460.0,
      "Rows": 656,
      "SAR": 0.10043857692488,
      "SamplesPerPixel": 1,
      "ScanOptions": "FS",
      "ScanningSequence": "EP",
      "SequenceName": "epfid2d1_82",
      "SequenceVariant": [
        "SK",
        "SS"
],
      "SeriesDescription": "func_run-01_task-alignvideo_acq-ap-mb8",
      "SeriesNumber": 30,
      "SeriesTime": "115615.222000",
      "SliceLocation": -78.76421671051,
      "SliceThickness": 2.7000000476837,
      "SmallestImagePixelValue": 0,
      "SoftwareVersions": "syngo MR E11",
      "SpacingBetweenSlices": 2.7000000883236,
      "SpecificCharacterSet": "ISO_IR 100",
      "StudyID": "1",
      "StudyTime": "104253.173000",
      "TransmitCoilName": "Body",
      "VariableFlipAngleFlag": "N",
      "WindowCenterWidthExplanation": "Algo1",
      "dBdt": 0.0},
    "slices": {}
  },
  "time": {
    "samples": {
      "AcquisitionNumber": [1, 2, 3, 4, 5, 6, 7, 8, 9, 10, 11, 12, 13, 14, 15, 16, 17, 18, 19, 20, 21, 22, 23, 24, 25, 26, 27, 28, 29, 30, 31, 32, 33, 34, 35, 36, 37, 38, 39, 40, 41, 42, 43, 44, 45, 46, 47, 48, 49, 50, 51, 52, 53, 54, 55, 56, 57, 58, 59, 60, 61, 62, 63, 64, 65, 66, 67, 68, 69, 70, 71, 72, 73, 74, 75, 76, 77, 78, 79, 80, 81, 82, 83, 84, 85, 86, 87, 88, 89, 90, 91, 92, 93, 94, 95, 96, 97, 98, 99, 100, 101, 102, 103, 104, 105, 106, 107, 108, 109, 110, 111, 112, 113, 114, 115, 116, 117, 118, 119, 120, 121, 122, 123, 124, 125, 126, 127, 128, 129, 130, 131, 132, 133, 134, 135, 136, 137, 138, 139, 140, 141, 142, 143, 144, 145, 146, 147, 148, 149, 150, 151, 152, 153, 154, 155, 156, 157, 158, 159, 160, 161, 162, 163, 164, 165, 166, 167, 168, 169, 170, 171, 172, 173, 174, 175, 176, 177, 178, 179, 180, 181, 182, 183, 184, 185, 186, 187, 188, 189, 190, 191, 192, 193, 194, 195, 196, 197, 198, 199, 200, 201, 202, 203, 204, 205, 206, 207, 208, 209, 210, 211, 212, 213, 214, 215, 216, 217, 218, 219, 220, 221, 222, 223, 224, 225, 226, 227, 228, 229, 230, 231, 232, 233, 234, 235, 236, 237, 238, 239, 240, 241, 242, 243, 244, 245, 246, 247, 248, 249, 250, 251, 252, 253, 254, 255, 256, 257, 258, 259, 260, 261, 262, 263, 264, 265, 266, 267, 268, 269, 270, 271, 272, 273, 274, 275, 276, 277, 278, 279, 280, 281, 282, 283, 284, 285, 286, 287, 288, 289, 290, 291, 292, 293, 294, 295, 296, 297, 298, 299, 300, 301, 302, 303, 304, 305, 306, 307, 308, 309, 310, 311, 312, 313, 314, 315, 316, 317, 318, 319, 320, 321, 322, 323, 324, 325, 326, 327, 328, 329, 330, 331, 332, 333, 334, 335, 336, 337, 338, 339, 340, 341, 342, 343, 344, 345, 346, 347, 348, 349, 350, 351, 352, 353, 354, 355, 356, 357, 358, 359, 360, 361, 362, 363, 364, 365, 366, 367, 368, 369, 370, 371, 372, 373, 374, 375, 376, 377, 378, 379, 380, 381, 382, 383, 384, 385, 386, 387, 388, 389, 390, 391, 392, 393, 394, 395, 396, 397, 398, 399, 400, 401, 402, 403, 404, 405, 406, 407, 408, 409, 410, 411, 412, 413, 414, 415, 416, 417, 418, 419, 420, 421, 422, 423, 424, 425, 426, 427, 428, 429, 430, 431, 432, 433, 434, 435, 436, 437, 438, 439, 440, 441, 442, 443, 444, 445, 446, 447, 448, 449, 450, 451, 452, 453, 454, 455, 456, 457, 458, 459, 460, 461, 462, 463, 464, 465, 466, 467, 468, 469, 470, 471, 472, 473, 474, 475, 476, 477, 478, 479, 480, 481, 482, 483, 484, 485, 486, 487, 488, 489, 490, 491, 492, 493, 494, 495, 496, 497, 498, 499, 500, 501, 502, 503, 504, 505, 506, 507, 508, 509, 510, 511, 512, 513, 514, 515, 516, 517, 518, 519, 520, 521, 522, 523, 524, 525, 526, 527, 528, 529, 530, 531, 532, 533, 534, 535, 536, 537, 538, 539, 540, 541, 542, 543, 544, 545, 546, 547, 548, 549, 550, 551, 552, 553, 554, 555, 556, 557, 558, 559, 560, 561, 562, 563, 564, 565, 566, 567, 568, 569, 570, 571, 572, 573, 574, 575, 576, 577, 578, 579, 580, 581, 582, 583, 584, 585, 586, 587, 588, 589, 590, 591, 592, 593, 594, 595, 596, 597, 598, 599, 600, 601, 602, 603, 604, 605, 606, 607, 608, 609, 610, 611, 612, 613, 614, 615, 616, 617, 618, 619, 620, 621, 622, 623, 624, 625, 626, 627, 628, 629, 630, 631, 632, 633, 634, 635, 636, 637, 638, 639, 640, 641, 642, 643, 644, 645, 646, 647, 648, 649, 650, 651, 652, 653, 654, 655, 656, 657, 658, 659, 660, 661, 662, 663, 664, 665, 666, 667, 668, 669, 670, 671, 672, 673, 674, 675, 676, 677, 678, 679, 680, 681, 682, 683, 684, 685, 686, 687, 688, 689, 690, 691, 692, 693, 694, 695, 696, 697, 698, 699, 700, 701, 702, 703, 704, 705, 706, 707, 708, 709, 710, 711, 712, 713, 714, 715, 716, 717, 718, 719, 720, 721, 722, 723, 724, 725, 726, 727, 728, 729, 730, 731, 732, 733, 734, 735, 736, 737, 738, 739, 740, 741, 742, 743, 744, 745, 746, 747, 748, 749, 750, 751, 752, 753, 754, 755, 756, 757, 758, 759, 760, 761, 762, 763, 764, 765, 766, 767, 768, 769, 770, 771, 772, 773, 774, 775, 776, 777, 778, 779, 780, 781, 782, 783, 784, 785, 786, 787, 788, 789, 790, 791, 792, 793, 794, 795, 796, 797, 798, 799, 800, 801, 802, 803, 804, 805, 806, 807, 808, 809, 810, 811, 812, 813, 814, 815, 816, 817, 818, 819, 820, 821, 822, 823, 824, 825, 826, 827, 828, 829, 830, 831, 832, 833, 834, 835, 836, 837, 838, 839, 840, 841, 842, 843, 844, 845, 846, 847, 848, 849, 850, 851, 852, 853, 854, 855, 856, 857, 858, 859, 860, 861, 862, 863, 864, 865, 866, 867, 868, 869, 870, 871, 872, 873, 874, 875, 876, 877, 878, 879, 880, 881, 882, 883, 884, 885, 886, 887, 888, 889, 890, 891, 892, 893, 894, 895, 896, 897, 898, 899, 900, 901, 902, 903, 904, 905, 906, 907, 908, 909, 910, 911, 912, 913, 914, 915, 916, 917, 918, 919, 920, 921, 922, 923, 924, 925, 926, 927, 928, 929, 930, 931, 932, 933, 934, 935, 936, 937, 938, 939, 940, 941, 942, 943, 944, 945, 946, 947, 948, 949, 950, 951, 952, 953, 954, 955, 956, 957, 958, 959, 960, 961, 962, 963, 964, 965, 966, 967, 968, 969, 970, 971, 972, 973, 974, 975, 976, 977, 978, 979, 980, 981, 982, 983, 984, 985, 986, 987, 988, 989, 990, 991, 992, 993, 994, 995, 996, 997, 998, 999, 1000, 1001, 1002, 1003, 1004, 1005, 1006, 1007, 1008, 1009, 1010, 1011, 1012, 1013, 1014, 1015, 1016, 1017, 1018, 1019, 1020, 1021, 1022, 1023, 1024, 1025, 1026, 1027, 1028, 1029, 1030, 1031, 1032, 1033, 1034, 1035, 1036, 1037, 1038, 1039, 1040, 1041, 1042, 1043, 1044, 1045, 1046, 1047, 1048, 1049, 1050, 1051, 1052, 1053, 1054, 1055, 1056, 1057, 1058, 1059, 1060, 1061, 1062, 1063, 1064, 1065, 1066, 1067, 1068, 1069, 1070, 1071, 1072, 1073],
      "AcquisitionTime": ["115549.672500", "115550.132500", "115550.592500", "115551.052500", "115551.512500", "115551.972500", "115552.432500", "115552.892500", "115553.352500", "115553.812500", "115554.272500", "115554.732500", "115555.192500", "115555.652500", "115556.112500", "115556.572500", "115557.032500", "115557.492500", "115557.952500", "115558.412500", "115558.872500", "115559.332500", "115559.792500", "115600.252500", "115600.712500", "115601.172500", "115601.632500", "115602.092500", "115602.552500", "115603.012500", "115603.472500", "115603.932500", "115604.392500", "115604.852500", "115605.312500", "115605.772500", "115606.232500", "115606.692500", "115607.152500", "115607.612500", "115608.072500", "115608.532500", "115608.992500", "115609.452500", "115609.912500", "115610.372500", "115610.832500", "115611.292500", "115611.752500", "115612.212500", "115612.672500", "115613.132500", "115613.592500", "115614.052500", "115614.512500", "115614.972500", "115615.432500", "115615.892500", "115616.352500", "115616.812500", "115617.272500", "115617.732500", "115618.192500", "115618.652500", "115619.112500", "115619.572500", "115620.032500", "115620.492500", "115620.952500", "115621.412500", "115621.872500", "115622.332500", "115622.792500", "115623.252500", "115623.712500", "115624.172500", "115624.632500", "115625.092500", "115625.552500", "115626.012500", "115626.472500", "115626.932500", "115627.392500", "115627.852500", "115628.312500", "115628.772500", "115629.232500", "115629.692500", "115630.152500", "115630.612500", "115631.072500", "115631.532500", "115631.992500", "115632.452500", "115632.912500", "115633.372500", "115633.832500", "115634.292500", "115634.752500", "115635.212500", "115635.672500", "115636.132500", "115636.592500", "115637.052500", "115637.512500", "115637.972500", "115638.432500", "115638.892500", "115639.352500", "115639.812500", "115640.272500", "115640.732500", "115641.192500", "115641.652500", "115642.112500", "115642.572500", "115643.032500", "115643.492500", "115643.952500", "115644.412500", "115644.872500", "115645.332500", "115645.792500", "115646.252500", "115646.712500", "115647.172500", "115647.632500", "115648.092500", "115648.552500", "115649.012500", "115649.472500", "115649.932500", "115650.392500", "115650.852500", "115651.312500", "115651.772500", "115652.232500", "115652.692500", "115653.152500", "115653.612500", "115654.072500", "115654.532500", "115654.992500", "115655.452500", "115655.912500", "115656.372500", "115656.832500", "115657.292500", "115657.752500", "115658.212500", "115658.672500", "115659.132500", "115659.592500", "115700.052500", "115700.512500", "115700.972500", "115701.432500", "115701.892500", "115702.352500", "115702.812500", "115703.272500", "115703.732500", "115704.192500", "115704.652500", "115705.112500", "115705.572500", "115706.032500", "115706.492500", "115706.952500", "115707.412500", "115707.872500", "115708.332500", "115708.792500", "115709.252500", "115709.712500", "115710.172500", "115710.632500", "115711.092500", "115711.552500", "115712.012500", "115712.472500", "115712.932500", "115713.392500", "115713.852500", "115714.312500", "115714.772500", "115715.232500", "115715.692500", "115716.152500", "115716.612500", "115717.072500", "115717.532500", "115717.992500", "115718.452500", "115718.912500", "115719.372500", "115719.832500", "115720.292500", "115720.752500", "115721.212500", "115721.672500", "115722.132500", "115722.592500", "115723.052500", "115723.512500", "115723.972500", "115724.432500", "115724.892500", "115725.352500", "115725.812500", "115726.272500", "115726.732500", "115727.192500", "115727.652500", "115728.112500", "115728.572500", "115729.032500", "115729.492500", "115729.952500", "115730.412500", "115730.872500", "115731.332500", "115731.792500", "115732.252500", "115732.712500", "115733.172500", "115733.632500", "115734.092500", "115734.552500", "115735.012500", "115735.472500", "115735.932500", "115736.392500", "115736.852500", "115737.312500", "115737.772500", "115738.232500", "115738.692500", "115739.152500", "115739.612500", "115740.072500", "115740.532500", "115740.992500", "115741.452500", "115741.912500", "115742.372500", "115742.832500", "115743.292500", "115743.752500", "115744.212500", "115744.672500", "115745.132500", "115745.592500", "115746.052500", "115746.512500", "115746.972500", "115747.432500", "115747.892500", "115748.352500", "115748.812500", "115749.272500", "115749.732500", "115750.192500", "115750.652500", "115751.112500", "115751.572500", "115752.032500", "115752.492500", "115752.952500", "115753.412500", "115753.872500", "115754.332500", "115754.792500", "115755.252500", "115755.712500", "115756.172500", "115756.632500", "115757.092500", "115757.552500", "115758.012500", "115758.472500", "115758.932500", "115759.392500", "115759.852500", "115800.312500", "115800.772500", "115801.232500", "115801.692500", "115802.152500", "115802.612500", "115803.072500", "115803.532500", "115803.992500", "115804.452500", "115804.912500", "115805.372500", "115805.832500", "115806.292500", "115806.752500", "115807.212500", "115807.672500", "115808.132500", "115808.592500", "115809.052500", "115809.512500", "115809.972500", "115810.432500", "115810.892500", "115811.352500", "115811.812500", "115812.272500", "115812.732500", "115813.192500", "115813.652500", "115814.112500", "115814.572500", "115815.032500", "115815.492500", "115815.952500", "115816.412500", "115816.872500", "115817.332500", "115817.792500", "115818.252500", "115818.712500", "115819.172500", "115819.632500", "115820.092500", "115820.552500", "115821.012500", "115821.472500", "115821.932500", "115822.392500", "115822.852500", "115823.312500", "115823.772500", "115824.232500", "115824.692500", "115825.152500", "115825.612500", "115826.072500", "115826.532500", "115826.992500", "115827.452500", "115827.912500", "115828.372500", "115828.832500", "115829.292500", "115829.752500", "115830.212500", "115830.672500", "115831.132500", "115831.592500", "115832.052500", "115832.512500", "115832.972500", "115833.432500", "115833.892500", "115834.352500", "115834.812500", "115835.272500", "115835.732500", "115836.192500", "115836.652500", "115837.112500", "115837.572500", "115838.032500", "115838.492500", "115838.952500", "115839.412500", "115839.872500", "115840.332500", "115840.792500", "115841.252500", "115841.712500", "115842.172500", "115842.632500", "115843.092500", "115843.552500", "115844.012500", "115844.472500", "115844.932500", "115845.392500", "115845.852500", "115846.312500", "115846.772500", "115847.232500", "115847.692500", "115848.152500", "115848.612500", "115849.072500", "115849.532500", "115849.992500", "115850.452500", "115850.912500", "115851.372500", "115851.832500", "115852.292500", "115852.752500", "115853.212500", "115853.672500", "115854.132500", "115854.592500", "115855.052500", "115855.512500", "115855.972500", "115856.432500", "115856.892500", "115857.352500", "115857.812500", "115858.272500", "115858.732500", "115859.192500", "115859.652500", "115900.112500", "115900.572500", "115901.032500", "115901.492500", "115901.952500", "115902.412500", "115902.872500", "115903.332500", "115903.792500", "115904.252500", "115904.712500", "115905.172500", "115905.632500", "115906.092500", "115906.552500", "115907.012500", "115907.472500", "115907.932500", "115908.392500", "115908.852500", "115909.312500", "115909.772500", "115910.232500", "115910.692500", "115911.152500", "115911.612500", "115912.072500", "115912.532500", "115912.992500", "115913.452500", "115913.912500", "115914.372500", "115914.832500", "115915.292500", "115915.752500", "115916.212500", "115916.672500", "115917.132500", "115917.592500", "115918.052500", "115918.512500", "115918.972500", "115919.432500", "115919.892500", "115920.352500", "115920.812500", "115921.272500", "115921.732500", "115922.192500", "115922.652500", "115923.112500", "115923.572500", "115924.032500", "115924.492500", "115924.952500", "115925.412500", "115925.872500", "115926.332500", "115926.792500", "115927.252500", "115927.712500", "115928.172500", "115928.632500", "115929.092500", "115929.552500", "115930.012500", "115930.472500", "115930.932500", "115931.392500", "115931.852500", "115932.312500", "115932.772500", "115933.232500", "115933.692500", "115934.152500", "115934.612500", "115935.072500", "115935.532500", "115935.992500", "115936.452500", "115936.912500", "115937.372500", "115937.832500", "115938.292500", "115938.752500", "115939.212500", "115939.672500", "115940.132500", "115940.592500", "115941.052500", "115941.512500", "115941.972500", "115942.432500", "115942.892500", "115943.352500", "115943.812500", "115944.272500", "115944.732500", "115945.192500", "115945.652500", "115946.112500", "115946.572500", "115947.032500", "115947.492500", "115947.952500", "115948.412500", "115948.872500", "115949.332500", "115949.792500", "115950.252500", "115950.712500", "115951.172500", "115951.632500", "115952.092500", "115952.552500", "115953.012500", "115953.472500", "115953.932500", "115954.392500", "115954.852500", "115955.312500", "115955.772500", "115956.232500", "115956.692500", "115957.152500", "115957.612500", "115958.072500", "115958.532500", "115958.992500", "115959.452500", "115959.912500", "120000.372500", "120000.832500", "120001.292500", "120001.752500", "120002.212500", "120002.672500", "120003.132500", "120003.592500", "120004.052500", "120004.512500", "120004.972500", "120005.432500", "120005.892500", "120006.352500", "120006.812500", "120007.272500", "120007.732500", "120008.192500", "120008.652500", "120009.112500", "120009.572500", "120010.032500", "120010.492500", "120010.952500", "120011.412500", "120011.872500", "120012.332500", "120012.792500", "120013.252500", "120013.712500", "120014.172500", "120014.632500", "120015.092500", "120015.552500", "120016.012500", "120016.472500", "120016.932500", "120017.392500", "120017.852500", "120018.312500", "120018.772500", "120019.232500", "120019.692500", "120020.152500", "120020.612500", "120021.072500", "120021.532500", "120021.992500", "120022.452500", "120022.912500", "120023.372500", "120023.832500", "120024.292500", "120024.752500", "120025.212500", "120025.672500", "120026.132500", "120026.592500", "120027.052500", "120027.512500", "120027.972500", "120028.432500", "120028.892500", "120029.352500", "120029.812500", "120030.272500", "120030.732500", "120031.192500", "120031.652500", "120032.112500", "120032.572500", "120033.032500", "120033.492500", "120033.952500", "120034.412500", "120034.872500", "120035.332500", "120035.792500", "120036.252500", "120036.712500", "120037.172500", "120037.632500", "120038.092500", "120038.552500", "120039.012500", "120039.472500", "120039.932500", "120040.392500", "120040.852500", "120041.312500", "120041.772500", "120042.232500", "120042.692500", "120043.152500", "120043.612500", "120044.072500", "120044.532500", "120044.992500", "120045.452500", "120045.912500", "120046.372500", "120046.832500", "120047.292500", "120047.752500", "120048.212500", "120048.672500", "120049.132500", "120049.592500", "120050.052500", "120050.512500", "120050.972500", "120051.432500", "120051.892500", "120052.352500", "120052.812500", "120053.272500", "120053.732500", "120054.192500", "120054.652500", "120055.112500", "120055.572500", "120056.032500", "120056.492500", "120056.952500", "120057.412500", "120057.872500", "120058.332500", "120058.792500", "120059.252500", "120059.712500", "120100.172500", "120100.632500", "120101.092500", "120101.552500", "120102.012500", "120102.472500", "120102.932500", "120103.392500", "120103.852500", "120104.312500", "120104.772500", "120105.232500", "120105.692500", "120106.152500", "120106.612500", "120107.072500", "120107.532500", "120107.992500", "120108.452500", "120108.912500", "120109.372500", "120109.832500", "120110.292500", "120110.752500", "120111.212500", "120111.672500", "120112.132500", "120112.592500", "120113.052500", "120113.512500", "120113.972500", "120114.432500", "120114.892500", "120115.352500", "120115.812500", "120116.272500", "120116.732500", "120117.192500", "120117.652500", "120118.112500", "120118.572500", "120119.032500", "120119.492500", "120119.952500", "120120.412500", "120120.872500", "120121.332500", "120121.792500", "120122.252500", "120122.712500", "120123.172500", "120123.632500", "120124.092500", "120124.552500", "120125.012500", "120125.472500", "120125.932500", "120126.392500", "120126.852500", "120127.312500", "120127.772500", "120128.232500", "120128.692500", "120129.152500", "120129.612500", "120130.072500", "120130.532500", "120130.992500", "120131.452500", "120131.912500", "120132.372500", "120132.832500", "120133.292500", "120133.752500", "120134.212500", "120134.672500", "120135.132500", "120135.592500", "120136.052500", "120136.512500", "120136.972500", "120137.432500", "120137.892500", "120138.352500", "120138.812500", "120139.272500", "120139.732500", "120140.192500", "120140.652500", "120141.112500", "120141.572500", "120142.032500", "120142.492500", "120142.952500", "120143.412500", "120143.872500", "120144.332500", "120144.792500", "120145.252500", "120145.712500", "120146.172500", "120146.632500", "120147.092500", "120147.552500", "120148.012500", "120148.472500", "120148.932500", "120149.392500", "120149.852500", "120150.312500", "120150.772500", "120151.232500", "120151.692500", "120152.152500", "120152.612500", "120153.072500", "120153.532500", "120153.992500", "120154.452500", "120154.912500", "120155.372500", "120155.832500", "120156.292500", "120156.752500", "120157.212500", "120157.672500", "120158.132500", "120158.592500", "120159.052500", "120159.512500", "120159.972500", "120200.432500", "120200.892500", "120201.352500", "120201.812500", "120202.272500", "120202.732500", "120203.192500", "120203.652500", "120204.112500", "120204.572500", "120205.032500", "120205.492500", "120205.952500", "120206.412500", "120206.872500", "120207.332500", "120207.792500", "120208.252500", "120208.712500", "120209.172500", "120209.632500", "120210.092500", "120210.552500", "120211.012500", "120211.472500", "120211.932500", "120212.392500", "120212.852500", "120213.312500", "120213.772500", "120214.232500", "120214.692500", "120215.152500", "120215.612500", "120216.072500", "120216.532500", "120216.992500", "120217.452500", "120217.912500", "120218.372500", "120218.832500", "120219.292500", "120219.752500", "120220.212500", "120220.672500", "120221.132500", "120221.592500", "120222.052500", "120222.512500", "120222.972500", "120223.432500", "120223.892500", "120224.352500", "120224.812500", "120225.272500", "120225.732500", "120226.192500", "120226.652500", "120227.112500", "120227.572500", "120228.032500", "120228.492500", "120228.952500", "120229.412500", "120229.872500", "120230.332500", "120230.792500", "120231.252500", "120231.712500", "120232.172500", "120232.632500", "120233.092500", "120233.552500", "120234.012500", "120234.472500", "120234.932500", "120235.392500", "120235.852500", "120236.312500", "120236.772500", "120237.232500", "120237.692500", "120238.152500", "120238.612500", "120239.072500", "120239.532500", "120239.992500", "120240.452500", "120240.912500", "120241.372500", "120241.832500", "120242.292500", "120242.752500", "120243.212500", "120243.672500", "120244.132500", "120244.592500", "120245.052500", "120245.512500", "120245.972500", "120246.432500", "120246.892500", "120247.352500", "120247.812500", "120248.272500", "120248.732500", "120249.192500", "120249.652500", "120250.112500", "120250.572500", "120251.032500", "120251.492500", "120251.952500", "120252.412500", "120252.872500", "120253.332500", "120253.792500", "120254.252500", "120254.712500", "120255.172500", "120255.632500", "120256.092500", "120256.552500", "120257.012500", "120257.472500", "120257.932500", "120258.392500", "120258.852500", "120259.312500", "120259.772500", "120300.232500", "120300.692500", "120301.152500", "120301.612500", "120302.072500", "120302.532500", "120302.992500", "120303.452500", "120303.912500", "120304.372500", "120304.832500", "120305.292500", "120305.752500", "120306.212500", "120306.672500", "120307.132500", "120307.592500", "120308.052500", "120308.512500", "120308.972500", "120309.432500", "120309.892500", "120310.352500", "120310.812500", "120311.272500", "120311.732500", "120312.192500", "120312.652500", "120313.112500", "120313.572500", "120314.032500", "120314.492500", "120314.952500", "120315.412500", "120315.872500", "120316.332500", "120316.792500", "120317.252500", "120317.712500", "120318.172500", "120318.632500", "120319.092500", "120319.552500", "120320.012500", "120320.472500", "120320.932500", "120321.392500", "120321.852500", "120322.312500", "120322.772500", "120323.232500", "120323.692500", "120324.152500", "120324.612500", "120325.072500", "120325.532500", "120325.992500", "120326.452500", "120326.912500", "120327.372500", "120327.832500", "120328.292500", "120328.752500", "120329.212500", "120329.672500", "120330.132500", "120330.592500", "120331.052500", "120331.512500", "120331.972500", "120332.432500", "120332.892500", "120333.352500", "120333.812500", "120334.272500", "120334.732500", "120335.192500", "120335.652500", "120336.112500", "120336.572500", "120337.032500", "120337.492500", "120337.952500", "120338.412500", "120338.872500", "120339.332500", "120339.792500", "120340.252500", "120340.712500", "120341.172500", "120341.632500", "120342.092500", "120342.552500", "120343.012500", "120343.472500", "120343.932500", "120344.392500", "120344.852500", "120345.312500", "120345.772500", "120346.232500", "120346.692500", "120347.152500", "120347.612500", "120348.072500", "120348.532500", "120348.992500", "120349.452500", "120349.912500", "120350.372500", "120350.832500", "120351.292500", "120351.752500", "120352.212500", "120352.672500", "120353.132500", "120353.592500", "120354.052500", "120354.512500", "120354.972500", "120355.432500", "120355.892500", "120356.352500", "120356.812500", "120357.272500", "120357.732500", "120358.192500", "120358.652500", "120359.112500", "120359.572500", "120400.032500", "120400.492500", "120400.952500", "120401.412500", "120401.872500", "120402.332500", "120402.792500"],
