{
  "AcquisitionMatrixPE": 140,
  "AcquisitionNumber": 1,
  "AcquisitionTime": "12:30:58.997500",
  "BandwidthPerPixelPhaseEncode": 10.352,
  "BaseResolution": 140,
  "BodyPartExamined": "BRAIN",
  "ConsistencyInfo": "N4_VE11E_LATEST_20181129",
  "ConversionSoftware": "dcm2niix",
  "ConversionSoftwareVersion": "v1.0.20201102",
  "DerivedVendorReportedEchoSpacing": 0.000689998,
  "DeviceSerialNumber": "66112",
  "DiffusionScheme": "Monopolar",
  "DwellTime": 2.1e-06,
  "EchoTime": 0.088,
  "EchoTrainLength": 105,
  "EffectiveEchoSpacing": 0.000689998,
  "FlipAngle": 90,
  "ImageComments": "Unaliased MB3/PE3",
  "ImageOrientationPatientDICOM": [0.999138, 0.0311118, 0.0274882, -0.0350653, 0.986885, 0.15757],
  "ImageType": [
    "ORIGINAL",
    "PRIMARY",
    "DIFFUSION",
    "NONE",
    "MB",
    "ND"
],
  "ImagingFrequency": 123.252,
  "InPlanePhaseEncodingDirectionDICOM": "COL",
  "InstitutionAddress": "Maynard 3,Hanover,NH,US,03755",
  "InstitutionName": "Dartmouth College - PBS",
  "InstitutionalDepartmentName": "Department",
  "IntendedFor": [
    "ses-01/dwi/sub-0084_ses-01_acq-96dirX6b0Xmb_dwi.nii.gz"
],
  "MRAcquisitionType": "2D",
  "MagneticFieldStrength": 3,
  "Manufacturer": "Siemens",
  "ManufacturersModelName": "Prisma",
  "Modality": "MR",
  "MultibandAccelerationFactor": 3,
  "PartialFourier": 0.75,
  "PatientPosition": "HFS",
  "PercentPhaseFOV": 100,
  "PercentSampling": 100,
  "PhaseEncodingDirection": "j-",
  "PhaseEncodingSteps": 105,
  "PhaseResolution": 1,
  "PixelBandwidth": 1700,
  "ProcedureStepDescription": "Wager_Wager^1076_spacetop",
  "ProtocolName": "dwi_acq-discorr-AP",
  "PulseSequenceDetails": "%CustomerSeq%\\cmrr_mbep2d_diff",
  "ReceiveCoilActiveElements": "HEA;HEP",
  "ReceiveCoilName": "Head_32",
  "ReconMatrixPE": 140,
  "RepetitionTime": 4.1,
  "SAR": 0.176003,
  "ScanOptions": "PFP\\FS",
  "ScanningSequence": "EP",
  "SequenceName": "ep_b0",
  "SequenceVariant": "SK\\SS",
  "SeriesDescription": "dwi_acq-discorr-AP",
  "SeriesNumber": 7,
  "ShimSetting": [4151, -7735, -7253, 530, -59, -271, 125, 60],
  "SliceThickness": 1.7,
  "SliceTiming": [0, 2.10938, 0.14844, 2.26562, 0.29688, 2.41406, 0.45312, 2.57031, 0.60156, 2.71875, 0.75, 2.86719, 0.90625, 3.02344, 1.05469, 3.17188, 1.21094, 3.32031, 1.35938, 3.46875, 1.50781, 3.625, 1.65625, 3.77344, 1.8125, 3.92969, 1.96094, 0, 2.10938, 0.14844, 2.26562, 0.29688, 2.41406, 0.45312, 2.57031, 0.60156, 2.71875, 0.75, 2.86719, 0.90625, 3.02344, 1.05469, 3.17188, 1.21094, 3.32031, 1.35938, 3.46875, 1.50781, 3.625, 1.65625, 3.77344, 1.8125, 3.92969, 1.96094, 0, 2.10938, 0.14844, 2.26562, 0.29688, 2.41406, 0.45312, 2.57031, 0.60156, 2.71875, 0.75, 2.86719, 0.90625, 3.02344, 1.05469, 3.17188, 1.21094, 3.32031, 1.35938, 3.46875, 1.50781, 3.625, 1.65625, 3.77344, 1.8125, 3.92969, 1.96094],
  "SoftwareVersions": "syngo MR E11",
  "SpacingBetweenSlices": 1.7,
  "StationName": "AWP66112",
  "TotalReadoutTime": 0.0959097,
  "TxRefAmp": 282.93,
  "WipMemBlock": "81cc6551-a787-45c2-a675-d94169cb4eec||Sequence: R016 ve11e/master r/434b28f1; Aug  7 2019 19:06:17 by eja",
  "dcmmeta_affine": [
    [-1.7128077745437622, -0.06011194735765457, 0.037783145904541016, 125.06462860107422],
    [-0.053334493190050125, 1.6918030977249146, 0.2692756652832031, -96.09825897216797],
    [0.04712268337607384, -0.2701192796230316, 1.6781158447265625, -50.60780715942383],
    [0.0, 0.0, 0.0, 1.0]
],
  "dcmmeta_reorient_transform": [
    [0.0, -1.0, 0.0, 139.0],
    [1.0, 0.0, 0.0, 0.0],
    [0.0, 0.0, -1.0, 80.0],
    [0.0, 0.0, 0.0, 1.0]
],
  "dcmmeta_shape": [140, 140, 81],
  "dcmmeta_slice_dim": 2,
  "dcmmeta_version": 0.6,
  "global": {
    "const": {
      "AccessionNumber": "A004075",
      "AcquisitionMatrix": [140, 0, 0, 140],
      "AcquisitionNumber": 1,
      "AngioFlag": "N",
      "BitsAllocated": 16,
      "BitsStored": 16,
      "BodyPartExamined": "BRAIN",
      "Columns": 140,
      "EchoNumbers": 1,
      "EchoTime": 88.0,
      "EchoTrainLength": 105,
      "FlipAngle": 90.0,
      "HighBit": 15,
      "ImageOrientationPatient": [0.99913785522365, 0.03111178827927, 0.02748823183006, -0.0350653014941, 0.98688512690537, 0.15756957486808],
      "ImageType": [
        "ORIGINAL",
        "PRIMARY",
        "DIFFUSION",
        "NONE",
        "MB",
        "ND"
],
      "ImagedNucleus": "1H",
      "ImagingFrequency": 123.252146,
      "InPlanePhaseEncodingDirection": "COL",
      "MRAcquisitionType": "2D",
      "MagneticFieldStrength": 3.0,
      "Manufacturer": "SIEMENS",
      "ManufacturerModelName": "Prisma",
      "Modality": "MR",
      "NumberOfAverages": 1.0,
      "NumberOfPhaseEncodingSteps": 105,
      "PercentPhaseFieldOfView": 100.0,
      "PercentSampling": 100.0,
      "PerformedProcedureStepStartTime": "121839.670000",
      "PhotometricInterpretation": "MONOCHROME2",
      "PixelBandwidth": 1700.0,
      "PixelRepresentation": 0,
      "PixelSpacing": [1.7142857313156, 1.7142857313156],
      "ProtocolName": "dwi_acq-discorr-AP",
      "RepetitionTime": 4100.0,
      "Rows": 140,
      "SAR": 0.17600337135054,
      "SamplesPerPixel": 1,
      "ScanOptions": [
        "PFP",
        "FS"
],
      "ScanningSequence": "EP",
      "SequenceName": "ep_b0",
      "SequenceVariant": [
        "SK",
        "SS"
],
      "SeriesDescription": "dwi_acq-discorr-AP",
      "SeriesNumber": 7,
      "SeriesTime": "123103.984000",
      "SliceThickness": 1.7000000476837,
      "SmallestImagePixelValue": 0,
      "SoftwareVersions": "syngo MR E11",
      "SpacingBetweenSlices": 1.7,
      "SpecificCharacterSet": "ISO_IR 100",
      "StudyID": "1",
      "StudyTime": "121839.618000",
      "TransmitCoilName": "Body",
      "VariableFlipAngleFlag": "N",
      "WindowCenterWidthExplanation": "Algo1"
    },
    "slices": {
      "AcquisitionTime": ["123058.997500", "123101.112500", "123059.147500", "123101.265000", "123059.300000", "123101.415000", "123059.450000", "123101.567500", "123059.602500", "123101.717500", "123059.752500", "123101.867500", "123059.905000", "123102.020000", "123100.055000", "123102.170000", "123100.207500", "123102.322500", "123100.357500", "123102.472500", "123100.507500", "123102.625000", "123100.660000", "123102.775000", "123100.810000", "123102.927500", "123100.962500", "123058.997500", "123101.112500", "123059.147500", "123101.265000", "123059.300000", "123101.415000", "123059.450000", "123101.567500", "123059.602500", "123101.717500", "123059.752500", "123101.867500", "123059.905000", "123102.020000", "123100.055000", "123102.170000", "123100.207500", "123102.322500", "123100.357500", "123102.472500", "123100.507500", "123102.625000", "123100.660000", "123102.775000", "123100.810000", "123102.927500", "123100.962500", "123058.997500", "123101.112500", "123059.147500", "123101.265000", "123059.300000", "123101.415000", "123059.450000", "123101.567500", "123059.602500", "123101.717500", "123059.752500", "123101.867500", "123059.905000", "123102.020000", "123100.055000", "123102.170000", "123100.207500", "123102.322500", "123100.357500", "123102.472500", "123100.507500", "123102.625000", "123100.660000", "123102.775000", "123100.810000", "123102.927500", "123100.962500"],
      "ContentTime": ["123103.987000", "123104.074000", "123103.994000", "123104.080000", "123104.001000", "123104.090000", "123104.007000", "123104.097000", "123104.013000", "123104.103000", "123104.019000", "123104.109000", "123104.025000", "123104.116000", "123104.031000", "123104.122000", "123104.039000", "123104.128000", "123104.045000", "123104.134000", "123104.051000", "123104.140000", "123104.057000", "123104.147000", "123104.063000", "123104.153000", "123104.069000", "123103.990000", "123104.076000", "123103.996000", "123104.082000", "123104.003000", "123104.092000", "123104.009000", "123104.099000", "123104.015000", "123104.105000", "123104.020000", "123104.112000", "123104.027000", "123104.118000", "123104.033000", "123104.124000", "123104.041000", "123104.130000", "123104.047000", "123104.136000", "123104.053000", "123104.142000", "123104.059000", "123104.149000", "123104.065000", "123104.155000", "123104.070000", "123103.992000", "123104.078000", "123103.998000", "123104.088000", "123104.005000", "123104.094000", "123104.011000", "123104.101000", "123104.017000", "123104.107000", "123104.023000", "123104.114000", "123104.029000", "123104.120000", "123104.035000", "123104.126000", "123104.043000", "123104.132000", "123104.049000", "123104.138000", "123104.055000", "123104.145000", "123104.061000", "123104.151000", "123104.067000", "123104.157000", "123104.072000"],
      "CsaImage.GSWDDataType": [
        "predicted",
        "predicted",
        "predicted",
        "predicted",
        "predicted",
        "predicted",
        "predicted",
        "predicted",
        "predicted",
        "predicted",
        "predicted",
        "predicted",
        "predicted",
        "predicted",
        "predicted",
        "predicted",
        "predicted",
        "predicted",
        "predicted",
        "predicted",
        "predicted",
        "predicted",
        "predicted",
        "measured",
        "predicted",
        "measured",
        "predicted",
        "predicted",
        "predicted",
        "predicted",
        "predicted",
        "predicted",
        "predicted",
        "predicted",
        "predicted",
        "predicted",
        "predicted",
        "predicted",
        "predicted",
        "predicted",
        "predicted",
        "predicted",
        "predicted",
        "predicted",
        "predicted",
        "predicted",
        "predicted",
        "predicted",
        "predicted",
        "predicted",
        "measured",
        "predicted",
        "measured",
        "predicted",
        "predicted",
        "predicted",
        "predicted",
        "predicted",
        "predicted",
        "predicted",
        "predicted",
        "predicted",
        "predicted",
        "predicted",
        "predicted",
        "predicted",
        "predicted",
        "predicted",
        "predicted",
        "predicted",
        "predicted",
        "predicted",
        "predicted",
        "predicted",
        "predicted",
        "predicted",
        "predicted",
        "measured",
        "predicted",
        "measured",
        "predicted"
],
      "CsaImage.ICE_Dims": [
        "X_1_1_1_1_1_1_1_1_1_1_1_118",
        "X_1_1_1_1_1_1_42_1_1_2_1_118",
        "X_1_1_1_1_1_1_2_1_1_3_1_118",
        "X_1_1_1_1_1_1_43_1_1_4_1_118",
        "X_1_1_1_1_1_1_3_1_1_5_1_118",
        "X_1_1_1_1_1_1_44_1_1_6_1_118",
        "X_1_1_1_1_1_1_4_1_1_7_1_118",
        "X_1_1_1_1_1_1_45_1_1_8_1_118",
        "X_1_1_1_1_1_1_5_1_1_9_1_118",
        "X_1_1_1_1_1_1_46_1_1_10_1_118",
        "X_1_1_1_1_1_1_6_1_1_11_1_118",
        "X_1_1_1_1_1_1_47_1_1_12_1_118",
        "X_1_1_1_1_1_1_7_1_1_13_1_118",
        "X_1_1_1_1_1_1_48_1_1_14_1_118",
        "X_1_1_1_1_1_1_8_1_1_15_1_118",
        "X_1_1_1_1_1_1_49_1_1_16_1_118",
        "X_1_1_1_1_1_1_9_1_1_17_1_118",
        "X_1_1_1_1_1_1_50_1_1_18_1_118",
        "X_1_1_1_1_1_1_10_1_1_19_1_118",
        "X_1_1_1_1_1_1_51_1_1_20_1_118",
        "X_1_1_1_1_1_1_11_1_1_21_1_118",
        "X_1_1_1_1_1_1_52_1_1_22_1_118",
        "X_1_1_1_1_1_1_12_1_1_23_1_118",
        "X_1_1_1_1_1_1_53_1_1_24_1_118",
        "X_1_1_1_1_1_1_13_1_1_25_1_118",
        "X_1_1_1_1_1_1_54_1_1_26_1_118",
        "X_1_1_1_1_1_1_14_1_1_27_1_118",
        "X_1_1_1_1_1_1_55_1_1_28_1_118",
        "X_1_1_1_1_1_1_15_1_1_29_1_118",
        "X_1_1_1_1_1_1_56_1_1_30_1_118",
        "X_1_1_1_1_1_1_16_1_1_31_1_118",
        "X_1_1_1_1_1_1_57_1_1_32_1_118",
        "X_1_1_1_1_1_1_17_1_1_33_1_118",
        "X_1_1_1_1_1_1_58_1_1_34_1_118",
        "X_1_1_1_1_1_1_18_1_1_35_1_118",
        "X_1_1_1_1_1_1_59_1_1_36_1_118",
        "X_1_1_1_1_1_1_19_1_1_37_1_118",
        "X_1_1_1_1_1_1_60_1_1_38_1_118",
        "X_1_1_1_1_1_1_20_1_1_39_1_118",
        "X_1_1_1_1_1_1_61_1_1_40_1_118",
        "X_1_1_1_1_1_1_21_1_1_41_1_118",
        "X_1_1_1_1_1_1_62_1_1_42_1_118",
        "X_1_1_1_1_1_1_22_1_1_43_1_118",
        "X_1_1_1_1_1_1_63_1_1_44_1_118",
        "X_1_1_1_1_1_1_23_1_1_45_1_118",
        "X_1_1_1_1_1_1_64_1_1_46_1_118",
        "X_1_1_1_1_1_1_24_1_1_47_1_118",
        "X_1_1_1_1_1_1_65_1_1_48_1_118",
        "X_1_1_1_1_1_1_25_1_1_49_1_118",
        "X_1_1_1_1_1_1_66_1_1_50_1_118",
        "X_1_1_1_1_1_1_26_1_1_51_1_118",
        "X_1_1_1_1_1_1_67_1_1_52_1_118",
        "X_1_1_1_1_1_1_27_1_1_53_1_118",
        "X_1_1_1_1_1_1_68_1_1_54_1_118",
        "X_1_1_1_1_1_1_28_1_1_55_1_118",
        "X_1_1_1_1_1_1_69_1_1_56_1_118",
        "X_1_1_1_1_1_1_29_1_1_57_1_118",
        "X_1_1_1_1_1_1_70_1_1_58_1_118",
        "X_1_1_1_1_1_1_30_1_1_59_1_118",
        "X_1_1_1_1_1_1_71_1_1_60_1_118",
        "X_1_1_1_1_1_1_31_1_1_61_1_118",
        "X_1_1_1_1_1_1_72_1_1_62_1_118",
        "X_1_1_1_1_1_1_32_1_1_63_1_118",
        "X_1_1_1_1_1_1_73_1_1_64_1_118",
        "X_1_1_1_1_1_1_33_1_1_65_1_118",
        "X_1_1_1_1_1_1_74_1_1_66_1_118",
        "X_1_1_1_1_1_1_34_1_1_67_1_118",
        "X_1_1_1_1_1_1_75_1_1_68_1_118",
        "X_1_1_1_1_1_1_35_1_1_69_1_118",
        "X_1_1_1_1_1_1_76_1_1_70_1_118",
        "X_1_1_1_1_1_1_36_1_1_71_1_118",
        "X_1_1_1_1_1_1_77_1_1_72_1_118",
        "X_1_1_1_1_1_1_37_1_1_73_1_118",
        "X_1_1_1_1_1_1_78_1_1_74_1_118",
        "X_1_1_1_1_1_1_38_1_1_75_1_118",
        "X_1_1_1_1_1_1_79_1_1_76_1_118",
        "X_1_1_1_1_1_1_39_1_1_77_1_118",
        "X_1_1_1_1_1_1_80_1_1_78_1_118",
        "X_1_1_1_1_1_1_40_1_1_79_1_118",
        "X_1_1_1_1_1_1_81_1_1_80_1_118",
        "X_1_1_1_1_1_1_41_1_1_81_1_118"
],
      "CsaImage.ProtocolSliceNumber": [0, 1, 2, 3, 4, 5, 6, 7, 8, 9, 10, 11, 12, 13, 14, 15, 16, 17, 18, 19, 20, 21, 22, 23, 24, 25, 26, 27, 28, 29, 30, 31, 32, 33, 34, 35, 36, 37, 38, 39, 40, 41, 42, 43, 44, 45, 46, 47, 48, 49, 50, 51, 52, 53, 54, 55, 56, 57, 58, 59, 60, 61, 62, 63, 64, 65, 66, 67, 68, 69, 70, 71, 72, 73, 74, 75, 76, 77, 78, 79, 80],
      "CsaImage.RFSWDDataType": [
        "predicted",
        "predicted",
        "predicted",
        "predicted",
        "predicted",
        "predicted",
        "predicted",
        "predicted",
        "predicted",
        "predicted",
        "predicted",
        "predicted",
        "predicted",
        "predicted",
        "predicted",
        "predicted",
        "predicted",
        "predicted",
        "predicted",
        "predicted",
        "predicted",
        "predicted",
        "predicted",
        "measured",
        "predicted",
        "measured",
        "predicted",
        "predicted",
        "predicted",
        "predicted",
        "predicted",
        "predicted",
        "predicted",
        "predicted",
        "predicted",
        "predicted",
        "predicted",
        "predicted",
        "predicted",
        "predicted",
        "predicted",
        "predicted",
        "predicted",
        "predicted",
        "predicted",
        "predicted",
        "predicted",
        "predicted",
        "predicted",
        "predicted",
        "measured",
        "predicted",
        "measured",
        "predicted",
        "predicted",
        "predicted",
        "predicted",
        "predicted",
        "predicted",
        "predicted",
        "predicted",
        "predicted",
        "predicted",
        "predicted",
        "predicted",
        "predicted",
        "predicted",
        "predicted",
        "predicted",
        "predicted",
        "predicted",
        "predicted",
        "predicted",
        "predicted",
        "predicted",
        "predicted",
        "predicted",
        "measured",
        "predicted",
        "measured",
        "predicted"
],
      "CsaImage.SlicePosition_PCS": [
        [-116.70905531, -139.06234863, -88.15414924],
        [-116.74683858, -139.33162429, -86.47604103],
        [-116.78462184, -139.60089996, -84.79792518],
        [-116.82240511, -139.87017562, -83.11981315],
        [-116.86018837, -140.13945129, -81.44169731],
        [-116.89797176, -140.40872886, -79.76358528],
        [-116.93575502, -140.67800453, -78.08547325],
        [-116.97353829, -140.94728019, -76.40736122],
        [-117.01132155, -141.21655586, -74.72924537],
        [-117.04910482, -141.48583152, -73.05113334],
        [-117.08688808, -141.75510719, -71.37302131],
        [-117.12467135, -142.02438285, -69.69490928],
        [-117.16245461, -142.29366042, -68.01679725],
        [-117.20023788, -142.56293609, -66.33868141],
        [-117.23802114, -142.83221175, -64.66056938],
        [-117.27580441, -143.10148742, -62.98245735],
        [-117.31358779, -143.37076309, -61.30434532],
        [-117.35137106, -143.64003875, -59.62622947],
        [-117.38915432, -143.90931442, -57.94811744],
        [-117.42693759, -144.17859199, -56.27000541],
        [-117.46472085, -144.44786765, -54.59189338],
        [-117.50250412, -144.71714332, -52.91377945],
        [-117.54028738, -144.98641898, -51.23566742],
        [-117.57807065, -145.25569465, -49.55755348],
        [-117.61585391, -145.52497031, -47.87944145],
        [-117.65363718, -145.79424598, -46.20132751],
        [-117.69142056, -146.06352355, -44.52321548],
        [-117.72920371, -146.33279922, -42.84510154],
        [-117.76698709, -146.60207488, -41.16698951],
        [-117.80477024, -146.87135055, -39.48887558],
        [-117.84255362, -147.14062621, -37.81076355],
        [-117.88033677, -147.40990188, -36.13265056],
        [-117.91812015, -147.67917754, -34.45453758],
        [-117.95590354, -147.94845512, -32.7764246],
        [-117.99368668, -148.21773078, -31.09831161],
        [-118.03147007, -148.48700645, -29.42019911],
        [-118.06925321, -148.75628211, -27.74208612],
        [-118.1070366, -149.02555778, -26.06397338],
        [-118.14481974, -149.29483344, -24.38586039],
        [-118.18260313, -149.56410911, -22.70774747],
        [-118.22038627, -149.83338668, -21.02963454],
        [-118.25816966, -150.10266235, -19.35152168],
        [-118.2959528, -150.37193801, -17.6734087],
        [-118.33373619, -150.64121368, -15.99529571],
        [-118.37151957, -150.91048934, -14.31718321],
        [-118.40930272, -151.17976501, -12.63906975],
        [-118.4470861, -151.44904258, -10.96095676],
        [-118.48486925, -151.71831825, -9.28284473],
        [-118.52265263, -151.98759391, -7.60473175],
        [-118.56043578, -152.25686958, -5.92661781],
        [-118.59821916, -152.52614524, -4.24850578],
        [-118.63600231, -152.79542091, -2.57039184],
        [-118.67378569, -153.06469657, -0.89227981],
        [-118.71156884, -153.33397414, 0.78583222],
        [-118.74935222, -153.60324981, 2.46394615],
        [-118.78713561, -153.87252548, 4.14205818],
        [-118.82491875, -154.14180114, 5.82017212],
        [-118.86270214, -154.41107681, 7.49828415],
        [-118.90048528, -154.68035247, 9.17639809],
        [-118.93826867, -154.94962814, 10.85451012],
        [-118.97605181, -155.2189038, 12.53262215],
        [-119.0138352, -155.48817947, 14.21073799],
        [-119.05161834, -155.75745513, 15.88885002],
        [-119.08940173, -156.0267308, 17.56696205],
        [-119.12718487, -156.29601028, 19.24507408],
        [-119.16496826, -156.56528594, 20.92318611],
        [-119.20275164, -156.83456161, 22.60130196],
        [-119.24053479, -157.10383727, 24.27941399],
        [-119.27831817, -157.37311294, 25.95752602],
        [-119.31610132, -157.6423886, 27.63563805],
        [-119.3538847, -157.91166427, 29.31375389],
        [-119.39166785, -158.18093993, 30.99186592],
        [-119.42945123, -158.4502156, 32.66997795],
        [-119.46723438, -158.71949127, 34.34808998],
        [-119.50501776, -158.98876693, 36.02620201],
        [-119.54280091, -159.2580426, 37.70431786],
        [-119.58058429, -159.52731826, 39.38242989],
        [-119.61836768, -159.79659393, 41.06054192],
        [-119.65615082, -160.06587341, 42.73865776],
        [-119.69393421, -160.33514907, 44.41676598],
        [-119.73171735, -160.60442474, 46.09488182]
],
      "CsaImage.TimeAfterStart": [16.4, 18.515, 16.55, 18.665, 16.7025, 18.8175, 16.8525, 18.9675, 17.005, 19.12, 17.155, 19.27, 17.305, 19.4225, 17.4575, 19.5725, 17.6075, 19.725, 17.76, 19.875, 17.91, 20.025, 18.0625, 20.1775, 18.2125, 20.3275, 18.365, 16.4, 18.515, 16.55, 18.665, 16.7025, 18.8175, 16.8525, 18.9675, 17.005, 19.12, 17.155, 19.27, 17.305, 19.4225, 17.4575, 19.5725, 17.6075, 19.725, 17.76, 19.875, 17.91, 20.025, 18.0625, 20.1775, 18.2125, 20.3275, 18.365, 16.4, 18.515, 16.55, 18.665, 16.7025, 18.8175, 16.8525, 18.9675, 17.005, 19.12, 17.155, 19.27, 17.305, 19.4225, 17.4575, 19.5725, 17.6075, 19.725, 17.76, 19.875, 17.91, 20.025, 18.0625, 20.1775, 18.2125, 20.3275, 18.365],
      "ImagePositionPatient": [
        [-116.70905531123, -139.06234862604, -88.154149243621],
        [-116.74683857635, -139.33162429132, -86.476041028289],
        [-116.78462184146, -139.6008999566, -84.797925183563],
        [-116.82240510658, -139.87017562189, -83.119813153533],
        [-116.86018837169, -140.13945128717, -81.441697308807],
        [-116.89797175601, -140.4087288598, -79.763585278778],
        [-116.93575502113, -140.67800452508, -78.085473248748],
        [-116.97353828624, -140.94728019037, -76.407361218719],
        [-117.01132155135, -141.21655585565, -74.729245373992],
        [-117.04910481647, -141.48583152093, -73.051133343963],
        [-117.08688808158, -141.75510718622, -71.373021313934],
        [-117.1246713467, -142.0243828515, -69.694909283905],
        [-117.16245461181, -142.29366042413, -68.016797253875],
        [-117.20023787692, -142.56293608941, -66.338681409149],
        [-117.23802114204, -142.8322117547, -64.660569379119],
        [-117.27580440715, -143.10148741998, -62.98245734909],
        [-117.31358779147, -143.37076308526, -61.304345319061],
        [-117.35137105659, -143.64003875055, -59.626229474334],
        [-117.3891543217, -143.90931441583, -57.948117444305],
        [-117.42693758682, -144.17859198846, -56.270005414276],
        [-117.46472085193, -144.44786765375, -54.591893384246],
        [-117.50250411704, -144.71714331903, -52.913779446868],
        [-117.54028738216, -144.98641898431, -51.235667416839],
        [-117.57807064727, -145.2556946496, -49.557553479461],
        [-117.61585391239, -145.52497031488, -47.879441449432],
        [-117.6536371775, -145.79424598016, -46.201327512054],
        [-117.69142056182, -146.06352355279, -44.523215482025],
        [-117.72920370773, -146.33279921808, -42.845101544647],
        [-117.76698709205, -146.60207488336, -41.166989514617],
        [-117.80477023795, -146.87135054864, -39.488875577239],
        [-117.84255362228, -147.14062621393, -37.81076354721],
        [-117.88033676818, -147.40990187921, -36.132650563507],
        [-117.91812015251, -147.67917754449, -34.454537579803],
        [-117.95590353683, -147.94845511712, -32.776424596099],
        [-117.99368668273, -148.21773078241, -31.098311612396],
        [-118.03147006706, -148.48700644769, -29.420199105529],
        [-118.06925321296, -148.75628211297, -27.742086121826],
        [-118.10703659728, -149.02555777826, -26.063973376541],
        [-118.14481974319, -149.29483344354, -24.385860392837],
        [-118.18260312751, -149.56410910882, -22.707747468738],
        [-118.22038627342, -149.83338668146, -21.029634544639],
        [-118.25816965774, -150.10266234674, -19.351521680145],
        [-118.29595280364, -150.37193801202, -17.673408696441],
        [-118.33373618797, -150.64121367731, -15.995295712738],
        [-118.37151957229, -150.91048934259, -14.317183205871],
        [-118.40930271819, -151.17976500787, -12.63906974533],
        [-118.44708610252, -151.4490425805, -10.960956761627],
        [-118.48486924842, -151.71831824579, -9.2828447315974],
        [-118.52265263275, -151.98759391107, -7.6047317478938],
        [-118.56043577865, -152.25686957635, -5.9266178105158],
        [-118.59821916297, -152.52614524164, -4.2485057804865],
        [-118.63600230888, -152.79542090692, -2.5703918431086],
        [-118.6737856932, -153.0646965722, -0.8922798130793],
        [-118.71156883911, -153.33397414483, 0.78583221694999],
        [-118.74935222343, -153.60324981012, 2.4639461543279],
        [-118.78713560775, -153.8725254754, 4.1420581843572],
        [-118.82491875366, -154.14180114068, 5.8201721217351],
        [-118.86270213798, -154.41107680597, 7.4982841517644],
        [-118.90048528388, -154.68035247125, 9.1763980891424],
        [-118.93826866821, -154.94962813653, 10.854510119172],
        [-118.97605181411, -155.21890380182, 12.532622149201],
        [-119.01383519843, -155.4881794671, 14.210737993928],
        [-119.05161834434, -155.75745513238, 15.888850023957],
        [-119.08940172866, -156.02673079767, 17.566962053986],
        [-119.12718487457, -156.29601027765, 19.245074084015],
        [-119.16496825889, -156.56528594293, 20.923186114045],
        [-119.20275164321, -156.83456160821, 22.601301958771],
        [-119.24053478912, -157.1038372735, 24.279413988801],
        [-119.27831817344, -157.37311293878, 25.95752601883],
        [-119.31610131934, -157.64238860406, 27.635638048859],
        [-119.35388470367, -157.91166426935, 29.313753893586],
        [-119.39166784957, -158.18093993463, 30.991865923615],
        [-119.4294512339, -158.45021559991, 32.669977953644],
        [-119.4672343798, -158.7194912652, 34.348089983674],
        [-119.50501776412, -158.98876693048, 36.026202013703],
        [-119.54280091003, -159.25804259576, 37.704317858429],
        [-119.58058429435, -159.52731826105, 39.382429888459],
        [-119.61836767867, -159.79659392633, 41.060541918488],
        [-119.65615082458, -160.06587340631, 42.738657763215],
        [-119.6939342089, -160.33514907159, 44.416765978547],
        [-119.73171735481, -160.60442473688, 46.094881823273]
],
      "InstanceCreationTime": ["123103.987000", "123104.074000", "123103.994000", "123104.080000", "123104.001000", "123104.090000", "123104.007000", "123104.097000", "123104.013000", "123104.103000", "123104.019000", "123104.109000", "123104.025000", "123104.116000", "123104.031000", "123104.122000", "123104.039000", "123104.128000", "123104.045000", "123104.134000", "123104.051000", "123104.140000", "123104.057000", "123104.147000", "123104.063000", "123104.153000", "123104.069000", "123103.990000", "123104.076000", "123103.996000", "123104.082000", "123104.003000", "123104.092000", "123104.009000", "123104.099000", "123104.015000", "123104.105000", "123104.020000", "123104.112000", "123104.027000", "123104.118000", "123104.033000", "123104.124000", "123104.041000", "123104.130000", "123104.047000", "123104.136000", "123104.053000", "123104.142000", "123104.059000", "123104.149000", "123104.065000", "123104.155000", "123104.070000", "123103.992000", "123104.078000", "123103.998000", "123104.088000", "123104.005000", "123104.094000", "123104.011000", "123104.101000", "123104.017000", "123104.107000", "123104.023000", "123104.114000", "123104.029000", "123104.120000", "123104.035000", "123104.126000", "123104.043000", "123104.132000", "123104.049000", "123104.138000", "123104.055000", "123104.145000", "123104.061000", "123104.151000", "123104.067000", "123104.157000", "123104.072000"],
      "InstanceNumber": [1, 2, 3, 4, 5, 6, 7, 8, 9, 10, 11, 12, 13, 14, 15, 16, 17, 18, 19, 20, 21, 22, 23, 24, 25, 26, 27, 28, 29, 30, 31, 32, 33, 34, 35, 36, 37, 38, 39, 40, 41, 42, 43, 44, 45, 46, 47, 48, 49, 50, 51, 52, 53, 54, 55, 56, 57, 58, 59, 60, 61, 62, 63, 64, 65, 66, 67, 68, 69, 70, 71, 72, 73, 74, 75, 76, 77, 78, 79, 80, 81],
      "LargestImagePixelValue": [14095, 13518, 27045, 12153, 14523, 18465, 15998, 21049, 27639, 20792, 20452, 28509, 34203, 41572, 38593, 46759, 33624, 27907, 35214, 36709, 38478, 43162, 52976, 57631, 45596, 47521, 56007, 61029, 58925, 58136, 56716, 43487, 43003, 37389, 39070, 27170, 31761, 30553, 26914, 31632, 30808, 29244, 38133, 33480, 46559, 50980, 48426, 54192, 37578, 43854, 41636, 39562, 42898, 41647, 36103, 31419, 30860, 34582, 40737, 36756, 38581, 40541, 36003, 31387, 38109, 31685, 41467, 37630, 39413, 45540, 39622, 39832, 39667, 38127, 55023, 36637, 50785, 44925, 23209, 6993, 7504],
      "SliceLocation": [-62.398129480722, -60.698134145023, -58.998131278155, -57.298132176871, -55.598129310004, -53.898129903951, -52.198130802667, -50.498131701384, -48.798128834516, -47.098129733232, -45.398130631948, -43.698131530665, -41.998132127262, -40.298129260394, -38.59813015911, -36.898131057827, -35.198131953893, -33.498129087026, -31.798129985742, -30.098130582339, -28.398131481055, -26.698130496979, -24.998131395696, -23.29813041162, -21.598131310336, -19.898130326261, -18.198130920208, -16.498129938782, -14.798130834849, -13.098129853423, -11.398130749489, -9.6981307094591, -7.99813066413, -6.2981303166813, -4.5981302766511, -2.89813070202, -1.1981306619898, 0.50186914799042, 2.2018691880206, 3.9018691745125, 5.601869457825, 7.3018693854796, 9.0018694255098, 10.701869470839, 12.40186904547, 14.101869556198, 15.801869903647, 17.501869002281, 19.20186904761, 20.901870029037, 22.60186913297, 24.301870114396, 26.001869218329, 27.701868619083, 29.401869605808, 31.101868709741, 32.801869691167, 34.501868795101, 36.201869776527, 37.90186888046, 39.601867979094, 41.301870848611, 43.001869947245, 44.701869051179, 46.401868754052, 48.101867857985, 49.801870727502, 51.501869826136, 53.20186893007, 54.901868028704, 56.601870898221, 58.301869996855, 60.001869100788, 61.701868199423, 63.401867303356, 65.101870167574, 66.801869271507, 68.50186837544, 70.201871843897, 71.901867182247, 73.601870046465],
