{
  "AcquisitionMatrixPE": 82,
  "AcquisitionNumber": 1,
  "AcquisitionTime": "13:02:8.867500",
  "BandwidthPerPixelPhaseEncode": 24.888,
  "BaseResolution": 82,
  "BodyPartExamined": "BRAIN",
  "ConsistencyInfo": "N4_VE11C_LATEST_20160120",
  "ConversionSoftware": "dcm2niix",
  "ConversionSoftwareVersion": "v1.0.20201102",
  "DerivedVendorReportedEchoSpacing": 0.00049,
  "DeviceSerialNumber": "66112",
  "DwellTime": 2e-06,
  "EchoTime": 0.0272,
  "EchoTrainLength": 82,
  "EffectiveEchoSpacing": 0.00049,
  "FlipAngle": 44,
  "ImageComments": "Unaliased MB8/PE3",
  "ImageOrientationPatientDICOM": [0.999801, 0.019733, 0.00300109, -0.0193717, 0.995539, -0.0923379],
  "ImageType": [
    "ORIGINAL",
    "PRIMARY",
    "M",
    "MB",
    "ND",
    "NORM",
    "MOSAIC"
],
  "ImagingFrequency": 123.252,
  "InPlanePhaseEncodingDirectionDICOM": "COL",
  "InstitutionAddress": "Maynard 3,Hanover,NH,US,03755",
  "InstitutionName": "Dartmouth College - PBS",
  "InstitutionalDepartmentName": "Department",
  "MRAcquisitionType": "2D",
  "MagneticFieldStrength": 3,
  "Manufacturer": "Siemens",
  "ManufacturersModelName": "Prisma",
  "Modality": "MR",
  "MultibandAccelerationFactor": 8,
  "PartialFourier": 1,
  "PatientPosition": "HFS",
  "PercentPhaseFOV": 100,
  "PercentSampling": 100,
  "PhaseEncodingDirection": "j-",
  "PhaseEncodingSteps": 82,
  "PhaseResolution": 1,
  "PixelBandwidth": 3050,
  "ProcedureStepDescription": "Wager_Wager^1076_spacetop",
  "ProtocolName": "func_run-04_task-social_acq-ap-mb8",
  "PulseSequenceDetails": "%CustomerSeq%\\cmrr_mbep2d_bold",
  "ReceiveCoilActiveElements": "HEA;HEP",
  "ReceiveCoilName": "Head_32",
  "ReconMatrixPE": 82,
  "RepetitionTime": 0.46,
  "SAR": 0.0857559,
  "ScanOptions": "FS",
  "ScanningSequence": "EP",
  "SequenceName": "epfid2d1_82",
  "SequenceVariant": "SK\\SS",
  "SeriesDescription": "func_run-04_task-social_acq-ap-mb8",
  "SeriesNumber": 14,
  "ShimSetting": [4177, -7765, -7267, 598, -89, -152, -43, 83],
  "SliceThickness": 2.7,
  "SliceTiming": [0, 0.25, 0.0625, 0.3125, 0.125, 0.3775, 0.1875, 0, 0.25, 0.0625, 0.3125, 0.125, 0.3775, 0.1875, 0, 0.25, 0.0625, 0.3125, 0.125, 0.3775, 0.1875, 0, 0.25, 0.0625, 0.3125, 0.125, 0.3775, 0.1875, 0, 0.25, 0.0625, 0.3125, 0.125, 0.3775, 0.1875, 0, 0.25, 0.0625, 0.3125, 0.125, 0.3775, 0.1875, 0, 0.25, 0.0625, 0.3125, 0.125, 0.3775, 0.1875, 0, 0.25, 0.0625, 0.3125, 0.125, 0.3775, 0.1875],
  "SoftwareVersions": "syngo MR E11",
  "SpacingBetweenSlices": 2.7,
  "StationName": "AWP66112",
  "TaskName": "social",
  "TotalReadoutTime": 0.03969,
  "TxRefAmp": 231.495,
  "WipMemBlock": "fbb81bfb-e98b-4d4f-81df-5e0acdde0bf4||Sequence: R016 ve11c/master r/e634e98; Dec 19 2017 11:00:25 by eja",
  "dcmmeta_affine": [
    [-2.6823923587799072, -0.051972970366477966, 0.012986474670469761, 112.72062683105469],
    [-0.05294225364923477, 2.670958995819092, -0.24910582602024078, -75.48970031738281],
    [0.008051693439483643, 0.24773596227169037, 2.68845272064209, -85.81053924560547],
    [0.0, 0.0, 0.0, 1.0]
],
  "dcmmeta_reorient_transform": [
    [0.0, -1.0, 0.0, 81.0],
    [1.0, 0.0, 0.0, 0.0],
    [0.0, 0.0, 1.0, 0.0],
    [0.0, 0.0, 0.0, 1.0]
],
  "dcmmeta_shape": [82, 82, 56, 872],
  "dcmmeta_slice_dim": 2,
  "dcmmeta_version": 0.6,
  "global": {
    "const": {
      "AccessionNumber": "A003526",
      "AcquisitionMatrix": [82, 0, 0, 82],
      "AngioFlag": "N",
      "BitsAllocated": 16,
      "BitsStored": 16,
      "BodyPartExamined": "BRAIN",
      "Columns": 656,
      "EchoNumbers": 1,
      "EchoTime": 27.2,
      "EchoTrainLength": 82,
      "FlipAngle": 44.0,
      "HighBit": 15,
      "ImageOrientationPatient": [0.99980078083028, 0.0197330214563, 0.00300108569888, -0.0193717429203, 0.99553927059277, -0.0923379460668],
      "ImagePositionPatient": [-863.44119321083, -922.61767022583, 3.0454551114181],
      "ImageType": [
        "ORIGINAL",
        "PRIMARY",
        "M",
        "MB",
        "ND",
        "NORM",
        "MOSAIC"
],
      "ImagedNucleus": "1H",
      "ImagingFrequency": 123.25217,
      "InPlanePhaseEncodingDirection": "COL",
      "MRAcquisitionType": "2D",
      "MagneticFieldStrength": 3.0,
      "Manufacturer": "SIEMENS",
      "ManufacturerModelName": "Prisma",
      "Modality": "MR",
      "NumberOfAverages": 1.0,
      "NumberOfPhaseEncodingSteps": 82,
      "PercentPhaseFieldOfView": 100.0,
      "PercentSampling": 100.0,
      "PerformedProcedureStepStartTime": "120221.380000",
      "PhotometricInterpretation": "MONOCHROME2",
      "PixelBandwidth": 3050.0,
      "PixelRepresentation": 0,
      "PixelSpacing": [2.6829268932343, 2.6829268932343],
      "ProtocolName": "func_run-04_task-social_acq-ap-mb8",
      "RepetitionTime": 460.0,
      "Rows": 656,
      "SAR": 0.08575592994857,
      "SamplesPerPixel": 1,
      "ScanOptions": "FS",
      "ScanningSequence": "EP",
      "SequenceName": "epfid2d1_82",
      "SequenceVariant": [
        "SK",
        "SS"
],
      "SeriesDescription": "func_run-04_task-social_acq-ap-mb8",
      "SeriesNumber": 14,
      "SeriesTime": "130223.604000",
      "SliceLocation": -77.936596749951,
      "SliceThickness": 2.7000000476837,
      "SmallestImagePixelValue": 0,
      "SoftwareVersions": "syngo MR E11",
      "SpacingBetweenSlices": 2.7000000561649,
      "SpecificCharacterSet": "ISO_IR 100",
      "StudyID": "3",
      "StudyTime": "120221.290000",
      "TransmitCoilName": "Body",
      "VariableFlipAngleFlag": "N",
      "WindowCenterWidthExplanation": "Algo1",
      "dBdt": 0.0},
    "slices": {}
  },
  "time": {
    "samples": {
      "AcquisitionNumber": [1, 2, 3, 4, 5, 6, 7, 8, 9, 10, 11, 12, 13, 14, 15, 16, 17, 18, 19, 20, 21, 22, 23, 24, 25, 26, 27, 28, 29, 30, 31, 32, 33, 34, 35, 36, 37, 38, 39, 40, 41, 42, 43, 44, 45, 46, 47, 48, 49, 50, 51, 52, 53, 54, 55, 56, 57, 58, 59, 60, 61, 62, 63, 64, 65, 66, 67, 68, 69, 70, 71, 72, 73, 74, 75, 76, 77, 78, 79, 80, 81, 82, 83, 84, 85, 86, 87, 88, 89, 90, 91, 92, 93, 94, 95, 96, 97, 98, 99, 100, 101, 102, 103, 104, 105, 106, 107, 108, 109, 110, 111, 112, 113, 114, 115, 116, 117, 118, 119, 120, 121, 122, 123, 124, 125, 126, 127, 128, 129, 130, 131, 132, 133, 134, 135, 136, 137, 138, 139, 140, 141, 142, 143, 144, 145, 146, 147, 148, 149, 150, 151, 152, 153, 154, 155, 156, 157, 158, 159, 160, 161, 162, 163, 164, 165, 166, 167, 168, 169, 170, 171, 172, 173, 174, 175, 176, 177, 178, 179, 180, 181, 182, 183, 184, 185, 186, 187, 188, 189, 190, 191, 192, 193, 194, 195, 196, 197, 198, 199, 200, 201, 202, 203, 204, 205, 206, 207, 208, 209, 210, 211, 212, 213, 214, 215, 216, 217, 218, 219, 220, 221, 222, 223, 224, 225, 226, 227, 228, 229, 230, 231, 232, 233, 234, 235, 236, 237, 238, 239, 240, 241, 242, 243, 244, 245, 246, 247, 248, 249, 250, 251, 252, 253, 254, 255, 256, 257, 258, 259, 260, 261, 262, 263, 264, 265, 266, 267, 268, 269, 270, 271, 272, 273, 274, 275, 276, 277, 278, 279, 280, 281, 282, 283, 284, 285, 286, 287, 288, 289, 290, 291, 292, 293, 294, 295, 296, 297, 298, 299, 300, 301, 302, 303, 304, 305, 306, 307, 308, 309, 310, 311, 312, 313, 314, 315, 316, 317, 318, 319, 320, 321, 322, 323, 324, 325, 326, 327, 328, 329, 330, 331, 332, 333, 334, 335, 336, 337, 338, 339, 340, 341, 342, 343, 344, 345, 346, 347, 348, 349, 350, 351, 352, 353, 354, 355, 356, 357, 358, 359, 360, 361, 362, 363, 364, 365, 366, 367, 368, 369, 370, 371, 372, 373, 374, 375, 376, 377, 378, 379, 380, 381, 382, 383, 384, 385, 386, 387, 388, 389, 390, 391, 392, 393, 394, 395, 396, 397, 398, 399, 400, 401, 402, 403, 404, 405, 406, 407, 408, 409, 410, 411, 412, 413, 414, 415, 416, 417, 418, 419, 420, 421, 422, 423, 424, 425, 426, 427, 428, 429, 430, 431, 432, 433, 434, 435, 436, 437, 438, 439, 440, 441, 442, 443, 444, 445, 446, 447, 448, 449, 450, 451, 452, 453, 454, 455, 456, 457, 458, 459, 460, 461, 462, 463, 464, 465, 466, 467, 468, 469, 470, 471, 472, 473, 474, 475, 476, 477, 478, 479, 480, 481, 482, 483, 484, 485, 486, 487, 488, 489, 490, 491, 492, 493, 494, 495, 496, 497, 498, 499, 500, 501, 502, 503, 504, 505, 506, 507, 508, 509, 510, 511, 512, 513, 514, 515, 516, 517, 518, 519, 520, 521, 522, 523, 524, 525, 526, 527, 528, 529, 530, 531, 532, 533, 534, 535, 536, 537, 538, 539, 540, 541, 542, 543, 544, 545, 546, 547, 548, 549, 550, 551, 552, 553, 554, 555, 556, 557, 558, 559, 560, 561, 562, 563, 564, 565, 566, 567, 568, 569, 570, 571, 572, 573, 574, 575, 576, 577, 578, 579, 580, 581, 582, 583, 584, 585, 586, 587, 588, 589, 590, 591, 592, 593, 594, 595, 596, 597, 598, 599, 600, 601, 602, 603, 604, 605, 606, 607, 608, 609, 610, 611, 612, 613, 614, 615, 616, 617, 618, 619, 620, 621, 622, 623, 624, 625, 626, 627, 628, 629, 630, 631, 632, 633, 634, 635, 636, 637, 638, 639, 640, 641, 642, 643, 644, 645, 646, 647, 648, 649, 650, 651, 652, 653, 654, 655, 656, 657, 658, 659, 660, 661, 662, 663, 664, 665, 666, 667, 668, 669, 670, 671, 672, 673, 674, 675, 676, 677, 678, 679, 680, 681, 682, 683, 684, 685, 686, 687, 688, 689, 690, 691, 692, 693, 694, 695, 696, 697, 698, 699, 700, 701, 702, 703, 704, 705, 706, 707, 708, 709, 710, 711, 712, 713, 714, 715, 716, 717, 718, 719, 720, 721, 722, 723, 724, 725, 726, 727, 728, 729, 730, 731, 732, 733, 734, 735, 736, 737, 738, 739, 740, 741, 742, 743, 744, 745, 746, 747, 748, 749, 750, 751, 752, 753, 754, 755, 756, 757, 758, 759, 760, 761, 762, 763, 764, 765, 766, 767, 768, 769, 770, 771, 772, 773, 774, 775, 776, 777, 778, 779, 780, 781, 782, 783, 784, 785, 786, 787, 788, 789, 790, 791, 792, 793, 794, 795, 796, 797, 798, 799, 800, 801, 802, 803, 804, 805, 806, 807, 808, 809, 810, 811, 812, 813, 814, 815, 816, 817, 818, 819, 820, 821, 822, 823, 824, 825, 826, 827, 828, 829, 830, 831, 832, 833, 834, 835, 836, 837, 838, 839, 840, 841, 842, 843, 844, 845, 846, 847, 848, 849, 850, 851, 852, 853, 854, 855, 856, 857, 858, 859, 860, 861, 862, 863, 864, 865, 866, 867, 868, 869, 870, 871, 872],
      "AcquisitionTime": ["130208.867500", "130209.327500", "130209.787500", "130210.247500", "130210.707500", "130211.167500", "130211.627500", "130212.087500", "130212.547500", "130213.007500", "130213.467500", "130213.927500", "130214.387500", "130214.847500", "130215.307500", "130215.767500", "130216.227500", "130216.687500", "130217.147500", "130217.607500", "130218.067500", "130218.527500", "130218.987500", "130219.447500", "130219.907500", "130220.367500", "130220.827500", "130221.287500", "130221.747500", "130222.207500", "130222.667500", "130223.127500", "130223.587500", "130224.047500", "130224.507500", "130224.967500", "130225.427500", "130225.887500", "130226.347500", "130226.807500", "130227.267500", "130227.727500", "130228.187500", "130228.647500", "130229.107500", "130229.567500", "130230.027500", "130230.487500", "130230.947500", "130231.407500", "130231.867500", "130232.327500", "130232.787500", "130233.247500", "130233.707500", "130234.167500", "130234.627500", "130235.087500", "130235.547500", "130236.007500", "130236.467500", "130236.927500", "130237.387500", "130237.847500", "130238.307500", "130238.767500", "130239.227500", "130239.687500", "130240.147500", "130240.607500", "130241.067500", "130241.527500", "130241.987500", "130242.447500", "130242.907500", "130243.367500", "130243.827500", "130244.287500", "130244.747500", "130245.207500", "130245.667500", "130246.127500", "130246.587500", "130247.047500", "130247.507500", "130247.967500", "130248.427500", "130248.887500", "130249.347500", "130249.807500", "130250.267500", "130250.727500", "130251.187500", "130251.647500", "130252.107500", "130252.567500", "130253.027500", "130253.487500", "130253.947500", "130254.407500", "130254.867500", "130255.327500", "130255.787500", "130256.247500", "130256.707500", "130257.167500", "130257.627500", "130258.087500", "130258.547500", "130259.007500", "130259.467500", "130259.927500", "130300.387500", "130300.847500", "130301.307500", "130301.767500", "130302.227500", "130302.687500", "130303.147500", "130303.607500", "130304.067500", "130304.527500", "130304.987500", "130305.447500", "130305.907500", "130306.367500", "130306.827500", "130307.287500", "130307.747500", "130308.207500", "130308.667500", "130309.127500", "130309.587500", "130310.047500", "130310.507500", "130310.967500", "130311.427500", "130311.887500", "130312.347500", "130312.807500", "130313.267500", "130313.727500", "130314.187500", "130314.647500", "130315.107500", "130315.567500", "130316.027500", "130316.487500", "130316.947500", "130317.407500", "130317.867500", "130318.327500", "130318.787500", "130319.247500", "130319.707500", "130320.167500", "130320.627500", "130321.087500", "130321.547500", "130322.007500", "130322.467500", "130322.927500", "130323.387500", "130323.847500", "130324.307500", "130324.767500", "130325.227500", "130325.687500", "130326.147500", "130326.607500", "130327.067500", "130327.527500", "130327.987500", "130328.447500", "130328.907500", "130329.367500", "130329.827500", "130330.287500", "130330.747500", "130331.207500", "130331.667500", "130332.127500", "130332.587500", "130333.047500", "130333.507500", "130333.967500", "130334.427500", "130334.887500", "130335.347500", "130335.807500", "130336.267500", "130336.727500", "130337.187500", "130337.647500", "130338.107500", "130338.567500", "130339.027500", "130339.487500", "130339.947500", "130340.407500", "130340.867500", "130341.327500", "130341.787500", "130342.247500", "130342.707500", "130343.167500", "130343.627500", "130344.087500", "130344.547500", "130345.007500", "130345.467500", "130345.927500", "130346.387500", "130346.847500", "130347.307500", "130347.767500", "130348.227500", "130348.687500", "130349.147500", "130349.607500", "130350.067500", "130350.527500", "130350.987500", "130351.447500", "130351.907500", "130352.367500", "130352.827500", "130353.287500", "130353.747500", "130354.207500", "130354.667500", "130355.127500", "130355.587500", "130356.047500", "130356.507500", "130356.967500", "130357.427500", "130357.887500", "130358.347500", "130358.807500", "130359.267500", "130359.727500", "130400.187500", "130400.647500", "130401.107500", "130401.567500", "130402.027500", "130402.487500", "130402.947500", "130403.407500", "130403.867500", "130404.327500", "130404.787500", "130405.247500", "130405.707500", "130406.167500", "130406.627500", "130407.087500", "130407.547500", "130408.007500", "130408.467500", "130408.927500", "130409.387500", "130409.847500", "130410.307500", "130410.767500", "130411.227500", "130411.687500", "130412.147500", "130412.607500", "130413.067500", "130413.527500", "130413.987500", "130414.447500", "130414.907500", "130415.367500", "130415.827500", "130416.287500", "130416.747500", "130417.207500", "130417.667500", "130418.127500", "130418.587500", "130419.047500", "130419.507500", "130419.967500", "130420.427500", "130420.887500", "130421.347500", "130421.807500", "130422.267500", "130422.727500", "130423.187500", "130423.647500", "130424.107500", "130424.567500", "130425.027500", "130425.487500", "130425.947500", "130426.407500", "130426.867500", "130427.327500", "130427.787500", "130428.247500", "130428.707500", "130429.167500", "130429.627500", "130430.087500", "130430.547500", "130431.007500", "130431.467500", "130431.927500", "130432.387500", "130432.847500", "130433.307500", "130433.767500", "130434.227500", "130434.687500", "130435.147500", "130435.607500", "130436.067500", "130436.527500", "130436.987500", "130437.447500", "130437.907500", "130438.367500", "130438.827500", "130439.287500", "130439.747500", "130440.207500", "130440.667500", "130441.127500", "130441.587500", "130442.047500", "130442.507500", "130442.967500", "130443.427500", "130443.887500", "130444.347500", "130444.807500", "130445.267500", "130445.727500", "130446.187500", "130446.647500", "130447.107500", "130447.567500", "130448.027500", "130448.487500", "130448.947500", "130449.407500", "130449.867500", "130450.327500", "130450.787500", "130451.247500", "130451.707500", "130452.167500", "130452.627500", "130453.087500", "130453.547500", "130454.007500", "130454.467500", "130454.927500", "130455.387500", "130455.847500", "130456.307500", "130456.767500", "130457.227500", "130457.687500", "130458.147500", "130458.607500", "130459.067500", "130459.527500", "130459.987500", "130500.447500", "130500.907500", "130501.367500", "130501.827500", "130502.287500", "130502.747500", "130503.207500", "130503.667500", "130504.127500", "130504.587500", "130505.047500", "130505.507500", "130505.967500", "130506.427500", "130506.887500", "130507.347500", "130507.807500", "130508.267500", "130508.727500", "130509.187500", "130509.647500", "130510.107500", "130510.567500", "130511.027500", "130511.487500", "130511.947500", "130512.407500", "130512.867500", "130513.327500", "130513.787500", "130514.247500", "130514.707500", "130515.167500", "130515.627500", "130516.087500", "130516.547500", "130517.007500", "130517.467500", "130517.927500", "130518.387500", "130518.847500", "130519.307500", "130519.767500", "130520.227500", "130520.687500", "130521.147500", "130521.607500", "130522.067500", "130522.527500", "130522.987500", "130523.447500", "130523.907500", "130524.367500", "130524.827500", "130525.287500", "130525.747500", "130526.207500", "130526.667500", "130527.127500", "130527.587500", "130528.047500", "130528.507500", "130528.967500", "130529.427500", "130529.887500", "130530.347500", "130530.807500", "130531.267500", "130531.727500", "130532.187500", "130532.647500", "130533.107500", "130533.567500", "130534.027500", "130534.487500", "130534.947500", "130535.407500", "130535.867500", "130536.327500", "130536.787500", "130537.247500", "130537.707500", "130538.167500", "130538.627500", "130539.087500", "130539.547500", "130540.007500", "130540.467500", "130540.927500", "130541.387500", "130541.847500", "130542.307500", "130542.767500", "130543.227500", "130543.687500", "130544.147500", "130544.607500", "130545.067500", "130545.527500", "130545.987500", "130546.447500", "130546.907500", "130547.367500", "130547.827500", "130548.287500", "130548.747500", "130549.207500", "130549.667500", "130550.127500", "130550.587500", "130551.047500", "130551.507500", "130551.967500", "130552.427500", "130552.887500", "130553.347500", "130553.807500", "130554.267500", "130554.727500", "130555.187500", "130555.647500", "130556.107500", "130556.567500", "130557.027500", "130557.487500", "130557.947500", "130558.407500", "130558.867500", "130559.327500", "130559.787500", "130600.247500", "130600.707500", "130601.167500", "130601.627500", "130602.087500", "130602.547500", "130603.007500", "130603.467500", "130603.927500", "130604.387500", "130604.847500", "130605.307500", "130605.767500", "130606.227500", "130606.687500", "130607.147500", "130607.607500", "130608.067500", "130608.527500", "130608.987500", "130609.447500", "130609.907500", "130610.367500", "130610.827500", "130611.287500", "130611.747500", "130612.207500", "130612.667500", "130613.127500", "130613.587500", "130614.047500", "130614.507500", "130614.967500", "130615.427500", "130615.887500", "130616.347500", "130616.807500", "130617.267500", "130617.727500", "130618.187500", "130618.647500", "130619.107500", "130619.567500", "130620.027500", "130620.487500", "130620.947500", "130621.407500", "130621.867500", "130622.327500", "130622.787500", "130623.247500", "130623.707500", "130624.167500", "130624.627500", "130625.087500", "130625.547500", "130626.007500", "130626.467500", "130626.927500", "130627.387500", "130627.847500", "130628.307500", "130628.767500", "130629.227500", "130629.687500", "130630.147500", "130630.607500", "130631.067500", "130631.527500", "130631.987500", "130632.447500", "130632.907500", "130633.367500", "130633.827500", "130634.287500", "130634.747500", "130635.207500", "130635.667500", "130636.127500", "130636.587500", "130637.047500", "130637.507500", "130637.967500", "130638.427500", "130638.887500", "130639.347500", "130639.807500", "130640.267500", "130640.727500", "130641.187500", "130641.647500", "130642.107500", "130642.567500", "130643.027500", "130643.487500", "130643.947500", "130644.407500", "130644.867500", "130645.327500", "130645.787500", "130646.247500", "130646.707500", "130647.167500", "130647.627500", "130648.087500", "130648.547500", "130649.007500", "130649.467500", "130649.927500", "130650.387500", "130650.847500", "130651.307500", "130651.767500", "130652.227500", "130652.687500", "130653.147500", "130653.607500", "130654.067500", "130654.527500", "130654.987500", "130655.447500", "130655.907500", "130656.367500", "130656.827500", "130657.287500", "130657.747500", "130658.207500", "130658.667500", "130659.127500", "130659.587500", "130700.047500", "130700.507500", "130700.967500", "130701.427500", "130701.887500", "130702.347500", "130702.807500", "130703.267500", "130703.727500", "130704.187500", "130704.647500", "130705.107500", "130705.567500", "130706.027500", "130706.487500", "130706.947500", "130707.407500", "130707.867500", "130708.327500", "130708.787500", "130709.247500", "130709.707500", "130710.167500", "130710.627500", "130711.087500", "130711.547500", "130712.007500", "130712.467500", "130712.927500", "130713.387500", "130713.847500", "130714.307500", "130714.767500", "130715.227500", "130715.687500", "130716.147500", "130716.607500", "130717.067500", "130717.527500", "130717.987500", "130718.447500", "130718.907500", "130719.367500", "130719.827500", "130720.287500", "130720.747500", "130721.207500", "130721.667500", "130722.127500", "130722.587500", "130723.047500", "130723.507500", "130723.967500", "130724.427500", "130724.887500", "130725.347500", "130725.807500", "130726.267500", "130726.727500", "130727.187500", "130727.647500", "130728.107500", "130728.567500", "130729.027500", "130729.487500", "130729.947500", "130730.407500", "130730.867500", "130731.327500", "130731.787500", "130732.247500", "130732.707500", "130733.167500", "130733.627500", "130734.087500", "130734.547500", "130735.007500", "130735.467500", "130735.927500", "130736.387500", "130736.847500", "130737.307500", "130737.767500", "130738.227500", "130738.687500", "130739.147500", "130739.607500", "130740.067500", "130740.527500", "130740.987500", "130741.447500", "130741.907500", "130742.367500", "130742.827500", "130743.287500", "130743.747500", "130744.207500", "130744.667500", "130745.127500", "130745.587500", "130746.047500", "130746.507500", "130746.967500", "130747.427500", "130747.887500", "130748.347500", "130748.807500", "130749.267500", "130749.727500", "130750.187500", "130750.647500", "130751.107500", "130751.567500", "130752.027500", "130752.487500", "130752.947500", "130753.407500", "130753.867500", "130754.327500", "130754.787500", "130755.247500", "130755.707500", "130756.167500", "130756.627500", "130757.087500", "130757.547500", "130758.007500", "130758.467500", "130758.927500", "130759.387500", "130759.847500", "130800.307500", "130800.767500", "130801.227500", "130801.687500", "130802.147500", "130802.607500", "130803.067500", "130803.527500", "130803.987500", "130804.447500", "130804.907500", "130805.367500", "130805.827500", "130806.287500", "130806.747500", "130807.207500", "130807.667500", "130808.127500", "130808.587500", "130809.047500", "130809.507500", "130809.967500", "130810.427500", "130810.887500", "130811.347500", "130811.807500", "130812.267500", "130812.727500", "130813.187500", "130813.647500", "130814.107500", "130814.567500", "130815.027500", "130815.487500", "130815.947500", "130816.407500", "130816.867500", "130817.327500", "130817.787500", "130818.247500", "130818.707500", "130819.167500", "130819.627500", "130820.087500", "130820.547500", "130821.007500", "130821.467500", "130821.927500", "130822.387500", "130822.847500", "130823.307500", "130823.767500", "130824.227500", "130824.687500", "130825.147500", "130825.607500", "130826.067500", "130826.527500", "130826.987500", "130827.447500", "130827.907500", "130828.367500", "130828.827500", "130829.287500", "130829.747500", "130830.207500", "130830.667500", "130831.127500", "130831.587500", "130832.047500", "130832.507500", "130832.967500", "130833.427500", "130833.887500", "130834.347500", "130834.807500", "130835.267500", "130835.727500", "130836.187500", "130836.647500", "130837.107500", "130837.567500", "130838.027500", "130838.487500", "130838.947500", "130839.407500", "130839.867500", "130840.327500", "130840.787500", "130841.247500", "130841.707500", "130842.167500", "130842.627500", "130843.087500", "130843.547500", "130844.007500", "130844.467500", "130844.927500", "130845.387500", "130845.847500", "130846.307500", "130846.767500", "130847.227500", "130847.687500", "130848.147500", "130848.607500", "130849.067500", "130849.527500"],
