{
  "AcquisitionMatrixPE": 82,
  "AcquisitionNumber": 1,
  "AcquisitionTime": "12:48:3.875000",
  "BandwidthPerPixelPhaseEncode": 24.888,
  "BaseResolution": 82,
  "BodyPartExamined": "BRAIN",
  "ConsistencyInfo": "N4_VE11C_LATEST_20160120",
  "ConversionSoftware": "dcm2niix",
  "ConversionSoftwareVersion": "v1.0.20201102",
  "DerivedVendorReportedEchoSpacing": 0.00049,
  "DeviceSerialNumber": "66112",
  "DwellTime": 2e-06,
  "EchoTime": 0.0272,
  "EchoTrainLength": 82,
  "EffectiveEchoSpacing": 0.00049,
  "FlipAngle": 44,
  "ImageComments": "Unaliased MB8/PE3",
  "ImageOrientationPatientDICOM": [0.999801, 0.019733, 0.00300109, -0.0193717, 0.995539, -0.0923379],
  "ImageType": [
    "ORIGINAL",
    "PRIMARY",
    "M",
    "MB",
    "ND",
    "NORM",
    "MOSAIC"
],
  "ImagingFrequency": 123.252,
  "InPlanePhaseEncodingDirectionDICOM": "COL",
  "InstitutionAddress": "Maynard 3,Hanover,NH,US,03755",
  "InstitutionName": "Dartmouth College - PBS",
  "InstitutionalDepartmentName": "Department",
  "MRAcquisitionType": "2D",
  "MagneticFieldStrength": 3,
  "Manufacturer": "Siemens",
  "ManufacturersModelName": "Prisma",
  "Modality": "MR",
  "MultibandAccelerationFactor": 8,
  "PartialFourier": 1,
  "PatientPosition": "HFS",
  "PercentPhaseFOV": 100,
  "PercentSampling": 100,
  "PhaseEncodingDirection": "j-",
  "PhaseEncodingSteps": 82,
  "PhaseResolution": 1,
  "PixelBandwidth": 3050,
  "ProcedureStepDescription": "Wager_Wager^1076_spacetop",
  "ProtocolName": "func_run-02_task-social_acq-ap-mb8",
  "PulseSequenceDetails": "%CustomerSeq%\\cmrr_mbep2d_bold",
  "ReceiveCoilActiveElements": "HEA;HEP",
  "ReceiveCoilName": "Head_32",
  "ReconMatrixPE": 82,
  "RepetitionTime": 0.46,
  "SAR": 0.0857559,
  "ScanOptions": "FS",
  "ScanningSequence": "EP",
  "SequenceName": "epfid2d1_82",
  "SequenceVariant": "SK\\SS",
  "SeriesDescription": "func_run-02_task-social_acq-ap-mb8",
  "SeriesNumber": 10,
  "ShimSetting": [4177, -7765, -7267, 598, -89, -152, -43, 83],
  "SliceThickness": 2.7,
  "SliceTiming": [0, 0.2525, 0.065, 0.315, 0.1275, 0.3775, 0.19, 0, 0.2525, 0.065, 0.315, 0.1275, 0.3775, 0.19, 0, 0.2525, 0.065, 0.315, 0.1275, 0.3775, 0.19, 0, 0.2525, 0.065, 0.315, 0.1275, 0.3775, 0.19, 0, 0.2525, 0.065, 0.315, 0.1275, 0.3775, 0.19, 0, 0.2525, 0.065, 0.315, 0.1275, 0.3775, 0.19, 0, 0.2525, 0.065, 0.315, 0.1275, 0.3775, 0.19, 0, 0.2525, 0.065, 0.315, 0.1275, 0.3775, 0.19],
  "SoftwareVersions": "syngo MR E11",
  "SpacingBetweenSlices": 2.7,
  "StationName": "AWP66112",
  "TaskName": "social",
  "TotalReadoutTime": 0.03969,
  "TxRefAmp": 231.495,
  "WipMemBlock": "704b9d22-016b-4cef-a00b-de1a89831f93||Sequence: R016 ve11c/master r/e634e98; Dec 19 2017 11:00:25 by eja",
  "dcmmeta_affine": [
    [-2.6823923587799072, -0.051972970366477966, 0.012986474670469761, 112.72062683105469],
    [-0.05294225364923477, 2.670958995819092, -0.24910582602024078, -75.48970031738281],
    [0.008051693439483643, 0.24773596227169037, 2.68845272064209, -85.81053924560547],
    [0.0, 0.0, 0.0, 1.0]
],
  "dcmmeta_reorient_transform": [
    [0.0, -1.0, 0.0, 81.0],
    [1.0, 0.0, 0.0, 0.0],
    [0.0, 0.0, 1.0, 0.0],
    [0.0, 0.0, 0.0, 1.0]
],
  "dcmmeta_shape": [82, 82, 56, 872],
  "dcmmeta_slice_dim": 2,
  "dcmmeta_version": 0.6,
  "global": {
    "const": {
      "AccessionNumber": "A003526",
      "AcquisitionMatrix": [82, 0, 0, 82],
      "AngioFlag": "N",
      "BitsAllocated": 16,
      "BitsStored": 16,
      "BodyPartExamined": "BRAIN",
      "Columns": 656,
      "EchoNumbers": 1,
      "EchoTime": 27.2,
      "EchoTrainLength": 82,
      "FlipAngle": 44.0,
      "HighBit": 15,
      "ImageOrientationPatient": [0.99980078083028, 0.0197330214563, 0.00300108569888, -0.0193717429203, 0.99553927059277, -0.0923379460668],
      "ImagePositionPatient": [-863.44119321083, -922.61767022583, 3.0454551114181],
      "ImageType": [
        "ORIGINAL",
        "PRIMARY",
        "M",
        "MB",
        "ND",
        "NORM",
        "MOSAIC"
],
      "ImagedNucleus": "1H",
      "ImagingFrequency": 123.252158,
      "InPlanePhaseEncodingDirection": "COL",
      "MRAcquisitionType": "2D",
      "MagneticFieldStrength": 3.0,
      "Manufacturer": "SIEMENS",
      "ManufacturerModelName": "Prisma",
      "Modality": "MR",
      "NumberOfAverages": 1.0,
      "NumberOfPhaseEncodingSteps": 82,
      "PercentPhaseFieldOfView": 100.0,
      "PercentSampling": 100.0,
      "PerformedProcedureStepStartTime": "120221.380000",
      "PhotometricInterpretation": "MONOCHROME2",
      "PixelBandwidth": 3050.0,
      "PixelRepresentation": 0,
      "PixelSpacing": [2.6829268932343, 2.6829268932343],
      "ProtocolName": "func_run-02_task-social_acq-ap-mb8",
      "RepetitionTime": 460.0,
      "Rows": 656,
      "SAR": 0.08575592994857,
      "SamplesPerPixel": 1,
      "ScanOptions": "FS",
      "ScanningSequence": "EP",
      "SequenceName": "epfid2d1_82",
      "SequenceVariant": [
        "SK",
        "SS"
],
      "SeriesDescription": "func_run-02_task-social_acq-ap-mb8",
      "SeriesNumber": 10,
      "SeriesTime": "124823.444000",
      "SliceLocation": -77.936596749951,
      "SliceThickness": 2.7000000476837,
      "SmallestImagePixelValue": 0,
      "SoftwareVersions": "syngo MR E11",
      "SpacingBetweenSlices": 2.7000000561649,
      "SpecificCharacterSet": "ISO_IR 100",
      "StudyID": "3",
      "StudyTime": "120221.290000",
      "TransmitCoilName": "Body",
      "VariableFlipAngleFlag": "N",
      "WindowCenterWidthExplanation": "Algo1",
      "dBdt": 0.0},
    "slices": {}
  },
  "time": {
    "samples": {
      "AcquisitionNumber": [1, 2, 3, 4, 5, 6, 7, 8, 9, 10, 11, 12, 13, 14, 15, 16, 17, 18, 19, 20, 21, 22, 23, 24, 25, 26, 27, 28, 29, 30, 31, 32, 33, 34, 35, 36, 37, 38, 39, 40, 41, 42, 43, 44, 45, 46, 47, 48, 49, 50, 51, 52, 53, 54, 55, 56, 57, 58, 59, 60, 61, 62, 63, 64, 65, 66, 67, 68, 69, 70, 71, 72, 73, 74, 75, 76, 77, 78, 79, 80, 81, 82, 83, 84, 85, 86, 87, 88, 89, 90, 91, 92, 93, 94, 95, 96, 97, 98, 99, 100, 101, 102, 103, 104, 105, 106, 107, 108, 109, 110, 111, 112, 113, 114, 115, 116, 117, 118, 119, 120, 121, 122, 123, 124, 125, 126, 127, 128, 129, 130, 131, 132, 133, 134, 135, 136, 137, 138, 139, 140, 141, 142, 143, 144, 145, 146, 147, 148, 149, 150, 151, 152, 153, 154, 155, 156, 157, 158, 159, 160, 161, 162, 163, 164, 165, 166, 167, 168, 169, 170, 171, 172, 173, 174, 175, 176, 177, 178, 179, 180, 181, 182, 183, 184, 185, 186, 187, 188, 189, 190, 191, 192, 193, 194, 195, 196, 197, 198, 199, 200, 201, 202, 203, 204, 205, 206, 207, 208, 209, 210, 211, 212, 213, 214, 215, 216, 217, 218, 219, 220, 221, 222, 223, 224, 225, 226, 227, 228, 229, 230, 231, 232, 233, 234, 235, 236, 237, 238, 239, 240, 241, 242, 243, 244, 245, 246, 247, 248, 249, 250, 251, 252, 253, 254, 255, 256, 257, 258, 259, 260, 261, 262, 263, 264, 265, 266, 267, 268, 269, 270, 271, 272, 273, 274, 275, 276, 277, 278, 279, 280, 281, 282, 283, 284, 285, 286, 287, 288, 289, 290, 291, 292, 293, 294, 295, 296, 297, 298, 299, 300, 301, 302, 303, 304, 305, 306, 307, 308, 309, 310, 311, 312, 313, 314, 315, 316, 317, 318, 319, 320, 321, 322, 323, 324, 325, 326, 327, 328, 329, 330, 331, 332, 333, 334, 335, 336, 337, 338, 339, 340, 341, 342, 343, 344, 345, 346, 347, 348, 349, 350, 351, 352, 353, 354, 355, 356, 357, 358, 359, 360, 361, 362, 363, 364, 365, 366, 367, 368, 369, 370, 371, 372, 373, 374, 375, 376, 377, 378, 379, 380, 381, 382, 383, 384, 385, 386, 387, 388, 389, 390, 391, 392, 393, 394, 395, 396, 397, 398, 399, 400, 401, 402, 403, 404, 405, 406, 407, 408, 409, 410, 411, 412, 413, 414, 415, 416, 417, 418, 419, 420, 421, 422, 423, 424, 425, 426, 427, 428, 429, 430, 431, 432, 433, 434, 435, 436, 437, 438, 439, 440, 441, 442, 443, 444, 445, 446, 447, 448, 449, 450, 451, 452, 453, 454, 455, 456, 457, 458, 459, 460, 461, 462, 463, 464, 465, 466, 467, 468, 469, 470, 471, 472, 473, 474, 475, 476, 477, 478, 479, 480, 481, 482, 483, 484, 485, 486, 487, 488, 489, 490, 491, 492, 493, 494, 495, 496, 497, 498, 499, 500, 501, 502, 503, 504, 505, 506, 507, 508, 509, 510, 511, 512, 513, 514, 515, 516, 517, 518, 519, 520, 521, 522, 523, 524, 525, 526, 527, 528, 529, 530, 531, 532, 533, 534, 535, 536, 537, 538, 539, 540, 541, 542, 543, 544, 545, 546, 547, 548, 549, 550, 551, 552, 553, 554, 555, 556, 557, 558, 559, 560, 561, 562, 563, 564, 565, 566, 567, 568, 569, 570, 571, 572, 573, 574, 575, 576, 577, 578, 579, 580, 581, 582, 583, 584, 585, 586, 587, 588, 589, 590, 591, 592, 593, 594, 595, 596, 597, 598, 599, 600, 601, 602, 603, 604, 605, 606, 607, 608, 609, 610, 611, 612, 613, 614, 615, 616, 617, 618, 619, 620, 621, 622, 623, 624, 625, 626, 627, 628, 629, 630, 631, 632, 633, 634, 635, 636, 637, 638, 639, 640, 641, 642, 643, 644, 645, 646, 647, 648, 649, 650, 651, 652, 653, 654, 655, 656, 657, 658, 659, 660, 661, 662, 663, 664, 665, 666, 667, 668, 669, 670, 671, 672, 673, 674, 675, 676, 677, 678, 679, 680, 681, 682, 683, 684, 685, 686, 687, 688, 689, 690, 691, 692, 693, 694, 695, 696, 697, 698, 699, 700, 701, 702, 703, 704, 705, 706, 707, 708, 709, 710, 711, 712, 713, 714, 715, 716, 717, 718, 719, 720, 721, 722, 723, 724, 725, 726, 727, 728, 729, 730, 731, 732, 733, 734, 735, 736, 737, 738, 739, 740, 741, 742, 743, 744, 745, 746, 747, 748, 749, 750, 751, 752, 753, 754, 755, 756, 757, 758, 759, 760, 761, 762, 763, 764, 765, 766, 767, 768, 769, 770, 771, 772, 773, 774, 775, 776, 777, 778, 779, 780, 781, 782, 783, 784, 785, 786, 787, 788, 789, 790, 791, 792, 793, 794, 795, 796, 797, 798, 799, 800, 801, 802, 803, 804, 805, 806, 807, 808, 809, 810, 811, 812, 813, 814, 815, 816, 817, 818, 819, 820, 821, 822, 823, 824, 825, 826, 827, 828, 829, 830, 831, 832, 833, 834, 835, 836, 837, 838, 839, 840, 841, 842, 843, 844, 845, 846, 847, 848, 849, 850, 851, 852, 853, 854, 855, 856, 857, 858, 859, 860, 861, 862, 863, 864, 865, 866, 867, 868, 869, 870, 871, 872],
      "AcquisitionTime": ["124803.875000", "124804.335000", "124804.795000", "124805.255000", "124805.715000", "124806.175000", "124806.635000", "124807.095000", "124807.555000", "124808.015000", "124808.475000", "124808.935000", "124809.395000", "124809.855000", "124810.315000", "124810.775000", "124811.235000", "124811.695000", "124812.155000", "124812.615000", "124813.075000", "124813.535000", "124813.995000", "124814.455000", "124814.915000", "124815.375000", "124815.835000", "124816.295000", "124816.755000", "124817.215000", "124817.675000", "124818.135000", "124818.595000", "124819.055000", "124819.515000", "124819.975000", "124820.435000", "124820.895000", "124821.355000", "124821.815000", "124822.275000", "124822.735000", "124823.195000", "124823.655000", "124824.115000", "124824.575000", "124825.035000", "124825.495000", "124825.955000", "124826.415000", "124826.875000", "124827.335000", "124827.795000", "124828.255000", "124828.715000", "124829.175000", "124829.635000", "124830.095000", "124830.555000", "124831.015000", "124831.475000", "124831.935000", "124832.395000", "124832.855000", "124833.315000", "124833.775000", "124834.235000", "124834.695000", "124835.155000", "124835.615000", "124836.075000", "124836.535000", "124836.995000", "124837.455000", "124837.915000", "124838.375000", "124838.835000", "124839.295000", "124839.755000", "124840.215000", "124840.675000", "124841.135000", "124841.595000", "124842.055000", "124842.515000", "124842.975000", "124843.435000", "124843.895000", "124844.355000", "124844.815000", "124845.275000", "124845.735000", "124846.195000", "124846.655000", "124847.115000", "124847.575000", "124848.035000", "124848.495000", "124848.955000", "124849.415000", "124849.875000", "124850.335000", "124850.795000", "124851.255000", "124851.715000", "124852.175000", "124852.635000", "124853.095000", "124853.555000", "124854.015000", "124854.475000", "124854.935000", "124855.395000", "124855.855000", "124856.315000", "124856.775000", "124857.235000", "124857.695000", "124858.155000", "124858.615000", "124859.075000", "124859.535000", "124859.995000", "124900.455000", "124900.915000", "124901.375000", "124901.835000", "124902.295000", "124902.755000", "124903.215000", "124903.675000", "124904.135000", "124904.595000", "124905.055000", "124905.515000", "124905.975000", "124906.435000", "124906.895000", "124907.355000", "124907.815000", "124908.275000", "124908.735000", "124909.195000", "124909.655000", "124910.115000", "124910.575000", "124911.035000", "124911.495000", "124911.955000", "124912.415000", "124912.875000", "124913.335000", "124913.795000", "124914.255000", "124914.715000", "124915.175000", "124915.635000", "124916.095000", "124916.555000", "124917.015000", "124917.475000", "124917.935000", "124918.395000", "124918.855000", "124919.315000", "124919.775000", "124920.235000", "124920.695000", "124921.155000", "124921.615000", "124922.075000", "124922.535000", "124922.995000", "124923.455000", "124923.915000", "124924.375000", "124924.835000", "124925.295000", "124925.755000", "124926.215000", "124926.675000", "124927.135000", "124927.595000", "124928.055000", "124928.515000", "124928.975000", "124929.435000", "124929.895000", "124930.355000", "124930.815000", "124931.275000", "124931.735000", "124932.195000", "124932.655000", "124933.115000", "124933.575000", "124934.035000", "124934.495000", "124934.955000", "124935.415000", "124935.875000", "124936.335000", "124936.795000", "124937.255000", "124937.715000", "124938.175000", "124938.635000", "124939.095000", "124939.555000", "124940.015000", "124940.475000", "124940.935000", "124941.395000", "124941.855000", "124942.315000", "124942.775000", "124943.235000", "124943.695000", "124944.155000", "124944.615000", "124945.075000", "124945.535000", "124945.995000", "124946.455000", "124946.915000", "124947.375000", "124947.835000", "124948.295000", "124948.755000", "124949.215000", "124949.675000", "124950.135000", "124950.595000", "124951.055000", "124951.515000", "124951.975000", "124952.435000", "124952.895000", "124953.355000", "124953.815000", "124954.275000", "124954.735000", "124955.195000", "124955.655000", "124956.115000", "124956.575000", "124957.035000", "124957.495000", "124957.955000", "124958.415000", "124958.875000", "124959.335000", "124959.795000", "125000.255000", "125000.715000", "125001.175000", "125001.635000", "125002.095000", "125002.555000", "125003.015000", "125003.475000", "125003.935000", "125004.395000", "125004.855000", "125005.315000", "125005.775000", "125006.235000", "125006.695000", "125007.155000", "125007.615000", "125008.075000", "125008.535000", "125008.995000", "125009.455000", "125009.915000", "125010.375000", "125010.835000", "125011.295000", "125011.755000", "125012.215000", "125012.675000", "125013.135000", "125013.595000", "125014.055000", "125014.515000", "125014.975000", "125015.435000", "125015.895000", "125016.355000", "125016.815000", "125017.275000", "125017.735000", "125018.195000", "125018.655000", "125019.115000", "125019.575000", "125020.035000", "125020.495000", "125020.955000", "125021.415000", "125021.875000", "125022.335000", "125022.795000", "125023.255000", "125023.715000", "125024.175000", "125024.635000", "125025.095000", "125025.555000", "125026.015000", "125026.475000", "125026.935000", "125027.395000", "125027.855000", "125028.315000", "125028.775000", "125029.235000", "125029.695000", "125030.155000", "125030.615000", "125031.075000", "125031.535000", "125031.995000", "125032.455000", "125032.915000", "125033.375000", "125033.835000", "125034.295000", "125034.755000", "125035.215000", "125035.675000", "125036.135000", "125036.595000", "125037.055000", "125037.515000", "125037.975000", "125038.435000", "125038.895000", "125039.355000", "125039.815000", "125040.275000", "125040.735000", "125041.195000", "125041.655000", "125042.115000", "125042.575000", "125043.035000", "125043.495000", "125043.955000", "125044.415000", "125044.875000", "125045.335000", "125045.795000", "125046.255000", "125046.715000", "125047.175000", "125047.635000", "125048.095000", "125048.555000", "125049.015000", "125049.475000", "125049.935000", "125050.395000", "125050.855000", "125051.315000", "125051.775000", "125052.235000", "125052.695000", "125053.155000", "125053.615000", "125054.075000", "125054.535000", "125054.995000", "125055.455000", "125055.915000", "125056.375000", "125056.835000", "125057.295000", "125057.755000", "125058.215000", "125058.675000", "125059.135000", "125059.595000", "125100.055000", "125100.515000", "125100.975000", "125101.435000", "125101.895000", "125102.355000", "125102.815000", "125103.275000", "125103.735000", "125104.195000", "125104.655000", "125105.115000", "125105.575000", "125106.035000", "125106.495000", "125106.955000", "125107.415000", "125107.875000", "125108.335000", "125108.795000", "125109.255000", "125109.715000", "125110.175000", "125110.635000", "125111.095000", "125111.555000", "125112.015000", "125112.475000", "125112.935000", "125113.395000", "125113.855000", "125114.315000", "125114.775000", "125115.235000", "125115.695000", "125116.155000", "125116.615000", "125117.075000", "125117.535000", "125117.995000", "125118.455000", "125118.915000", "125119.375000", "125119.835000", "125120.295000", "125120.755000", "125121.215000", "125121.675000", "125122.135000", "125122.595000", "125123.055000", "125123.515000", "125123.975000", "125124.435000", "125124.895000", "125125.355000", "125125.815000", "125126.275000", "125126.735000", "125127.195000", "125127.655000", "125128.115000", "125128.575000", "125129.035000", "125129.495000", "125129.955000", "125130.415000", "125130.875000", "125131.335000", "125131.795000", "125132.255000", "125132.715000", "125133.175000", "125133.635000", "125134.095000", "125134.555000", "125135.015000", "125135.475000", "125135.935000", "125136.395000", "125136.855000", "125137.315000", "125137.775000", "125138.235000", "125138.695000", "125139.155000", "125139.615000", "125140.075000", "125140.535000", "125140.995000", "125141.455000", "125141.915000", "125142.375000", "125142.835000", "125143.295000", "125143.755000", "125144.215000", "125144.675000", "125145.135000", "125145.595000", "125146.055000", "125146.515000", "125146.975000", "125147.435000", "125147.895000", "125148.355000", "125148.815000", "125149.275000", "125149.735000", "125150.195000", "125150.655000", "125151.115000", "125151.575000", "125152.035000", "125152.495000", "125152.955000", "125153.415000", "125153.875000", "125154.335000", "125154.795000", "125155.255000", "125155.715000", "125156.175000", "125156.635000", "125157.095000", "125157.555000", "125158.015000", "125158.475000", "125158.935000", "125159.395000", "125159.855000", "125200.315000", "125200.775000", "125201.235000", "125201.695000", "125202.155000", "125202.615000", "125203.075000", "125203.535000", "125203.995000", "125204.455000", "125204.915000", "125205.375000", "125205.835000", "125206.295000", "125206.755000", "125207.215000", "125207.675000", "125208.135000", "125208.595000", "125209.055000", "125209.515000", "125209.975000", "125210.435000", "125210.895000", "125211.355000", "125211.815000", "125212.275000", "125212.735000", "125213.195000", "125213.655000", "125214.115000", "125214.575000", "125215.035000", "125215.495000", "125215.955000", "125216.415000", "125216.875000", "125217.335000", "125217.795000", "125218.255000", "125218.715000", "125219.175000", "125219.635000", "125220.095000", "125220.555000", "125221.015000", "125221.475000", "125221.935000", "125222.395000", "125222.855000", "125223.315000", "125223.775000", "125224.235000", "125224.695000", "125225.155000", "125225.615000", "125226.075000", "125226.535000", "125226.995000", "125227.455000", "125227.915000", "125228.375000", "125228.835000", "125229.295000", "125229.755000", "125230.215000", "125230.675000", "125231.135000", "125231.595000", "125232.055000", "125232.515000", "125232.975000", "125233.435000", "125233.895000", "125234.355000", "125234.815000", "125235.275000", "125235.735000", "125236.195000", "125236.655000", "125237.115000", "125237.575000", "125238.035000", "125238.495000", "125238.955000", "125239.415000", "125239.875000", "125240.335000", "125240.795000", "125241.255000", "125241.715000", "125242.175000", "125242.635000", "125243.095000", "125243.555000", "125244.015000", "125244.475000", "125244.935000", "125245.395000", "125245.855000", "125246.315000", "125246.775000", "125247.235000", "125247.695000", "125248.155000", "125248.615000", "125249.075000", "125249.535000", "125249.995000", "125250.455000", "125250.915000", "125251.375000", "125251.835000", "125252.295000", "125252.755000", "125253.215000", "125253.675000", "125254.135000", "125254.595000", "125255.055000", "125255.515000", "125255.975000", "125256.435000", "125256.895000", "125257.355000", "125257.815000", "125258.275000", "125258.735000", "125259.195000", "125259.655000", "125300.115000", "125300.575000", "125301.035000", "125301.495000", "125301.955000", "125302.415000", "125302.875000", "125303.335000", "125303.795000", "125304.255000", "125304.715000", "125305.175000", "125305.635000", "125306.095000", "125306.555000", "125307.015000", "125307.475000", "125307.935000", "125308.395000", "125308.855000", "125309.315000", "125309.775000", "125310.235000", "125310.695000", "125311.155000", "125311.615000", "125312.075000", "125312.535000", "125312.995000", "125313.455000", "125313.915000", "125314.375000", "125314.835000", "125315.295000", "125315.755000", "125316.215000", "125316.675000", "125317.135000", "125317.595000", "125318.055000", "125318.515000", "125318.975000", "125319.435000", "125319.895000", "125320.355000", "125320.815000", "125321.275000", "125321.735000", "125322.195000", "125322.655000", "125323.115000", "125323.575000", "125324.035000", "125324.495000", "125324.955000", "125325.415000", "125325.875000", "125326.335000", "125326.795000", "125327.255000", "125327.715000", "125328.175000", "125328.635000", "125329.095000", "125329.555000", "125330.015000", "125330.475000", "125330.935000", "125331.395000", "125331.855000", "125332.315000", "125332.775000", "125333.235000", "125333.695000", "125334.155000", "125334.615000", "125335.075000", "125335.535000", "125335.995000", "125336.455000", "125336.915000", "125337.375000", "125337.835000", "125338.295000", "125338.755000", "125339.215000", "125339.675000", "125340.135000", "125340.595000", "125341.055000", "125341.515000", "125341.975000", "125342.435000", "125342.895000", "125343.355000", "125343.815000", "125344.275000", "125344.735000", "125345.195000", "125345.655000", "125346.115000", "125346.575000", "125347.035000", "125347.495000", "125347.955000", "125348.415000", "125348.875000", "125349.335000", "125349.795000", "125350.255000", "125350.715000", "125351.175000", "125351.635000", "125352.095000", "125352.555000", "125353.015000", "125353.475000", "125353.935000", "125354.395000", "125354.855000", "125355.315000", "125355.775000", "125356.235000", "125356.695000", "125357.155000", "125357.615000", "125358.075000", "125358.535000", "125358.995000", "125359.455000", "125359.915000", "125400.375000", "125400.835000", "125401.295000", "125401.755000", "125402.215000", "125402.675000", "125403.135000", "125403.595000", "125404.055000", "125404.515000", "125404.975000", "125405.435000", "125405.895000", "125406.355000", "125406.815000", "125407.275000", "125407.735000", "125408.195000", "125408.655000", "125409.115000", "125409.575000", "125410.035000", "125410.495000", "125410.955000", "125411.415000", "125411.875000", "125412.335000", "125412.795000", "125413.255000", "125413.715000", "125414.175000", "125414.635000", "125415.095000", "125415.555000", "125416.015000", "125416.475000", "125416.935000", "125417.395000", "125417.855000", "125418.315000", "125418.775000", "125419.235000", "125419.695000", "125420.155000", "125420.615000", "125421.075000", "125421.535000", "125421.995000", "125422.455000", "125422.915000", "125423.375000", "125423.835000", "125424.295000", "125424.755000", "125425.215000", "125425.675000", "125426.135000", "125426.595000", "125427.055000", "125427.515000", "125427.975000", "125428.435000", "125428.895000", "125429.355000", "125429.815000", "125430.275000", "125430.735000", "125431.195000", "125431.655000", "125432.115000", "125432.575000", "125433.035000", "125433.495000", "125433.955000", "125434.415000", "125434.875000", "125435.335000", "125435.795000", "125436.255000", "125436.715000", "125437.175000", "125437.635000", "125438.095000", "125438.555000", "125439.015000", "125439.475000", "125439.935000", "125440.395000", "125440.855000", "125441.315000", "125441.775000", "125442.235000", "125442.695000", "125443.155000", "125443.615000", "125444.075000", "125444.535000"],
