{
  "AcquisitionMatrixPE": 82,
  "AcquisitionNumber": 1,
  "AcquisitionTime": "21:44:35.440000",
  "BandwidthPerPixelPhaseEncode": 24.888,
  "BaseResolution": 82,
  "BodyPartExamined": "BRAIN",
  "ConsistencyInfo": "N4_VE11E_LATEST_20181129",
  "ConversionSoftware": "dcm2niix",
  "ConversionSoftwareVersion": "v1.0.20201102",
  "DerivedVendorReportedEchoSpacing": 0.00049,
  "DeviceSerialNumber": "66112",
  "DwellTime": 2e-06,
  "EchoTime": 0.0272,
  "EchoTrainLength": 82,
  "EffectiveEchoSpacing": 0.00049,
  "FlipAngle": 44,
  "ImageComments": "Unaliased MB8/PE3",
  "ImageOrientationPatientDICOM": [0.999761, -0.00173179, 0.0217892, 0.00401327, 0.994453, -0.105104],
  "ImageType": [
    "ORIGINAL",
    "PRIMARY",
    "M",
    "MB",
    "ND",
    "NORM",
    "MOSAIC"
],
  "ImagingFrequency": 123.259,
  "InPlanePhaseEncodingDirectionDICOM": "COL",
  "InstitutionAddress": "Maynard 3,Hanover,NH,US,03755",
  "InstitutionName": "Dartmouth College - PBS",
  "InstitutionalDepartmentName": "Department",
  "MRAcquisitionType": "2D",
  "MagneticFieldStrength": 3,
  "Manufacturer": "Siemens",
  "ManufacturersModelName": "Prisma",
  "Modality": "MR",
  "MultibandAccelerationFactor": 8,
  "PartialFourier": 1,
  "PatientPosition": "HFS",
  "PercentPhaseFOV": 100,
  "PercentSampling": 100,
  "PhaseEncodingDirection": "j-",
  "PhaseEncodingSteps": 82,
  "PhaseResolution": 1,
  "PixelBandwidth": 3050,
  "ProcedureStepDescription": "Wager_Wager^1076_spacetop",
  "ProtocolName": "func_run-01_task-narratives_acq-ap-mb8",
  "PulseSequenceDetails": "%CustomerSeq%\\cmrr_mbep2d_bold",
  "ReceiveCoilActiveElements": "HEA;HEP",
  "ReceiveCoilName": "Head_32",
  "ReconMatrixPE": 82,
  "RepetitionTime": 0.46,
  "SAR": 0.0899129,
  "ScanOptions": "FS",
  "ScanningSequence": "EP",
  "SequenceName": "epfid2d1_82",
  "SequenceVariant": "SK\\SS",
  "SeriesDescription": "func_run-01_task-narratives_acq-ap-mb8",
  "SeriesNumber": 8,
  "ShimSetting": [4221, -7744, -7266, 248, -145, -63, -70, 55],
  "SliceThickness": 2.7,
  "SliceTiming": [0, 0.25, 0.0625, 0.3125, 0.125, 0.375, 0.1875, 0, 0.25, 0.0625, 0.3125, 0.125, 0.375, 0.1875, 0, 0.25, 0.0625, 0.3125, 0.125, 0.375, 0.1875, 0, 0.25, 0.0625, 0.3125, 0.125, 0.375, 0.1875, 0, 0.25, 0.0625, 0.3125, 0.125, 0.375, 0.1875, 0, 0.25, 0.0625, 0.3125, 0.125, 0.375, 0.1875, 0, 0.25, 0.0625, 0.3125, 0.125, 0.375, 0.1875, 0, 0.25, 0.0625, 0.3125, 0.125, 0.375, 0.1875],
  "SoftwareVersions": "syngo MR E11",
  "SpacingBetweenSlices": 2.7,
  "StationName": "AWP66112",
  "TaskName": "narratives",
  "TotalReadoutTime": 0.03969,
  "TxRefAmp": 270.639,
  "WipMemBlock": "0fc8d870-9c7a-4222-aa3f-d2b31339c9de||Sequence: R016 ve11e/master r/434b28f1; Aug  7 2019 18:53:46 by eja",
  "dcmmeta_affine": [
    [-2.682286024093628, 0.010767310857772827, 0.05801304057240486, 108.58995056152344],
    [0.004646265413612127, 2.6680450439453125, -0.283948689699173, -78.91228485107422],
    [0.058458805084228516, 0.28198593854904175, 2.684400796890259, -87.68189239501953],
    [0.0, 0.0, 0.0, 1.0]
],
  "dcmmeta_reorient_transform": [
    [0.0, -1.0, 0.0, 81.0],
    [1.0, 0.0, 0.0, 0.0],
    [0.0, 0.0, 1.0, 0.0],
    [0.0, 0.0, 0.0, 1.0]
],
  "dcmmeta_shape": [82, 82, 56, 967],
  "dcmmeta_slice_dim": 2,
  "dcmmeta_version": 0.6,
  "global": {
    "const": {
      "AccessionNumber": "A004416",
      "AcquisitionMatrix": [82, 0, 0, 82],
      "AngioFlag": "N",
      "BitsAllocated": 16,
      "BitsStored": 16,
      "BodyPartExamined": "BRAIN",
      "Columns": 656,
      "EchoNumbers": 1,
      "EchoTime": 27.2,
      "EchoTrainLength": 82,
      "FlipAngle": 44.0,
      "HighBit": 15,
      "ImageOrientationPatient": [0.99976108751479, -0.0017317897388, 0.02178918987804, 0.00401327028983, 0.9944531536403, -0.1051038480573],
      "ImagePositionPatient": [-882.36837771774, -901.59483822756, -0.688744806195],
      "ImageType": [
        "ORIGINAL",
        "PRIMARY",
        "M",
        "MB",
        "ND",
        "NORM",
        "MOSAIC"
],
      "ImagedNucleus": "1H",
      "ImagingFrequency": 123.259106,
      "InPlanePhaseEncodingDirection": "COL",
      "MRAcquisitionType": "2D",
      "MagneticFieldStrength": 3.0,
      "Manufacturer": "SIEMENS",
      "ManufacturerModelName": "Prisma",
      "Modality": "MR",
      "NumberOfAverages": 1.0,
      "NumberOfPhaseEncodingSteps": 82,
      "PercentPhaseFieldOfView": 100.0,
      "PercentSampling": 100.0,
      "PerformedProcedureStepStartTime": "212421.394000",
      "PhotometricInterpretation": "MONOCHROME2",
      "PixelBandwidth": 3050.0,
      "PixelRepresentation": 0,
      "PixelSpacing": [2.6829268932343, 2.6829268932343],
      "ProtocolName": "func_run-01_task-narratives_acq-ap-mb8",
      "RepetitionTime": 460.0,
      "Rows": 656,
      "SAR": 0.08991289709977,
      "SamplesPerPixel": 1,
      "ScanOptions": "FS",
      "ScanningSequence": "EP",
      "SequenceName": "epfid2d1_82",
      "SequenceVariant": [
        "SK",
        "SS"
],
      "SeriesDescription": "func_run-01_task-narratives_acq-ap-mb8",
      "SeriesNumber": 8,
      "SeriesTime": "214501.011000",
      "SliceLocation": -76.543212428776,
      "SliceThickness": 2.7000000476837,
      "SmallestImagePixelValue": 0,
      "SoftwareVersions": "syngo MR E11",
      "SpacingBetweenSlices": 2.7000000059313,
      "SpecificCharacterSet": "ISO_IR 100",
      "StudyID": "1",
      "StudyTime": "212421.175000",
      "TransmitCoilName": "Body",
      "VariableFlipAngleFlag": "N",
      "WindowCenterWidthExplanation": "Algo1"
    },
    "slices": {}
  },
  "time": {
    "samples": {
      "AcquisitionNumber": [1, 2, 3, 4, 5, 6, 7, 8, 9, 10, 11, 12, 13, 14, 15, 16, 17, 18, 19, 20, 21, 22, 23, 24, 25, 26, 27, 28, 29, 30, 31, 32, 33, 34, 35, 36, 37, 38, 39, 40, 41, 42, 43, 44, 45, 46, 47, 48, 49, 50, 51, 52, 53, 54, 55, 56, 57, 58, 59, 60, 61, 62, 63, 64, 65, 66, 67, 68, 69, 70, 71, 72, 73, 74, 75, 76, 77, 78, 79, 80, 81, 82, 83, 84, 85, 86, 87, 88, 89, 90, 91, 92, 93, 94, 95, 96, 97, 98, 99, 100, 101, 102, 103, 104, 105, 106, 107, 108, 109, 110, 111, 112, 113, 114, 115, 116, 117, 118, 119, 120, 121, 122, 123, 124, 125, 126, 127, 128, 129, 130, 131, 132, 133, 134, 135, 136, 137, 138, 139, 140, 141, 142, 143, 144, 145, 146, 147, 148, 149, 150, 151, 152, 153, 154, 155, 156, 157, 158, 159, 160, 161, 162, 163, 164, 165, 166, 167, 168, 169, 170, 171, 172, 173, 174, 175, 176, 177, 178, 179, 180, 181, 182, 183, 184, 185, 186, 187, 188, 189, 190, 191, 192, 193, 194, 195, 196, 197, 198, 199, 200, 201, 202, 203, 204, 205, 206, 207, 208, 209, 210, 211, 212, 213, 214, 215, 216, 217, 218, 219, 220, 221, 222, 223, 224, 225, 226, 227, 228, 229, 230, 231, 232, 233, 234, 235, 236, 237, 238, 239, 240, 241, 242, 243, 244, 245, 246, 247, 248, 249, 250, 251, 252, 253, 254, 255, 256, 257, 258, 259, 260, 261, 262, 263, 264, 265, 266, 267, 268, 269, 270, 271, 272, 273, 274, 275, 276, 277, 278, 279, 280, 281, 282, 283, 284, 285, 286, 287, 288, 289, 290, 291, 292, 293, 294, 295, 296, 297, 298, 299, 300, 301, 302, 303, 304, 305, 306, 307, 308, 309, 310, 311, 312, 313, 314, 315, 316, 317, 318, 319, 320, 321, 322, 323, 324, 325, 326, 327, 328, 329, 330, 331, 332, 333, 334, 335, 336, 337, 338, 339, 340, 341, 342, 343, 344, 345, 346, 347, 348, 349, 350, 351, 352, 353, 354, 355, 356, 357, 358, 359, 360, 361, 362, 363, 364, 365, 366, 367, 368, 369, 370, 371, 372, 373, 374, 375, 376, 377, 378, 379, 380, 381, 382, 383, 384, 385, 386, 387, 388, 389, 390, 391, 392, 393, 394, 395, 396, 397, 398, 399, 400, 401, 402, 403, 404, 405, 406, 407, 408, 409, 410, 411, 412, 413, 414, 415, 416, 417, 418, 419, 420, 421, 422, 423, 424, 425, 426, 427, 428, 429, 430, 431, 432, 433, 434, 435, 436, 437, 438, 439, 440, 441, 442, 443, 444, 445, 446, 447, 448, 449, 450, 451, 452, 453, 454, 455, 456, 457, 458, 459, 460, 461, 462, 463, 464, 465, 466, 467, 468, 469, 470, 471, 472, 473, 474, 475, 476, 477, 478, 479, 480, 481, 482, 483, 484, 485, 486, 487, 488, 489, 490, 491, 492, 493, 494, 495, 496, 497, 498, 499, 500, 501, 502, 503, 504, 505, 506, 507, 508, 509, 510, 511, 512, 513, 514, 515, 516, 517, 518, 519, 520, 521, 522, 523, 524, 525, 526, 527, 528, 529, 530, 531, 532, 533, 534, 535, 536, 537, 538, 539, 540, 541, 542, 543, 544, 545, 546, 547, 548, 549, 550, 551, 552, 553, 554, 555, 556, 557, 558, 559, 560, 561, 562, 563, 564, 565, 566, 567, 568, 569, 570, 571, 572, 573, 574, 575, 576, 577, 578, 579, 580, 581, 582, 583, 584, 585, 586, 587, 588, 589, 590, 591, 592, 593, 594, 595, 596, 597, 598, 599, 600, 601, 602, 603, 604, 605, 606, 607, 608, 609, 610, 611, 612, 613, 614, 615, 616, 617, 618, 619, 620, 621, 622, 623, 624, 625, 626, 627, 628, 629, 630, 631, 632, 633, 634, 635, 636, 637, 638, 639, 640, 641, 642, 643, 644, 645, 646, 647, 648, 649, 650, 651, 652, 653, 654, 655, 656, 657, 658, 659, 660, 661, 662, 663, 664, 665, 666, 667, 668, 669, 670, 671, 672, 673, 674, 675, 676, 677, 678, 679, 680, 681, 682, 683, 684, 685, 686, 687, 688, 689, 690, 691, 692, 693, 694, 695, 696, 697, 698, 699, 700, 701, 702, 703, 704, 705, 706, 707, 708, 709, 710, 711, 712, 713, 714, 715, 716, 717, 718, 719, 720, 721, 722, 723, 724, 725, 726, 727, 728, 729, 730, 731, 732, 733, 734, 735, 736, 737, 738, 739, 740, 741, 742, 743, 744, 745, 746, 747, 748, 749, 750, 751, 752, 753, 754, 755, 756, 757, 758, 759, 760, 761, 762, 763, 764, 765, 766, 767, 768, 769, 770, 771, 772, 773, 774, 775, 776, 777, 778, 779, 780, 781, 782, 783, 784, 785, 786, 787, 788, 789, 790, 791, 792, 793, 794, 795, 796, 797, 798, 799, 800, 801, 802, 803, 804, 805, 806, 807, 808, 809, 810, 811, 812, 813, 814, 815, 816, 817, 818, 819, 820, 821, 822, 823, 824, 825, 826, 827, 828, 829, 830, 831, 832, 833, 834, 835, 836, 837, 838, 839, 840, 841, 842, 843, 844, 845, 846, 847, 848, 849, 850, 851, 852, 853, 854, 855, 856, 857, 858, 859, 860, 861, 862, 863, 864, 865, 866, 867, 868, 869, 870, 871, 872, 873, 874, 875, 876, 877, 878, 879, 880, 881, 882, 883, 884, 885, 886, 887, 888, 889, 890, 891, 892, 893, 894, 895, 896, 897, 898, 899, 900, 901, 902, 903, 904, 905, 906, 907, 908, 909, 910, 911, 912, 913, 914, 915, 916, 917, 918, 919, 920, 921, 922, 923, 924, 925, 926, 927, 928, 929, 930, 931, 932, 933, 934, 935, 936, 937, 938, 939, 940, 941, 942, 943, 944, 945, 946, 947, 948, 949, 950, 951, 952, 953, 954, 955, 956, 957, 958, 959, 960, 961, 962, 963, 964, 965, 966, 967],
      "AcquisitionTime": ["214435.440000", "214435.900000", "214436.360000", "214436.820000", "214437.280000", "214437.740000", "214438.200000", "214438.660000", "214439.120000", "214439.580000", "214440.040000", "214440.500000", "214440.960000", "214441.420000", "214441.880000", "214442.340000", "214442.800000", "214443.260000", "214443.720000", "214444.180000", "214444.640000", "214445.100000", "214445.560000", "214446.020000", "214446.480000", "214446.940000", "214447.400000", "214447.860000", "214448.320000", "214448.780000", "214449.240000", "214449.700000", "214450.160000", "214450.620000", "214451.080000", "214451.540000", "214452.000000", "214452.460000", "214452.920000", "214453.380000", "214453.840000", "214454.300000", "214454.760000", "214455.220000", "214455.680000", "214456.140000", "214456.600000", "214457.060000", "214457.520000", "214457.980000", "214458.440000", "214458.900000", "214459.360000", "214459.820000", "214500.280000", "214500.740000", "214501.200000", "214501.660000", "214502.120000", "214502.580000", "214503.040000", "214503.500000", "214503.960000", "214504.420000", "214504.880000", "214505.340000", "214505.800000", "214506.260000", "214506.720000", "214507.180000", "214507.640000", "214508.100000", "214508.560000", "214509.020000", "214509.480000", "214509.940000", "214510.400000", "214510.860000", "214511.320000", "214511.780000", "214512.240000", "214512.700000", "214513.160000", "214513.620000", "214514.080000", "214514.540000", "214515.000000", "214515.460000", "214515.920000", "214516.380000", "214516.840000", "214517.300000", "214517.760000", "214518.220000", "214518.680000", "214519.140000", "214519.600000", "214520.060000", "214520.520000", "214520.980000", "214521.440000", "214521.900000", "214522.360000", "214522.820000", "214523.280000", "214523.740000", "214524.200000", "214524.660000", "214525.120000", "214525.580000", "214526.040000", "214526.500000", "214526.960000", "214527.420000", "214527.880000", "214528.340000", "214528.800000", "214529.260000", "214529.720000", "214530.180000", "214530.640000", "214531.100000", "214531.560000", "214532.020000", "214532.480000", "214532.940000", "214533.400000", "214533.860000", "214534.320000", "214534.780000", "214535.240000", "214535.700000", "214536.160000", "214536.620000", "214537.080000", "214537.540000", "214538.000000", "214538.460000", "214538.920000", "214539.380000", "214539.840000", "214540.300000", "214540.760000", "214541.220000", "214541.680000", "214542.140000", "214542.600000", "214543.060000", "214543.520000", "214543.980000", "214544.440000", "214544.900000", "214545.360000", "214545.820000", "214546.280000", "214546.740000", "214547.200000", "214547.660000", "214548.120000", "214548.580000", "214549.040000", "214549.500000", "214549.960000", "214550.420000", "214550.880000", "214551.340000", "214551.800000", "214552.260000", "214552.720000", "214553.180000", "214553.640000", "214554.100000", "214554.560000", "214555.020000", "214555.480000", "214555.940000", "214556.400000", "214556.860000", "214557.320000", "214557.780000", "214558.240000", "214558.700000", "214559.160000", "214559.620000", "214600.080000", "214600.540000", "214601.000000", "214601.460000", "214601.920000", "214602.380000", "214602.840000", "214603.300000", "214603.760000", "214604.220000", "214604.680000", "214605.140000", "214605.600000", "214606.060000", "214606.520000", "214606.980000", "214607.440000", "214607.900000", "214608.360000", "214608.820000", "214609.280000", "214609.740000", "214610.200000", "214610.660000", "214611.120000", "214611.580000", "214612.040000", "214612.500000", "214612.960000", "214613.420000", "214613.880000", "214614.340000", "214614.800000", "214615.260000", "214615.720000", "214616.180000", "214616.640000", "214617.100000", "214617.560000", "214618.020000", "214618.480000", "214618.940000", "214619.400000", "214619.860000", "214620.320000", "214620.780000", "214621.240000", "214621.700000", "214622.160000", "214622.620000", "214623.080000", "214623.540000", "214624.000000", "214624.460000", "214624.920000", "214625.380000", "214625.840000", "214626.300000", "214626.760000", "214627.220000", "214627.680000", "214628.140000", "214628.600000", "214629.060000", "214629.520000", "214629.980000", "214630.440000", "214630.900000", "214631.360000", "214631.820000", "214632.280000", "214632.740000", "214633.200000", "214633.660000", "214634.120000", "214634.580000", "214635.040000", "214635.500000", "214635.960000", "214636.420000", "214636.880000", "214637.340000", "214637.800000", "214638.260000", "214638.720000", "214639.180000", "214639.640000", "214640.100000", "214640.560000", "214641.020000", "214641.480000", "214641.940000", "214642.400000", "214642.860000", "214643.320000", "214643.780000", "214644.240000", "214644.700000", "214645.160000", "214645.620000", "214646.080000", "214646.540000", "214647.000000", "214647.460000", "214647.920000", "214648.380000", "214648.840000", "214649.300000", "214649.760000", "214650.220000", "214650.680000", "214651.140000", "214651.600000", "214652.060000", "214652.520000", "214652.980000", "214653.440000", "214653.900000", "214654.360000", "214654.820000", "214655.280000", "214655.740000", "214656.200000", "214656.660000", "214657.120000", "214657.580000", "214658.040000", "214658.500000", "214658.960000", "214659.420000", "214659.880000", "214700.340000", "214700.800000", "214701.260000", "214701.720000", "214702.180000", "214702.640000", "214703.100000", "214703.560000", "214704.020000", "214704.480000", "214704.940000", "214705.400000", "214705.860000", "214706.320000", "214706.780000", "214707.240000", "214707.700000", "214708.160000", "214708.620000", "214709.080000", "214709.540000", "214710.000000", "214710.460000", "214710.920000", "214711.380000", "214711.840000", "214712.300000", "214712.760000", "214713.220000", "214713.680000", "214714.140000", "214714.600000", "214715.060000", "214715.520000", "214715.980000", "214716.440000", "214716.900000", "214717.360000", "214717.820000", "214718.280000", "214718.740000", "214719.200000", "214719.660000", "214720.120000", "214720.580000", "214721.040000", "214721.500000", "214721.960000", "214722.420000", "214722.880000", "214723.340000", "214723.800000", "214724.260000", "214724.720000", "214725.180000", "214725.640000", "214726.100000", "214726.560000", "214727.020000", "214727.480000", "214727.940000", "214728.400000", "214728.860000", "214729.320000", "214729.780000", "214730.240000", "214730.700000", "214731.160000", "214731.620000", "214732.080000", "214732.540000", "214733.000000", "214733.460000", "214733.920000", "214734.380000", "214734.840000", "214735.300000", "214735.760000", "214736.220000", "214736.680000", "214737.140000", "214737.600000", "214738.060000", "214738.520000", "214738.980000", "214739.440000", "214739.900000", "214740.360000", "214740.820000", "214741.280000", "214741.740000", "214742.200000", "214742.660000", "214743.120000", "214743.580000", "214744.040000", "214744.500000", "214744.960000", "214745.420000", "214745.880000", "214746.340000", "214746.800000", "214747.260000", "214747.720000", "214748.180000", "214748.640000", "214749.100000", "214749.560000", "214750.020000", "214750.480000", "214750.940000", "214751.400000", "214751.860000", "214752.320000", "214752.780000", "214753.240000", "214753.700000", "214754.160000", "214754.620000", "214755.080000", "214755.540000", "214756.000000", "214756.460000", "214756.920000", "214757.380000", "214757.840000", "214758.300000", "214758.760000", "214759.220000", "214759.680000", "214800.140000", "214800.600000", "214801.060000", "214801.520000", "214801.980000", "214802.440000", "214802.900000", "214803.360000", "214803.820000", "214804.280000", "214804.740000", "214805.200000", "214805.660000", "214806.120000", "214806.580000", "214807.040000", "214807.500000", "214807.960000", "214808.420000", "214808.880000", "214809.340000", "214809.800000", "214810.260000", "214810.720000", "214811.180000", "214811.640000", "214812.100000", "214812.560000", "214813.020000", "214813.480000", "214813.940000", "214814.400000", "214814.860000", "214815.320000", "214815.780000", "214816.240000", "214816.700000", "214817.160000", "214817.620000", "214818.080000", "214818.540000", "214819.000000", "214819.460000", "214819.920000", "214820.380000", "214820.840000", "214821.300000", "214821.760000", "214822.220000", "214822.680000", "214823.140000", "214823.600000", "214824.060000", "214824.520000", "214824.980000", "214825.440000", "214825.900000", "214826.360000", "214826.820000", "214827.280000", "214827.740000", "214828.200000", "214828.660000", "214829.120000", "214829.580000", "214830.040000", "214830.500000", "214830.960000", "214831.420000", "214831.880000", "214832.340000", "214832.800000", "214833.260000", "214833.720000", "214834.180000", "214834.640000", "214835.100000", "214835.560000", "214836.020000", "214836.480000", "214836.940000", "214837.400000", "214837.860000", "214838.320000", "214838.780000", "214839.240000", "214839.700000", "214840.160000", "214840.620000", "214841.080000", "214841.540000", "214842.000000", "214842.460000", "214842.920000", "214843.380000", "214843.840000", "214844.300000", "214844.760000", "214845.220000", "214845.680000", "214846.140000", "214846.600000", "214847.060000", "214847.520000", "214847.980000", "214848.440000", "214848.900000", "214849.360000", "214849.820000", "214850.280000", "214850.740000", "214851.200000", "214851.660000", "214852.120000", "214852.580000", "214853.040000", "214853.500000", "214853.960000", "214854.420000", "214854.880000", "214855.340000", "214855.800000", "214856.260000", "214856.720000", "214857.180000", "214857.640000", "214858.100000", "214858.560000", "214859.020000", "214859.480000", "214859.940000", "214900.400000", "214900.860000", "214901.320000", "214901.780000", "214902.240000", "214902.700000", "214903.160000", "214903.620000", "214904.080000", "214904.540000", "214905.000000", "214905.460000", "214905.920000", "214906.380000", "214906.840000", "214907.300000", "214907.760000", "214908.220000", "214908.680000", "214909.140000", "214909.600000", "214910.060000", "214910.520000", "214910.980000", "214911.440000", "214911.900000", "214912.360000", "214912.820000", "214913.280000", "214913.740000", "214914.200000", "214914.660000", "214915.120000", "214915.580000", "214916.040000", "214916.500000", "214916.960000", "214917.420000", "214917.880000", "214918.340000", "214918.800000", "214919.260000", "214919.720000", "214920.180000", "214920.640000", "214921.100000", "214921.560000", "214922.020000", "214922.480000", "214922.940000", "214923.400000", "214923.860000", "214924.320000", "214924.780000", "214925.240000", "214925.700000", "214926.160000", "214926.620000", "214927.080000", "214927.540000", "214928.000000", "214928.460000", "214928.920000", "214929.380000", "214929.840000", "214930.300000", "214930.760000", "214931.220000", "214931.680000", "214932.140000", "214932.600000", "214933.060000", "214933.520000", "214933.980000", "214934.440000", "214934.900000", "214935.360000", "214935.820000", "214936.280000", "214936.740000", "214937.200000", "214937.660000", "214938.120000", "214938.580000", "214939.040000", "214939.500000", "214939.960000", "214940.420000", "214940.880000", "214941.340000", "214941.800000", "214942.260000", "214942.720000", "214943.180000", "214943.640000", "214944.100000", "214944.560000", "214945.020000", "214945.480000", "214945.940000", "214946.400000", "214946.860000", "214947.320000", "214947.780000", "214948.240000", "214948.700000", "214949.160000", "214949.620000", "214950.080000", "214950.540000", "214951.000000", "214951.460000", "214951.920000", "214952.380000", "214952.840000", "214953.300000", "214953.760000", "214954.220000", "214954.680000", "214955.140000", "214955.600000", "214956.060000", "214956.520000", "214956.980000", "214957.440000", "214957.900000", "214958.360000", "214958.820000", "214959.280000", "214959.740000", "215000.200000", "215000.660000", "215001.120000", "215001.580000", "215002.040000", "215002.500000", "215002.960000", "215003.420000", "215003.880000", "215004.340000", "215004.800000", "215005.260000", "215005.720000", "215006.180000", "215006.640000", "215007.100000", "215007.560000", "215008.020000", "215008.480000", "215008.940000", "215009.400000", "215009.860000", "215010.320000", "215010.780000", "215011.240000", "215011.700000", "215012.160000", "215012.620000", "215013.080000", "215013.540000", "215014.000000", "215014.460000", "215014.920000", "215015.380000", "215015.840000", "215016.300000", "215016.760000", "215017.220000", "215017.680000", "215018.140000", "215018.600000", "215019.060000", "215019.520000", "215019.980000", "215020.440000", "215020.900000", "215021.360000", "215021.820000", "215022.280000", "215022.740000", "215023.200000", "215023.660000", "215024.120000", "215024.580000", "215025.040000", "215025.500000", "215025.960000", "215026.420000", "215026.880000", "215027.340000", "215027.800000", "215028.260000", "215028.720000", "215029.180000", "215029.640000", "215030.100000", "215030.560000", "215031.020000", "215031.480000", "215031.940000", "215032.400000", "215032.860000", "215033.320000", "215033.780000", "215034.240000", "215034.700000", "215035.160000", "215035.620000", "215036.080000", "215036.540000", "215037.000000", "215037.460000", "215037.920000", "215038.380000", "215038.840000", "215039.300000", "215039.760000", "215040.220000", "215040.680000", "215041.140000", "215041.600000", "215042.060000", "215042.520000", "215042.980000", "215043.440000", "215043.900000", "215044.360000", "215044.820000", "215045.280000", "215045.740000", "215046.200000", "215046.660000", "215047.120000", "215047.580000", "215048.040000", "215048.500000", "215048.960000", "215049.420000", "215049.880000", "215050.340000", "215050.800000", "215051.260000", "215051.720000", "215052.180000", "215052.640000", "215053.100000", "215053.560000", "215054.020000", "215054.480000", "215054.940000", "215055.400000", "215055.860000", "215056.320000", "215056.780000", "215057.240000", "215057.700000", "215058.160000", "215058.620000", "215059.080000", "215059.540000", "215100.000000", "215100.460000", "215100.920000", "215101.380000", "215101.840000", "215102.300000", "215102.760000", "215103.220000", "215103.680000", "215104.140000", "215104.600000", "215105.060000", "215105.520000", "215105.980000", "215106.440000", "215106.900000", "215107.360000", "215107.820000", "215108.280000", "215108.740000", "215109.200000", "215109.660000", "215110.120000", "215110.580000", "215111.040000", "215111.500000", "215111.960000", "215112.420000", "215112.880000", "215113.340000", "215113.800000", "215114.260000", "215114.720000", "215115.180000", "215115.640000", "215116.100000", "215116.560000", "215117.020000", "215117.480000", "215117.940000", "215118.400000", "215118.860000", "215119.320000", "215119.780000", "215120.240000", "215120.700000", "215121.160000", "215121.620000", "215122.080000", "215122.540000", "215123.000000", "215123.460000", "215123.920000", "215124.380000", "215124.840000", "215125.300000", "215125.760000", "215126.220000", "215126.680000", "215127.140000", "215127.600000", "215128.060000", "215128.520000", "215128.980000", "215129.440000", "215129.900000", "215130.360000", "215130.820000", "215131.280000", "215131.740000", "215132.200000", "215132.660000", "215133.120000", "215133.580000", "215134.040000", "215134.500000", "215134.960000", "215135.420000", "215135.880000", "215136.340000", "215136.800000", "215137.260000", "215137.720000", "215138.180000", "215138.640000", "215139.100000", "215139.560000", "215140.020000", "215140.480000", "215140.940000", "215141.400000", "215141.860000", "215142.320000", "215142.780000", "215143.240000", "215143.700000", "215144.160000", "215144.620000", "215145.080000", "215145.540000", "215146.000000", "215146.460000", "215146.920000", "215147.380000", "215147.840000", "215148.300000", "215148.760000", "215149.220000", "215149.680000", "215150.140000", "215150.600000", "215151.060000", "215151.520000", "215151.980000", "215152.440000", "215152.900000", "215153.360000", "215153.820000", "215154.280000", "215154.740000", "215155.200000", "215155.660000", "215156.120000", "215156.580000", "215157.040000", "215157.500000", "215157.960000", "215158.420000", "215158.880000", "215159.340000", "215159.800000"],
