{
  "AcquisitionMatrixPE": 82,
  "AcquisitionNumber": 1,
  "AcquisitionTime": "23:20:4.597500",
  "BandwidthPerPixelPhaseEncode": 24.888,
  "BaseResolution": 82,
  "BodyPartExamined": "BRAIN",
  "ConsistencyInfo": "N4_VE11E_LATEST_20181129",
  "ConversionSoftware": "dcm2niix",
  "ConversionSoftwareVersion": "v1.0.20201102",
  "DerivedVendorReportedEchoSpacing": 0.00049,
  "DeviceSerialNumber": "66112",
  "DwellTime": 2e-06,
  "EchoTime": 0.0272,
  "EchoTrainLength": 82,
  "EffectiveEchoSpacing": 0.00049,
  "FlipAngle": 44,
  "ImageComments": "Unaliased MB8/PE3",
  "ImageOrientationPatientDICOM": [0.99983, 0.0177235, 0.00513767, -0.0174521, 0.998657, -0.048786],
  "ImageType": [
    "ORIGINAL",
    "PRIMARY",
    "M",
    "MB",
    "ND",
    "NORM",
    "MOSAIC"
],
  "ImagingFrequency": 123.259,
  "InPlanePhaseEncodingDirectionDICOM": "COL",
  "InstitutionAddress": "Maynard 3,Hanover,NH,US,03755",
  "InstitutionName": "Dartmouth College - PBS",
  "InstitutionalDepartmentName": "Department",
  "MRAcquisitionType": "2D",
  "MagneticFieldStrength": 3,
  "Manufacturer": "Siemens",
  "ManufacturersModelName": "Prisma",
  "Modality": "MR",
  "MultibandAccelerationFactor": 8,
  "PartialFourier": 1,
  "PatientPosition": "HFS",
  "PercentPhaseFOV": 100,
  "PercentSampling": 100,
  "PhaseEncodingDirection": "j-",
  "PhaseEncodingSteps": 82,
  "PhaseResolution": 1,
  "PixelBandwidth": 3050,
  "ProcedureStepDescription": "Wager_Wager^1076_spacetop",
  "ProtocolName": "func_run-04_task-alignvideo_acq-ap-mb8",
  "PulseSequenceDetails": "%CustomerSeq%\\cmrr_mbep2d_bold",
  "ReceiveCoilActiveElements": "HEA;HEP",
  "ReceiveCoilName": "Head_32",
  "ReconMatrixPE": 82,
  "RepetitionTime": 0.46,
  "SAR": 0.0898837,
  "ScanOptions": "FS",
  "ScanningSequence": "EP",
  "SequenceName": "epfid2d1_82",
  "SequenceVariant": "SK\\SS",
  "SeriesDescription": "func_run-04_task-alignvideo_acq-ap-mb8",
  "SeriesNumber": 34,
  "ShimSetting": [4220, -7745, -7268, 236, -148, -66, -74, 55],
  "SliceThickness": 2.7,
  "SliceTiming": [0, 0.25, 0.0625, 0.315, 0.125, 0.3775, 0.1875, 0, 0.25, 0.0625, 0.315, 0.125, 0.3775, 0.1875, 0, 0.25, 0.0625, 0.315, 0.125, 0.3775, 0.1875, 0, 0.25, 0.0625, 0.315, 0.125, 0.3775, 0.1875, 0, 0.25, 0.0625, 0.315, 0.125, 0.3775, 0.1875, 0, 0.25, 0.0625, 0.315, 0.125, 0.3775, 0.1875, 0, 0.25, 0.0625, 0.315, 0.125, 0.3775, 0.1875, 0, 0.25, 0.0625, 0.315, 0.125, 0.3775, 0.1875],
  "SoftwareVersions": "syngo MR E11",
  "SpacingBetweenSlices": 2.7,
  "StationName": "AWP66112",
  "TaskName": "alignvideo",
  "TotalReadoutTime": 0.03969,
  "TxRefAmp": 270.639,
  "WipMemBlock": "158e769b-78cb-403d-b718-bfc20c93a511||Sequence: R016 ve11e/master r/434b28f1; Aug  7 2019 18:53:46 by eja",
  "dcmmeta_affine": [
    [-2.6824700832366943, -0.04682260751724243, 0.016187671571969986, 111.13142395019531],
    [-0.04755097255110741, 2.679323196411133, -0.13145771622657776, -85.54325103759766],
    [0.013784002512693405, 0.13088929653167725, 2.696749210357666, -80.76679229736328],
    [0.0, 0.0, 0.0, 1.0]
],
  "dcmmeta_reorient_transform": [
    [0.0, -1.0, 0.0, 81.0],
    [1.0, 0.0, 0.0, 0.0],
    [0.0, 0.0, 1.0, 0.0],
    [0.0, 0.0, 0.0, 1.0]
],
  "dcmmeta_shape": [82, 82, 56, 914],
  "dcmmeta_slice_dim": 2,
  "dcmmeta_version": 0.6,
  "global": {
    "const": {
      "AccessionNumber": "A004416",
      "AcquisitionMatrix": [82, 0, 0, 82],
      "AngioFlag": "N",
      "BitsAllocated": 16,
      "BitsStored": 16,
      "BodyPartExamined": "BRAIN",
      "Columns": 656,
      "EchoNumbers": 1,
      "EchoTime": 27.2,
      "EchoTrainLength": 82,
      "FlipAngle": 44.0,
      "HighBit": 15,
      "ImageOrientationPatient": [0.99982972565849, 0.0177235436297, 0.00513767368278, -0.01745206193, 0.99865677324805, -0.0487860100868],
      "ImagePositionPatient": [-863.76960920044, -914.09478631279, -36.555542760605],
      "ImageType": [
        "ORIGINAL",
        "PRIMARY",
        "M",
        "MB",
        "ND",
        "NORM",
        "MOSAIC"
],
      "ImagedNucleus": "1H",
      "ImagingFrequency": 123.259131,
      "InPlanePhaseEncodingDirection": "COL",
      "MRAcquisitionType": "2D",
      "MagneticFieldStrength": 3.0,
      "Manufacturer": "SIEMENS",
      "ManufacturerModelName": "Prisma",
      "Modality": "MR",
      "NumberOfAverages": 1.0,
      "NumberOfPhaseEncodingSteps": 82,
      "PercentPhaseFieldOfView": 100.0,
      "PercentSampling": 100.0,
      "PerformedProcedureStepStartTime": "212421.394000",
      "PhotometricInterpretation": "MONOCHROME2",
      "PixelBandwidth": 3050.0,
      "PixelRepresentation": 0,
      "PixelSpacing": [2.6829268932343, 2.6829268932343],
      "ProtocolName": "func_run-04_task-alignvideo_acq-ap-mb8",
      "RepetitionTime": 460.0,
      "Rows": 656,
      "SAR": 0.08988366352728,
      "SamplesPerPixel": 1,
      "ScanOptions": "FS",
      "ScanningSequence": "EP",
      "SequenceName": "epfid2d1_82",
      "SequenceVariant": [
        "SK",
        "SS"
],
      "SeriesDescription": "func_run-04_task-alignvideo_acq-ap-mb8",
      "SeriesNumber": 34,
      "SeriesTime": "232021.142000",
      "SliceLocation": -75.838341606087,
      "SliceThickness": 2.7000000476837,
      "SmallestImagePixelValue": 0,
      "SoftwareVersions": "syngo MR E11",
      "SpacingBetweenSlices": 2.7000000151505,
      "SpecificCharacterSet": "ISO_IR 100",
      "StudyID": "1",
      "StudyTime": "212421.175000",
      "TransmitCoilName": "Body",
      "VariableFlipAngleFlag": "N",
      "WindowCenterWidthExplanation": "Algo1"
    },
    "slices": {}
  },
  "time": {
    "samples": {
      "AcquisitionNumber": [1, 2, 3, 4, 5, 6, 7, 8, 9, 10, 11, 12, 13, 14, 15, 16, 17, 18, 19, 20, 21, 22, 23, 24, 25, 26, 27, 28, 29, 30, 31, 32, 33, 34, 35, 36, 37, 38, 39, 40, 41, 42, 43, 44, 45, 46, 47, 48, 49, 50, 51, 52, 53, 54, 55, 56, 57, 58, 59, 60, 61, 62, 63, 64, 65, 66, 67, 68, 69, 70, 71, 72, 73, 74, 75, 76, 77, 78, 79, 80, 81, 82, 83, 84, 85, 86, 87, 88, 89, 90, 91, 92, 93, 94, 95, 96, 97, 98, 99, 100, 101, 102, 103, 104, 105, 106, 107, 108, 109, 110, 111, 112, 113, 114, 115, 116, 117, 118, 119, 120, 121, 122, 123, 124, 125, 126, 127, 128, 129, 130, 131, 132, 133, 134, 135, 136, 137, 138, 139, 140, 141, 142, 143, 144, 145, 146, 147, 148, 149, 150, 151, 152, 153, 154, 155, 156, 157, 158, 159, 160, 161, 162, 163, 164, 165, 166, 167, 168, 169, 170, 171, 172, 173, 174, 175, 176, 177, 178, 179, 180, 181, 182, 183, 184, 185, 186, 187, 188, 189, 190, 191, 192, 193, 194, 195, 196, 197, 198, 199, 200, 201, 202, 203, 204, 205, 206, 207, 208, 209, 210, 211, 212, 213, 214, 215, 216, 217, 218, 219, 220, 221, 222, 223, 224, 225, 226, 227, 228, 229, 230, 231, 232, 233, 234, 235, 236, 237, 238, 239, 240, 241, 242, 243, 244, 245, 246, 247, 248, 249, 250, 251, 252, 253, 254, 255, 256, 257, 258, 259, 260, 261, 262, 263, 264, 265, 266, 267, 268, 269, 270, 271, 272, 273, 274, 275, 276, 277, 278, 279, 280, 281, 282, 283, 284, 285, 286, 287, 288, 289, 290, 291, 292, 293, 294, 295, 296, 297, 298, 299, 300, 301, 302, 303, 304, 305, 306, 307, 308, 309, 310, 311, 312, 313, 314, 315, 316, 317, 318, 319, 320, 321, 322, 323, 324, 325, 326, 327, 328, 329, 330, 331, 332, 333, 334, 335, 336, 337, 338, 339, 340, 341, 342, 343, 344, 345, 346, 347, 348, 349, 350, 351, 352, 353, 354, 355, 356, 357, 358, 359, 360, 361, 362, 363, 364, 365, 366, 367, 368, 369, 370, 371, 372, 373, 374, 375, 376, 377, 378, 379, 380, 381, 382, 383, 384, 385, 386, 387, 388, 389, 390, 391, 392, 393, 394, 395, 396, 397, 398, 399, 400, 401, 402, 403, 404, 405, 406, 407, 408, 409, 410, 411, 412, 413, 414, 415, 416, 417, 418, 419, 420, 421, 422, 423, 424, 425, 426, 427, 428, 429, 430, 431, 432, 433, 434, 435, 436, 437, 438, 439, 440, 441, 442, 443, 444, 445, 446, 447, 448, 449, 450, 451, 452, 453, 454, 455, 456, 457, 458, 459, 460, 461, 462, 463, 464, 465, 466, 467, 468, 469, 470, 471, 472, 473, 474, 475, 476, 477, 478, 479, 480, 481, 482, 483, 484, 485, 486, 487, 488, 489, 490, 491, 492, 493, 494, 495, 496, 497, 498, 499, 500, 501, 502, 503, 504, 505, 506, 507, 508, 509, 510, 511, 512, 513, 514, 515, 516, 517, 518, 519, 520, 521, 522, 523, 524, 525, 526, 527, 528, 529, 530, 531, 532, 533, 534, 535, 536, 537, 538, 539, 540, 541, 542, 543, 544, 545, 546, 547, 548, 549, 550, 551, 552, 553, 554, 555, 556, 557, 558, 559, 560, 561, 562, 563, 564, 565, 566, 567, 568, 569, 570, 571, 572, 573, 574, 575, 576, 577, 578, 579, 580, 581, 582, 583, 584, 585, 586, 587, 588, 589, 590, 591, 592, 593, 594, 595, 596, 597, 598, 599, 600, 601, 602, 603, 604, 605, 606, 607, 608, 609, 610, 611, 612, 613, 614, 615, 616, 617, 618, 619, 620, 621, 622, 623, 624, 625, 626, 627, 628, 629, 630, 631, 632, 633, 634, 635, 636, 637, 638, 639, 640, 641, 642, 643, 644, 645, 646, 647, 648, 649, 650, 651, 652, 653, 654, 655, 656, 657, 658, 659, 660, 661, 662, 663, 664, 665, 666, 667, 668, 669, 670, 671, 672, 673, 674, 675, 676, 677, 678, 679, 680, 681, 682, 683, 684, 685, 686, 687, 688, 689, 690, 691, 692, 693, 694, 695, 696, 697, 698, 699, 700, 701, 702, 703, 704, 705, 706, 707, 708, 709, 710, 711, 712, 713, 714, 715, 716, 717, 718, 719, 720, 721, 722, 723, 724, 725, 726, 727, 728, 729, 730, 731, 732, 733, 734, 735, 736, 737, 738, 739, 740, 741, 742, 743, 744, 745, 746, 747, 748, 749, 750, 751, 752, 753, 754, 755, 756, 757, 758, 759, 760, 761, 762, 763, 764, 765, 766, 767, 768, 769, 770, 771, 772, 773, 774, 775, 776, 777, 778, 779, 780, 781, 782, 783, 784, 785, 786, 787, 788, 789, 790, 791, 792, 793, 794, 795, 796, 797, 798, 799, 800, 801, 802, 803, 804, 805, 806, 807, 808, 809, 810, 811, 812, 813, 814, 815, 816, 817, 818, 819, 820, 821, 822, 823, 824, 825, 826, 827, 828, 829, 830, 831, 832, 833, 834, 835, 836, 837, 838, 839, 840, 841, 842, 843, 844, 845, 846, 847, 848, 849, 850, 851, 852, 853, 854, 855, 856, 857, 858, 859, 860, 861, 862, 863, 864, 865, 866, 867, 868, 869, 870, 871, 872, 873, 874, 875, 876, 877, 878, 879, 880, 881, 882, 883, 884, 885, 886, 887, 888, 889, 890, 891, 892, 893, 894, 895, 896, 897, 898, 899, 900, 901, 902, 903, 904, 905, 906, 907, 908, 909, 910, 911, 912, 913, 914],
      "AcquisitionTime": ["232004.597500", "232005.057500", "232005.517500", "232005.977500", "232006.437500", "232006.897500", "232007.357500", "232007.817500", "232008.277500", "232008.737500", "232009.197500", "232009.657500", "232010.117500", "232010.577500", "232011.037500", "232011.497500", "232011.957500", "232012.417500", "232012.877500", "232013.337500", "232013.797500", "232014.257500", "232014.717500", "232015.177500", "232015.637500", "232016.097500", "232016.557500", "232017.017500", "232017.477500", "232017.937500", "232018.397500", "232018.857500", "232019.317500", "232019.777500", "232020.237500", "232020.697500", "232021.157500", "232021.617500", "232022.077500", "232022.537500", "232022.997500", "232023.457500", "232023.917500", "232024.377500", "232024.837500", "232025.297500", "232025.757500", "232026.217500", "232026.677500", "232027.137500", "232027.597500", "232028.057500", "232028.517500", "232028.977500", "232029.437500", "232029.897500", "232030.357500", "232030.817500", "232031.277500", "232031.737500", "232032.197500", "232032.657500", "232033.117500", "232033.577500", "232034.037500", "232034.497500", "232034.957500", "232035.417500", "232035.877500", "232036.337500", "232036.797500", "232037.257500", "232037.717500", "232038.177500", "232038.637500", "232039.097500", "232039.557500", "232040.017500", "232040.477500", "232040.937500", "232041.397500", "232041.857500", "232042.317500", "232042.777500", "232043.237500", "232043.697500", "232044.157500", "232044.617500", "232045.077500", "232045.537500", "232045.997500", "232046.457500", "232046.917500", "232047.377500", "232047.837500", "232048.297500", "232048.757500", "232049.217500", "232049.677500", "232050.137500", "232050.597500", "232051.057500", "232051.517500", "232051.977500", "232052.437500", "232052.897500", "232053.357500", "232053.817500", "232054.277500", "232054.737500", "232055.197500", "232055.657500", "232056.117500", "232056.577500", "232057.037500", "232057.497500", "232057.957500", "232058.417500", "232058.877500", "232059.337500", "232059.797500", "232100.257500", "232100.717500", "232101.177500", "232101.637500", "232102.097500", "232102.557500", "232103.017500", "232103.477500", "232103.937500", "232104.397500", "232104.857500", "232105.317500", "232105.777500", "232106.237500", "232106.697500", "232107.157500", "232107.617500", "232108.077500", "232108.537500", "232108.997500", "232109.457500", "232109.917500", "232110.377500", "232110.837500", "232111.297500", "232111.757500", "232112.217500", "232112.677500", "232113.137500", "232113.597500", "232114.057500", "232114.517500", "232114.977500", "232115.437500", "232115.897500", "232116.357500", "232116.817500", "232117.277500", "232117.737500", "232118.197500", "232118.657500", "232119.117500", "232119.577500", "232120.037500", "232120.497500", "232120.957500", "232121.417500", "232121.877500", "232122.337500", "232122.797500", "232123.257500", "232123.717500", "232124.177500", "232124.637500", "232125.097500", "232125.557500", "232126.017500", "232126.477500", "232126.937500", "232127.397500", "232127.857500", "232128.317500", "232128.777500", "232129.237500", "232129.697500", "232130.157500", "232130.617500", "232131.077500", "232131.537500", "232131.997500", "232132.457500", "232132.917500", "232133.377500", "232133.837500", "232134.297500", "232134.757500", "232135.217500", "232135.677500", "232136.137500", "232136.597500", "232137.057500", "232137.517500", "232137.977500", "232138.437500", "232138.897500", "232139.357500", "232139.817500", "232140.277500", "232140.737500", "232141.197500", "232141.657500", "232142.117500", "232142.577500", "232143.037500", "232143.497500", "232143.957500", "232144.417500", "232144.877500", "232145.337500", "232145.797500", "232146.257500", "232146.717500", "232147.177500", "232147.637500", "232148.097500", "232148.557500", "232149.017500", "232149.477500", "232149.937500", "232150.397500", "232150.857500", "232151.317500", "232151.777500", "232152.237500", "232152.697500", "232153.157500", "232153.617500", "232154.077500", "232154.537500", "232154.997500", "232155.457500", "232155.917500", "232156.377500", "232156.837500", "232157.297500", "232157.757500", "232158.217500", "232158.677500", "232159.137500", "232159.597500", "232200.057500", "232200.517500", "232200.977500", "232201.437500", "232201.897500", "232202.357500", "232202.817500", "232203.277500", "232203.737500", "232204.197500", "232204.657500", "232205.117500", "232205.577500", "232206.037500", "232206.497500", "232206.957500", "232207.417500", "232207.877500", "232208.337500", "232208.797500", "232209.257500", "232209.717500", "232210.177500", "232210.637500", "232211.097500", "232211.557500", "232212.017500", "232212.477500", "232212.937500", "232213.397500", "232213.857500", "232214.317500", "232214.777500", "232215.237500", "232215.697500", "232216.157500", "232216.617500", "232217.077500", "232217.537500", "232217.997500", "232218.457500", "232218.917500", "232219.377500", "232219.837500", "232220.297500", "232220.757500", "232221.217500", "232221.677500", "232222.137500", "232222.597500", "232223.057500", "232223.517500", "232223.977500", "232224.437500", "232224.897500", "232225.357500", "232225.817500", "232226.277500", "232226.737500", "232227.197500", "232227.657500", "232228.117500", "232228.577500", "232229.037500", "232229.497500", "232229.957500", "232230.417500", "232230.877500", "232231.337500", "232231.797500", "232232.257500", "232232.717500", "232233.177500", "232233.637500", "232234.097500", "232234.557500", "232235.017500", "232235.477500", "232235.937500", "232236.397500", "232236.857500", "232237.317500", "232237.777500", "232238.237500", "232238.697500", "232239.157500", "232239.617500", "232240.077500", "232240.537500", "232240.997500", "232241.457500", "232241.917500", "232242.377500", "232242.837500", "232243.297500", "232243.757500", "232244.217500", "232244.677500", "232245.137500", "232245.597500", "232246.057500", "232246.517500", "232246.977500", "232247.437500", "232247.897500", "232248.357500", "232248.817500", "232249.277500", "232249.737500", "232250.197500", "232250.657500", "232251.117500", "232251.577500", "232252.037500", "232252.497500", "232252.957500", "232253.417500", "232253.877500", "232254.337500", "232254.797500", "232255.257500", "232255.717500", "232256.177500", "232256.637500", "232257.097500", "232257.557500", "232258.017500", "232258.477500", "232258.937500", "232259.397500", "232259.857500", "232300.317500", "232300.777500", "232301.237500", "232301.697500", "232302.157500", "232302.617500", "232303.077500", "232303.537500", "232303.997500", "232304.457500", "232304.917500", "232305.377500", "232305.837500", "232306.297500", "232306.757500", "232307.217500", "232307.677500", "232308.137500", "232308.597500", "232309.057500", "232309.517500", "232309.977500", "232310.437500", "232310.897500", "232311.357500", "232311.817500", "232312.277500", "232312.737500", "232313.197500", "232313.657500", "232314.117500", "232314.577500", "232315.037500", "232315.497500", "232315.957500", "232316.417500", "232316.877500", "232317.337500", "232317.797500", "232318.257500", "232318.717500", "232319.177500", "232319.637500", "232320.097500", "232320.557500", "232321.017500", "232321.477500", "232321.937500", "232322.397500", "232322.857500", "232323.317500", "232323.777500", "232324.237500", "232324.697500", "232325.157500", "232325.617500", "232326.077500", "232326.537500", "232326.997500", "232327.457500", "232327.917500", "232328.377500", "232328.837500", "232329.297500", "232329.757500", "232330.217500", "232330.677500", "232331.137500", "232331.597500", "232332.057500", "232332.517500", "232332.977500", "232333.437500", "232333.897500", "232334.357500", "232334.817500", "232335.277500", "232335.737500", "232336.197500", "232336.657500", "232337.117500", "232337.577500", "232338.037500", "232338.497500", "232338.957500", "232339.417500", "232339.877500", "232340.337500", "232340.797500", "232341.257500", "232341.717500", "232342.177500", "232342.637500", "232343.097500", "232343.557500", "232344.017500", "232344.477500", "232344.937500", "232345.397500", "232345.857500", "232346.317500", "232346.777500", "232347.237500", "232347.697500", "232348.157500", "232348.617500", "232349.077500", "232349.537500", "232349.997500", "232350.457500", "232350.917500", "232351.377500", "232351.837500", "232352.297500", "232352.757500", "232353.217500", "232353.677500", "232354.137500", "232354.597500", "232355.057500", "232355.517500", "232355.977500", "232356.437500", "232356.897500", "232357.357500", "232357.817500", "232358.277500", "232358.737500", "232359.197500", "232359.657500", "232400.117500", "232400.577500", "232401.037500", "232401.497500", "232401.957500", "232402.417500", "232402.877500", "232403.337500", "232403.797500", "232404.257500", "232404.717500", "232405.177500", "232405.637500", "232406.097500", "232406.557500", "232407.017500", "232407.477500", "232407.937500", "232408.397500", "232408.857500", "232409.317500", "232409.777500", "232410.237500", "232410.697500", "232411.157500", "232411.617500", "232412.077500", "232412.537500", "232412.997500", "232413.457500", "232413.917500", "232414.377500", "232414.837500", "232415.297500", "232415.757500", "232416.217500", "232416.677500", "232417.137500", "232417.597500", "232418.057500", "232418.517500", "232418.977500", "232419.437500", "232419.897500", "232420.357500", "232420.817500", "232421.277500", "232421.737500", "232422.197500", "232422.657500", "232423.117500", "232423.577500", "232424.037500", "232424.497500", "232424.957500", "232425.417500", "232425.877500", "232426.337500", "232426.797500", "232427.257500", "232427.717500", "232428.177500", "232428.637500", "232429.097500", "232429.557500", "232430.017500", "232430.477500", "232430.937500", "232431.397500", "232431.857500", "232432.317500", "232432.777500", "232433.237500", "232433.697500", "232434.157500", "232434.617500", "232435.077500", "232435.537500", "232435.997500", "232436.457500", "232436.917500", "232437.377500", "232437.837500", "232438.297500", "232438.757500", "232439.217500", "232439.677500", "232440.137500", "232440.597500", "232441.057500", "232441.517500", "232441.977500", "232442.437500", "232442.897500", "232443.357500", "232443.817500", "232444.277500", "232444.737500", "232445.197500", "232445.657500", "232446.117500", "232446.577500", "232447.037500", "232447.497500", "232447.957500", "232448.417500", "232448.877500", "232449.337500", "232449.797500", "232450.257500", "232450.717500", "232451.177500", "232451.637500", "232452.097500", "232452.557500", "232453.017500", "232453.477500", "232453.937500", "232454.397500", "232454.857500", "232455.317500", "232455.777500", "232456.237500", "232456.697500", "232457.157500", "232457.617500", "232458.077500", "232458.537500", "232458.997500", "232459.457500", "232459.917500", "232500.377500", "232500.837500", "232501.297500", "232501.757500", "232502.217500", "232502.677500", "232503.137500", "232503.597500", "232504.057500", "232504.517500", "232504.977500", "232505.437500", "232505.897500", "232506.357500", "232506.817500", "232507.277500", "232507.737500", "232508.197500", "232508.657500", "232509.117500", "232509.577500", "232510.037500", "232510.497500", "232510.957500", "232511.417500", "232511.877500", "232512.337500", "232512.797500", "232513.257500", "232513.717500", "232514.177500", "232514.637500", "232515.097500", "232515.557500", "232516.017500", "232516.477500", "232516.937500", "232517.397500", "232517.857500", "232518.317500", "232518.777500", "232519.237500", "232519.697500", "232520.157500", "232520.617500", "232521.077500", "232521.537500", "232521.997500", "232522.457500", "232522.917500", "232523.377500", "232523.837500", "232524.297500", "232524.757500", "232525.217500", "232525.677500", "232526.137500", "232526.597500", "232527.057500", "232527.517500", "232527.977500", "232528.437500", "232528.897500", "232529.357500", "232529.817500", "232530.277500", "232530.737500", "232531.197500", "232531.657500", "232532.117500", "232532.577500", "232533.037500", "232533.497500", "232533.957500", "232534.417500", "232534.877500", "232535.337500", "232535.797500", "232536.257500", "232536.717500", "232537.177500", "232537.637500", "232538.097500", "232538.557500", "232539.017500", "232539.477500", "232539.937500", "232540.397500", "232540.857500", "232541.317500", "232541.777500", "232542.237500", "232542.697500", "232543.157500", "232543.617500", "232544.077500", "232544.537500", "232544.997500", "232545.457500", "232545.917500", "232546.377500", "232546.837500", "232547.297500", "232547.757500", "232548.217500", "232548.677500", "232549.137500", "232549.597500", "232550.057500", "232550.517500", "232550.977500", "232551.437500", "232551.897500", "232552.357500", "232552.817500", "232553.277500", "232553.737500", "232554.197500", "232554.657500", "232555.117500", "232555.577500", "232556.037500", "232556.497500", "232556.957500", "232557.417500", "232557.877500", "232558.337500", "232558.797500", "232559.257500", "232559.717500", "232600.177500", "232600.637500", "232601.097500", "232601.557500", "232602.017500", "232602.477500", "232602.937500", "232603.397500", "232603.857500", "232604.317500", "232604.777500", "232605.237500", "232605.697500", "232606.157500", "232606.617500", "232607.077500", "232607.537500", "232607.997500", "232608.457500", "232608.917500", "232609.377500", "232609.837500", "232610.297500", "232610.757500", "232611.217500", "232611.677500", "232612.137500", "232612.597500", "232613.057500", "232613.517500", "232613.977500", "232614.437500", "232614.897500", "232615.357500", "232615.817500", "232616.277500", "232616.737500", "232617.197500", "232617.657500", "232618.117500", "232618.577500", "232619.037500", "232619.497500", "232619.957500", "232620.417500", "232620.877500", "232621.337500", "232621.797500", "232622.257500", "232622.717500", "232623.177500", "232623.637500", "232624.097500", "232624.557500", "232625.017500", "232625.477500", "232625.937500", "232626.397500", "232626.857500", "232627.317500", "232627.777500", "232628.237500", "232628.697500", "232629.157500", "232629.617500", "232630.077500", "232630.537500", "232630.997500", "232631.457500", "232631.917500", "232632.377500", "232632.837500", "232633.297500", "232633.757500", "232634.217500", "232634.677500", "232635.137500", "232635.597500", "232636.057500", "232636.517500", "232636.977500", "232637.437500", "232637.897500", "232638.357500", "232638.817500", "232639.277500", "232639.737500", "232640.197500", "232640.657500", "232641.117500", "232641.577500", "232642.037500", "232642.497500", "232642.957500", "232643.417500", "232643.877500", "232644.337500", "232644.797500", "232645.257500", "232645.717500", "232646.177500", "232646.637500", "232647.097500", "232647.557500", "232648.017500", "232648.477500", "232648.937500", "232649.397500", "232649.857500", "232650.317500", "232650.777500", "232651.237500", "232651.697500", "232652.157500", "232652.617500", "232653.077500", "232653.537500", "232653.997500", "232654.457500", "232654.917500", "232655.377500", "232655.837500", "232656.297500", "232656.757500", "232657.217500", "232657.677500", "232658.137500", "232658.597500", "232659.057500", "232659.517500", "232659.977500", "232700.437500", "232700.897500", "232701.357500", "232701.817500", "232702.277500", "232702.737500", "232703.197500", "232703.657500", "232704.117500", "232704.577500"],
