{
  "AcquisitionMatrixPE": 140,
  "AcquisitionNumber": 1,
  "AcquisitionTime": "13:27:43.080000",
  "BandwidthPerPixelPhaseEncode": 10.352,
  "BaseResolution": 140,
  "BodyPartExamined": "BRAIN",
  "ConsistencyInfo": "N4_VE11E_LATEST_20181129",
  "ConversionSoftware": "dcm2niix",
  "ConversionSoftwareVersion": "v1.0.20201102",
  "DerivedVendorReportedEchoSpacing": 0.000689998,
  "DeviceSerialNumber": "66112",
  "DiffusionScheme": "Monopolar",
  "DwellTime": 2.1e-06,
  "EchoTime": 0.0884,
  "EchoTrainLength": 105,
  "EffectiveEchoSpacing": 0.000689998,
  "FlipAngle": 90,
  "ImageComments": "Unaliased MB3/PE3 SENSE1",
  "ImageOrientationPatientDICOM": [0.998393, -0.0566685, 0.000209212, 0.0558188, 0.984046, 0.168932],
  "ImageType": [
    "ORIGINAL",
    "PRIMARY",
    "DIFFUSION",
    "NONE",
    "MB",
    "ND",
    "MOSAIC"
],
  "ImagingFrequency": 123.252,
  "InPlanePhaseEncodingDirectionDICOM": "COL",
  "InstitutionAddress": "Maynard 3,Hanover,NH,US,03755",
  "InstitutionName": "Dartmouth College - PBS",
  "InstitutionalDepartmentName": "Department",
  "MRAcquisitionType": "2D",
  "MagneticFieldStrength": 3,
  "Manufacturer": "Siemens",
  "ManufacturersModelName": "Prisma",
  "Modality": "MR",
  "MultibandAccelerationFactor": 3,
  "PartialFourier": 0.75,
  "PatientPosition": "HFS",
  "PercentPhaseFOV": 100,
  "PercentSampling": 100,
  "PhaseEncodingDirection": "j-",
  "PhaseEncodingSteps": 105,
  "PhaseResolution": 1,
  "PixelBandwidth": 1700,
  "ProcedureStepDescription": "Wager_Wager^1076_spacetop",
  "ProtocolName": "dwi_acq-96dir-6b0-mb",
  "PulseSequenceDetails": "%CustomerSeq%\\cmrr_mbep2d_diff",
  "ReceiveCoilActiveElements": "HEA;HEP",
  "ReceiveCoilName": "Head_32",
  "ReconMatrixPE": 140,
  "RepetitionTime": 4.11,
  "SAR": 0.230147,
  "ScanOptions": "PFP\\FS",
  "ScanningSequence": "EP",
  "SequenceName": "ep_b5#1",
  "SequenceVariant": "SK\\SS",
  "SeriesDescription": "dwi_acq-96dir-6b0-mb",
  "SeriesNumber": 8,
  "ShimSetting": [4151, -7743, -7298, 779, -42, -8, 81, 79],
  "SliceThickness": 1.7,
  "SliceTiming": [0, 2.12, 0.1525, 2.2725, 0.3025, 2.425, 0.455, 2.575, 0.6075, 2.7275, 0.7575, 2.8775, 0.91, 3.03, 1.06, 3.1825, 1.2125, 3.3325, 1.3625, 3.485, 1.515, 3.635, 1.6675, 3.7875, 1.8175, 3.94, 1.97, 0, 2.12, 0.1525, 2.2725, 0.3025, 2.425, 0.455, 2.575, 0.6075, 2.7275, 0.7575, 2.8775, 0.91, 3.03, 1.06, 3.1825, 1.2125, 3.3325, 1.3625, 3.485, 1.515, 3.635, 1.6675, 3.7875, 1.8175, 3.94, 1.97, 0, 2.12, 0.1525, 2.2725, 0.3025, 2.425, 0.455, 2.575, 0.6075, 2.7275, 0.7575, 2.8775, 0.91, 3.03, 1.06, 3.1825, 1.2125, 3.3325, 1.3625, 3.485, 1.515, 3.635, 1.6675, 3.7875, 1.8175, 3.94, 1.97],
  "SoftwareVersions": "syngo MR E11",
  "SpacingBetweenSlices": 1.7,
  "StationName": "AWP66112",
  "TotalReadoutTime": 0.0959097,
  "TxRefAmp": 248.643,
  "WipMemBlock": "d6fa629d-9cbd-4e1e-92e3-6c70134ea6d0||Sequence: R016 ve11e/master r/434b28f1; Aug  7 2019 19:06:17 by eja",
  "dcmmeta_affine": [
    [-1.7115309238433838, 0.09568936377763748, 0.016624324023723602, 114.27745056152344],
    [0.09714606404304504, 1.6869356632232666, 0.2867033779621124, -105.28219604492188],
    [0.0003586495586205274, -0.2895980179309845, 1.6755670309066772, -50.9898567199707],
    [0.0, 0.0, 0.0, 1.0]
],
  "dcmmeta_reorient_transform": [
    [0.0, -1.0, 0.0, 139.0],
    [1.0, 0.0, 0.0, 0.0],
    [0.0, 0.0, 1.0, 0.0],
    [0.0, 0.0, 0.0, 1.0]
],
  "dcmmeta_shape": [140, 140, 81, 103],
  "dcmmeta_slice_dim": 2,
  "dcmmeta_version": 0.6,
  "global": {
    "const": {
      "AccessionNumber": "A003921",
      "AcquisitionMatrix": [140, 0, 0, 140],
      "AngioFlag": "N",
      "BitsAllocated": 16,
      "BitsStored": 16,
      "BodyPartExamined": "BRAIN",
      "Columns": 1260,
      "EchoNumbers": 1,
      "EchoTime": 88.4,
      "EchoTrainLength": 105,
      "FlipAngle": 90.0,
      "HighBit": 15,
      "ImageOrientationPatient": [0.99839302533111, -0.0566685380122, 0.00020921224569, 0.05581879478274, 0.98404582208707, 0.16893218219742],
      "ImagePositionPatient": [-1139.6216277376, -1019.4840722095, -253.61972166823],
      "ImageType": [
        "ORIGINAL",
        "PRIMARY",
        "DIFFUSION",
        "NONE",
        "MB",
        "ND",
        "MOSAIC"
],
      "ImagedNucleus": "1H",
      "ImagingFrequency": 123.252201,
      "InPlanePhaseEncodingDirection": "COL",
      "MRAcquisitionType": "2D",
      "MagneticFieldStrength": 3.0,
      "Manufacturer": "SIEMENS",
      "ManufacturerModelName": "Prisma",
      "Modality": "MR",
      "NumberOfAverages": 1.0,
      "NumberOfPhaseEncodingSteps": 105,
      "PercentPhaseFieldOfView": 100.0,
      "PercentSampling": 100.0,
      "PerformedProcedureStepStartTime": "130822.597000",
      "PhotometricInterpretation": "MONOCHROME2",
      "PixelBandwidth": 1700.0,
      "PixelRepresentation": 0,
      "PixelSpacing": [1.7142857313156, 1.7142857313156],
      "ProtocolName": "dwi_acq-96dir-6b0-mb",
      "RepetitionTime": 4110.0,
      "Rows": 1260,
      "SAR": 0.23014746515269,
      "SamplesPerPixel": 1,
      "ScanOptions": [
        "PFP",
        "FS"
],
      "ScanningSequence": "EP",
      "SequenceVariant": [
        "SK",
        "SS"
],
      "SeriesDescription": "dwi_acq-96dir-6b0-mb",
      "SeriesNumber": 8,
      "SeriesTime": "132917.825000",
      "SliceLocation": -66.895230938344,
      "SliceThickness": 1.7000000476837,
      "SmallestImagePixelValue": 0,
      "SoftwareVersions": "syngo MR E11",
      "SpacingBetweenSlices": 1.700000039177,
      "SpecificCharacterSet": "ISO_IR 100",
      "StudyID": "1",
      "StudyTime": "130822.466000",
      "TransmitCoilName": "Body",
      "VariableFlipAngleFlag": "N",
      "WindowCenterWidthExplanation": "Algo1"
    },
    "slices": {}
  },
  "time": {
    "samples": {
      "AcquisitionNumber": [1, 2, 3, 4, 5, 6, 7, 8, 9, 10, 11, 12, 13, 14, 15, 16, 17, 18, 19, 20, 21, 22, 23, 24, 25, 26, 27, 28, 29, 30, 31, 32, 33, 34, 35, 36, 37, 38, 39, 40, 41, 42, 43, 44, 45, 46, 47, 48, 49, 50, 51, 52, 53, 54, 55, 56, 57, 58, 59, 60, 61, 62, 63, 64, 65, 66, 67, 68, 69, 70, 71, 72, 73, 74, 75, 76, 77, 78, 79, 80, 81, 82, 83, 84, 85, 86, 87, 88, 89, 90, 91, 92, 93, 94, 95, 96, 97, 98, 99, 100, 101, 102, 103],
      "AcquisitionTime": ["132743.080000", "132747.190000", "132751.300000", "132755.410000", "132759.520000", "132803.630000", "132807.740000", "132811.850000", "132815.960000", "132820.070000", "132824.180000", "132828.290000", "132832.400000", "132836.510000", "132840.620000", "132844.730000", "132848.840000", "132852.950000", "132857.060000", "132901.170000", "132905.280000", "132909.390000", "132913.500000", "132917.610000", "132921.720000", "132925.830000", "132929.940000", "132934.050000", "132938.160000", "132942.270000", "132946.380000", "132950.490000", "132954.600000", "132958.710000", "133002.820000", "133006.930000", "133011.040000", "133015.150000", "133019.260000", "133023.370000", "133027.480000", "133031.590000", "133035.700000", "133039.810000", "133043.920000", "133048.030000", "133052.140000", "133056.250000", "133100.360000", "133104.470000", "133108.580000", "133112.690000", "133116.800000", "133120.910000", "133125.020000", "133129.130000", "133133.240000", "133137.350000", "133141.460000", "133145.570000", "133149.680000", "133153.790000", "133157.900000", "133202.010000", "133206.120000", "133210.230000", "133214.340000", "133218.450000", "133222.560000", "133226.670000", "133230.780000", "133234.890000", "133239.000000", "133243.110000", "133247.220000", "133251.330000", "133255.440000", "133259.550000", "133303.660000", "133307.770000", "133311.880000", "133315.990000", "133320.100000", "133324.210000", "133328.320000", "133332.430000", "133336.540000", "133340.650000", "133344.760000", "133348.870000", "133352.980000", "133357.090000", "133401.200000", "133405.310000", "133409.420000", "133413.530000", "133417.640000", "133421.750000", "133425.860000", "133429.970000", "133434.080000", "133438.190000", "133442.300000"],
      "ContentTime": ["132917.829000", "132917.833000", "132917.841000", "132917.844000", "132917.847000", "132917.850000", "132917.853000", "132917.856000", "132917.859000", "132917.862000", "132917.865000", "132917.868000", "132917.871000", "132917.875000", "132917.879000", "132917.882000", "132917.885000", "132917.888000", "132917.891000", "132917.894000", "132917.897000", "132917.900000", "133037.825000", "133037.828000", "133037.831000", "133037.834000", "133037.837000", "133037.840000", "133037.843000", "133037.846000", "133037.849000", "133037.852000", "133037.855000", "133037.858000", "133037.861000", "133037.864000", "133037.867000", "133037.870000", "133037.873000", "133037.877000", "133037.880000", "133037.883000", "133217.825000", "133217.828000", "133217.831000", "133217.834000", "133217.837000", "133217.840000", "133217.843000", "133217.846000", "133217.849000", "133217.852000", "133217.855000", "133217.858000", "133217.861000", "133217.864000", "133217.867000", "133217.875000", "133217.878000", "133217.881000", "133217.884000", "133217.887000", "133217.890000", "133217.893000", "133217.896000", "133217.899000", "133237.825000", "133237.828000", "133237.831000", "133237.834000", "133237.837000", "133357.824000", "133357.827000", "133357.830000", "133357.833000", "133357.840000", "133357.843000", "133357.846000", "133357.849000", "133357.852000", "133357.855000", "133357.858000", "133357.861000", "133357.864000", "133357.867000", "133357.870000", "133357.873000", "133357.876000", "133357.879000", "133357.882000", "133357.885000", "133446.597000", "133446.601000", "133446.604000", "133446.607000", "133446.610000", "133446.613000", "133446.616000", "133446.619000", "133446.622000", "133446.625000", "133446.628000", "133446.631000"],
      "InstanceCreationTime": ["132917.829000", "132917.833000", "132917.841000", "132917.844000", "132917.847000", "132917.850000", "132917.853000", "132917.856000", "132917.859000", "132917.862000", "132917.865000", "132917.868000", "132917.871000", "132917.875000", "132917.879000", "132917.882000", "132917.885000", "132917.888000", "132917.891000", "132917.894000", "132917.897000", "132917.900000", "133037.825000", "133037.828000", "133037.831000", "133037.834000", "133037.837000", "133037.840000", "133037.843000", "133037.846000", "133037.849000", "133037.852000", "133037.855000", "133037.858000", "133037.861000", "133037.864000", "133037.867000", "133037.870000", "133037.873000", "133037.877000", "133037.880000", "133037.883000", "133217.825000", "133217.828000", "133217.831000", "133217.834000", "133217.837000", "133217.840000", "133217.843000", "133217.846000", "133217.849000", "133217.852000", "133217.855000", "133217.858000", "133217.861000", "133217.864000", "133217.867000", "133217.875000", "133217.878000", "133217.881000", "133217.884000", "133217.887000", "133217.890000", "133217.893000", "133217.896000", "133217.899000", "133237.825000", "133237.828000", "133237.831000", "133237.834000", "133237.837000", "133357.824000", "133357.827000", "133357.830000", "133357.833000", "133357.840000", "133357.843000", "133357.846000", "133357.849000", "133357.852000", "133357.855000", "133357.858000", "133357.861000", "133357.864000", "133357.867000", "133357.870000", "133357.873000", "133357.876000", "133357.879000", "133357.882000", "133357.885000", "133446.597000", "133446.601000", "133446.604000", "133446.607000", "133446.610000", "133446.613000", "133446.616000", "133446.619000", "133446.622000", "133446.625000", "133446.628000", "133446.631000"],
      "InstanceNumber": [1, 2, 3, 4, 5, 6, 7, 8, 9, 10, 11, 12, 13, 14, 15, 16, 17, 18, 19, 20, 21, 22, 23, 24, 25, 26, 27, 28, 29, 30, 31, 32, 33, 34, 35, 36, 37, 38, 39, 40, 41, 42, 43, 44, 45, 46, 47, 48, 49, 50, 51, 52, 53, 54, 55, 56, 57, 58, 59, 60, 61, 62, 63, 64, 65, 66, 67, 68, 69, 70, 71, 72, 73, 74, 75, 76, 77, 78, 79, 80, 81, 82, 83, 84, 85, 86, 87, 88, 89, 90, 91, 92, 93, 94, 95, 96, 97, 98, 99, 100, 101, 102, 103],
      "LargestImagePixelValue": [65535, 65535, 57038, 56060, 54896, 61001, 61108, 60291, 65535, 39515, 43587, 36990, 42280, 39743, 41281, 43786, 40132, 39553, 38685, 38263, 39852, 39171, 40675, 40984, 65535, 22692, 21192, 20541, 20611, 23560, 24285, 19879, 21716, 19361, 19143, 22988, 21264, 17236, 22096, 19338, 65535, 16204, 16675, 16426, 16398, 16425, 16636, 16080, 16524, 16435, 17079, 17133, 16870, 19666, 16325, 16763, 22687, 16646, 17299, 17101, 17429, 16463, 16950, 16345, 17135, 16487, 16697, 16816, 16589, 16177, 16650, 17189, 16388, 65535, 16408, 16464, 16267, 16390, 17366, 16953, 12047, 15790, 15930, 16406, 15783, 16828, 15489, 15280, 15899, 16312, 15493, 16420, 15514, 15728, 16289, 18190, 15908, 15905, 15012, 16323, 17329, 16526, 65535],
      "SequenceName": [
 "ep_b5#1",
 "ep_b5#1",
 "ep_b500#2",
 "ep_b500#3",
 "ep_b500#4",
 "ep_b505#5",
 "ep_b495#6",
 "ep_b500#7",
 "ep_b5#8",
 "ep_b1000#9",
 "ep_b1005#10",
 "ep_b995#11",
 "ep_b1005#12",
 "ep_b995#13",
 "ep_b995#14",
 "ep_b1005#15",
 "ep_b1000#16",
 "ep_b1000#17",
 "ep_b995#18",
 "ep_b1000#19",
 "ep_b995#20",
 "ep_b1000#21",
 "ep_b1005#22",
 "ep_b1005#23",
 "ep_b5#24",
 "ep_b2000#25",
 "ep_b1995#26",
 "ep_b1995#27",
 "ep_b1995#28",
 "ep_b2005#29",
 "ep_b2010#30",
 "ep_b2005#31",
 "ep_b2005#32",
 "ep_b1995#33",
 "ep_b1990#34",
 "ep_b1995#35",
 "ep_b2005#36",
 "ep_b2000#37",
 "ep_b2010#38",
 "ep_b2000#39",
 "ep_b5#40",
 "ep_b3000#41",
 "ep_b3005#42",
 "ep_b3010#43",
 "ep_b3010#44",
 "ep_b3000#45",
 "ep_b3000#46",
 "ep_b2990#47",
 "ep_b3005#48",
 "ep_b3000#49",
 "ep_b2990#50",
 "ep_b2990#51",
 "ep_b2995#52",
 "ep_b2995#53",
 "ep_b3010#54",
 "ep_b3000#55",
 "ep_b2995#56",
 "ep_b3000#57",
 "ep_b2990#58",
 "ep_b2990#59",
 "ep_b3000#60",
 "ep_b2990#61",
 "ep_b2990#62",
 "ep_b2995#63",
 "ep_b3005#64",
 "ep_b3010#65",
 "ep_b3000#66",
 "ep_b3005#67",
 "ep_b3010#68",
 "ep_b3005#69",
 "ep_b3005#70",
 "ep_b3005#71",
 "ep_b2990#72",
 "ep_b5#73",
 "ep_b3010#74",
 "ep_b3000#75",
 "ep_b3005#76",
 "ep_b3005#77",
 "ep_b2995#78",
 "ep_b3005#79",
 "ep_b2995#80",
 "ep_b3010#81",
 "ep_b3010#82",
 "ep_b3005#83",
 "ep_b3000#84",
 "ep_b3005#85",
 "ep_b3010#86",
 "ep_b3010#87",
 "ep_b2990#88",
 "ep_b3010#89",
 "ep_b2995#90",
 "ep_b2995#91",
 "ep_b2995#92",
 "ep_b2995#93",
 "ep_b3005#94",
 "ep_b3005#95",
 "ep_b2995#96",
 "ep_b3000#97",
 "ep_b2990#98",
 "ep_b3000#99",
 "ep_b2995#100",
 "ep_b2995#101",
 "ep_b5#102"
],
      "WindowCenter": [10621.0, 10619.0, 7446.0, 7454.0, 7423.0, 7413.0, 7514.0, 7496.0, 10626.0, 5648.0, 5618.0, 5589.0, 5604.0, 5603.0, 5643.0, 5632.0, 5673.0, 5606.0, 5668.0, 5619.0, 5670.0, 5612.0, 5639.0, 5654.0, 10635.0, 3640.0, 3574.0, 3526.0, 3666.0, 3610.0, 3589.0, 3602.0, 3534.0, 3598.0, 3606.0, 3643.0, 3561.0, 3520.0, 3611.0, 3529.0, 10640.0, 2626.0, 2545.0, 2609.0, 2591.0, 2612.0, 2645.0, 2617.0, 2550.0, 2609.0, 2540.0, 2583.0, 2651.0, 2688.0, 2626.0, 2605.0, 2742.0, 2575.0, 2630.0, 2590.0, 2618.0, 2576.0, 2668.0, 2653.0, 2660.0, 2631.0, 2570.0, 2633.0, 2607.0, 2612.0, 2624.0, 2667.0, 2631.0, 10637.0, 2588.0, 2602.0, 2540.0, 2614.0, 2549.0, 2574.0, 2474.0, 2532.0, 2630.0, 2577.0, 2595.0, 2651.0, 2511.0, 2518.0, 2589.0, 2558.0, 2625.0, 2550.0, 2530.0, 2632.0, 2575.0, 2646.0, 2679.0, 2580.0, 2595.0, 2583.0, 2633.0, 2672.0, 10629.0],
      "WindowWidth": [23854.0, 23861.0, 15774.0, 15788.0, 15728.0, 15721.0, 15892.0, 15850.0, 23873.0, 12136.0, 12103.0, 12030.0, 12056.0, 12072.0, 12127.0, 12106.0, 12161.0, 12061.0, 12170.0, 12076.0, 12160.0, 12056.0, 12145.0, 12122.0, 23914.0, 8224.0, 8102.0, 8021.0, 8255.0, 8161.0, 8137.0, 8156.0, 8036.0, 8150.0, 8164.0, 8232.0, 8078.0, 8002.0, 8163.0, 8011.0, 23904.0, 6238.0, 6021.0, 6193.0, 6142.0, 6185.0, 6230.0, 6194.0, 6041.0, 6197.0, 6021.0, 6112.0, 6284.0, 6342.0, 6232.0, 6180.0, 6420.0, 6083.0, 6211.0, 6137.0, 6170.0, 6114.0, 6285.0, 6260.0, 6261.0, 6223.0, 6098.0, 6209.0, 6186.0, 6213.0, 6229.0, 6287.0, 6217.0, 23896.0, 6135.0, 6141.0, 6034.0, 6190.0, 6033.0, 6086.0, 5947.0, 6025.0, 6224.0, 6124.0, 6178.0, 6285.0, 5973.0, 5996.0, 6138.0, 6073.0, 6233.0, 6041.0, 6019.0, 6238.0, 6120.0, 6265.0, 6316.0, 6106.0, 6165.0, 6121.0, 6237.0, 6308.0, 23890.0]
    },
    "slices": {}
  }
}