{
  "AcquisitionMatrixPE": 82,
  "AcquisitionNumber": 1,
  "AcquisitionTime": "14:40:28.737500",
  "BandwidthPerPixelPhaseEncode": 24.888,
  "BaseResolution": 82,
  "BodyPartExamined": "BRAIN",
  "ConsistencyInfo": "N4_VE11E_LATEST_20181129",
  "ConversionSoftware": "dcm2niix",
  "ConversionSoftwareVersion": "v1.0.20201102",
  "DerivedVendorReportedEchoSpacing": 0.00049,
  "DeviceSerialNumber": "66112",
  "DwellTime": 2e-06,
  "EchoTime": 0.0272,
  "EchoTrainLength": 82,
  "EffectiveEchoSpacing": 0.00049,
  "FlipAngle": 44,
  "ImageComments": "Unaliased MB8/PE3",
  "ImageOrientationPatientDICOM": [0.993868, 0.0952599, -0.0561443, -0.0796156, 0.968852, 0.234492],
  "ImageType": [
    "ORIGINAL",
    "PRIMARY",
    "M",
    "MB",
    "ND",
    "NORM",
    "MOSAIC"
],
  "ImagingFrequency": 123.252,
  "InPlanePhaseEncodingDirectionDICOM": "COL",
  "InstitutionAddress": "Maynard 3,Hanover,NH,US,03755",
  "InstitutionName": "Dartmouth College - PBS",
  "InstitutionalDepartmentName": "Department",
  "MRAcquisitionType": "2D",
  "MagneticFieldStrength": 3,
  "Manufacturer": "Siemens",
  "ManufacturersModelName": "Prisma",
  "Modality": "MR",
  "MultibandAccelerationFactor": 8,
  "PartialFourier": 1,
  "PatientPosition": "HFS",
  "PercentPhaseFOV": 100,
  "PercentSampling": 100,
  "PhaseEncodingDirection": "j-",
  "PhaseEncodingSteps": 82,
  "PhaseResolution": 1,
  "PixelBandwidth": 3050,
  "ProcedureStepDescription": "Wager_Wager^1076_spacetop",
  "ProtocolName": "func_run-01_task-social_acq-ap-mb8",
  "PulseSequenceDetails": "%CustomerSeq%\\cmrr_mbep2d_bold",
  "ReceiveCoilActiveElements": "HEA;HEP",
  "ReceiveCoilName": "Head_32",
  "ReconMatrixPE": 82,
  "RepetitionTime": 0.46,
  "SAR": 0.101022,
  "ScanOptions": "FS",
  "ScanningSequence": "EP",
  "SequenceName": "epfid2d1_82",
  "SequenceVariant": "SK\\SS",
  "SeriesDescription": "func_run-01_task-social_acq-ap-mb8",
  "SeriesNumber": 12,
  "ShimSetting": [4109, -7783, -7275, 604, -79, -84, -21, 123],
  "SliceThickness": 2.7,
  "SliceTiming": [0, 0.2525, 0.0625, 0.315, 0.125, 0.3775, 0.19, 0, 0.2525, 0.0625, 0.315, 0.125, 0.3775, 0.19, 0, 0.2525, 0.0625, 0.315, 0.125, 0.3775, 0.19, 0, 0.2525, 0.0625, 0.315, 0.125, 0.3775, 0.19, 0, 0.2525, 0.0625, 0.315, 0.125, 0.3775, 0.19, 0, 0.2525, 0.0625, 0.315, 0.125, 0.3775, 0.19, 0, 0.2525, 0.0625, 0.315, 0.125, 0.3775, 0.19, 0, 0.2525, 0.0625, 0.315, 0.125, 0.3775, 0.19],
  "SoftwareVersions": "syngo MR E11",
  "SpacingBetweenSlices": 2.7,
  "StationName": "AWP66112",
  "TaskName": "social",
  "TotalReadoutTime": 0.03969,
  "TxRefAmp": 251.595,
  "WipMemBlock": "b21ff006-5648-4364-9053-0931e2e813de||Sequence: R016 ve11e/master r/434b28f1; Aug  7 2019 18:53:46 by eja",
  "dcmmeta_affine": [
    [-2.6664748191833496, -0.21360273659229279, -0.20717976987361908, 127.92860412597656],
    [-0.2555753290653229, 2.5993597507476807, 0.6171783208847046, -90.31717681884766],
    [-0.15063102543354034, -0.6291261315345764, 2.6203372478485107, -30.43635368347168],
    [0.0, 0.0, 0.0, 1.0]
],
  "dcmmeta_reorient_transform": [
    [0.0, -1.0, 0.0, 81.0],
    [1.0, 0.0, 0.0, 0.0],
    [0.0, 0.0, 1.0, 0.0],
    [0.0, 0.0, 0.0, 1.0]
],
  "dcmmeta_shape": [82, 82, 56, 872],
  "dcmmeta_slice_dim": 2,
  "dcmmeta_version": 0.6,
  "global": {
    "const": {
      "AccessionNumber": "A003957",
      "AcquisitionMatrix": [82, 0, 0, 82],
      "AngioFlag": "N",
      "BitsAllocated": 16,
      "BitsStored": 16,
      "BodyPartExamined": "BRAIN",
      "Columns": 656,
      "EchoNumbers": 1,
      "EchoTime": 27.2,
      "EchoTrainLength": 82,
      "FlipAngle": 44.0,
      "HighBit": 15,
      "ImageOrientationPatient": [0.99386788380244, 0.09525989810894, -0.056144290523, -0.0796155644113, 0.96885223351069, 0.23449245515544],
      "ImagePositionPatient": [-814.60108791784, -939.59732301962, -218.72365988921],
      "ImageType": [
        "ORIGINAL",
        "PRIMARY",
        "M",
        "MB",
        "ND",
        "NORM",
        "MOSAIC"
],
      "ImagedNucleus": "1H",
      "ImagingFrequency": 123.252193,
      "InPlanePhaseEncodingDirection": "COL",
      "MRAcquisitionType": "2D",
      "MagneticFieldStrength": 3.0,
      "Manufacturer": "SIEMENS",
      "ManufacturerModelName": "Prisma",
      "Modality": "MR",
      "NumberOfAverages": 1.0,
      "NumberOfPhaseEncodingSteps": 82,
      "PercentPhaseFieldOfView": 100.0,
      "PercentSampling": 100.0,
      "PerformedProcedureStepStartTime": "140618.542000",
      "PhotometricInterpretation": "MONOCHROME2",
      "PixelBandwidth": 3050.0,
      "PixelRepresentation": 0,
      "PixelSpacing": [2.6829268932343, 2.6829268932343],
      "ProtocolName": "func_run-01_task-social_acq-ap-mb8",
      "RepetitionTime": 460.0,
      "Rows": 656,
      "SAR": 0.1010215949217,
      "SamplesPerPixel": 1,
      "ScanOptions": "FS",
      "ScanningSequence": "EP",
      "SequenceName": "epfid2d1_82",
      "SequenceVariant": [
        "SK",
        "SS"
],
      "SeriesDescription": "func_run-01_task-social_acq-ap-mb8",
      "SeriesNumber": 12,
      "SeriesTime": "144050.892000",
      "SliceLocation": -59.999828074125,
      "SliceThickness": 2.7000000476837,
      "SmallestImagePixelValue": 0,
      "SoftwareVersions": "syngo MR E11",
      "SpacingBetweenSlices": 2.6999999786669,
      "SpecificCharacterSet": "ISO_IR 100",
      "StudyID": "1",
      "StudyTime": "140618.484000",
      "TransmitCoilName": "Body",
      "VariableFlipAngleFlag": "N",
      "WindowCenterWidthExplanation": "Algo1"
    },
    "slices": {}
  },
  "time": {
    "samples": {
      "AcquisitionNumber": [1, 2, 3, 4, 5, 6, 7, 8, 9, 10, 11, 12, 13, 14, 15, 16, 17, 18, 19, 20, 21, 22, 23, 24, 25, 26, 27, 28, 29, 30, 31, 32, 33, 34, 35, 36, 37, 38, 39, 40, 41, 42, 43, 44, 45, 46, 47, 48, 49, 50, 51, 52, 53, 54, 55, 56, 57, 58, 59, 60, 61, 62, 63, 64, 65, 66, 67, 68, 69, 70, 71, 72, 73, 74, 75, 76, 77, 78, 79, 80, 81, 82, 83, 84, 85, 86, 87, 88, 89, 90, 91, 92, 93, 94, 95, 96, 97, 98, 99, 100, 101, 102, 103, 104, 105, 106, 107, 108, 109, 110, 111, 112, 113, 114, 115, 116, 117, 118, 119, 120, 121, 122, 123, 124, 125, 126, 127, 128, 129, 130, 131, 132, 133, 134, 135, 136, 137, 138, 139, 140, 141, 142, 143, 144, 145, 146, 147, 148, 149, 150, 151, 152, 153, 154, 155, 156, 157, 158, 159, 160, 161, 162, 163, 164, 165, 166, 167, 168, 169, 170, 171, 172, 173, 174, 175, 176, 177, 178, 179, 180, 181, 182, 183, 184, 185, 186, 187, 188, 189, 190, 191, 192, 193, 194, 195, 196, 197, 198, 199, 200, 201, 202, 203, 204, 205, 206, 207, 208, 209, 210, 211, 212, 213, 214, 215, 216, 217, 218, 219, 220, 221, 222, 223, 224, 225, 226, 227, 228, 229, 230, 231, 232, 233, 234, 235, 236, 237, 238, 239, 240, 241, 242, 243, 244, 245, 246, 247, 248, 249, 250, 251, 252, 253, 254, 255, 256, 257, 258, 259, 260, 261, 262, 263, 264, 265, 266, 267, 268, 269, 270, 271, 272, 273, 274, 275, 276, 277, 278, 279, 280, 281, 282, 283, 284, 285, 286, 287, 288, 289, 290, 291, 292, 293, 294, 295, 296, 297, 298, 299, 300, 301, 302, 303, 304, 305, 306, 307, 308, 309, 310, 311, 312, 313, 314, 315, 316, 317, 318, 319, 320, 321, 322, 323, 324, 325, 326, 327, 328, 329, 330, 331, 332, 333, 334, 335, 336, 337, 338, 339, 340, 341, 342, 343, 344, 345, 346, 347, 348, 349, 350, 351, 352, 353, 354, 355, 356, 357, 358, 359, 360, 361, 362, 363, 364, 365, 366, 367, 368, 369, 370, 371, 372, 373, 374, 375, 376, 377, 378, 379, 380, 381, 382, 383, 384, 385, 386, 387, 388, 389, 390, 391, 392, 393, 394, 395, 396, 397, 398, 399, 400, 401, 402, 403, 404, 405, 406, 407, 408, 409, 410, 411, 412, 413, 414, 415, 416, 417, 418, 419, 420, 421, 422, 423, 424, 425, 426, 427, 428, 429, 430, 431, 432, 433, 434, 435, 436, 437, 438, 439, 440, 441, 442, 443, 444, 445, 446, 447, 448, 449, 450, 451, 452, 453, 454, 455, 456, 457, 458, 459, 460, 461, 462, 463, 464, 465, 466, 467, 468, 469, 470, 471, 472, 473, 474, 475, 476, 477, 478, 479, 480, 481, 482, 483, 484, 485, 486, 487, 488, 489, 490, 491, 492, 493, 494, 495, 496, 497, 498, 499, 500, 501, 502, 503, 504, 505, 506, 507, 508, 509, 510, 511, 512, 513, 514, 515, 516, 517, 518, 519, 520, 521, 522, 523, 524, 525, 526, 527, 528, 529, 530, 531, 532, 533, 534, 535, 536, 537, 538, 539, 540, 541, 542, 543, 544, 545, 546, 547, 548, 549, 550, 551, 552, 553, 554, 555, 556, 557, 558, 559, 560, 561, 562, 563, 564, 565, 566, 567, 568, 569, 570, 571, 572, 573, 574, 575, 576, 577, 578, 579, 580, 581, 582, 583, 584, 585, 586, 587, 588, 589, 590, 591, 592, 593, 594, 595, 596, 597, 598, 599, 600, 601, 602, 603, 604, 605, 606, 607, 608, 609, 610, 611, 612, 613, 614, 615, 616, 617, 618, 619, 620, 621, 622, 623, 624, 625, 626, 627, 628, 629, 630, 631, 632, 633, 634, 635, 636, 637, 638, 639, 640, 641, 642, 643, 644, 645, 646, 647, 648, 649, 650, 651, 652, 653, 654, 655, 656, 657, 658, 659, 660, 661, 662, 663, 664, 665, 666, 667, 668, 669, 670, 671, 672, 673, 674, 675, 676, 677, 678, 679, 680, 681, 682, 683, 684, 685, 686, 687, 688, 689, 690, 691, 692, 693, 694, 695, 696, 697, 698, 699, 700, 701, 702, 703, 704, 705, 706, 707, 708, 709, 710, 711, 712, 713, 714, 715, 716, 717, 718, 719, 720, 721, 722, 723, 724, 725, 726, 727, 728, 729, 730, 731, 732, 733, 734, 735, 736, 737, 738, 739, 740, 741, 742, 743, 744, 745, 746, 747, 748, 749, 750, 751, 752, 753, 754, 755, 756, 757, 758, 759, 760, 761, 762, 763, 764, 765, 766, 767, 768, 769, 770, 771, 772, 773, 774, 775, 776, 777, 778, 779, 780, 781, 782, 783, 784, 785, 786, 787, 788, 789, 790, 791, 792, 793, 794, 795, 796, 797, 798, 799, 800, 801, 802, 803, 804, 805, 806, 807, 808, 809, 810, 811, 812, 813, 814, 815, 816, 817, 818, 819, 820, 821, 822, 823, 824, 825, 826, 827, 828, 829, 830, 831, 832, 833, 834, 835, 836, 837, 838, 839, 840, 841, 842, 843, 844, 845, 846, 847, 848, 849, 850, 851, 852, 853, 854, 855, 856, 857, 858, 859, 860, 861, 862, 863, 864, 865, 866, 867, 868, 869, 870, 871, 872],
      "AcquisitionTime": ["144028.737500", "144029.197500", "144029.657500", "144030.117500", "144030.577500", "144031.037500", "144031.497500", "144031.957500", "144032.417500", "144032.877500", "144033.337500", "144033.797500", "144034.257500", "144034.717500", "144035.177500", "144035.637500", "144036.097500", "144036.557500", "144037.017500", "144037.477500", "144037.937500", "144038.397500", "144038.857500", "144039.317500", "144039.777500", "144040.237500", "144040.697500", "144041.157500", "144041.617500", "144042.077500", "144042.537500", "144042.997500", "144043.457500", "144043.917500", "144044.377500", "144044.837500", "144045.297500", "144045.757500", "144046.217500", "144046.677500", "144047.137500", "144047.597500", "144048.057500", "144048.517500", "144048.977500", "144049.437500", "144049.897500", "144050.357500", "144050.817500", "144051.277500", "144051.737500", "144052.197500", "144052.657500", "144053.117500", "144053.577500", "144054.037500", "144054.497500", "144054.957500", "144055.417500", "144055.877500", "144056.337500", "144056.797500", "144057.257500", "144057.717500", "144058.177500", "144058.637500", "144059.097500", "144059.557500", "144100.017500", "144100.477500", "144100.937500", "144101.397500", "144101.857500", "144102.317500", "144102.777500", "144103.237500", "144103.697500", "144104.157500", "144104.617500", "144105.077500", "144105.537500", "144105.997500", "144106.457500", "144106.917500", "144107.377500", "144107.837500", "144108.297500", "144108.757500", "144109.217500", "144109.677500", "144110.137500", "144110.597500", "144111.057500", "144111.517500", "144111.977500", "144112.437500", "144112.897500", "144113.357500", "144113.817500", "144114.277500", "144114.737500", "144115.197500", "144115.657500", "144116.117500", "144116.577500", "144117.037500", "144117.497500", "144117.957500", "144118.417500", "144118.877500", "144119.337500", "144119.797500", "144120.257500", "144120.717500", "144121.177500", "144121.637500", "144122.097500", "144122.557500", "144123.017500", "144123.477500", "144123.937500", "144124.397500", "144124.857500", "144125.317500", "144125.777500", "144126.237500", "144126.697500", "144127.157500", "144127.617500", "144128.077500", "144128.537500", "144128.997500", "144129.457500", "144129.917500", "144130.377500", "144130.837500", "144131.297500", "144131.757500", "144132.217500", "144132.677500", "144133.137500", "144133.597500", "144134.057500", "144134.517500", "144134.977500", "144135.437500", "144135.897500", "144136.357500", "144136.817500", "144137.277500", "144137.737500", "144138.197500", "144138.657500", "144139.117500", "144139.577500", "144140.037500", "144140.497500", "144140.957500", "144141.417500", "144141.877500", "144142.337500", "144142.797500", "144143.257500", "144143.717500", "144144.177500", "144144.637500", "144145.097500", "144145.557500", "144146.017500", "144146.477500", "144146.937500", "144147.397500", "144147.857500", "144148.317500", "144148.777500", "144149.237500", "144149.697500", "144150.157500", "144150.617500", "144151.077500", "144151.537500", "144151.997500", "144152.457500", "144152.917500", "144153.377500", "144153.837500", "144154.297500", "144154.757500", "144155.217500", "144155.677500", "144156.137500", "144156.597500", "144157.057500", "144157.517500", "144157.977500", "144158.437500", "144158.897500", "144159.357500", "144159.817500", "144200.277500", "144200.737500", "144201.197500", "144201.657500", "144202.117500", "144202.577500", "144203.037500", "144203.497500", "144203.957500", "144204.417500", "144204.877500", "144205.337500", "144205.797500", "144206.257500", "144206.717500", "144207.177500", "144207.637500", "144208.097500", "144208.557500", "144209.017500", "144209.477500", "144209.937500", "144210.397500", "144210.857500", "144211.317500", "144211.777500", "144212.237500", "144212.697500", "144213.157500", "144213.617500", "144214.077500", "144214.537500", "144214.997500", "144215.457500", "144215.917500", "144216.377500", "144216.837500", "144217.297500", "144217.757500", "144218.217500", "144218.677500", "144219.137500", "144219.597500", "144220.057500", "144220.517500", "144220.977500", "144221.437500", "144221.897500", "144222.357500", "144222.817500", "144223.277500", "144223.737500", "144224.197500", "144224.657500", "144225.117500", "144225.577500", "144226.037500", "144226.497500", "144226.957500", "144227.417500", "144227.877500", "144228.337500", "144228.797500", "144229.257500", "144229.717500", "144230.177500", "144230.637500", "144231.097500", "144231.557500", "144232.017500", "144232.477500", "144232.937500", "144233.397500", "144233.857500", "144234.317500", "144234.777500", "144235.237500", "144235.697500", "144236.157500", "144236.617500", "144237.077500", "144237.537500", "144237.997500", "144238.457500", "144238.917500", "144239.377500", "144239.837500", "144240.297500", "144240.757500", "144241.217500", "144241.677500", "144242.137500", "144242.597500", "144243.057500", "144243.517500", "144243.977500", "144244.437500", "144244.897500", "144245.357500", "144245.817500", "144246.277500", "144246.737500", "144247.197500", "144247.657500", "144248.117500", "144248.577500", "144249.037500", "144249.497500", "144249.957500", "144250.417500", "144250.877500", "144251.337500", "144251.797500", "144252.257500", "144252.717500", "144253.177500", "144253.637500", "144254.097500", "144254.557500", "144255.017500", "144255.477500", "144255.937500", "144256.397500", "144256.857500", "144257.317500", "144257.777500", "144258.237500", "144258.697500", "144259.157500", "144259.617500", "144300.077500", "144300.537500", "144300.997500", "144301.457500", "144301.917500", "144302.377500", "144302.837500", "144303.297500", "144303.757500", "144304.217500", "144304.677500", "144305.137500", "144305.597500", "144306.057500", "144306.517500", "144306.977500", "144307.437500", "144307.897500", "144308.357500", "144308.817500", "144309.277500", "144309.737500", "144310.197500", "144310.657500", "144311.117500", "144311.577500", "144312.037500", "144312.497500", "144312.957500", "144313.417500", "144313.877500", "144314.337500", "144314.797500", "144315.257500", "144315.717500", "144316.177500", "144316.637500", "144317.097500", "144317.557500", "144318.017500", "144318.477500", "144318.937500", "144319.397500", "144319.857500", "144320.317500", "144320.777500", "144321.237500", "144321.697500", "144322.157500", "144322.617500", "144323.077500", "144323.537500", "144323.997500", "144324.457500", "144324.917500", "144325.377500", "144325.837500", "144326.297500", "144326.757500", "144327.217500", "144327.677500", "144328.137500", "144328.597500", "144329.057500", "144329.517500", "144329.977500", "144330.437500", "144330.897500", "144331.357500", "144331.817500", "144332.277500", "144332.737500", "144333.197500", "144333.657500", "144334.117500", "144334.577500", "144335.037500", "144335.497500", "144335.957500", "144336.417500", "144336.877500", "144337.337500", "144337.797500", "144338.257500", "144338.717500", "144339.177500", "144339.637500", "144340.097500", "144340.557500", "144341.017500", "144341.477500", "144341.937500", "144342.397500", "144342.857500", "144343.317500", "144343.777500", "144344.237500", "144344.697500", "144345.157500", "144345.617500", "144346.077500", "144346.537500", "144346.997500", "144347.457500", "144347.917500", "144348.377500", "144348.837500", "144349.297500", "144349.757500", "144350.217500", "144350.677500", "144351.137500", "144351.597500", "144352.057500", "144352.517500", "144352.977500", "144353.437500", "144353.897500", "144354.357500", "144354.817500", "144355.277500", "144355.737500", "144356.197500", "144356.657500", "144357.117500", "144357.577500", "144358.037500", "144358.497500", "144358.957500", "144359.417500", "144359.877500", "144400.337500", "144400.797500", "144401.257500", "144401.717500", "144402.177500", "144402.637500", "144403.097500", "144403.557500", "144404.017500", "144404.477500", "144404.937500", "144405.397500", "144405.857500", "144406.317500", "144406.777500", "144407.237500", "144407.697500", "144408.157500", "144408.617500", "144409.077500", "144409.537500", "144409.997500", "144410.457500", "144410.917500", "144411.377500", "144411.837500", "144412.297500", "144412.757500", "144413.217500", "144413.677500", "144414.137500", "144414.597500", "144415.057500", "144415.517500", "144415.977500", "144416.437500", "144416.897500", "144417.357500", "144417.817500", "144418.277500", "144418.737500", "144419.197500", "144419.657500", "144420.117500", "144420.577500", "144421.037500", "144421.497500", "144421.957500", "144422.417500", "144422.877500", "144423.337500", "144423.797500", "144424.257500", "144424.717500", "144425.177500", "144425.637500", "144426.097500", "144426.557500", "144427.017500", "144427.477500", "144427.937500", "144428.397500", "144428.857500", "144429.317500", "144429.777500", "144430.237500", "144430.697500", "144431.157500", "144431.617500", "144432.077500", "144432.537500", "144432.997500", "144433.457500", "144433.917500", "144434.377500", "144434.837500", "144435.297500", "144435.757500", "144436.217500", "144436.677500", "144437.137500", "144437.597500", "144438.057500", "144438.517500", "144438.977500", "144439.437500", "144439.897500", "144440.357500", "144440.817500", "144441.277500", "144441.737500", "144442.197500", "144442.657500", "144443.117500", "144443.577500", "144444.037500", "144444.497500", "144444.957500", "144445.417500", "144445.877500", "144446.337500", "144446.797500", "144447.257500", "144447.717500", "144448.177500", "144448.637500", "144449.097500", "144449.557500", "144450.017500", "144450.477500", "144450.937500", "144451.397500", "144451.857500", "144452.317500", "144452.777500", "144453.237500", "144453.697500", "144454.157500", "144454.617500", "144455.077500", "144455.537500", "144455.997500", "144456.457500", "144456.917500", "144457.377500", "144457.837500", "144458.297500", "144458.757500", "144459.217500", "144459.677500", "144500.137500", "144500.597500", "144501.057500", "144501.517500", "144501.977500", "144502.437500", "144502.897500", "144503.357500", "144503.817500", "144504.277500", "144504.737500", "144505.197500", "144505.657500", "144506.117500", "144506.577500", "144507.037500", "144507.497500", "144507.957500", "144508.417500", "144508.877500", "144509.337500", "144509.797500", "144510.257500", "144510.717500", "144511.177500", "144511.637500", "144512.097500", "144512.557500", "144513.017500", "144513.477500", "144513.937500", "144514.397500", "144514.857500", "144515.317500", "144515.777500", "144516.237500", "144516.697500", "144517.157500", "144517.617500", "144518.077500", "144518.537500", "144518.997500", "144519.457500", "144519.917500", "144520.377500", "144520.837500", "144521.297500", "144521.757500", "144522.217500", "144522.677500", "144523.137500", "144523.597500", "144524.057500", "144524.517500", "144524.977500", "144525.437500", "144525.897500", "144526.357500", "144526.817500", "144527.277500", "144527.737500", "144528.197500", "144528.657500", "144529.117500", "144529.577500", "144530.037500", "144530.497500", "144530.957500", "144531.417500", "144531.877500", "144532.337500", "144532.797500", "144533.257500", "144533.717500", "144534.177500", "144534.637500", "144535.097500", "144535.557500", "144536.017500", "144536.477500", "144536.937500", "144537.397500", "144537.857500", "144538.317500", "144538.777500", "144539.237500", "144539.697500", "144540.157500", "144540.617500", "144541.077500", "144541.537500", "144541.997500", "144542.457500", "144542.917500", "144543.377500", "144543.837500", "144544.297500", "144544.757500", "144545.217500", "144545.677500", "144546.137500", "144546.597500", "144547.057500", "144547.517500", "144547.977500", "144548.437500", "144548.897500", "144549.357500", "144549.817500", "144550.277500", "144550.737500", "144551.197500", "144551.657500", "144552.117500", "144552.577500", "144553.037500", "144553.497500", "144553.957500", "144554.417500", "144554.877500", "144555.337500", "144555.797500", "144556.257500", "144556.717500", "144557.177500", "144557.637500", "144558.097500", "144558.557500", "144559.017500", "144559.477500", "144559.937500", "144600.397500", "144600.857500", "144601.317500", "144601.777500", "144602.237500", "144602.697500", "144603.157500", "144603.617500", "144604.077500", "144604.537500", "144604.997500", "144605.457500", "144605.917500", "144606.377500", "144606.837500", "144607.297500", "144607.757500", "144608.217500", "144608.677500", "144609.137500", "144609.597500", "144610.057500", "144610.517500", "144610.977500", "144611.437500", "144611.897500", "144612.357500", "144612.817500", "144613.277500", "144613.737500", "144614.197500", "144614.657500", "144615.117500", "144615.577500", "144616.037500", "144616.497500", "144616.957500", "144617.417500", "144617.877500", "144618.337500", "144618.797500", "144619.257500", "144619.717500", "144620.177500", "144620.637500", "144621.097500", "144621.557500", "144622.017500", "144622.477500", "144622.937500", "144623.397500", "144623.857500", "144624.317500", "144624.777500", "144625.237500", "144625.697500", "144626.157500", "144626.617500", "144627.077500", "144627.537500", "144627.997500", "144628.457500", "144628.917500", "144629.377500", "144629.837500", "144630.297500", "144630.757500", "144631.217500", "144631.677500", "144632.137500", "144632.597500", "144633.057500", "144633.517500", "144633.977500", "144634.437500", "144634.897500", "144635.357500", "144635.817500", "144636.277500", "144636.737500", "144637.197500", "144637.657500", "144638.117500", "144638.577500", "144639.037500", "144639.497500", "144639.957500", "144640.417500", "144640.877500", "144641.337500", "144641.797500", "144642.257500", "144642.717500", "144643.177500", "144643.637500", "144644.097500", "144644.557500", "144645.017500", "144645.477500", "144645.937500", "144646.397500", "144646.857500", "144647.317500", "144647.777500", "144648.237500", "144648.697500", "144649.157500", "144649.617500", "144650.077500", "144650.537500", "144650.997500", "144651.457500", "144651.917500", "144652.377500", "144652.837500", "144653.297500", "144653.757500", "144654.217500", "144654.677500", "144655.137500", "144655.597500", "144656.057500", "144656.517500", "144656.977500", "144657.437500", "144657.897500", "144658.357500", "144658.817500", "144659.277500", "144659.737500", "144700.197500", "144700.657500", "144701.117500", "144701.577500", "144702.037500", "144702.497500", "144702.957500", "144703.417500", "144703.877500", "144704.337500", "144704.797500", "144705.257500", "144705.717500", "144706.177500", "144706.637500", "144707.097500", "144707.557500", "144708.017500", "144708.477500", "144708.937500", "144709.397500"],
