{
  "AcquisitionMatrixPE": 82,
  "AcquisitionNumber": 1,
  "AcquisitionTime": "15:08:31.995000",
  "BandwidthPerPixelPhaseEncode": 24.888,
  "BaseResolution": 82,
  "BodyPartExamined": "BRAIN",
  "ConsistencyInfo": "N4_VE11E_LATEST_20181129",
  "ConversionSoftware": "dcm2niix",
  "ConversionSoftwareVersion": "v1.0.20201102",
  "DerivedVendorReportedEchoSpacing": 0.00049,
  "DeviceSerialNumber": "66112",
  "DwellTime": 2e-06,
  "EchoTime": 0.0272,
  "EchoTrainLength": 82,
  "EffectiveEchoSpacing": 0.00049,
  "FlipAngle": 44,
  "ImageComments": "Unaliased MB8/PE3",
  "ImageOrientationPatientDICOM": [0.993868, 0.0952599, -0.0561443, -0.0796156, 0.968852, 0.234492],
  "ImageType": [
    "ORIGINAL",
    "PRIMARY",
    "M",
    "MB",
    "ND",
    "NORM",
    "MOSAIC"
],
  "ImagingFrequency": 123.252,
  "InPlanePhaseEncodingDirectionDICOM": "COL",
  "InstitutionAddress": "Maynard 3,Hanover,NH,US,03755",
  "InstitutionName": "Dartmouth College - PBS",
  "InstitutionalDepartmentName": "Department",
  "MRAcquisitionType": "2D",
  "MagneticFieldStrength": 3,
  "Manufacturer": "Siemens",
  "ManufacturersModelName": "Prisma",
  "Modality": "MR",
  "MultibandAccelerationFactor": 8,
  "PartialFourier": 1,
  "PatientPosition": "HFS",
  "PercentPhaseFOV": 100,
  "PercentSampling": 100,
  "PhaseEncodingDirection": "j-",
  "PhaseEncodingSteps": 82,
  "PhaseResolution": 1,
  "PixelBandwidth": 3050,
  "ProcedureStepDescription": "Wager_Wager^1076_spacetop",
  "ProtocolName": "func_run-05_task-social_acq-ap-mb8",
  "PulseSequenceDetails": "%CustomerSeq%\\cmrr_mbep2d_bold",
  "ReceiveCoilActiveElements": "HEA;HEP",
  "ReceiveCoilName": "Head_32",
  "ReconMatrixPE": 82,
  "RepetitionTime": 0.46,
  "SAR": 0.101022,
  "ScanOptions": "FS",
  "ScanningSequence": "EP",
  "SequenceName": "epfid2d1_82",
  "SequenceVariant": "SK\\SS",
  "SeriesDescription": "func_run-05_task-social_acq-ap-mb8",
  "SeriesNumber": 20,
  "ShimSetting": [4109, -7783, -7275, 604, -79, -84, -21, 123],
  "SliceThickness": 2.7,
  "SliceTiming": [0, 0.2525, 0.0625, 0.315, 0.125, 0.3775, 0.1875, 0, 0.2525, 0.0625, 0.315, 0.125, 0.3775, 0.1875, 0, 0.2525, 0.0625, 0.315, 0.125, 0.3775, 0.1875, 0, 0.2525, 0.0625, 0.315, 0.125, 0.3775, 0.1875, 0, 0.2525, 0.0625, 0.315, 0.125, 0.3775, 0.1875, 0, 0.2525, 0.0625, 0.315, 0.125, 0.3775, 0.1875, 0, 0.2525, 0.0625, 0.315, 0.125, 0.3775, 0.1875, 0, 0.2525, 0.0625, 0.315, 0.125, 0.3775, 0.1875],
  "SoftwareVersions": "syngo MR E11",
  "SpacingBetweenSlices": 2.7,
  "StationName": "AWP66112",
  "TaskName": "social",
  "TotalReadoutTime": 0.03969,
  "TxRefAmp": 251.595,
  "WipMemBlock": "1b105cf3-89f8-4b7c-96d7-c4545abdf315||Sequence: R016 ve11e/master r/434b28f1; Aug  7 2019 18:53:46 by eja",
  "dcmmeta_affine": [
    [-2.6664748191833496, -0.21360273659229279, -0.20717976987361908, 127.92860412597656],
    [-0.2555753290653229, 2.5993597507476807, 0.6171783208847046, -90.31717681884766],
    [-0.15063102543354034, -0.6291261315345764, 2.6203372478485107, -30.43635368347168],
    [0.0, 0.0, 0.0, 1.0]
],
  "dcmmeta_reorient_transform": [
    [0.0, -1.0, 0.0, 81.0],
    [1.0, 0.0, 0.0, 0.0],
    [0.0, 0.0, 1.0, 0.0],
    [0.0, 0.0, 0.0, 1.0]
],
  "dcmmeta_shape": [82, 82, 56, 872],
  "dcmmeta_slice_dim": 2,
  "dcmmeta_version": 0.6,
  "global": {
    "const": {
      "AccessionNumber": "A003957",
      "AcquisitionMatrix": [82, 0, 0, 82],
      "AngioFlag": "N",
      "BitsAllocated": 16,
      "BitsStored": 16,
      "BodyPartExamined": "BRAIN",
      "Columns": 656,
      "EchoNumbers": 1,
      "EchoTime": 27.2,
      "EchoTrainLength": 82,
      "FlipAngle": 44.0,
      "HighBit": 15,
      "ImageOrientationPatient": [0.99386788380244, 0.09525989810894, -0.056144290523, -0.0796155644113, 0.96885223351069, 0.23449245515544],
      "ImagePositionPatient": [-814.60108791784, -939.59732301962, -218.72365988921],
      "ImageType": [
        "ORIGINAL",
        "PRIMARY",
        "M",
        "MB",
        "ND",
        "NORM",
        "MOSAIC"
],
      "ImagedNucleus": "1H",
      "ImagingFrequency": 123.2522,
      "InPlanePhaseEncodingDirection": "COL",
      "MRAcquisitionType": "2D",
      "MagneticFieldStrength": 3.0,
      "Manufacturer": "SIEMENS",
      "ManufacturerModelName": "Prisma",
      "Modality": "MR",
      "NumberOfAverages": 1.0,
      "NumberOfPhaseEncodingSteps": 82,
      "PercentPhaseFieldOfView": 100.0,
      "PercentSampling": 100.0,
      "PerformedProcedureStepStartTime": "140618.542000",
      "PhotometricInterpretation": "MONOCHROME2",
      "PixelBandwidth": 3050.0,
      "PixelRepresentation": 0,
      "PixelSpacing": [2.6829268932343, 2.6829268932343],
      "ProtocolName": "func_run-05_task-social_acq-ap-mb8",
      "RepetitionTime": 460.0,
      "Rows": 656,
      "SAR": 0.1010215949217,
      "SamplesPerPixel": 1,
      "ScanOptions": "FS",
      "ScanningSequence": "EP",
      "SequenceName": "epfid2d1_82",
      "SequenceVariant": [
        "SK",
        "SS"
],
      "SeriesDescription": "func_run-05_task-social_acq-ap-mb8",
      "SeriesNumber": 20,
      "SeriesTime": "150850.733000",
      "SliceLocation": -59.999828074125,
      "SliceThickness": 2.7000000476837,
      "SmallestImagePixelValue": 0,
      "SoftwareVersions": "syngo MR E11",
      "SpacingBetweenSlices": 2.6999999786669,
      "SpecificCharacterSet": "ISO_IR 100",
      "StudyID": "1",
      "StudyTime": "140618.484000",
      "TransmitCoilName": "Body",
      "VariableFlipAngleFlag": "N",
      "WindowCenterWidthExplanation": "Algo1"
    },
    "slices": {}
  },
  "time": {
    "samples": {
      "AcquisitionNumber": [1, 2, 3, 4, 5, 6, 7, 8, 9, 10, 11, 12, 13, 14, 15, 16, 17, 18, 19, 20, 21, 22, 23, 24, 25, 26, 27, 28, 29, 30, 31, 32, 33, 34, 35, 36, 37, 38, 39, 40, 41, 42, 43, 44, 45, 46, 47, 48, 49, 50, 51, 52, 53, 54, 55, 56, 57, 58, 59, 60, 61, 62, 63, 64, 65, 66, 67, 68, 69, 70, 71, 72, 73, 74, 75, 76, 77, 78, 79, 80, 81, 82, 83, 84, 85, 86, 87, 88, 89, 90, 91, 92, 93, 94, 95, 96, 97, 98, 99, 100, 101, 102, 103, 104, 105, 106, 107, 108, 109, 110, 111, 112, 113, 114, 115, 116, 117, 118, 119, 120, 121, 122, 123, 124, 125, 126, 127, 128, 129, 130, 131, 132, 133, 134, 135, 136, 137, 138, 139, 140, 141, 142, 143, 144, 145, 146, 147, 148, 149, 150, 151, 152, 153, 154, 155, 156, 157, 158, 159, 160, 161, 162, 163, 164, 165, 166, 167, 168, 169, 170, 171, 172, 173, 174, 175, 176, 177, 178, 179, 180, 181, 182, 183, 184, 185, 186, 187, 188, 189, 190, 191, 192, 193, 194, 195, 196, 197, 198, 199, 200, 201, 202, 203, 204, 205, 206, 207, 208, 209, 210, 211, 212, 213, 214, 215, 216, 217, 218, 219, 220, 221, 222, 223, 224, 225, 226, 227, 228, 229, 230, 231, 232, 233, 234, 235, 236, 237, 238, 239, 240, 241, 242, 243, 244, 245, 246, 247, 248, 249, 250, 251, 252, 253, 254, 255, 256, 257, 258, 259, 260, 261, 262, 263, 264, 265, 266, 267, 268, 269, 270, 271, 272, 273, 274, 275, 276, 277, 278, 279, 280, 281, 282, 283, 284, 285, 286, 287, 288, 289, 290, 291, 292, 293, 294, 295, 296, 297, 298, 299, 300, 301, 302, 303, 304, 305, 306, 307, 308, 309, 310, 311, 312, 313, 314, 315, 316, 317, 318, 319, 320, 321, 322, 323, 324, 325, 326, 327, 328, 329, 330, 331, 332, 333, 334, 335, 336, 337, 338, 339, 340, 341, 342, 343, 344, 345, 346, 347, 348, 349, 350, 351, 352, 353, 354, 355, 356, 357, 358, 359, 360, 361, 362, 363, 364, 365, 366, 367, 368, 369, 370, 371, 372, 373, 374, 375, 376, 377, 378, 379, 380, 381, 382, 383, 384, 385, 386, 387, 388, 389, 390, 391, 392, 393, 394, 395, 396, 397, 398, 399, 400, 401, 402, 403, 404, 405, 406, 407, 408, 409, 410, 411, 412, 413, 414, 415, 416, 417, 418, 419, 420, 421, 422, 423, 424, 425, 426, 427, 428, 429, 430, 431, 432, 433, 434, 435, 436, 437, 438, 439, 440, 441, 442, 443, 444, 445, 446, 447, 448, 449, 450, 451, 452, 453, 454, 455, 456, 457, 458, 459, 460, 461, 462, 463, 464, 465, 466, 467, 468, 469, 470, 471, 472, 473, 474, 475, 476, 477, 478, 479, 480, 481, 482, 483, 484, 485, 486, 487, 488, 489, 490, 491, 492, 493, 494, 495, 496, 497, 498, 499, 500, 501, 502, 503, 504, 505, 506, 507, 508, 509, 510, 511, 512, 513, 514, 515, 516, 517, 518, 519, 520, 521, 522, 523, 524, 525, 526, 527, 528, 529, 530, 531, 532, 533, 534, 535, 536, 537, 538, 539, 540, 541, 542, 543, 544, 545, 546, 547, 548, 549, 550, 551, 552, 553, 554, 555, 556, 557, 558, 559, 560, 561, 562, 563, 564, 565, 566, 567, 568, 569, 570, 571, 572, 573, 574, 575, 576, 577, 578, 579, 580, 581, 582, 583, 584, 585, 586, 587, 588, 589, 590, 591, 592, 593, 594, 595, 596, 597, 598, 599, 600, 601, 602, 603, 604, 605, 606, 607, 608, 609, 610, 611, 612, 613, 614, 615, 616, 617, 618, 619, 620, 621, 622, 623, 624, 625, 626, 627, 628, 629, 630, 631, 632, 633, 634, 635, 636, 637, 638, 639, 640, 641, 642, 643, 644, 645, 646, 647, 648, 649, 650, 651, 652, 653, 654, 655, 656, 657, 658, 659, 660, 661, 662, 663, 664, 665, 666, 667, 668, 669, 670, 671, 672, 673, 674, 675, 676, 677, 678, 679, 680, 681, 682, 683, 684, 685, 686, 687, 688, 689, 690, 691, 692, 693, 694, 695, 696, 697, 698, 699, 700, 701, 702, 703, 704, 705, 706, 707, 708, 709, 710, 711, 712, 713, 714, 715, 716, 717, 718, 719, 720, 721, 722, 723, 724, 725, 726, 727, 728, 729, 730, 731, 732, 733, 734, 735, 736, 737, 738, 739, 740, 741, 742, 743, 744, 745, 746, 747, 748, 749, 750, 751, 752, 753, 754, 755, 756, 757, 758, 759, 760, 761, 762, 763, 764, 765, 766, 767, 768, 769, 770, 771, 772, 773, 774, 775, 776, 777, 778, 779, 780, 781, 782, 783, 784, 785, 786, 787, 788, 789, 790, 791, 792, 793, 794, 795, 796, 797, 798, 799, 800, 801, 802, 803, 804, 805, 806, 807, 808, 809, 810, 811, 812, 813, 814, 815, 816, 817, 818, 819, 820, 821, 822, 823, 824, 825, 826, 827, 828, 829, 830, 831, 832, 833, 834, 835, 836, 837, 838, 839, 840, 841, 842, 843, 844, 845, 846, 847, 848, 849, 850, 851, 852, 853, 854, 855, 856, 857, 858, 859, 860, 861, 862, 863, 864, 865, 866, 867, 868, 869, 870, 871, 872],
      "AcquisitionTime": ["150831.995000", "150832.455000", "150832.915000", "150833.375000", "150833.835000", "150834.295000", "150834.755000", "150835.215000", "150835.675000", "150836.135000", "150836.595000", "150837.055000", "150837.515000", "150837.975000", "150838.435000", "150838.895000", "150839.355000", "150839.815000", "150840.275000", "150840.735000", "150841.195000", "150841.655000", "150842.115000", "150842.575000", "150843.035000", "150843.495000", "150843.955000", "150844.415000", "150844.875000", "150845.335000", "150845.795000", "150846.255000", "150846.715000", "150847.175000", "150847.635000", "150848.095000", "150848.555000", "150849.015000", "150849.475000", "150849.935000", "150850.395000", "150850.855000", "150851.315000", "150851.775000", "150852.235000", "150852.695000", "150853.155000", "150853.615000", "150854.075000", "150854.535000", "150854.995000", "150855.455000", "150855.915000", "150856.375000", "150856.835000", "150857.295000", "150857.755000", "150858.215000", "150858.675000", "150859.135000", "150859.595000", "150900.055000", "150900.515000", "150900.975000", "150901.435000", "150901.895000", "150902.355000", "150902.815000", "150903.275000", "150903.735000", "150904.195000", "150904.655000", "150905.115000", "150905.575000", "150906.035000", "150906.495000", "150906.955000", "150907.415000", "150907.875000", "150908.335000", "150908.795000", "150909.255000", "150909.715000", "150910.175000", "150910.635000", "150911.095000", "150911.555000", "150912.015000", "150912.475000", "150912.935000", "150913.395000", "150913.855000", "150914.315000", "150914.775000", "150915.235000", "150915.695000", "150916.155000", "150916.615000", "150917.075000", "150917.535000", "150917.995000", "150918.455000", "150918.915000", "150919.375000", "150919.835000", "150920.295000", "150920.755000", "150921.215000", "150921.675000", "150922.135000", "150922.595000", "150923.055000", "150923.515000", "150923.975000", "150924.435000", "150924.895000", "150925.355000", "150925.815000", "150926.275000", "150926.735000", "150927.195000", "150927.655000", "150928.115000", "150928.575000", "150929.035000", "150929.495000", "150929.955000", "150930.415000", "150930.875000", "150931.335000", "150931.795000", "150932.255000", "150932.715000", "150933.175000", "150933.635000", "150934.095000", "150934.555000", "150935.015000", "150935.475000", "150935.935000", "150936.395000", "150936.855000", "150937.315000", "150937.775000", "150938.235000", "150938.695000", "150939.155000", "150939.615000", "150940.075000", "150940.535000", "150940.995000", "150941.455000", "150941.915000", "150942.375000", "150942.835000", "150943.295000", "150943.755000", "150944.215000", "150944.675000", "150945.135000", "150945.595000", "150946.055000", "150946.515000", "150946.975000", "150947.435000", "150947.895000", "150948.355000", "150948.815000", "150949.275000", "150949.735000", "150950.195000", "150950.655000", "150951.115000", "150951.575000", "150952.035000", "150952.495000", "150952.955000", "150953.415000", "150953.875000", "150954.335000", "150954.795000", "150955.255000", "150955.715000", "150956.175000", "150956.635000", "150957.095000", "150957.555000", "150958.015000", "150958.475000", "150958.935000", "150959.395000", "150959.855000", "151000.315000", "151000.775000", "151001.235000", "151001.695000", "151002.155000", "151002.615000", "151003.075000", "151003.535000", "151003.995000", "151004.455000", "151004.915000", "151005.375000", "151005.835000", "151006.295000", "151006.755000", "151007.215000", "151007.675000", "151008.135000", "151008.595000", "151009.055000", "151009.515000", "151009.975000", "151010.435000", "151010.895000", "151011.355000", "151011.815000", "151012.275000", "151012.735000", "151013.195000", "151013.655000", "151014.115000", "151014.575000", "151015.035000", "151015.495000", "151015.955000", "151016.415000", "151016.875000", "151017.335000", "151017.795000", "151018.255000", "151018.715000", "151019.175000", "151019.635000", "151020.095000", "151020.555000", "151021.015000", "151021.475000", "151021.935000", "151022.395000", "151022.855000", "151023.315000", "151023.775000", "151024.235000", "151024.695000", "151025.155000", "151025.615000", "151026.075000", "151026.535000", "151026.995000", "151027.455000", "151027.915000", "151028.375000", "151028.835000", "151029.295000", "151029.755000", "151030.215000", "151030.675000", "151031.135000", "151031.595000", "151032.055000", "151032.515000", "151032.975000", "151033.435000", "151033.895000", "151034.355000", "151034.815000", "151035.275000", "151035.735000", "151036.195000", "151036.655000", "151037.115000", "151037.575000", "151038.035000", "151038.495000", "151038.955000", "151039.415000", "151039.875000", "151040.335000", "151040.795000", "151041.255000", "151041.715000", "151042.175000", "151042.635000", "151043.095000", "151043.555000", "151044.015000", "151044.475000", "151044.935000", "151045.395000", "151045.855000", "151046.315000", "151046.775000", "151047.235000", "151047.695000", "151048.155000", "151048.615000", "151049.075000", "151049.535000", "151049.995000", "151050.455000", "151050.915000", "151051.375000", "151051.835000", "151052.295000", "151052.755000", "151053.215000", "151053.675000", "151054.135000", "151054.595000", "151055.055000", "151055.515000", "151055.975000", "151056.435000", "151056.895000", "151057.355000", "151057.815000", "151058.275000", "151058.735000", "151059.195000", "151059.655000", "151100.115000", "151100.575000", "151101.035000", "151101.495000", "151101.955000", "151102.415000", "151102.875000", "151103.335000", "151103.795000", "151104.255000", "151104.715000", "151105.175000", "151105.635000", "151106.095000", "151106.555000", "151107.015000", "151107.475000", "151107.935000", "151108.395000", "151108.855000", "151109.315000", "151109.775000", "151110.235000", "151110.695000", "151111.155000", "151111.615000", "151112.075000", "151112.535000", "151112.995000", "151113.455000", "151113.915000", "151114.375000", "151114.835000", "151115.295000", "151115.755000", "151116.215000", "151116.675000", "151117.135000", "151117.595000", "151118.055000", "151118.515000", "151118.975000", "151119.435000", "151119.895000", "151120.355000", "151120.815000", "151121.275000", "151121.735000", "151122.195000", "151122.655000", "151123.115000", "151123.575000", "151124.035000", "151124.495000", "151124.955000", "151125.415000", "151125.875000", "151126.335000", "151126.795000", "151127.255000", "151127.715000", "151128.175000", "151128.635000", "151129.095000", "151129.555000", "151130.015000", "151130.475000", "151130.935000", "151131.395000", "151131.855000", "151132.315000", "151132.775000", "151133.235000", "151133.695000", "151134.155000", "151134.615000", "151135.075000", "151135.535000", "151135.995000", "151136.455000", "151136.915000", "151137.375000", "151137.835000", "151138.295000", "151138.755000", "151139.215000", "151139.675000", "151140.135000", "151140.595000", "151141.055000", "151141.515000", "151141.975000", "151142.435000", "151142.895000", "151143.355000", "151143.815000", "151144.275000", "151144.735000", "151145.195000", "151145.655000", "151146.115000", "151146.575000", "151147.035000", "151147.495000", "151147.955000", "151148.415000", "151148.875000", "151149.335000", "151149.795000", "151150.255000", "151150.715000", "151151.175000", "151151.635000", "151152.095000", "151152.555000", "151153.015000", "151153.475000", "151153.935000", "151154.395000", "151154.855000", "151155.315000", "151155.775000", "151156.235000", "151156.695000", "151157.155000", "151157.615000", "151158.075000", "151158.535000", "151158.995000", "151159.455000", "151159.915000", "151200.375000", "151200.835000", "151201.295000", "151201.755000", "151202.215000", "151202.675000", "151203.135000", "151203.595000", "151204.055000", "151204.515000", "151204.975000", "151205.435000", "151205.895000", "151206.355000", "151206.815000", "151207.275000", "151207.735000", "151208.195000", "151208.655000", "151209.115000", "151209.575000", "151210.035000", "151210.495000", "151210.955000", "151211.415000", "151211.875000", "151212.335000", "151212.795000", "151213.255000", "151213.715000", "151214.175000", "151214.635000", "151215.095000", "151215.555000", "151216.015000", "151216.475000", "151216.935000", "151217.395000", "151217.855000", "151218.315000", "151218.775000", "151219.235000", "151219.695000", "151220.155000", "151220.615000", "151221.075000", "151221.535000", "151221.995000", "151222.455000", "151222.915000", "151223.375000", "151223.835000", "151224.295000", "151224.755000", "151225.215000", "151225.675000", "151226.135000", "151226.595000", "151227.055000", "151227.515000", "151227.975000", "151228.435000", "151228.895000", "151229.355000", "151229.815000", "151230.275000", "151230.735000", "151231.195000", "151231.655000", "151232.115000", "151232.575000", "151233.035000", "151233.495000", "151233.955000", "151234.415000", "151234.875000", "151235.335000", "151235.795000", "151236.255000", "151236.715000", "151237.175000", "151237.635000", "151238.095000", "151238.555000", "151239.015000", "151239.475000", "151239.935000", "151240.395000", "151240.855000", "151241.315000", "151241.775000", "151242.235000", "151242.695000", "151243.155000", "151243.615000", "151244.075000", "151244.535000", "151244.995000", "151245.455000", "151245.915000", "151246.375000", "151246.835000", "151247.295000", "151247.755000", "151248.215000", "151248.675000", "151249.135000", "151249.595000", "151250.055000", "151250.515000", "151250.975000", "151251.435000", "151251.895000", "151252.355000", "151252.815000", "151253.275000", "151253.735000", "151254.195000", "151254.655000", "151255.115000", "151255.575000", "151256.035000", "151256.495000", "151256.955000", "151257.415000", "151257.875000", "151258.335000", "151258.795000", "151259.255000", "151259.715000", "151300.175000", "151300.635000", "151301.095000", "151301.555000", "151302.015000", "151302.475000", "151302.935000", "151303.395000", "151303.855000", "151304.315000", "151304.775000", "151305.235000", "151305.695000", "151306.155000", "151306.615000", "151307.075000", "151307.535000", "151307.995000", "151308.455000", "151308.915000", "151309.375000", "151309.835000", "151310.295000", "151310.755000", "151311.215000", "151311.675000", "151312.135000", "151312.595000", "151313.055000", "151313.515000", "151313.975000", "151314.435000", "151314.895000", "151315.355000", "151315.815000", "151316.275000", "151316.735000", "151317.195000", "151317.655000", "151318.115000", "151318.575000", "151319.035000", "151319.495000", "151319.955000", "151320.415000", "151320.875000", "151321.335000", "151321.795000", "151322.255000", "151322.715000", "151323.175000", "151323.635000", "151324.095000", "151324.555000", "151325.015000", "151325.475000", "151325.935000", "151326.395000", "151326.855000", "151327.315000", "151327.775000", "151328.235000", "151328.695000", "151329.155000", "151329.615000", "151330.075000", "151330.535000", "151330.995000", "151331.455000", "151331.915000", "151332.375000", "151332.835000", "151333.295000", "151333.755000", "151334.215000", "151334.675000", "151335.135000", "151335.595000", "151336.055000", "151336.515000", "151336.975000", "151337.435000", "151337.895000", "151338.355000", "151338.815000", "151339.275000", "151339.735000", "151340.195000", "151340.655000", "151341.115000", "151341.575000", "151342.035000", "151342.495000", "151342.955000", "151343.415000", "151343.875000", "151344.335000", "151344.795000", "151345.255000", "151345.715000", "151346.175000", "151346.635000", "151347.095000", "151347.555000", "151348.015000", "151348.475000", "151348.935000", "151349.395000", "151349.855000", "151350.315000", "151350.775000", "151351.235000", "151351.695000", "151352.155000", "151352.615000", "151353.075000", "151353.535000", "151353.995000", "151354.455000", "151354.915000", "151355.375000", "151355.835000", "151356.295000", "151356.755000", "151357.215000", "151357.675000", "151358.135000", "151358.595000", "151359.055000", "151359.515000", "151359.975000", "151400.435000", "151400.895000", "151401.355000", "151401.815000", "151402.275000", "151402.735000", "151403.195000", "151403.655000", "151404.115000", "151404.575000", "151405.035000", "151405.495000", "151405.955000", "151406.415000", "151406.875000", "151407.335000", "151407.795000", "151408.255000", "151408.715000", "151409.175000", "151409.635000", "151410.095000", "151410.555000", "151411.015000", "151411.475000", "151411.935000", "151412.395000", "151412.855000", "151413.315000", "151413.775000", "151414.235000", "151414.695000", "151415.155000", "151415.615000", "151416.075000", "151416.535000", "151416.995000", "151417.455000", "151417.915000", "151418.375000", "151418.835000", "151419.295000", "151419.755000", "151420.215000", "151420.675000", "151421.135000", "151421.595000", "151422.055000", "151422.515000", "151422.975000", "151423.435000", "151423.895000", "151424.355000", "151424.815000", "151425.275000", "151425.735000", "151426.195000", "151426.655000", "151427.115000", "151427.575000", "151428.035000", "151428.495000", "151428.955000", "151429.415000", "151429.875000", "151430.335000", "151430.795000", "151431.255000", "151431.715000", "151432.175000", "151432.635000", "151433.095000", "151433.555000", "151434.015000", "151434.475000", "151434.935000", "151435.395000", "151435.855000", "151436.315000", "151436.775000", "151437.235000", "151437.695000", "151438.155000", "151438.615000", "151439.075000", "151439.535000", "151439.995000", "151440.455000", "151440.915000", "151441.375000", "151441.835000", "151442.295000", "151442.755000", "151443.215000", "151443.675000", "151444.135000", "151444.595000", "151445.055000", "151445.515000", "151445.975000", "151446.435000", "151446.895000", "151447.355000", "151447.815000", "151448.275000", "151448.735000", "151449.195000", "151449.655000", "151450.115000", "151450.575000", "151451.035000", "151451.495000", "151451.955000", "151452.415000", "151452.875000", "151453.335000", "151453.795000", "151454.255000", "151454.715000", "151455.175000", "151455.635000", "151456.095000", "151456.555000", "151457.015000", "151457.475000", "151457.935000", "151458.395000", "151458.855000", "151459.315000", "151459.775000", "151500.235000", "151500.695000", "151501.155000", "151501.615000", "151502.075000", "151502.535000", "151502.995000", "151503.455000", "151503.915000", "151504.375000", "151504.835000", "151505.295000", "151505.755000", "151506.215000", "151506.675000", "151507.135000", "151507.595000", "151508.055000", "151508.515000", "151508.975000", "151509.435000", "151509.895000", "151510.355000", "151510.815000", "151511.275000", "151511.735000", "151512.195000", "151512.655000"],
