{
  "AcquisitionMatrixPE": 82,
  "AcquisitionNumber": 1,
  "AcquisitionTime": "11:11:11.045000",
  "BandwidthPerPixelPhaseEncode": 24.888,
  "BaseResolution": 82,
  "BodyPartExamined": "BRAIN",
  "ConsistencyInfo": "N4_VE11E_LATEST_20181129",
  "ConversionSoftware": "dcm2niix",
  "ConversionSoftwareVersion": "v1.0.20201102",
  "DerivedVendorReportedEchoSpacing": 0.00049,
  "DeviceSerialNumber": "66112",
  "DwellTime": 2e-06,
  "EchoTime": 0.0272,
  "EchoTrainLength": 82,
  "EffectiveEchoSpacing": 0.00049,
  "FlipAngle": 44,
  "ImageComments": "Unaliased MB8/PE3",
  "ImageOrientationPatientDICOM": [0.997698, 0.0596292, 0.0322941, -0.060148, 0.998072, 0.0153377],
  "ImageType": [
    "ORIGINAL",
    "PRIMARY",
    "M",
    "MB",
    "ND",
    "NORM",
    "MOSAIC"
],
  "ImagingFrequency": 123.259,
  "InPlanePhaseEncodingDirectionDICOM": "COL",
  "InstitutionAddress": "Maynard 3,Hanover,NH,US,03755",
  "InstitutionName": "Dartmouth College - PBS",
  "InstitutionalDepartmentName": "Department",
  "MRAcquisitionType": "2D",
  "MagneticFieldStrength": 3,
  "Manufacturer": "Siemens",
  "ManufacturersModelName": "Prisma",
  "Modality": "MR",
  "MultibandAccelerationFactor": 8,
  "PartialFourier": 1,
  "PatientPosition": "HFS",
  "PercentPhaseFOV": 100,
  "PercentSampling": 100,
  "PhaseEncodingDirection": "j-",
  "PhaseEncodingSteps": 82,
  "PhaseResolution": 1,
  "PixelBandwidth": 3050,
  "ProcedureStepDescription": "Wager_Wager^1076_spacetop",
  "ProtocolName": "func_run-02_task-narratives_acq-ap-mb8",
  "PulseSequenceDetails": "%CustomerSeq%\\cmrr_mbep2d_bold",
  "ReceiveCoilActiveElements": "HEA;HEP",
  "ReceiveCoilName": "Head_32",
  "ReconMatrixPE": 82,
  "RepetitionTime": 0.46,
  "SAR": 0.113119,
  "ScanOptions": "FS",
  "ScanningSequence": "EP",
  "SequenceName": "epfid2d1_82",
  "SequenceVariant": "SK\\SS",
  "SeriesDescription": "func_run-02_task-narratives_acq-ap-mb8",
  "SeriesNumber": 10,
  "ShimSetting": [4257, -7867, -7207, 508, -86, -426, 263, 41],
  "SliceThickness": 2.7,
  "SliceTiming": [0, 0.25, 0.0625, 0.3125, 0.125, 0.3775, 0.1875, 0, 0.25, 0.0625, 0.3125, 0.125, 0.3775, 0.1875, 0, 0.25, 0.0625, 0.3125, 0.125, 0.3775, 0.1875, 0, 0.25, 0.0625, 0.3125, 0.125, 0.3775, 0.1875, 0, 0.25, 0.0625, 0.3125, 0.125, 0.3775, 0.1875, 0, 0.25, 0.0625, 0.3125, 0.125, 0.3775, 0.1875, 0, 0.25, 0.0625, 0.3125, 0.125, 0.3775, 0.1875, 0, 0.25, 0.0625, 0.3125, 0.125, 0.3775, 0.1875],
  "SoftwareVersions": "syngo MR E11",
  "SpacingBetweenSlices": 2.7,
  "StationName": "AWP66112",
  "TaskName": "narratives",
  "TotalReadoutTime": 0.03969,
  "TxRefAmp": 231.71,
  "WipMemBlock": "91595e4f-d508-4090-bdbf-ac53adc9011b||Sequence: R016 ve11e/master r/434b28f1; Aug  7 2019 18:53:46 by eja",
  "dcmmeta_affine": [
    [-2.676750898361206, -0.1613726019859314, 0.08455651998519897, 115.10087585449219],
    [-0.15998074412345886, 2.677753210067749, 0.046561021357774734, -89.55316162109375],
    [0.08664265275001526, -0.041149940341711044, 2.6982741355895996, -57.943199157714844],
    [0.0, 0.0, 0.0, 1.0]
],
  "dcmmeta_reorient_transform": [
    [0.0, -1.0, 0.0, 81.0],
    [1.0, 0.0, 0.0, 0.0],
    [0.0, 0.0, 1.0, 0.0],
    [0.0, 0.0, 0.0, 1.0]
],
  "dcmmeta_shape": [82, 82, 56, 1098],
  "dcmmeta_slice_dim": 2,
  "dcmmeta_version": 0.6,
  "global": {
    "const": {
      "AccessionNumber": "A004300",
      "AcquisitionMatrix": [82, 0, 0, 82],
      "AngioFlag": "N",
      "BitsAllocated": 16,
      "BitsStored": 16,
      "BodyPartExamined": "BRAIN",
      "Columns": 656,
      "EchoNumbers": 1,
      "EchoTime": 27.2,
      "EchoTrainLength": 82,
      "FlipAngle": 44.0,
      "HighBit": 15,
      "ImageOrientationPatient": [0.9976980770816, 0.05962918262238, 0.03229407944927, -0.060147968491, 0.99807162903769, 0.01533770505821],
      "ImagePositionPatient": [-823.94329695391, -941.77449531767, -97.952817526824],
      "ImageType": [
        "ORIGINAL",
        "PRIMARY",
        "M",
        "MB",
        "ND",
        "NORM",
        "MOSAIC"
],
      "ImagedNucleus": "1H",
      "ImagingFrequency": 123.259168,
      "InPlanePhaseEncodingDirection": "COL",
      "MRAcquisitionType": "2D",
      "MagneticFieldStrength": 3.0,
      "Manufacturer": "SIEMENS",
      "ManufacturerModelName": "Prisma",
      "Modality": "MR",
      "NumberOfAverages": 1.0,
      "NumberOfPhaseEncodingSteps": 82,
      "PercentPhaseFieldOfView": 100.0,
      "PercentSampling": 100.0,
      "PerformedProcedureStepStartTime": "105749.306000",
      "PhotometricInterpretation": "MONOCHROME2",
      "PixelBandwidth": 3050.0,
      "PixelRepresentation": 0,
      "PixelSpacing": [2.6829268932343, 2.6829268932343],
      "ProtocolName": "func_run-02_task-narratives_acq-ap-mb8",
      "RepetitionTime": 460.0,
      "Rows": 656,
      "SAR": 0.11311936987011,
      "SamplesPerPixel": 1,
      "ScanOptions": "FS",
      "ScanningSequence": "EP",
      "SequenceName": "epfid2d1_82",
      "SequenceVariant": [
        "SK",
        "SS"
],
      "SeriesDescription": "func_run-02_task-narratives_acq-ap-mb8",
      "SeriesNumber": 10,
      "SeriesTime": "111122.727000",
      "SliceLocation": -55.845843068894,
      "SliceThickness": 2.7000000476837,
      "SmallestImagePixelValue": 0,
      "SoftwareVersions": "syngo MR E11",
      "SpacingBetweenSlices": 2.7000000807416,
      "SpecificCharacterSet": "ISO_IR 100",
      "StudyID": "2",
      "StudyTime": "105749.243000",
      "TransmitCoilName": "Body",
      "VariableFlipAngleFlag": "N",
      "WindowCenterWidthExplanation": "Algo1"
    },
    "slices": {}
  },
  "time": {
    "samples": {
      "AcquisitionNumber": [1, 2, 3, 4, 5, 6, 7, 8, 9, 10, 11, 12, 13, 14, 15, 16, 17, 18, 19, 20, 21, 22, 23, 24, 25, 26, 27, 28, 29, 30, 31, 32, 33, 34, 35, 36, 37, 38, 39, 40, 41, 42, 43, 44, 45, 46, 47, 48, 49, 50, 51, 52, 53, 54, 55, 56, 57, 58, 59, 60, 61, 62, 63, 64, 65, 66, 67, 68, 69, 70, 71, 72, 73, 74, 75, 76, 77, 78, 79, 80, 81, 82, 83, 84, 85, 86, 87, 88, 89, 90, 91, 92, 93, 94, 95, 96, 97, 98, 99, 100, 101, 102, 103, 104, 105, 106, 107, 108, 109, 110, 111, 112, 113, 114, 115, 116, 117, 118, 119, 120, 121, 122, 123, 124, 125, 126, 127, 128, 129, 130, 131, 132, 133, 134, 135, 136, 137, 138, 139, 140, 141, 142, 143, 144, 145, 146, 147, 148, 149, 150, 151, 152, 153, 154, 155, 156, 157, 158, 159, 160, 161, 162, 163, 164, 165, 166, 167, 168, 169, 170, 171, 172, 173, 174, 175, 176, 177, 178, 179, 180, 181, 182, 183, 184, 185, 186, 187, 188, 189, 190, 191, 192, 193, 194, 195, 196, 197, 198, 199, 200, 201, 202, 203, 204, 205, 206, 207, 208, 209, 210, 211, 212, 213, 214, 215, 216, 217, 218, 219, 220, 221, 222, 223, 224, 225, 226, 227, 228, 229, 230, 231, 232, 233, 234, 235, 236, 237, 238, 239, 240, 241, 242, 243, 244, 245, 246, 247, 248, 249, 250, 251, 252, 253, 254, 255, 256, 257, 258, 259, 260, 261, 262, 263, 264, 265, 266, 267, 268, 269, 270, 271, 272, 273, 274, 275, 276, 277, 278, 279, 280, 281, 282, 283, 284, 285, 286, 287, 288, 289, 290, 291, 292, 293, 294, 295, 296, 297, 298, 299, 300, 301, 302, 303, 304, 305, 306, 307, 308, 309, 310, 311, 312, 313, 314, 315, 316, 317, 318, 319, 320, 321, 322, 323, 324, 325, 326, 327, 328, 329, 330, 331, 332, 333, 334, 335, 336, 337, 338, 339, 340, 341, 342, 343, 344, 345, 346, 347, 348, 349, 350, 351, 352, 353, 354, 355, 356, 357, 358, 359, 360, 361, 362, 363, 364, 365, 366, 367, 368, 369, 370, 371, 372, 373, 374, 375, 376, 377, 378, 379, 380, 381, 382, 383, 384, 385, 386, 387, 388, 389, 390, 391, 392, 393, 394, 395, 396, 397, 398, 399, 400, 401, 402, 403, 404, 405, 406, 407, 408, 409, 410, 411, 412, 413, 414, 415, 416, 417, 418, 419, 420, 421, 422, 423, 424, 425, 426, 427, 428, 429, 430, 431, 432, 433, 434, 435, 436, 437, 438, 439, 440, 441, 442, 443, 444, 445, 446, 447, 448, 449, 450, 451, 452, 453, 454, 455, 456, 457, 458, 459, 460, 461, 462, 463, 464, 465, 466, 467, 468, 469, 470, 471, 472, 473, 474, 475, 476, 477, 478, 479, 480, 481, 482, 483, 484, 485, 486, 487, 488, 489, 490, 491, 492, 493, 494, 495, 496, 497, 498, 499, 500, 501, 502, 503, 504, 505, 506, 507, 508, 509, 510, 511, 512, 513, 514, 515, 516, 517, 518, 519, 520, 521, 522, 523, 524, 525, 526, 527, 528, 529, 530, 531, 532, 533, 534, 535, 536, 537, 538, 539, 540, 541, 542, 543, 544, 545, 546, 547, 548, 549, 550, 551, 552, 553, 554, 555, 556, 557, 558, 559, 560, 561, 562, 563, 564, 565, 566, 567, 568, 569, 570, 571, 572, 573, 574, 575, 576, 577, 578, 579, 580, 581, 582, 583, 584, 585, 586, 587, 588, 589, 590, 591, 592, 593, 594, 595, 596, 597, 598, 599, 600, 601, 602, 603, 604, 605, 606, 607, 608, 609, 610, 611, 612, 613, 614, 615, 616, 617, 618, 619, 620, 621, 622, 623, 624, 625, 626, 627, 628, 629, 630, 631, 632, 633, 634, 635, 636, 637, 638, 639, 640, 641, 642, 643, 644, 645, 646, 647, 648, 649, 650, 651, 652, 653, 654, 655, 656, 657, 658, 659, 660, 661, 662, 663, 664, 665, 666, 667, 668, 669, 670, 671, 672, 673, 674, 675, 676, 677, 678, 679, 680, 681, 682, 683, 684, 685, 686, 687, 688, 689, 690, 691, 692, 693, 694, 695, 696, 697, 698, 699, 700, 701, 702, 703, 704, 705, 706, 707, 708, 709, 710, 711, 712, 713, 714, 715, 716, 717, 718, 719, 720, 721, 722, 723, 724, 725, 726, 727, 728, 729, 730, 731, 732, 733, 734, 735, 736, 737, 738, 739, 740, 741, 742, 743, 744, 745, 746, 747, 748, 749, 750, 751, 752, 753, 754, 755, 756, 757, 758, 759, 760, 761, 762, 763, 764, 765, 766, 767, 768, 769, 770, 771, 772, 773, 774, 775, 776, 777, 778, 779, 780, 781, 782, 783, 784, 785, 786, 787, 788, 789, 790, 791, 792, 793, 794, 795, 796, 797, 798, 799, 800, 801, 802, 803, 804, 805, 806, 807, 808, 809, 810, 811, 812, 813, 814, 815, 816, 817, 818, 819, 820, 821, 822, 823, 824, 825, 826, 827, 828, 829, 830, 831, 832, 833, 834, 835, 836, 837, 838, 839, 840, 841, 842, 843, 844, 845, 846, 847, 848, 849, 850, 851, 852, 853, 854, 855, 856, 857, 858, 859, 860, 861, 862, 863, 864, 865, 866, 867, 868, 869, 870, 871, 872, 873, 874, 875, 876, 877, 878, 879, 880, 881, 882, 883, 884, 885, 886, 887, 888, 889, 890, 891, 892, 893, 894, 895, 896, 897, 898, 899, 900, 901, 902, 903, 904, 905, 906, 907, 908, 909, 910, 911, 912, 913, 914, 915, 916, 917, 918, 919, 920, 921, 922, 923, 924, 925, 926, 927, 928, 929, 930, 931, 932, 933, 934, 935, 936, 937, 938, 939, 940, 941, 942, 943, 944, 945, 946, 947, 948, 949, 950, 951, 952, 953, 954, 955, 956, 957, 958, 959, 960, 961, 962, 963, 964, 965, 966, 967, 968, 969, 970, 971, 972, 973, 974, 975, 976, 977, 978, 979, 980, 981, 982, 983, 984, 985, 986, 987, 988, 989, 990, 991, 992, 993, 994, 995, 996, 997, 998, 999, 1000, 1001, 1002, 1003, 1004, 1005, 1006, 1007, 1008, 1009, 1010, 1011, 1012, 1013, 1014, 1015, 1016, 1017, 1018, 1019, 1020, 1021, 1022, 1023, 1024, 1025, 1026, 1027, 1028, 1029, 1030, 1031, 1032, 1033, 1034, 1035, 1036, 1037, 1038, 1039, 1040, 1041, 1042, 1043, 1044, 1045, 1046, 1047, 1048, 1049, 1050, 1051, 1052, 1053, 1054, 1055, 1056, 1057, 1058, 1059, 1060, 1061, 1062, 1063, 1064, 1065, 1066, 1067, 1068, 1069, 1070, 1071, 1072, 1073, 1074, 1075, 1076, 1077, 1078, 1079, 1080, 1081, 1082, 1083, 1084, 1085, 1086, 1087, 1088, 1089, 1090, 1091, 1092, 1093, 1094, 1095, 1096, 1097, 1098],
      "AcquisitionTime": ["111111.045000", "111111.505000", "111111.965000", "111112.425000", "111112.885000", "111113.345000", "111113.805000", "111114.265000", "111114.725000", "111115.185000", "111115.645000", "111116.105000", "111116.565000", "111117.025000", "111117.485000", "111117.945000", "111118.405000", "111118.865000", "111119.325000", "111119.785000", "111120.245000", "111120.705000", "111121.165000", "111121.625000", "111122.085000", "111122.545000", "111123.005000", "111123.465000", "111123.925000", "111124.385000", "111124.845000", "111125.305000", "111125.765000", "111126.225000", "111126.685000", "111127.145000", "111127.605000", "111128.065000", "111128.525000", "111128.985000", "111129.445000", "111129.905000", "111130.365000", "111130.825000", "111131.285000", "111131.745000", "111132.205000", "111132.665000", "111133.125000", "111133.585000", "111134.045000", "111134.505000", "111134.965000", "111135.425000", "111135.885000", "111136.345000", "111136.805000", "111137.265000", "111137.725000", "111138.185000", "111138.645000", "111139.105000", "111139.565000", "111140.025000", "111140.485000", "111140.945000", "111141.405000", "111141.865000", "111142.325000", "111142.785000", "111143.245000", "111143.705000", "111144.165000", "111144.625000", "111145.085000", "111145.545000", "111146.005000", "111146.465000", "111146.925000", "111147.385000", "111147.845000", "111148.305000", "111148.765000", "111149.225000", "111149.685000", "111150.145000", "111150.605000", "111151.065000", "111151.525000", "111151.985000", "111152.445000", "111152.905000", "111153.365000", "111153.825000", "111154.285000", "111154.745000", "111155.205000", "111155.665000", "111156.125000", "111156.585000", "111157.045000", "111157.505000", "111157.965000", "111158.425000", "111158.885000", "111159.345000", "111159.805000", "111200.265000", "111200.725000", "111201.185000", "111201.645000", "111202.105000", "111202.565000", "111203.025000", "111203.485000", "111203.945000", "111204.405000", "111204.865000", "111205.325000", "111205.785000", "111206.245000", "111206.705000", "111207.165000", "111207.625000", "111208.085000", "111208.545000", "111209.005000", "111209.465000", "111209.925000", "111210.385000", "111210.845000", "111211.305000", "111211.765000", "111212.225000", "111212.685000", "111213.145000", "111213.605000", "111214.065000", "111214.525000", "111214.985000", "111215.445000", "111215.905000", "111216.365000", "111216.825000", "111217.285000", "111217.745000", "111218.205000", "111218.665000", "111219.125000", "111219.585000", "111220.045000", "111220.505000", "111220.965000", "111221.425000", "111221.885000", "111222.345000", "111222.805000", "111223.265000", "111223.725000", "111224.185000", "111224.645000", "111225.105000", "111225.565000", "111226.025000", "111226.485000", "111226.945000", "111227.405000", "111227.865000", "111228.325000", "111228.785000", "111229.245000", "111229.705000", "111230.165000", "111230.625000", "111231.085000", "111231.545000", "111232.005000", "111232.465000", "111232.925000", "111233.385000", "111233.845000", "111234.305000", "111234.765000", "111235.225000", "111235.685000", "111236.145000", "111236.605000", "111237.065000", "111237.525000", "111237.985000", "111238.445000", "111238.905000", "111239.365000", "111239.825000", "111240.285000", "111240.745000", "111241.205000", "111241.665000", "111242.125000", "111242.585000", "111243.045000", "111243.505000", "111243.965000", "111244.425000", "111244.885000", "111245.345000", "111245.805000", "111246.265000", "111246.725000", "111247.185000", "111247.645000", "111248.105000", "111248.565000", "111249.025000", "111249.485000", "111249.945000", "111250.405000", "111250.865000", "111251.325000", "111251.785000", "111252.245000", "111252.705000", "111253.165000", "111253.625000", "111254.085000", "111254.545000", "111255.005000", "111255.465000", "111255.925000", "111256.385000", "111256.845000", "111257.305000", "111257.765000", "111258.225000", "111258.685000", "111259.145000", "111259.605000", "111300.065000", "111300.525000", "111300.985000", "111301.445000", "111301.905000", "111302.365000", "111302.825000", "111303.285000", "111303.745000", "111304.205000", "111304.665000", "111305.125000", "111305.585000", "111306.045000", "111306.505000", "111306.965000", "111307.425000", "111307.885000", "111308.345000", "111308.805000", "111309.265000", "111309.725000", "111310.185000", "111310.645000", "111311.105000", "111311.565000", "111312.025000", "111312.485000", "111312.945000", "111313.405000", "111313.865000", "111314.325000", "111314.785000", "111315.245000", "111315.705000", "111316.165000", "111316.625000", "111317.085000", "111317.545000", "111318.005000", "111318.465000", "111318.925000", "111319.385000", "111319.845000", "111320.305000", "111320.765000", "111321.225000", "111321.685000", "111322.145000", "111322.605000", "111323.065000", "111323.525000", "111323.985000", "111324.445000", "111324.905000", "111325.365000", "111325.825000", "111326.285000", "111326.745000", "111327.205000", "111327.665000", "111328.125000", "111328.585000", "111329.045000", "111329.505000", "111329.965000", "111330.425000", "111330.885000", "111331.345000", "111331.805000", "111332.265000", "111332.725000", "111333.185000", "111333.645000", "111334.105000", "111334.565000", "111335.025000", "111335.485000", "111335.945000", "111336.405000", "111336.865000", "111337.325000", "111337.785000", "111338.245000", "111338.705000", "111339.165000", "111339.625000", "111340.085000", "111340.545000", "111341.005000", "111341.465000", "111341.925000", "111342.385000", "111342.845000", "111343.305000", "111343.765000", "111344.225000", "111344.685000", "111345.145000", "111345.605000", "111346.065000", "111346.525000", "111346.985000", "111347.445000", "111347.905000", "111348.365000", "111348.825000", "111349.285000", "111349.745000", "111350.205000", "111350.665000", "111351.125000", "111351.585000", "111352.045000", "111352.505000", "111352.965000", "111353.425000", "111353.885000", "111354.345000", "111354.805000", "111355.265000", "111355.725000", "111356.185000", "111356.645000", "111357.105000", "111357.565000", "111358.025000", "111358.485000", "111358.945000", "111359.405000", "111359.865000", "111400.325000", "111400.785000", "111401.245000", "111401.705000", "111402.165000", "111402.625000", "111403.085000", "111403.545000", "111404.005000", "111404.465000", "111404.925000", "111405.385000", "111405.845000", "111406.305000", "111406.765000", "111407.225000", "111407.685000", "111408.145000", "111408.605000", "111409.065000", "111409.525000", "111409.985000", "111410.445000", "111410.905000", "111411.365000", "111411.825000", "111412.285000", "111412.745000", "111413.205000", "111413.665000", "111414.125000", "111414.585000", "111415.045000", "111415.505000", "111415.965000", "111416.425000", "111416.885000", "111417.345000", "111417.805000", "111418.265000", "111418.725000", "111419.185000", "111419.645000", "111420.105000", "111420.565000", "111421.025000", "111421.485000", "111421.945000", "111422.405000", "111422.865000", "111423.325000", "111423.785000", "111424.245000", "111424.705000", "111425.165000", "111425.625000", "111426.085000", "111426.545000", "111427.005000", "111427.465000", "111427.925000", "111428.385000", "111428.845000", "111429.305000", "111429.765000", "111430.225000", "111430.685000", "111431.145000", "111431.605000", "111432.065000", "111432.525000", "111432.985000", "111433.445000", "111433.905000", "111434.365000", "111434.825000", "111435.285000", "111435.745000", "111436.205000", "111436.665000", "111437.125000", "111437.585000", "111438.045000", "111438.505000", "111438.965000", "111439.425000", "111439.885000", "111440.345000", "111440.805000", "111441.265000", "111441.725000", "111442.185000", "111442.645000", "111443.105000", "111443.565000", "111444.025000", "111444.485000", "111444.945000", "111445.405000", "111445.865000", "111446.325000", "111446.785000", "111447.245000", "111447.705000", "111448.165000", "111448.625000", "111449.085000", "111449.545000", "111450.005000", "111450.465000", "111450.925000", "111451.385000", "111451.845000", "111452.305000", "111452.765000", "111453.225000", "111453.685000", "111454.145000", "111454.605000", "111455.065000", "111455.525000", "111455.985000", "111456.445000", "111456.905000", "111457.365000", "111457.825000", "111458.285000", "111458.745000", "111459.205000", "111459.665000", "111500.125000", "111500.585000", "111501.045000", "111501.505000", "111501.965000", "111502.425000", "111502.885000", "111503.345000", "111503.805000", "111504.265000", "111504.725000", "111505.185000", "111505.645000", "111506.105000", "111506.565000", "111507.025000", "111507.485000", "111507.945000", "111508.405000", "111508.865000", "111509.325000", "111509.785000", "111510.245000", "111510.705000", "111511.165000", "111511.625000", "111512.085000", "111512.545000", "111513.005000", "111513.465000", "111513.925000", "111514.385000", "111514.845000", "111515.305000", "111515.765000", "111516.225000", "111516.685000", "111517.145000", "111517.605000", "111518.065000", "111518.525000", "111518.985000", "111519.445000", "111519.905000", "111520.365000", "111520.825000", "111521.285000", "111521.745000", "111522.205000", "111522.665000", "111523.125000", "111523.585000", "111524.045000", "111524.505000", "111524.965000", "111525.425000", "111525.885000", "111526.345000", "111526.805000", "111527.265000", "111527.725000", "111528.185000", "111528.645000", "111529.105000", "111529.565000", "111530.025000", "111530.485000", "111530.945000", "111531.405000", "111531.865000", "111532.325000", "111532.785000", "111533.245000", "111533.705000", "111534.165000", "111534.625000", "111535.085000", "111535.545000", "111536.005000", "111536.465000", "111536.925000", "111537.385000", "111537.845000", "111538.305000", "111538.765000", "111539.225000", "111539.685000", "111540.145000", "111540.605000", "111541.065000", "111541.525000", "111541.985000", "111542.445000", "111542.905000", "111543.365000", "111543.825000", "111544.285000", "111544.745000", "111545.205000", "111545.665000", "111546.125000", "111546.585000", "111547.045000", "111547.505000", "111547.965000", "111548.425000", "111548.885000", "111549.345000", "111549.805000", "111550.265000", "111550.725000", "111551.185000", "111551.645000", "111552.105000", "111552.565000", "111553.025000", "111553.485000", "111553.945000", "111554.405000", "111554.865000", "111555.325000", "111555.785000", "111556.245000", "111556.705000", "111557.165000", "111557.625000", "111558.085000", "111558.545000", "111559.005000", "111559.465000", "111559.925000", "111600.385000", "111600.845000", "111601.305000", "111601.765000", "111602.225000", "111602.685000", "111603.145000", "111603.605000", "111604.065000", "111604.525000", "111604.985000", "111605.445000", "111605.905000", "111606.365000", "111606.825000", "111607.285000", "111607.745000", "111608.205000", "111608.665000", "111609.125000", "111609.585000", "111610.045000", "111610.505000", "111610.965000", "111611.425000", "111611.885000", "111612.345000", "111612.805000", "111613.265000", "111613.725000", "111614.185000", "111614.645000", "111615.105000", "111615.565000", "111616.025000", "111616.485000", "111616.945000", "111617.405000", "111617.865000", "111618.325000", "111618.785000", "111619.245000", "111619.705000", "111620.165000", "111620.625000", "111621.085000", "111621.545000", "111622.005000", "111622.465000", "111622.925000", "111623.385000", "111623.845000", "111624.305000", "111624.765000", "111625.225000", "111625.685000", "111626.145000", "111626.605000", "111627.065000", "111627.525000", "111627.985000", "111628.445000", "111628.905000", "111629.365000", "111629.825000", "111630.285000", "111630.745000", "111631.205000", "111631.665000", "111632.125000", "111632.585000", "111633.045000", "111633.505000", "111633.965000", "111634.425000", "111634.885000", "111635.345000", "111635.805000", "111636.265000", "111636.725000", "111637.185000", "111637.645000", "111638.105000", "111638.565000", "111639.025000", "111639.485000", "111639.945000", "111640.405000", "111640.865000", "111641.325000", "111641.785000", "111642.245000", "111642.705000", "111643.165000", "111643.625000", "111644.085000", "111644.545000", "111645.005000", "111645.465000", "111645.925000", "111646.385000", "111646.845000", "111647.305000", "111647.765000", "111648.225000", "111648.685000", "111649.145000", "111649.605000", "111650.065000", "111650.525000", "111650.985000", "111651.445000", "111651.905000", "111652.365000", "111652.825000", "111653.285000", "111653.745000", "111654.205000", "111654.665000", "111655.125000", "111655.585000", "111656.045000", "111656.505000", "111656.965000", "111657.425000", "111657.885000", "111658.345000", "111658.805000", "111659.265000", "111659.725000", "111700.185000", "111700.645000", "111701.105000", "111701.565000", "111702.025000", "111702.485000", "111702.945000", "111703.405000", "111703.865000", "111704.325000", "111704.785000", "111705.245000", "111705.705000", "111706.165000", "111706.625000", "111707.085000", "111707.545000", "111708.005000", "111708.465000", "111708.925000", "111709.385000", "111709.845000", "111710.305000", "111710.765000", "111711.225000", "111711.685000", "111712.145000", "111712.605000", "111713.065000", "111713.525000", "111713.985000", "111714.445000", "111714.905000", "111715.365000", "111715.825000", "111716.285000", "111716.745000", "111717.205000", "111717.665000", "111718.125000", "111718.585000", "111719.045000", "111719.505000", "111719.965000", "111720.425000", "111720.885000", "111721.345000", "111721.805000", "111722.265000", "111722.725000", "111723.185000", "111723.645000", "111724.105000", "111724.565000", "111725.025000", "111725.485000", "111725.945000", "111726.405000", "111726.865000", "111727.325000", "111727.785000", "111728.245000", "111728.705000", "111729.165000", "111729.625000", "111730.085000", "111730.545000", "111731.005000", "111731.465000", "111731.925000", "111732.385000", "111732.845000", "111733.305000", "111733.765000", "111734.225000", "111734.685000", "111735.145000", "111735.605000", "111736.065000", "111736.525000", "111736.985000", "111737.445000", "111737.905000", "111738.365000", "111738.825000", "111739.285000", "111739.745000", "111740.205000", "111740.665000", "111741.125000", "111741.585000", "111742.045000", "111742.505000", "111742.965000", "111743.425000", "111743.885000", "111744.345000", "111744.805000", "111745.265000", "111745.725000", "111746.185000", "111746.645000", "111747.105000", "111747.565000", "111748.025000", "111748.485000", "111748.945000", "111749.405000", "111749.865000", "111750.325000", "111750.785000", "111751.245000", "111751.705000", "111752.165000", "111752.625000", "111753.085000", "111753.545000", "111754.005000", "111754.465000", "111754.925000", "111755.385000", "111755.845000", "111756.305000", "111756.765000", "111757.225000", "111757.685000", "111758.145000", "111758.605000", "111759.065000", "111759.525000", "111759.985000", "111800.445000", "111800.905000", "111801.365000", "111801.825000", "111802.285000", "111802.745000", "111803.205000", "111803.665000", "111804.125000", "111804.585000", "111805.045000", "111805.505000", "111805.965000", "111806.425000", "111806.885000", "111807.345000", "111807.805000", "111808.265000", "111808.725000", "111809.185000", "111809.645000", "111810.105000", "111810.565000", "111811.025000", "111811.485000", "111811.945000", "111812.405000", "111812.865000", "111813.325000", "111813.785000", "111814.245000", "111814.705000", "111815.165000", "111815.625000", "111816.085000", "111816.545000", "111817.005000", "111817.465000", "111817.925000", "111818.385000", "111818.845000", "111819.305000", "111819.765000", "111820.225000", "111820.685000", "111821.145000", "111821.605000", "111822.065000", "111822.525000", "111822.985000", "111823.445000", "111823.905000", "111824.365000", "111824.825000", "111825.285000", "111825.745000", "111826.205000", "111826.665000", "111827.125000", "111827.585000", "111828.045000", "111828.505000", "111828.965000", "111829.425000", "111829.885000", "111830.345000", "111830.805000", "111831.265000", "111831.725000", "111832.185000", "111832.645000", "111833.105000", "111833.565000", "111834.025000", "111834.485000", "111834.945000", "111835.405000", "111835.865000", "111836.325000", "111836.785000", "111837.245000", "111837.705000", "111838.165000", "111838.625000", "111839.085000", "111839.545000", "111840.005000", "111840.465000", "111840.925000", "111841.385000", "111841.845000", "111842.305000", "111842.765000", "111843.225000", "111843.685000", "111844.145000", "111844.605000", "111845.065000", "111845.525000", "111845.985000", "111846.445000", "111846.905000", "111847.365000", "111847.825000", "111848.285000", "111848.745000", "111849.205000", "111849.665000", "111850.125000", "111850.585000", "111851.045000", "111851.505000", "111851.965000", "111852.425000", "111852.885000", "111853.345000", "111853.805000", "111854.265000", "111854.725000", "111855.185000", "111855.645000", "111856.105000", "111856.565000", "111857.025000", "111857.485000", "111857.945000", "111858.405000", "111858.865000", "111859.325000", "111859.785000", "111900.245000", "111900.705000", "111901.165000", "111901.625000", "111902.085000", "111902.545000", "111903.005000", "111903.465000", "111903.925000", "111904.385000", "111904.845000", "111905.305000", "111905.765000", "111906.225000", "111906.685000", "111907.145000", "111907.605000", "111908.065000", "111908.525000", "111908.985000", "111909.445000", "111909.905000", "111910.365000", "111910.825000", "111911.285000", "111911.745000", "111912.205000", "111912.665000", "111913.125000", "111913.585000", "111914.045000", "111914.505000", "111914.965000", "111915.425000", "111915.885000", "111916.345000", "111916.805000", "111917.265000", "111917.725000", "111918.185000", "111918.645000", "111919.105000", "111919.565000", "111920.025000", "111920.485000", "111920.945000", "111921.405000", "111921.865000", "111922.325000", "111922.785000", "111923.245000", "111923.705000", "111924.165000", "111924.625000", "111925.085000", "111925.545000", "111926.005000", "111926.465000", "111926.925000", "111927.385000", "111927.845000", "111928.305000", "111928.765000", "111929.225000", "111929.685000", "111930.145000", "111930.605000", "111931.065000", "111931.525000", "111931.985000", "111932.445000", "111932.905000", "111933.365000", "111933.825000", "111934.285000", "111934.745000", "111935.205000", "111935.665000"],
