{
  "AcquisitionMatrixPE": 82,
  "AcquisitionNumber": 1,
  "AcquisitionTime": "11:48:16.127500",
  "BandwidthPerPixelPhaseEncode": 24.888,
  "BaseResolution": 82,
  "BodyPartExamined": "BRAIN",
  "ConsistencyInfo": "N4_VE11E_LATEST_20181129",
  "ConversionSoftware": "dcm2niix",
  "ConversionSoftwareVersion": "v1.0.20201102",
  "DerivedVendorReportedEchoSpacing": 0.00049,
  "DeviceSerialNumber": "66112",
  "DwellTime": 2e-06,
  "EchoTime": 0.0272,
  "EchoTrainLength": 82,
  "EffectiveEchoSpacing": 0.00049,
  "FlipAngle": 44,
  "ImageComments": "Unaliased MB8/PE3",
  "ImageOrientationPatientDICOM": [0.997698, 0.0596292, 0.0322941, -0.060148, 0.998072, 0.0153377],
  "ImageType": [
    "ORIGINAL",
    "PRIMARY",
    "M",
    "MB",
    "ND",
    "NORM",
    "MOSAIC"
],
  "ImagingFrequency": 123.259,
  "InPlanePhaseEncodingDirectionDICOM": "COL",
  "InstitutionAddress": "Maynard 3,Hanover,NH,US,03755",
  "InstitutionName": "Dartmouth College - PBS",
  "InstitutionalDepartmentName": "Department",
  "MRAcquisitionType": "2D",
  "MagneticFieldStrength": 3,
  "Manufacturer": "Siemens",
  "ManufacturersModelName": "Prisma",
  "Modality": "MR",
  "MultibandAccelerationFactor": 8,
  "PartialFourier": 1,
  "PatientPosition": "HFS",
  "PercentPhaseFOV": 100,
  "PercentSampling": 100,
  "PhaseEncodingDirection": "j-",
  "PhaseEncodingSteps": 82,
  "PhaseResolution": 1,
  "PixelBandwidth": 3050,
  "ProcedureStepDescription": "Wager_Wager^1076_spacetop",
  "ProtocolName": "func_run-02_task-faces_acq-ap-mb8",
  "PulseSequenceDetails": "%CustomerSeq%\\cmrr_mbep2d_bold",
  "ReceiveCoilActiveElements": "HEA;HEP",
  "ReceiveCoilName": "Head_32",
  "ReconMatrixPE": 82,
  "RepetitionTime": 0.46,
  "SAR": 0.113007,
  "ScanOptions": "FS",
  "ScanningSequence": "EP",
  "SequenceName": "epfid2d1_82",
  "SequenceVariant": "SK\\SS",
  "SeriesDescription": "func_run-02_task-faces_acq-ap-mb8",
  "SeriesNumber": 18,
  "ShimSetting": [4257, -7867, -7207, 508, -86, -426, 263, 41],
  "SliceThickness": 2.7,
  "SliceTiming": [0, 0.25, 0.0625, 0.315, 0.125, 0.3775, 0.1875, 0, 0.25, 0.0625, 0.315, 0.125, 0.3775, 0.1875, 0, 0.25, 0.0625, 0.315, 0.125, 0.3775, 0.1875, 0, 0.25, 0.0625, 0.315, 0.125, 0.3775, 0.1875, 0, 0.25, 0.0625, 0.315, 0.125, 0.3775, 0.1875, 0, 0.25, 0.0625, 0.315, 0.125, 0.3775, 0.1875, 0, 0.25, 0.0625, 0.315, 0.125, 0.3775, 0.1875, 0, 0.25, 0.0625, 0.315, 0.125, 0.3775, 0.1875],
  "SoftwareVersions": "syngo MR E11",
  "SpacingBetweenSlices": 2.7,
  "StationName": "AWP66112",
  "TaskName": "faces",
  "TotalReadoutTime": 0.03969,
  "TxRefAmp": 231.71,
  "WipMemBlock": "83bdb64f-4b45-4a88-8541-658f0f47dd79||Sequence: R016 ve11e/master r/434b28f1; Aug  7 2019 18:53:46 by eja",
  "dcmmeta_affine": [
    [-2.676750898361206, -0.1613726019859314, 0.08455651998519897, 115.10087585449219],
    [-0.15998074412345886, 2.677753210067749, 0.046561021357774734, -89.55316162109375],
    [0.08664265275001526, -0.041149940341711044, 2.6982741355895996, -57.943199157714844],
    [0.0, 0.0, 0.0, 1.0]
],
  "dcmmeta_reorient_transform": [
    [0.0, -1.0, 0.0, 81.0],
    [1.0, 0.0, 0.0, 0.0],
    [0.0, 0.0, 1.0, 0.0],
    [0.0, 0.0, 0.0, 1.0]
],
  "dcmmeta_shape": [82, 82, 56, 914],
  "dcmmeta_slice_dim": 2,
  "dcmmeta_version": 0.6,
  "global": {
    "const": {
      "AccessionNumber": "A004300",
      "AcquisitionMatrix": [82, 0, 0, 82],
      "AngioFlag": "N",
      "BitsAllocated": 16,
      "BitsStored": 16,
      "BodyPartExamined": "BRAIN",
      "Columns": 656,
      "EchoNumbers": 1,
      "EchoTime": 27.2,
      "EchoTrainLength": 82,
      "FlipAngle": 44.0,
      "HighBit": 15,
      "ImageOrientationPatient": [0.9976980770816, 0.05962918262238, 0.03229407944927, -0.060147968491, 0.99807162903769, 0.01533770505821],
      "ImagePositionPatient": [-823.94329695391, -941.77449531767, -97.952817526824],
      "ImageType": [
        "ORIGINAL",
        "PRIMARY",
        "M",
        "MB",
        "ND",
        "NORM",
        "MOSAIC"
],
      "ImagedNucleus": "1H",
      "ImagingFrequency": 123.259189,
      "InPlanePhaseEncodingDirection": "COL",
      "MRAcquisitionType": "2D",
      "MagneticFieldStrength": 3.0,
      "Manufacturer": "SIEMENS",
      "ManufacturerModelName": "Prisma",
      "Modality": "MR",
      "NumberOfAverages": 1.0,
      "NumberOfPhaseEncodingSteps": 82,
      "PercentPhaseFieldOfView": 100.0,
      "PercentSampling": 100.0,
      "PerformedProcedureStepStartTime": "105749.306000",
      "PhotometricInterpretation": "MONOCHROME2",
      "PixelBandwidth": 3050.0,
      "PixelRepresentation": 0,
      "PixelSpacing": [2.6829268932343, 2.6829268932343],
      "ProtocolName": "func_run-02_task-faces_acq-ap-mb8",
      "RepetitionTime": 460.0,
      "Rows": 656,
      "SAR": 0.11300680844531,
      "SamplesPerPixel": 1,
      "ScanOptions": "FS",
      "ScanningSequence": "EP",
      "SequenceName": "epfid2d1_82",
      "SequenceVariant": [
        "SK",
        "SS"
],
      "SeriesDescription": "func_run-02_task-faces_acq-ap-mb8",
      "SeriesNumber": 18,
      "SeriesTime": "114842.558000",
      "SliceLocation": -55.845843068894,
      "SliceThickness": 2.7000000476837,
      "SmallestImagePixelValue": 0,
      "SoftwareVersions": "syngo MR E11",
      "SpacingBetweenSlices": 2.7000000807416,
      "SpecificCharacterSet": "ISO_IR 100",
      "StudyID": "2",
      "StudyTime": "105749.243000",
      "TransmitCoilName": "Body",
      "VariableFlipAngleFlag": "N",
      "WindowCenterWidthExplanation": "Algo1"
    },
    "slices": {}
  },
  "time": {
    "samples": {
      "AcquisitionNumber": [1, 2, 3, 4, 5, 6, 7, 8, 9, 10, 11, 12, 13, 14, 15, 16, 17, 18, 19, 20, 21, 22, 23, 24, 25, 26, 27, 28, 29, 30, 31, 32, 33, 34, 35, 36, 37, 38, 39, 40, 41, 42, 43, 44, 45, 46, 47, 48, 49, 50, 51, 52, 53, 54, 55, 56, 57, 58, 59, 60, 61, 62, 63, 64, 65, 66, 67, 68, 69, 70, 71, 72, 73, 74, 75, 76, 77, 78, 79, 80, 81, 82, 83, 84, 85, 86, 87, 88, 89, 90, 91, 92, 93, 94, 95, 96, 97, 98, 99, 100, 101, 102, 103, 104, 105, 106, 107, 108, 109, 110, 111, 112, 113, 114, 115, 116, 117, 118, 119, 120, 121, 122, 123, 124, 125, 126, 127, 128, 129, 130, 131, 132, 133, 134, 135, 136, 137, 138, 139, 140, 141, 142, 143, 144, 145, 146, 147, 148, 149, 150, 151, 152, 153, 154, 155, 156, 157, 158, 159, 160, 161, 162, 163, 164, 165, 166, 167, 168, 169, 170, 171, 172, 173, 174, 175, 176, 177, 178, 179, 180, 181, 182, 183, 184, 185, 186, 187, 188, 189, 190, 191, 192, 193, 194, 195, 196, 197, 198, 199, 200, 201, 202, 203, 204, 205, 206, 207, 208, 209, 210, 211, 212, 213, 214, 215, 216, 217, 218, 219, 220, 221, 222, 223, 224, 225, 226, 227, 228, 229, 230, 231, 232, 233, 234, 235, 236, 237, 238, 239, 240, 241, 242, 243, 244, 245, 246, 247, 248, 249, 250, 251, 252, 253, 254, 255, 256, 257, 258, 259, 260, 261, 262, 263, 264, 265, 266, 267, 268, 269, 270, 271, 272, 273, 274, 275, 276, 277, 278, 279, 280, 281, 282, 283, 284, 285, 286, 287, 288, 289, 290, 291, 292, 293, 294, 295, 296, 297, 298, 299, 300, 301, 302, 303, 304, 305, 306, 307, 308, 309, 310, 311, 312, 313, 314, 315, 316, 317, 318, 319, 320, 321, 322, 323, 324, 325, 326, 327, 328, 329, 330, 331, 332, 333, 334, 335, 336, 337, 338, 339, 340, 341, 342, 343, 344, 345, 346, 347, 348, 349, 350, 351, 352, 353, 354, 355, 356, 357, 358, 359, 360, 361, 362, 363, 364, 365, 366, 367, 368, 369, 370, 371, 372, 373, 374, 375, 376, 377, 378, 379, 380, 381, 382, 383, 384, 385, 386, 387, 388, 389, 390, 391, 392, 393, 394, 395, 396, 397, 398, 399, 400, 401, 402, 403, 404, 405, 406, 407, 408, 409, 410, 411, 412, 413, 414, 415, 416, 417, 418, 419, 420, 421, 422, 423, 424, 425, 426, 427, 428, 429, 430, 431, 432, 433, 434, 435, 436, 437, 438, 439, 440, 441, 442, 443, 444, 445, 446, 447, 448, 449, 450, 451, 452, 453, 454, 455, 456, 457, 458, 459, 460, 461, 462, 463, 464, 465, 466, 467, 468, 469, 470, 471, 472, 473, 474, 475, 476, 477, 478, 479, 480, 481, 482, 483, 484, 485, 486, 487, 488, 489, 490, 491, 492, 493, 494, 495, 496, 497, 498, 499, 500, 501, 502, 503, 504, 505, 506, 507, 508, 509, 510, 511, 512, 513, 514, 515, 516, 517, 518, 519, 520, 521, 522, 523, 524, 525, 526, 527, 528, 529, 530, 531, 532, 533, 534, 535, 536, 537, 538, 539, 540, 541, 542, 543, 544, 545, 546, 547, 548, 549, 550, 551, 552, 553, 554, 555, 556, 557, 558, 559, 560, 561, 562, 563, 564, 565, 566, 567, 568, 569, 570, 571, 572, 573, 574, 575, 576, 577, 578, 579, 580, 581, 582, 583, 584, 585, 586, 587, 588, 589, 590, 591, 592, 593, 594, 595, 596, 597, 598, 599, 600, 601, 602, 603, 604, 605, 606, 607, 608, 609, 610, 611, 612, 613, 614, 615, 616, 617, 618, 619, 620, 621, 622, 623, 624, 625, 626, 627, 628, 629, 630, 631, 632, 633, 634, 635, 636, 637, 638, 639, 640, 641, 642, 643, 644, 645, 646, 647, 648, 649, 650, 651, 652, 653, 654, 655, 656, 657, 658, 659, 660, 661, 662, 663, 664, 665, 666, 667, 668, 669, 670, 671, 672, 673, 674, 675, 676, 677, 678, 679, 680, 681, 682, 683, 684, 685, 686, 687, 688, 689, 690, 691, 692, 693, 694, 695, 696, 697, 698, 699, 700, 701, 702, 703, 704, 705, 706, 707, 708, 709, 710, 711, 712, 713, 714, 715, 716, 717, 718, 719, 720, 721, 722, 723, 724, 725, 726, 727, 728, 729, 730, 731, 732, 733, 734, 735, 736, 737, 738, 739, 740, 741, 742, 743, 744, 745, 746, 747, 748, 749, 750, 751, 752, 753, 754, 755, 756, 757, 758, 759, 760, 761, 762, 763, 764, 765, 766, 767, 768, 769, 770, 771, 772, 773, 774, 775, 776, 777, 778, 779, 780, 781, 782, 783, 784, 785, 786, 787, 788, 789, 790, 791, 792, 793, 794, 795, 796, 797, 798, 799, 800, 801, 802, 803, 804, 805, 806, 807, 808, 809, 810, 811, 812, 813, 814, 815, 816, 817, 818, 819, 820, 821, 822, 823, 824, 825, 826, 827, 828, 829, 830, 831, 832, 833, 834, 835, 836, 837, 838, 839, 840, 841, 842, 843, 844, 845, 846, 847, 848, 849, 850, 851, 852, 853, 854, 855, 856, 857, 858, 859, 860, 861, 862, 863, 864, 865, 866, 867, 868, 869, 870, 871, 872, 873, 874, 875, 876, 877, 878, 879, 880, 881, 882, 883, 884, 885, 886, 887, 888, 889, 890, 891, 892, 893, 894, 895, 896, 897, 898, 899, 900, 901, 902, 903, 904, 905, 906, 907, 908, 909, 910, 911, 912, 913, 914],
      "AcquisitionTime": ["114816.127500", "114816.587500", "114817.047500", "114817.507500", "114817.967500", "114818.427500", "114818.887500", "114819.347500", "114819.807500", "114820.267500", "114820.727500", "114821.187500", "114821.647500", "114822.107500", "114822.567500", "114823.027500", "114823.487500", "114823.947500", "114824.407500", "114824.867500", "114825.327500", "114825.787500", "114826.247500", "114826.707500", "114827.167500", "114827.627500", "114828.087500", "114828.547500", "114829.007500", "114829.467500", "114829.927500", "114830.387500", "114830.847500", "114831.307500", "114831.767500", "114832.227500", "114832.687500", "114833.147500", "114833.607500", "114834.067500", "114834.527500", "114834.987500", "114835.447500", "114835.907500", "114836.367500", "114836.827500", "114837.287500", "114837.747500", "114838.207500", "114838.667500", "114839.127500", "114839.587500", "114840.047500", "114840.507500", "114840.967500", "114841.427500", "114841.887500", "114842.347500", "114842.807500", "114843.267500", "114843.727500", "114844.187500", "114844.647500", "114845.107500", "114845.567500", "114846.027500", "114846.487500", "114846.947500", "114847.407500", "114847.867500", "114848.327500", "114848.787500", "114849.247500", "114849.707500", "114850.167500", "114850.627500", "114851.087500", "114851.547500", "114852.007500", "114852.467500", "114852.927500", "114853.387500", "114853.847500", "114854.307500", "114854.767500", "114855.227500", "114855.687500", "114856.147500", "114856.607500", "114857.067500", "114857.527500", "114857.987500", "114858.447500", "114858.907500", "114859.367500", "114859.827500", "114900.287500", "114900.747500", "114901.207500", "114901.667500", "114902.127500", "114902.587500", "114903.047500", "114903.507500", "114903.967500", "114904.427500", "114904.887500", "114905.347500", "114905.807500", "114906.267500", "114906.727500", "114907.187500", "114907.647500", "114908.107500", "114908.567500", "114909.027500", "114909.487500", "114909.947500", "114910.407500", "114910.867500", "114911.327500", "114911.787500", "114912.247500", "114912.707500", "114913.167500", "114913.627500", "114914.087500", "114914.547500", "114915.007500", "114915.467500", "114915.927500", "114916.387500", "114916.847500", "114917.307500", "114917.767500", "114918.227500", "114918.687500", "114919.147500", "114919.607500", "114920.067500", "114920.527500", "114920.987500", "114921.447500", "114921.907500", "114922.367500", "114922.827500", "114923.287500", "114923.747500", "114924.207500", "114924.667500", "114925.127500", "114925.587500", "114926.047500", "114926.507500", "114926.967500", "114927.427500", "114927.887500", "114928.347500", "114928.807500", "114929.267500", "114929.727500", "114930.187500", "114930.647500", "114931.107500", "114931.567500", "114932.027500", "114932.487500", "114932.947500", "114933.407500", "114933.867500", "114934.327500", "114934.787500", "114935.247500", "114935.707500", "114936.167500", "114936.627500", "114937.087500", "114937.547500", "114938.007500", "114938.467500", "114938.927500", "114939.387500", "114939.847500", "114940.307500", "114940.767500", "114941.227500", "114941.687500", "114942.147500", "114942.607500", "114943.067500", "114943.527500", "114943.987500", "114944.447500", "114944.907500", "114945.367500", "114945.827500", "114946.287500", "114946.747500", "114947.207500", "114947.667500", "114948.127500", "114948.587500", "114949.047500", "114949.507500", "114949.967500", "114950.427500", "114950.887500", "114951.347500", "114951.807500", "114952.267500", "114952.727500", "114953.187500", "114953.647500", "114954.107500", "114954.567500", "114955.027500", "114955.487500", "114955.947500", "114956.407500", "114956.867500", "114957.327500", "114957.787500", "114958.247500", "114958.707500", "114959.167500", "114959.627500", "115000.087500", "115000.547500", "115001.007500", "115001.467500", "115001.927500", "115002.387500", "115002.847500", "115003.307500", "115003.767500", "115004.227500", "115004.687500", "115005.147500", "115005.607500", "115006.067500", "115006.527500", "115006.987500", "115007.447500", "115007.907500", "115008.367500", "115008.827500", "115009.287500", "115009.747500", "115010.207500", "115010.667500", "115011.127500", "115011.587500", "115012.047500", "115012.507500", "115012.967500", "115013.427500", "115013.887500", "115014.347500", "115014.807500", "115015.267500", "115015.727500", "115016.187500", "115016.647500", "115017.107500", "115017.567500", "115018.027500", "115018.487500", "115018.947500", "115019.407500", "115019.867500", "115020.327500", "115020.787500", "115021.247500", "115021.707500", "115022.167500", "115022.627500", "115023.087500", "115023.547500", "115024.007500", "115024.467500", "115024.927500", "115025.387500", "115025.847500", "115026.307500", "115026.767500", "115027.227500", "115027.687500", "115028.147500", "115028.607500", "115029.067500", "115029.527500", "115029.987500", "115030.447500", "115030.907500", "115031.367500", "115031.827500", "115032.287500", "115032.747500", "115033.207500", "115033.667500", "115034.127500", "115034.587500", "115035.047500", "115035.507500", "115035.967500", "115036.427500", "115036.887500", "115037.347500", "115037.807500", "115038.267500", "115038.727500", "115039.187500", "115039.647500", "115040.107500", "115040.567500", "115041.027500", "115041.487500", "115041.947500", "115042.407500", "115042.867500", "115043.327500", "115043.787500", "115044.247500", "115044.707500", "115045.167500", "115045.627500", "115046.087500", "115046.547500", "115047.007500", "115047.467500", "115047.927500", "115048.387500", "115048.847500", "115049.307500", "115049.767500", "115050.227500", "115050.687500", "115051.147500", "115051.607500", "115052.067500", "115052.527500", "115052.987500", "115053.447500", "115053.907500", "115054.367500", "115054.827500", "115055.287500", "115055.747500", "115056.207500", "115056.667500", "115057.127500", "115057.587500", "115058.047500", "115058.507500", "115058.967500", "115059.427500", "115059.887500", "115100.347500", "115100.807500", "115101.267500", "115101.727500", "115102.187500", "115102.647500", "115103.107500", "115103.567500", "115104.027500", "115104.487500", "115104.947500", "115105.407500", "115105.867500", "115106.327500", "115106.787500", "115107.247500", "115107.707500", "115108.167500", "115108.627500", "115109.087500", "115109.547500", "115110.007500", "115110.467500", "115110.927500", "115111.387500", "115111.847500", "115112.307500", "115112.767500", "115113.227500", "115113.687500", "115114.147500", "115114.607500", "115115.067500", "115115.527500", "115115.987500", "115116.447500", "115116.907500", "115117.367500", "115117.827500", "115118.287500", "115118.747500", "115119.207500", "115119.667500", "115120.127500", "115120.587500", "115121.047500", "115121.507500", "115121.967500", "115122.427500", "115122.887500", "115123.347500", "115123.807500", "115124.267500", "115124.727500", "115125.187500", "115125.647500", "115126.107500", "115126.567500", "115127.027500", "115127.487500", "115127.947500", "115128.407500", "115128.867500", "115129.327500", "115129.787500", "115130.247500", "115130.707500", "115131.167500", "115131.627500", "115132.087500", "115132.547500", "115133.007500", "115133.467500", "115133.927500", "115134.387500", "115134.847500", "115135.307500", "115135.767500", "115136.227500", "115136.687500", "115137.147500", "115137.607500", "115138.067500", "115138.527500", "115138.987500", "115139.447500", "115139.907500", "115140.367500", "115140.827500", "115141.287500", "115141.747500", "115142.207500", "115142.667500", "115143.127500", "115143.587500", "115144.047500", "115144.507500", "115144.967500", "115145.427500", "115145.887500", "115146.347500", "115146.807500", "115147.267500", "115147.727500", "115148.187500", "115148.647500", "115149.107500", "115149.567500", "115150.027500", "115150.487500", "115150.947500", "115151.407500", "115151.867500", "115152.327500", "115152.787500", "115153.247500", "115153.707500", "115154.167500", "115154.627500", "115155.087500", "115155.547500", "115156.007500", "115156.467500", "115156.927500", "115157.387500", "115157.847500", "115158.307500", "115158.767500", "115159.227500", "115159.687500", "115200.147500", "115200.607500", "115201.067500", "115201.527500", "115201.987500", "115202.447500", "115202.907500", "115203.367500", "115203.827500", "115204.287500", "115204.747500", "115205.207500", "115205.667500", "115206.127500", "115206.587500", "115207.047500", "115207.507500", "115207.967500", "115208.427500", "115208.887500", "115209.347500", "115209.807500", "115210.267500", "115210.727500", "115211.187500", "115211.647500", "115212.107500", "115212.567500", "115213.027500", "115213.487500", "115213.947500", "115214.407500", "115214.867500", "115215.327500", "115215.787500", "115216.247500", "115216.707500", "115217.167500", "115217.627500", "115218.087500", "115218.547500", "115219.007500", "115219.467500", "115219.927500", "115220.387500", "115220.847500", "115221.307500", "115221.767500", "115222.227500", "115222.687500", "115223.147500", "115223.607500", "115224.067500", "115224.527500", "115224.987500", "115225.447500", "115225.907500", "115226.367500", "115226.827500", "115227.287500", "115227.747500", "115228.207500", "115228.667500", "115229.127500", "115229.587500", "115230.047500", "115230.507500", "115230.967500", "115231.427500", "115231.887500", "115232.347500", "115232.807500", "115233.267500", "115233.727500", "115234.187500", "115234.647500", "115235.107500", "115235.567500", "115236.027500", "115236.487500", "115236.947500", "115237.407500", "115237.867500", "115238.327500", "115238.787500", "115239.247500", "115239.707500", "115240.167500", "115240.627500", "115241.087500", "115241.547500", "115242.007500", "115242.467500", "115242.927500", "115243.387500", "115243.847500", "115244.307500", "115244.767500", "115245.227500", "115245.687500", "115246.147500", "115246.607500", "115247.067500", "115247.527500", "115247.987500", "115248.447500", "115248.907500", "115249.367500", "115249.827500", "115250.287500", "115250.747500", "115251.207500", "115251.667500", "115252.127500", "115252.587500", "115253.047500", "115253.507500", "115253.967500", "115254.427500", "115254.887500", "115255.347500", "115255.807500", "115256.267500", "115256.727500", "115257.187500", "115257.647500", "115258.107500", "115258.567500", "115259.027500", "115259.487500", "115259.947500", "115300.407500", "115300.867500", "115301.327500", "115301.787500", "115302.247500", "115302.707500", "115303.167500", "115303.627500", "115304.087500", "115304.547500", "115305.007500", "115305.467500", "115305.927500", "115306.387500", "115306.847500", "115307.307500", "115307.767500", "115308.227500", "115308.687500", "115309.147500", "115309.607500", "115310.067500", "115310.527500", "115310.987500", "115311.447500", "115311.907500", "115312.367500", "115312.827500", "115313.287500", "115313.747500", "115314.207500", "115314.667500", "115315.127500", "115315.587500", "115316.047500", "115316.507500", "115316.967500", "115317.427500", "115317.887500", "115318.347500", "115318.807500", "115319.267500", "115319.727500", "115320.187500", "115320.647500", "115321.107500", "115321.567500", "115322.027500", "115322.487500", "115322.947500", "115323.407500", "115323.867500", "115324.327500", "115324.787500", "115325.247500", "115325.707500", "115326.167500", "115326.627500", "115327.087500", "115327.547500", "115328.007500", "115328.467500", "115328.927500", "115329.387500", "115329.847500", "115330.307500", "115330.767500", "115331.227500", "115331.687500", "115332.147500", "115332.607500", "115333.067500", "115333.527500", "115333.987500", "115334.447500", "115334.907500", "115335.367500", "115335.827500", "115336.287500", "115336.747500", "115337.207500", "115337.667500", "115338.127500", "115338.587500", "115339.047500", "115339.507500", "115339.967500", "115340.427500", "115340.887500", "115341.347500", "115341.807500", "115342.267500", "115342.727500", "115343.187500", "115343.647500", "115344.107500", "115344.567500", "115345.027500", "115345.487500", "115345.947500", "115346.407500", "115346.867500", "115347.327500", "115347.787500", "115348.247500", "115348.707500", "115349.167500", "115349.627500", "115350.087500", "115350.547500", "115351.007500", "115351.467500", "115351.927500", "115352.387500", "115352.847500", "115353.307500", "115353.767500", "115354.227500", "115354.687500", "115355.147500", "115355.607500", "115356.067500", "115356.527500", "115356.987500", "115357.447500", "115357.907500", "115358.367500", "115358.827500", "115359.287500", "115359.747500", "115400.207500", "115400.667500", "115401.127500", "115401.587500", "115402.047500", "115402.507500", "115402.967500", "115403.427500", "115403.887500", "115404.347500", "115404.807500", "115405.267500", "115405.727500", "115406.187500", "115406.647500", "115407.107500", "115407.567500", "115408.027500", "115408.487500", "115408.947500", "115409.407500", "115409.867500", "115410.327500", "115410.787500", "115411.247500", "115411.707500", "115412.167500", "115412.627500", "115413.087500", "115413.547500", "115414.007500", "115414.467500", "115414.927500", "115415.387500", "115415.847500", "115416.307500", "115416.767500", "115417.227500", "115417.687500", "115418.147500", "115418.607500", "115419.067500", "115419.527500", "115419.987500", "115420.447500", "115420.907500", "115421.367500", "115421.827500", "115422.287500", "115422.747500", "115423.207500", "115423.667500", "115424.127500", "115424.587500", "115425.047500", "115425.507500", "115425.967500", "115426.427500", "115426.887500", "115427.347500", "115427.807500", "115428.267500", "115428.727500", "115429.187500", "115429.647500", "115430.107500", "115430.567500", "115431.027500", "115431.487500", "115431.947500", "115432.407500", "115432.867500", "115433.327500", "115433.787500", "115434.247500", "115434.707500", "115435.167500", "115435.627500", "115436.087500", "115436.547500", "115437.007500", "115437.467500", "115437.927500", "115438.387500", "115438.847500", "115439.307500", "115439.767500", "115440.227500", "115440.687500", "115441.147500", "115441.607500", "115442.067500", "115442.527500", "115442.987500", "115443.447500", "115443.907500", "115444.367500", "115444.827500", "115445.287500", "115445.747500", "115446.207500", "115446.667500", "115447.127500", "115447.587500", "115448.047500", "115448.507500", "115448.967500", "115449.427500", "115449.887500", "115450.347500", "115450.807500", "115451.267500", "115451.727500", "115452.187500", "115452.647500", "115453.107500", "115453.567500", "115454.027500", "115454.487500", "115454.947500", "115455.407500", "115455.867500", "115456.327500", "115456.787500", "115457.247500", "115457.707500", "115458.167500", "115458.627500", "115459.087500", "115459.547500", "115500.007500", "115500.467500", "115500.927500", "115501.387500", "115501.847500", "115502.307500", "115502.767500", "115503.227500", "115503.687500", "115504.147500", "115504.607500", "115505.067500", "115505.527500", "115505.987500", "115506.447500", "115506.907500", "115507.367500", "115507.827500", "115508.287500", "115508.747500", "115509.207500", "115509.667500", "115510.127500", "115510.587500", "115511.047500", "115511.507500", "115511.967500", "115512.427500", "115512.887500", "115513.347500", "115513.807500", "115514.267500", "115514.727500", "115515.187500", "115515.647500", "115516.107500"],
