{
  "AcquisitionMatrixPE": 82,
  "AcquisitionNumber": 1,
  "AcquisitionTime": "12:06:24.965000",
  "BandwidthPerPixelPhaseEncode": 24.888,
  "BaseResolution": 82,
  "BodyPartExamined": "BRAIN",
  "ConsistencyInfo": "N4_VE11E_LATEST_20181129",
  "ConversionSoftware": "dcm2niix",
  "ConversionSoftwareVersion": "v1.0.20201102",
  "DerivedVendorReportedEchoSpacing": 0.00049,
  "DeviceSerialNumber": "66112",
  "DwellTime": 2e-06,
  "EchoTime": 0.0272,
  "EchoTrainLength": 82,
  "EffectiveEchoSpacing": 0.00049,
  "FlipAngle": 44,
  "ImageComments": "Unaliased MB8/PE3",
  "ImageOrientationPatientDICOM": [0.99619, 0.0795447, 0.0357561, -0.0799765, 0.996738, 0.0108113],
  "ImageType": [
    "ORIGINAL",
    "PRIMARY",
    "M",
    "MB",
    "ND",
    "NORM",
    "MOSAIC"
],
  "ImagingFrequency": 123.259,
  "InPlanePhaseEncodingDirectionDICOM": "COL",
  "InstitutionAddress": "Maynard 3,Hanover,NH,US,03755",
  "InstitutionName": "Dartmouth College - PBS",
  "InstitutionalDepartmentName": "Department",
  "MRAcquisitionType": "2D",
  "MagneticFieldStrength": 3,
  "Manufacturer": "Siemens",
  "ManufacturersModelName": "Prisma",
  "Modality": "MR",
  "MultibandAccelerationFactor": 8,
  "PartialFourier": 1,
  "PatientPosition": "HFS",
  "PercentPhaseFOV": 100,
  "PercentSampling": 100,
  "PhaseEncodingDirection": "j-",
  "PhaseEncodingSteps": 82,
  "PhaseResolution": 1,
  "PixelBandwidth": 3050,
  "ProcedureStepDescription": "Wager_Wager^1076_spacetop",
  "ProtocolName": "func_run-01_task-alignvideo_acq-ap-mb8",
  "PulseSequenceDetails": "%CustomerSeq%\\cmrr_mbep2d_bold",
  "ReceiveCoilActiveElements": "HEA;HEP",
  "ReceiveCoilName": "Head_32",
  "ReconMatrixPE": 82,
  "RepetitionTime": 0.46,
  "SAR": 0.112947,
  "ScanOptions": "FS",
  "ScanningSequence": "EP",
  "SequenceName": "epfid2d1_82",
  "SequenceVariant": "SK\\SS",
  "SeriesDescription": "func_run-01_task-alignvideo_acq-ap-mb8",
  "SeriesNumber": 28,
  "ShimSetting": [4257, -7867, -7208, 508, -86, -424, 264, 42],
  "SliceThickness": 2.7,
  "SliceTiming": [0, 0.2525, 0.0625, 0.315, 0.1275, 0.3775, 0.19, 0, 0.2525, 0.0625, 0.315, 0.1275, 0.3775, 0.19, 0, 0.2525, 0.0625, 0.315, 0.1275, 0.3775, 0.19, 0, 0.2525, 0.0625, 0.315, 0.1275, 0.3775, 0.19, 0, 0.2525, 0.0625, 0.315, 0.1275, 0.3775, 0.19, 0, 0.2525, 0.0625, 0.315, 0.1275, 0.3775, 0.19, 0, 0.2525, 0.0625, 0.315, 0.1275, 0.3775, 0.19, 0, 0.2525, 0.0625, 0.315, 0.1275, 0.3775, 0.19],
  "SoftwareVersions": "syngo MR E11",
  "SpacingBetweenSlices": 2.7,
  "StationName": "AWP66112",
  "TaskName": "alignvideo",
  "TotalReadoutTime": 0.03969,
  "TxRefAmp": 231.71,
  "WipMemBlock": "9b81fa93-6f1b-4919-b9a1-4013f744e7c2||Sequence: R016 ve11e/master r/434b28f1; Aug  7 2019 18:53:46 by eja",
  "dcmmeta_affine": [
    [-2.6727044582366943, -0.21457114815711975, 0.09390459209680557, 115.64945220947266],
    [-0.2134125828742981, 2.674175500869751, 0.03680038824677467, -87.45577239990234],
    [0.09593098610639572, -0.029005978256464005, 2.698115587234497, -58.326778411865234],
    [0.0, 0.0, 0.0, 1.0]
],
  "dcmmeta_reorient_transform": [
    [0.0, -1.0, 0.0, 81.0],
    [1.0, 0.0, 0.0, 0.0],
    [0.0, 0.0, 1.0, 0.0],
    [0.0, 0.0, 0.0, 1.0]
],
  "dcmmeta_shape": [82, 82, 56, 839],
  "dcmmeta_slice_dim": 2,
  "dcmmeta_version": 0.6,
  "global": {
    "const": {
      "AccessionNumber": "A004300",
      "AcquisitionMatrix": [82, 0, 0, 82],
      "AngioFlag": "N",
      "BitsAllocated": 16,
      "BitsStored": 16,
      "BodyPartExamined": "BRAIN",
      "Columns": 656,
      "EchoNumbers": 1,
      "EchoTime": 27.2,
      "EchoTrainLength": 82,
      "FlipAngle": 44.0,
      "HighBit": 15,
      "ImageOrientationPatient": [0.99618981341106, 0.07954468847207, 0.03575609307413, -0.0799765188968, 0.99673811596378, 0.01081131861188],
      "ImagePositionPatient": [-803.75343902989, -957.89022108941, -96.533171527314],
      "ImageType": [
        "ORIGINAL",
        "PRIMARY",
        "M",
        "MB",
        "ND",
        "NORM",
        "MOSAIC"
],
      "ImagedNucleus": "1H",
      "ImagingFrequency": 123.259191,
      "InPlanePhaseEncodingDirection": "COL",
      "MRAcquisitionType": "2D",
      "MagneticFieldStrength": 3.0,
      "Manufacturer": "SIEMENS",
      "ManufacturerModelName": "Prisma",
      "Modality": "MR",
      "NumberOfAverages": 1.0,
      "NumberOfPhaseEncodingSteps": 82,
      "PercentPhaseFieldOfView": 100.0,
      "PercentSampling": 100.0,
      "PerformedProcedureStepStartTime": "105749.306000",
      "PhotometricInterpretation": "MONOCHROME2",
      "PixelBandwidth": 3050.0,
      "PixelRepresentation": 0,
      "PixelSpacing": [2.6829268932343, 2.6829268932343],
      "ProtocolName": "func_run-01_task-alignvideo_acq-ap-mb8",
      "RepetitionTime": 460.0,
      "Rows": 656,
      "SAR": 0.11294701254548,
      "SamplesPerPixel": 1,
      "ScanOptions": "FS",
      "ScanningSequence": "EP",
      "SequenceName": "epfid2d1_82",
      "SequenceVariant": [
        "SK",
        "SS"
],
      "SeriesDescription": "func_run-01_task-alignvideo_acq-ap-mb8",
      "SeriesNumber": 28,
      "SeriesTime": "120642.737000",
      "SliceLocation": -55.455846120622,
      "SliceThickness": 2.7000000476837,
      "SmallestImagePixelValue": 0,
      "SoftwareVersions": "syngo MR E11",
      "SpacingBetweenSlices": 2.6999999641629,
      "SpecificCharacterSet": "ISO_IR 100",
      "StudyID": "2",
      "StudyTime": "105749.243000",
      "TransmitCoilName": "Body",
      "VariableFlipAngleFlag": "N",
      "WindowCenterWidthExplanation": "Algo1"
    },
    "slices": {}
  },
  "time": {
    "samples": {
      "AcquisitionNumber": [1, 2, 3, 4, 5, 6, 7, 8, 9, 10, 11, 12, 13, 14, 15, 16, 17, 18, 19, 20, 21, 22, 23, 24, 25, 26, 27, 28, 29, 30, 31, 32, 33, 34, 35, 36, 37, 38, 39, 40, 41, 42, 43, 44, 45, 46, 47, 48, 49, 50, 51, 52, 53, 54, 55, 56, 57, 58, 59, 60, 61, 62, 63, 64, 65, 66, 67, 68, 69, 70, 71, 72, 73, 74, 75, 76, 77, 78, 79, 80, 81, 82, 83, 84, 85, 86, 87, 88, 89, 90, 91, 92, 93, 94, 95, 96, 97, 98, 99, 100, 101, 102, 103, 104, 105, 106, 107, 108, 109, 110, 111, 112, 113, 114, 115, 116, 117, 118, 119, 120, 121, 122, 123, 124, 125, 126, 127, 128, 129, 130, 131, 132, 133, 134, 135, 136, 137, 138, 139, 140, 141, 142, 143, 144, 145, 146, 147, 148, 149, 150, 151, 152, 153, 154, 155, 156, 157, 158, 159, 160, 161, 162, 163, 164, 165, 166, 167, 168, 169, 170, 171, 172, 173, 174, 175, 176, 177, 178, 179, 180, 181, 182, 183, 184, 185, 186, 187, 188, 189, 190, 191, 192, 193, 194, 195, 196, 197, 198, 199, 200, 201, 202, 203, 204, 205, 206, 207, 208, 209, 210, 211, 212, 213, 214, 215, 216, 217, 218, 219, 220, 221, 222, 223, 224, 225, 226, 227, 228, 229, 230, 231, 232, 233, 234, 235, 236, 237, 238, 239, 240, 241, 242, 243, 244, 245, 246, 247, 248, 249, 250, 251, 252, 253, 254, 255, 256, 257, 258, 259, 260, 261, 262, 263, 264, 265, 266, 267, 268, 269, 270, 271, 272, 273, 274, 275, 276, 277, 278, 279, 280, 281, 282, 283, 284, 285, 286, 287, 288, 289, 290, 291, 292, 293, 294, 295, 296, 297, 298, 299, 300, 301, 302, 303, 304, 305, 306, 307, 308, 309, 310, 311, 312, 313, 314, 315, 316, 317, 318, 319, 320, 321, 322, 323, 324, 325, 326, 327, 328, 329, 330, 331, 332, 333, 334, 335, 336, 337, 338, 339, 340, 341, 342, 343, 344, 345, 346, 347, 348, 349, 350, 351, 352, 353, 354, 355, 356, 357, 358, 359, 360, 361, 362, 363, 364, 365, 366, 367, 368, 369, 370, 371, 372, 373, 374, 375, 376, 377, 378, 379, 380, 381, 382, 383, 384, 385, 386, 387, 388, 389, 390, 391, 392, 393, 394, 395, 396, 397, 398, 399, 400, 401, 402, 403, 404, 405, 406, 407, 408, 409, 410, 411, 412, 413, 414, 415, 416, 417, 418, 419, 420, 421, 422, 423, 424, 425, 426, 427, 428, 429, 430, 431, 432, 433, 434, 435, 436, 437, 438, 439, 440, 441, 442, 443, 444, 445, 446, 447, 448, 449, 450, 451, 452, 453, 454, 455, 456, 457, 458, 459, 460, 461, 462, 463, 464, 465, 466, 467, 468, 469, 470, 471, 472, 473, 474, 475, 476, 477, 478, 479, 480, 481, 482, 483, 484, 485, 486, 487, 488, 489, 490, 491, 492, 493, 494, 495, 496, 497, 498, 499, 500, 501, 502, 503, 504, 505, 506, 507, 508, 509, 510, 511, 512, 513, 514, 515, 516, 517, 518, 519, 520, 521, 522, 523, 524, 525, 526, 527, 528, 529, 530, 531, 532, 533, 534, 535, 536, 537, 538, 539, 540, 541, 542, 543, 544, 545, 546, 547, 548, 549, 550, 551, 552, 553, 554, 555, 556, 557, 558, 559, 560, 561, 562, 563, 564, 565, 566, 567, 568, 569, 570, 571, 572, 573, 574, 575, 576, 577, 578, 579, 580, 581, 582, 583, 584, 585, 586, 587, 588, 589, 590, 591, 592, 593, 594, 595, 596, 597, 598, 599, 600, 601, 602, 603, 604, 605, 606, 607, 608, 609, 610, 611, 612, 613, 614, 615, 616, 617, 618, 619, 620, 621, 622, 623, 624, 625, 626, 627, 628, 629, 630, 631, 632, 633, 634, 635, 636, 637, 638, 639, 640, 641, 642, 643, 644, 645, 646, 647, 648, 649, 650, 651, 652, 653, 654, 655, 656, 657, 658, 659, 660, 661, 662, 663, 664, 665, 666, 667, 668, 669, 670, 671, 672, 673, 674, 675, 676, 677, 678, 679, 680, 681, 682, 683, 684, 685, 686, 687, 688, 689, 690, 691, 692, 693, 694, 695, 696, 697, 698, 699, 700, 701, 702, 703, 704, 705, 706, 707, 708, 709, 710, 711, 712, 713, 714, 715, 716, 717, 718, 719, 720, 721, 722, 723, 724, 725, 726, 727, 728, 729, 730, 731, 732, 733, 734, 735, 736, 737, 738, 739, 740, 741, 742, 743, 744, 745, 746, 747, 748, 749, 750, 751, 752, 753, 754, 755, 756, 757, 758, 759, 760, 761, 762, 763, 764, 765, 766, 767, 768, 769, 770, 771, 772, 773, 774, 775, 776, 777, 778, 779, 780, 781, 782, 783, 784, 785, 786, 787, 788, 789, 790, 791, 792, 793, 794, 795, 796, 797, 798, 799, 800, 801, 802, 803, 804, 805, 806, 807, 808, 809, 810, 811, 812, 813, 814, 815, 816, 817, 818, 819, 820, 821, 822, 823, 824, 825, 826, 827, 828, 829, 830, 831, 832, 833, 834, 835, 836, 837, 838, 839],
      "AcquisitionTime": ["120624.965000", "120625.425000", "120625.885000", "120626.345000", "120626.805000", "120627.265000", "120627.725000", "120628.185000", "120628.645000", "120629.105000", "120629.565000", "120630.025000", "120630.485000", "120630.945000", "120631.405000", "120631.865000", "120632.325000", "120632.785000", "120633.245000", "120633.705000", "120634.165000", "120634.625000", "120635.085000", "120635.545000", "120636.005000", "120636.465000", "120636.925000", "120637.385000", "120637.845000", "120638.305000", "120638.765000", "120639.225000", "120639.685000", "120640.145000", "120640.605000", "120641.065000", "120641.525000", "120641.985000", "120642.445000", "120642.905000", "120643.365000", "120643.825000", "120644.285000", "120644.745000", "120645.205000", "120645.665000", "120646.125000", "120646.585000", "120647.045000", "120647.505000", "120647.965000", "120648.425000", "120648.885000", "120649.345000", "120649.805000", "120650.265000", "120650.725000", "120651.185000", "120651.645000", "120652.105000", "120652.565000", "120653.025000", "120653.485000", "120653.945000", "120654.405000", "120654.865000", "120655.325000", "120655.785000", "120656.245000", "120656.705000", "120657.165000", "120657.625000", "120658.085000", "120658.545000", "120659.005000", "120659.465000", "120659.925000", "120700.385000", "120700.845000", "120701.305000", "120701.765000", "120702.225000", "120702.685000", "120703.145000", "120703.605000", "120704.065000", "120704.525000", "120704.985000", "120705.445000", "120705.905000", "120706.365000", "120706.825000", "120707.285000", "120707.745000", "120708.205000", "120708.665000", "120709.125000", "120709.585000", "120710.045000", "120710.505000", "120710.965000", "120711.425000", "120711.885000", "120712.345000", "120712.805000", "120713.265000", "120713.725000", "120714.185000", "120714.645000", "120715.105000", "120715.565000", "120716.025000", "120716.485000", "120716.945000", "120717.405000", "120717.865000", "120718.325000", "120718.785000", "120719.245000", "120719.705000", "120720.165000", "120720.625000", "120721.085000", "120721.545000", "120722.005000", "120722.465000", "120722.925000", "120723.385000", "120723.845000", "120724.305000", "120724.765000", "120725.225000", "120725.685000", "120726.145000", "120726.605000", "120727.065000", "120727.525000", "120727.985000", "120728.445000", "120728.905000", "120729.365000", "120729.825000", "120730.285000", "120730.745000", "120731.205000", "120731.665000", "120732.125000", "120732.585000", "120733.045000", "120733.505000", "120733.965000", "120734.425000", "120734.885000", "120735.345000", "120735.805000", "120736.265000", "120736.725000", "120737.185000", "120737.645000", "120738.105000", "120738.565000", "120739.025000", "120739.485000", "120739.945000", "120740.405000", "120740.865000", "120741.325000", "120741.785000", "120742.245000", "120742.705000", "120743.165000", "120743.625000", "120744.085000", "120744.545000", "120745.005000", "120745.465000", "120745.925000", "120746.385000", "120746.845000", "120747.305000", "120747.765000", "120748.225000", "120748.685000", "120749.145000", "120749.605000", "120750.065000", "120750.525000", "120750.985000", "120751.445000", "120751.905000", "120752.365000", "120752.825000", "120753.285000", "120753.745000", "120754.205000", "120754.665000", "120755.125000", "120755.585000", "120756.045000", "120756.505000", "120756.965000", "120757.425000", "120757.885000", "120758.345000", "120758.805000", "120759.265000", "120759.725000", "120800.185000", "120800.645000", "120801.105000", "120801.565000", "120802.025000", "120802.485000", "120802.945000", "120803.405000", "120803.865000", "120804.325000", "120804.785000", "120805.245000", "120805.705000", "120806.165000", "120806.625000", "120807.085000", "120807.545000", "120808.005000", "120808.465000", "120808.925000", "120809.385000", "120809.845000", "120810.305000", "120810.765000", "120811.225000", "120811.685000", "120812.145000", "120812.605000", "120813.065000", "120813.525000", "120813.985000", "120814.445000", "120814.905000", "120815.365000", "120815.825000", "120816.285000", "120816.745000", "120817.205000", "120817.665000", "120818.125000", "120818.585000", "120819.045000", "120819.505000", "120819.965000", "120820.425000", "120820.885000", "120821.345000", "120821.805000", "120822.265000", "120822.725000", "120823.185000", "120823.645000", "120824.105000", "120824.565000", "120825.025000", "120825.485000", "120825.945000", "120826.405000", "120826.865000", "120827.325000", "120827.785000", "120828.245000", "120828.705000", "120829.165000", "120829.625000", "120830.085000", "120830.545000", "120831.005000", "120831.465000", "120831.925000", "120832.385000", "120832.845000", "120833.305000", "120833.765000", "120834.225000", "120834.685000", "120835.145000", "120835.605000", "120836.065000", "120836.525000", "120836.985000", "120837.445000", "120837.905000", "120838.365000", "120838.825000", "120839.285000", "120839.745000", "120840.205000", "120840.665000", "120841.125000", "120841.585000", "120842.045000", "120842.505000", "120842.965000", "120843.425000", "120843.885000", "120844.345000", "120844.805000", "120845.265000", "120845.725000", "120846.185000", "120846.645000", "120847.105000", "120847.565000", "120848.025000", "120848.485000", "120848.945000", "120849.405000", "120849.865000", "120850.325000", "120850.785000", "120851.245000", "120851.705000", "120852.165000", "120852.625000", "120853.085000", "120853.545000", "120854.005000", "120854.465000", "120854.925000", "120855.385000", "120855.845000", "120856.305000", "120856.765000", "120857.225000", "120857.685000", "120858.145000", "120858.605000", "120859.065000", "120859.525000", "120859.985000", "120900.445000", "120900.905000", "120901.365000", "120901.825000", "120902.285000", "120902.745000", "120903.205000", "120903.665000", "120904.125000", "120904.585000", "120905.045000", "120905.505000", "120905.965000", "120906.425000", "120906.885000", "120907.345000", "120907.805000", "120908.265000", "120908.725000", "120909.185000", "120909.645000", "120910.105000", "120910.565000", "120911.025000", "120911.485000", "120911.945000", "120912.405000", "120912.865000", "120913.325000", "120913.785000", "120914.245000", "120914.705000", "120915.165000", "120915.625000", "120916.085000", "120916.545000", "120917.005000", "120917.465000", "120917.925000", "120918.385000", "120918.845000", "120919.305000", "120919.765000", "120920.225000", "120920.685000", "120921.145000", "120921.605000", "120922.065000", "120922.525000", "120922.985000", "120923.445000", "120923.905000", "120924.365000", "120924.825000", "120925.285000", "120925.745000", "120926.205000", "120926.665000", "120927.125000", "120927.585000", "120928.045000", "120928.505000", "120928.965000", "120929.425000", "120929.885000", "120930.345000", "120930.805000", "120931.265000", "120931.725000", "120932.185000", "120932.645000", "120933.105000", "120933.565000", "120934.025000", "120934.485000", "120934.945000", "120935.405000", "120935.865000", "120936.325000", "120936.785000", "120937.245000", "120937.705000", "120938.165000", "120938.625000", "120939.085000", "120939.545000", "120940.005000", "120940.465000", "120940.925000", "120941.385000", "120941.845000", "120942.305000", "120942.765000", "120943.225000", "120943.685000", "120944.145000", "120944.605000", "120945.065000", "120945.525000", "120945.985000", "120946.445000", "120946.905000", "120947.365000", "120947.825000", "120948.285000", "120948.745000", "120949.205000", "120949.665000", "120950.125000", "120950.585000", "120951.045000", "120951.505000", "120951.965000", "120952.425000", "120952.885000", "120953.345000", "120953.805000", "120954.265000", "120954.725000", "120955.185000", "120955.645000", "120956.105000", "120956.565000", "120957.025000", "120957.485000", "120957.945000", "120958.405000", "120958.865000", "120959.325000", "120959.785000", "121000.245000", "121000.705000", "121001.165000", "121001.625000", "121002.085000", "121002.545000", "121003.005000", "121003.465000", "121003.925000", "121004.385000", "121004.845000", "121005.305000", "121005.765000", "121006.225000", "121006.685000", "121007.145000", "121007.605000", "121008.065000", "121008.525000", "121008.985000", "121009.445000", "121009.905000", "121010.365000", "121010.825000", "121011.285000", "121011.745000", "121012.205000", "121012.665000", "121013.125000", "121013.585000", "121014.045000", "121014.505000", "121014.965000", "121015.425000", "121015.885000", "121016.345000", "121016.805000", "121017.265000", "121017.725000", "121018.185000", "121018.645000", "121019.105000", "121019.565000", "121020.025000", "121020.485000", "121020.945000", "121021.405000", "121021.865000", "121022.325000", "121022.785000", "121023.245000", "121023.705000", "121024.165000", "121024.625000", "121025.085000", "121025.545000", "121026.005000", "121026.465000", "121026.925000", "121027.385000", "121027.845000", "121028.305000", "121028.765000", "121029.225000", "121029.685000", "121030.145000", "121030.605000", "121031.065000", "121031.525000", "121031.985000", "121032.445000", "121032.905000", "121033.365000", "121033.825000", "121034.285000", "121034.745000", "121035.205000", "121035.665000", "121036.125000", "121036.585000", "121037.045000", "121037.505000", "121037.965000", "121038.425000", "121038.885000", "121039.345000", "121039.805000", "121040.265000", "121040.725000", "121041.185000", "121041.645000", "121042.105000", "121042.565000", "121043.025000", "121043.485000", "121043.945000", "121044.405000", "121044.865000", "121045.325000", "121045.785000", "121046.245000", "121046.705000", "121047.165000", "121047.625000", "121048.085000", "121048.545000", "121049.005000", "121049.465000", "121049.925000", "121050.385000", "121050.845000", "121051.305000", "121051.765000", "121052.225000", "121052.685000", "121053.145000", "121053.605000", "121054.065000", "121054.525000", "121054.985000", "121055.445000", "121055.905000", "121056.365000", "121056.825000", "121057.285000", "121057.745000", "121058.205000", "121058.665000", "121059.125000", "121059.585000", "121100.045000", "121100.505000", "121100.965000", "121101.425000", "121101.885000", "121102.345000", "121102.805000", "121103.265000", "121103.725000", "121104.185000", "121104.645000", "121105.105000", "121105.565000", "121106.025000", "121106.485000", "121106.945000", "121107.405000", "121107.865000", "121108.325000", "121108.785000", "121109.245000", "121109.705000", "121110.165000", "121110.625000", "121111.085000", "121111.545000", "121112.005000", "121112.465000", "121112.925000", "121113.385000", "121113.845000", "121114.305000", "121114.765000", "121115.225000", "121115.685000", "121116.145000", "121116.605000", "121117.065000", "121117.525000", "121117.985000", "121118.445000", "121118.905000", "121119.365000", "121119.825000", "121120.285000", "121120.745000", "121121.205000", "121121.665000", "121122.125000", "121122.585000", "121123.045000", "121123.505000", "121123.965000", "121124.425000", "121124.885000", "121125.345000", "121125.805000", "121126.265000", "121126.725000", "121127.185000", "121127.645000", "121128.105000", "121128.565000", "121129.025000", "121129.485000", "121129.945000", "121130.405000", "121130.865000", "121131.325000", "121131.785000", "121132.245000", "121132.705000", "121133.165000", "121133.625000", "121134.085000", "121134.545000", "121135.005000", "121135.465000", "121135.925000", "121136.385000", "121136.845000", "121137.305000", "121137.765000", "121138.225000", "121138.685000", "121139.145000", "121139.605000", "121140.065000", "121140.525000", "121140.985000", "121141.445000", "121141.905000", "121142.365000", "121142.825000", "121143.285000", "121143.745000", "121144.205000", "121144.665000", "121145.125000", "121145.585000", "121146.045000", "121146.505000", "121146.965000", "121147.425000", "121147.885000", "121148.345000", "121148.805000", "121149.265000", "121149.725000", "121150.185000", "121150.645000", "121151.105000", "121151.565000", "121152.025000", "121152.485000", "121152.945000", "121153.405000", "121153.865000", "121154.325000", "121154.785000", "121155.245000", "121155.705000", "121156.165000", "121156.625000", "121157.085000", "121157.545000", "121158.005000", "121158.465000", "121158.925000", "121159.385000", "121159.845000", "121200.305000", "121200.765000", "121201.225000", "121201.685000", "121202.145000", "121202.605000", "121203.065000", "121203.525000", "121203.985000", "121204.445000", "121204.905000", "121205.365000", "121205.825000", "121206.285000", "121206.745000", "121207.205000", "121207.665000", "121208.125000", "121208.585000", "121209.045000", "121209.505000", "121209.965000", "121210.425000", "121210.885000", "121211.345000", "121211.805000", "121212.265000", "121212.725000", "121213.185000", "121213.645000", "121214.105000", "121214.565000", "121215.025000", "121215.485000", "121215.945000", "121216.405000", "121216.865000", "121217.325000", "121217.785000", "121218.245000", "121218.705000", "121219.165000", "121219.625000", "121220.085000", "121220.545000", "121221.005000", "121221.465000", "121221.925000", "121222.385000", "121222.845000", "121223.305000", "121223.765000", "121224.225000", "121224.685000", "121225.145000", "121225.605000", "121226.065000", "121226.525000", "121226.985000", "121227.445000", "121227.905000", "121228.365000", "121228.825000", "121229.285000", "121229.745000", "121230.205000", "121230.665000", "121231.125000", "121231.585000", "121232.045000", "121232.505000", "121232.965000", "121233.425000", "121233.885000", "121234.345000", "121234.805000", "121235.265000", "121235.725000", "121236.185000", "121236.645000", "121237.105000", "121237.565000", "121238.025000", "121238.485000", "121238.945000", "121239.405000", "121239.865000", "121240.325000", "121240.785000", "121241.245000", "121241.705000", "121242.165000", "121242.625000", "121243.085000", "121243.545000", "121244.005000", "121244.465000", "121244.925000", "121245.385000", "121245.845000", "121246.305000", "121246.765000", "121247.225000", "121247.685000", "121248.145000", "121248.605000", "121249.065000", "121249.525000", "121249.985000", "121250.445000"],
