{
  "AcquisitionMatrixPE": 82,
  "AcquisitionNumber": 1,
  "AcquisitionTime": "12:18:41.302500",
  "BandwidthPerPixelPhaseEncode": 24.888,
  "BaseResolution": 82,
  "BodyPartExamined": "BRAIN",
  "ConsistencyInfo": "N4_VE11E_LATEST_20181129",
  "ConversionSoftware": "dcm2niix",
  "ConversionSoftwareVersion": "v1.0.20201102",
  "DerivedVendorReportedEchoSpacing": 0.00049,
  "DeviceSerialNumber": "66112",
  "DwellTime": 2e-06,
  "EchoTime": 0.0272,
  "EchoTrainLength": 82,
  "EffectiveEchoSpacing": 0.00049,
  "FlipAngle": 44,
  "ImageComments": "Unaliased MB8/PE3",
  "ImageOrientationPatientDICOM": [0.999588, 0.0207368, 0.0198519, -0.0170989, 0.98555, -0.168517],
  "ImageType": [
    "ORIGINAL",
    "PRIMARY",
    "M",
    "MB",
    "ND",
    "NORM",
    "MOSAIC"
],
  "ImagingFrequency": 123.259,
  "InPlanePhaseEncodingDirectionDICOM": "COL",
  "InstitutionAddress": "Maynard 3,Hanover,NH,US,03755",
  "InstitutionName": "Dartmouth College - PBS",
  "InstitutionalDepartmentName": "Department",
  "MRAcquisitionType": "2D",
  "MagneticFieldStrength": 3,
  "Manufacturer": "Siemens",
  "ManufacturersModelName": "Prisma",
  "Modality": "MR",
  "MultibandAccelerationFactor": 8,
  "PartialFourier": 1,
  "PatientPosition": "HFS",
  "PercentPhaseFOV": 100,
  "PercentSampling": 100,
  "PhaseEncodingDirection": "j-",
  "PhaseEncodingSteps": 82,
  "PhaseResolution": 1,
  "PixelBandwidth": 3050,
  "ProcedureStepDescription": "Wager_Wager^1076_spacetop",
  "ProtocolName": "func_run-02_task-social_acq-ap-mb8",
  "PulseSequenceDetails": "%CustomerSeq%\\cmrr_mbep2d_bold",
  "ReceiveCoilActiveElements": "HEA;HEP",
  "ReceiveCoilName": "Head_32",
  "ReconMatrixPE": 82,
  "RepetitionTime": 0.46,
  "SAR": 0.124025,
  "ScanOptions": "FS",
  "ScanningSequence": "EP",
  "SequenceName": "epfid2d1_82",
  "SequenceVariant": "SK\\SS",
  "SeriesDescription": "func_run-02_task-social_acq-ap-mb8",
  "SeriesNumber": 14,
  "ShimSetting": [4227, -7746, -7226, 27, -175, -137, -42, 65],
  "SliceThickness": 2.7,
  "SliceTiming": [0, 0.2525, 0.0625, 0.315, 0.125, 0.3775, 0.1875, 0, 0.2525, 0.0625, 0.315, 0.125, 0.3775, 0.1875, 0, 0.2525, 0.0625, 0.315, 0.125, 0.3775, 0.1875, 0, 0.2525, 0.0625, 0.315, 0.125, 0.3775, 0.1875, 0, 0.2525, 0.0625, 0.315, 0.125, 0.3775, 0.1875, 0, 0.2525, 0.0625, 0.315, 0.125, 0.3775, 0.1875, 0, 0.2525, 0.0625, 0.315, 0.125, 0.3775, 0.1875, 0, 0.2525, 0.0625, 0.315, 0.125, 0.3775, 0.1875],
  "SoftwareVersions": "syngo MR E11",
  "SpacingBetweenSlices": 2.7,
  "StationName": "AWP66112",
  "TaskName": "social",
  "TotalReadoutTime": 0.03969,
  "TxRefAmp": 312.966,
  "WipMemBlock": "292eb96b-a81d-43b6-8448-1d7a20198096||Sequence: R016 ve11e/master r/434b28f1; Aug  7 2019 18:53:46 by eja",
  "dcmmeta_affine": [
    [-2.68182110786438, -0.04587496817111969, 0.06226077303290367, 109.84159851074219],
    [-0.055635400116443634, 2.6441595554351807, -0.45389285683631897, -84.07157135009766],
    [0.05326114967465401, 0.45211976766586304, 2.660846710205078, -94.26454162597656],
    [0.0, 0.0, 0.0, 1.0]
],
  "dcmmeta_reorient_transform": [
    [0.0, -1.0, 0.0, 81.0],
    [1.0, 0.0, 0.0, 0.0],
    [0.0, 0.0, 1.0, 0.0],
    [0.0, 0.0, 0.0, 1.0]
],
  "dcmmeta_shape": [82, 82, 56, 872],
  "dcmmeta_slice_dim": 2,
  "dcmmeta_version": 0.6,
  "global": {
    "const": {
      "AccessionNumber": "A004358",
      "AcquisitionMatrix": [82, 0, 0, 82],
      "AngioFlag": "N",
      "BitsAllocated": 16,
      "BitsStored": 16,
      "BodyPartExamined": "BRAIN",
      "Columns": 656,
      "EchoNumbers": 1,
      "EchoTime": 27.2,
      "EchoTrainLength": 82,
      "FlipAngle": 44.0,
      "HighBit": 15,
      "ImageOrientationPatient": [0.99958785837253, 0.02073683087867, 0.01985188251343, -0.0170988515524, 0.98555036784606, -0.1685173632421],
      "ImagePositionPatient": [-862.64228097663, -904.94651522207, 56.829585816151],
      "ImageType": [
        "ORIGINAL",
        "PRIMARY",
        "M",
        "MB",
        "ND",
        "NORM",
        "MOSAIC"
],
      "ImagedNucleus": "1H",
      "ImagingFrequency": 123.259079,
      "InPlanePhaseEncodingDirection": "COL",
      "MRAcquisitionType": "2D",
      "MagneticFieldStrength": 3.0,
      "Manufacturer": "SIEMENS",
      "ManufacturerModelName": "Prisma",
      "Modality": "MR",
      "NumberOfAverages": 1.0,
      "NumberOfPhaseEncodingSteps": 82,
      "PercentPhaseFieldOfView": 100.0,
      "PercentSampling": 100.0,
      "PerformedProcedureStepStartTime": "113350.578000",
      "PhotometricInterpretation": "MONOCHROME2",
      "PixelBandwidth": 3050.0,
      "PixelRepresentation": 0,
      "PixelSpacing": [2.6829268932343, 2.6829268932343],
      "ProtocolName": "func_run-02_task-social_acq-ap-mb8",
      "RepetitionTime": 460.0,
      "Rows": 656,
      "SAR": 0.1240252893052,
      "SamplesPerPixel": 1,
      "ScanOptions": "FS",
      "ScanningSequence": "EP",
      "SequenceName": "epfid2d1_82",
      "SequenceVariant": [
        "SK",
        "SS"
],
      "SeriesDescription": "func_run-02_task-social_acq-ap-mb8",
      "SeriesNumber": 14,
      "SeriesTime": "121907.285000",
      "SliceLocation": -76.231544609587,
      "SliceThickness": 2.7000000476837,
      "SmallestImagePixelValue": 0,
      "SoftwareVersions": "syngo MR E11",
      "SpacingBetweenSlices": 2.6999999949793,
      "SpecificCharacterSet": "ISO_IR 100",
      "StudyID": "4",
      "StudyTime": "113350.443000",
      "TransmitCoilName": "Body",
      "VariableFlipAngleFlag": "N",
      "WindowCenterWidthExplanation": "Algo1"
    },
    "slices": {}
  },
  "time": {
    "samples": {
      "AcquisitionNumber": [1, 2, 3, 4, 5, 6, 7, 8, 9, 10, 11, 12, 13, 14, 15, 16, 17, 18, 19, 20, 21, 22, 23, 24, 25, 26, 27, 28, 29, 30, 31, 32, 33, 34, 35, 36, 37, 38, 39, 40, 41, 42, 43, 44, 45, 46, 47, 48, 49, 50, 51, 52, 53, 54, 55, 56, 57, 58, 59, 60, 61, 62, 63, 64, 65, 66, 67, 68, 69, 70, 71, 72, 73, 74, 75, 76, 77, 78, 79, 80, 81, 82, 83, 84, 85, 86, 87, 88, 89, 90, 91, 92, 93, 94, 95, 96, 97, 98, 99, 100, 101, 102, 103, 104, 105, 106, 107, 108, 109, 110, 111, 112, 113, 114, 115, 116, 117, 118, 119, 120, 121, 122, 123, 124, 125, 126, 127, 128, 129, 130, 131, 132, 133, 134, 135, 136, 137, 138, 139, 140, 141, 142, 143, 144, 145, 146, 147, 148, 149, 150, 151, 152, 153, 154, 155, 156, 157, 158, 159, 160, 161, 162, 163, 164, 165, 166, 167, 168, 169, 170, 171, 172, 173, 174, 175, 176, 177, 178, 179, 180, 181, 182, 183, 184, 185, 186, 187, 188, 189, 190, 191, 192, 193, 194, 195, 196, 197, 198, 199, 200, 201, 202, 203, 204, 205, 206, 207, 208, 209, 210, 211, 212, 213, 214, 215, 216, 217, 218, 219, 220, 221, 222, 223, 224, 225, 226, 227, 228, 229, 230, 231, 232, 233, 234, 235, 236, 237, 238, 239, 240, 241, 242, 243, 244, 245, 246, 247, 248, 249, 250, 251, 252, 253, 254, 255, 256, 257, 258, 259, 260, 261, 262, 263, 264, 265, 266, 267, 268, 269, 270, 271, 272, 273, 274, 275, 276, 277, 278, 279, 280, 281, 282, 283, 284, 285, 286, 287, 288, 289, 290, 291, 292, 293, 294, 295, 296, 297, 298, 299, 300, 301, 302, 303, 304, 305, 306, 307, 308, 309, 310, 311, 312, 313, 314, 315, 316, 317, 318, 319, 320, 321, 322, 323, 324, 325, 326, 327, 328, 329, 330, 331, 332, 333, 334, 335, 336, 337, 338, 339, 340, 341, 342, 343, 344, 345, 346, 347, 348, 349, 350, 351, 352, 353, 354, 355, 356, 357, 358, 359, 360, 361, 362, 363, 364, 365, 366, 367, 368, 369, 370, 371, 372, 373, 374, 375, 376, 377, 378, 379, 380, 381, 382, 383, 384, 385, 386, 387, 388, 389, 390, 391, 392, 393, 394, 395, 396, 397, 398, 399, 400, 401, 402, 403, 404, 405, 406, 407, 408, 409, 410, 411, 412, 413, 414, 415, 416, 417, 418, 419, 420, 421, 422, 423, 424, 425, 426, 427, 428, 429, 430, 431, 432, 433, 434, 435, 436, 437, 438, 439, 440, 441, 442, 443, 444, 445, 446, 447, 448, 449, 450, 451, 452, 453, 454, 455, 456, 457, 458, 459, 460, 461, 462, 463, 464, 465, 466, 467, 468, 469, 470, 471, 472, 473, 474, 475, 476, 477, 478, 479, 480, 481, 482, 483, 484, 485, 486, 487, 488, 489, 490, 491, 492, 493, 494, 495, 496, 497, 498, 499, 500, 501, 502, 503, 504, 505, 506, 507, 508, 509, 510, 511, 512, 513, 514, 515, 516, 517, 518, 519, 520, 521, 522, 523, 524, 525, 526, 527, 528, 529, 530, 531, 532, 533, 534, 535, 536, 537, 538, 539, 540, 541, 542, 543, 544, 545, 546, 547, 548, 549, 550, 551, 552, 553, 554, 555, 556, 557, 558, 559, 560, 561, 562, 563, 564, 565, 566, 567, 568, 569, 570, 571, 572, 573, 574, 575, 576, 577, 578, 579, 580, 581, 582, 583, 584, 585, 586, 587, 588, 589, 590, 591, 592, 593, 594, 595, 596, 597, 598, 599, 600, 601, 602, 603, 604, 605, 606, 607, 608, 609, 610, 611, 612, 613, 614, 615, 616, 617, 618, 619, 620, 621, 622, 623, 624, 625, 626, 627, 628, 629, 630, 631, 632, 633, 634, 635, 636, 637, 638, 639, 640, 641, 642, 643, 644, 645, 646, 647, 648, 649, 650, 651, 652, 653, 654, 655, 656, 657, 658, 659, 660, 661, 662, 663, 664, 665, 666, 667, 668, 669, 670, 671, 672, 673, 674, 675, 676, 677, 678, 679, 680, 681, 682, 683, 684, 685, 686, 687, 688, 689, 690, 691, 692, 693, 694, 695, 696, 697, 698, 699, 700, 701, 702, 703, 704, 705, 706, 707, 708, 709, 710, 711, 712, 713, 714, 715, 716, 717, 718, 719, 720, 721, 722, 723, 724, 725, 726, 727, 728, 729, 730, 731, 732, 733, 734, 735, 736, 737, 738, 739, 740, 741, 742, 743, 744, 745, 746, 747, 748, 749, 750, 751, 752, 753, 754, 755, 756, 757, 758, 759, 760, 761, 762, 763, 764, 765, 766, 767, 768, 769, 770, 771, 772, 773, 774, 775, 776, 777, 778, 779, 780, 781, 782, 783, 784, 785, 786, 787, 788, 789, 790, 791, 792, 793, 794, 795, 796, 797, 798, 799, 800, 801, 802, 803, 804, 805, 806, 807, 808, 809, 810, 811, 812, 813, 814, 815, 816, 817, 818, 819, 820, 821, 822, 823, 824, 825, 826, 827, 828, 829, 830, 831, 832, 833, 834, 835, 836, 837, 838, 839, 840, 841, 842, 843, 844, 845, 846, 847, 848, 849, 850, 851, 852, 853, 854, 855, 856, 857, 858, 859, 860, 861, 862, 863, 864, 865, 866, 867, 868, 869, 870, 871, 872],
      "AcquisitionTime": ["121841.302500", "121841.762500", "121842.222500", "121842.682500", "121843.142500", "121843.602500", "121844.062500", "121844.522500", "121844.982500", "121845.442500", "121845.902500", "121846.362500", "121846.822500", "121847.282500", "121847.742500", "121848.202500", "121848.662500", "121849.122500", "121849.582500", "121850.042500", "121850.502500", "121850.962500", "121851.422500", "121851.882500", "121852.342500", "121852.802500", "121853.262500", "121853.722500", "121854.182500", "121854.642500", "121855.102500", "121855.562500", "121856.022500", "121856.482500", "121856.942500", "121857.402500", "121857.862500", "121858.322500", "121858.782500", "121859.242500", "121859.702500", "121900.162500", "121900.622500", "121901.082500", "121901.542500", "121902.002500", "121902.462500", "121902.922500", "121903.382500", "121903.842500", "121904.302500", "121904.762500", "121905.222500", "121905.682500", "121906.142500", "121906.602500", "121907.062500", "121907.522500", "121907.982500", "121908.442500", "121908.902500", "121909.362500", "121909.822500", "121910.282500", "121910.742500", "121911.202500", "121911.662500", "121912.122500", "121912.582500", "121913.042500", "121913.502500", "121913.962500", "121914.422500", "121914.882500", "121915.342500", "121915.802500", "121916.262500", "121916.722500", "121917.182500", "121917.642500", "121918.102500", "121918.562500", "121919.022500", "121919.482500", "121919.942500", "121920.402500", "121920.862500", "121921.322500", "121921.782500", "121922.242500", "121922.702500", "121923.162500", "121923.622500", "121924.082500", "121924.542500", "121925.002500", "121925.462500", "121925.922500", "121926.382500", "121926.842500", "121927.302500", "121927.762500", "121928.222500", "121928.682500", "121929.142500", "121929.602500", "121930.062500", "121930.522500", "121930.982500", "121931.442500", "121931.902500", "121932.362500", "121932.822500", "121933.282500", "121933.742500", "121934.202500", "121934.662500", "121935.122500", "121935.582500", "121936.042500", "121936.502500", "121936.962500", "121937.422500", "121937.882500", "121938.342500", "121938.802500", "121939.262500", "121939.722500", "121940.182500", "121940.642500", "121941.102500", "121941.562500", "121942.022500", "121942.482500", "121942.942500", "121943.402500", "121943.862500", "121944.322500", "121944.782500", "121945.242500", "121945.702500", "121946.162500", "121946.622500", "121947.082500", "121947.542500", "121948.002500", "121948.462500", "121948.922500", "121949.382500", "121949.842500", "121950.302500", "121950.762500", "121951.222500", "121951.682500", "121952.142500", "121952.602500", "121953.062500", "121953.522500", "121953.982500", "121954.442500", "121954.902500", "121955.362500", "121955.822500", "121956.282500", "121956.742500", "121957.202500", "121957.662500", "121958.122500", "121958.582500", "121959.042500", "121959.502500", "121959.962500", "122000.422500", "122000.882500", "122001.342500", "122001.802500", "122002.262500", "122002.722500", "122003.182500", "122003.642500", "122004.102500", "122004.562500", "122005.022500", "122005.482500", "122005.942500", "122006.402500", "122006.862500", "122007.322500", "122007.782500", "122008.242500", "122008.702500", "122009.162500", "122009.622500", "122010.082500", "122010.542500", "122011.002500", "122011.462500", "122011.922500", "122012.382500", "122012.842500", "122013.302500", "122013.762500", "122014.222500", "122014.682500", "122015.142500", "122015.602500", "122016.062500", "122016.522500", "122016.982500", "122017.442500", "122017.902500", "122018.362500", "122018.822500", "122019.282500", "122019.742500", "122020.202500", "122020.662500", "122021.122500", "122021.582500", "122022.042500", "122022.502500", "122022.962500", "122023.422500", "122023.882500", "122024.342500", "122024.802500", "122025.262500", "122025.722500", "122026.182500", "122026.642500", "122027.102500", "122027.562500", "122028.022500", "122028.482500", "122028.942500", "122029.402500", "122029.862500", "122030.322500", "122030.782500", "122031.242500", "122031.702500", "122032.162500", "122032.622500", "122033.082500", "122033.542500", "122034.002500", "122034.462500", "122034.922500", "122035.382500", "122035.842500", "122036.302500", "122036.762500", "122037.222500", "122037.682500", "122038.142500", "122038.602500", "122039.062500", "122039.522500", "122039.982500", "122040.442500", "122040.902500", "122041.362500", "122041.822500", "122042.282500", "122042.742500", "122043.202500", "122043.662500", "122044.122500", "122044.582500", "122045.042500", "122045.502500", "122045.962500", "122046.422500", "122046.882500", "122047.342500", "122047.802500", "122048.262500", "122048.722500", "122049.182500", "122049.642500", "122050.102500", "122050.562500", "122051.022500", "122051.482500", "122051.942500", "122052.402500", "122052.862500", "122053.322500", "122053.782500", "122054.242500", "122054.702500", "122055.162500", "122055.622500", "122056.082500", "122056.542500", "122057.002500", "122057.462500", "122057.922500", "122058.382500", "122058.842500", "122059.302500", "122059.762500", "122100.222500", "122100.682500", "122101.142500", "122101.602500", "122102.062500", "122102.522500", "122102.982500", "122103.442500", "122103.902500", "122104.362500", "122104.822500", "122105.282500", "122105.742500", "122106.202500", "122106.662500", "122107.122500", "122107.582500", "122108.042500", "122108.502500", "122108.962500", "122109.422500", "122109.882500", "122110.342500", "122110.802500", "122111.262500", "122111.722500", "122112.182500", "122112.642500", "122113.102500", "122113.562500", "122114.022500", "122114.482500", "122114.942500", "122115.402500", "122115.862500", "122116.322500", "122116.782500", "122117.242500", "122117.702500", "122118.162500", "122118.622500", "122119.082500", "122119.542500", "122120.002500", "122120.462500", "122120.922500", "122121.382500", "122121.842500", "122122.302500", "122122.762500", "122123.222500", "122123.682500", "122124.142500", "122124.602500", "122125.062500", "122125.522500", "122125.982500", "122126.442500", "122126.902500", "122127.362500", "122127.822500", "122128.282500", "122128.742500", "122129.202500", "122129.662500", "122130.122500", "122130.582500", "122131.042500", "122131.502500", "122131.962500", "122132.422500", "122132.882500", "122133.342500", "122133.802500", "122134.262500", "122134.722500", "122135.182500", "122135.642500", "122136.102500", "122136.562500", "122137.022500", "122137.482500", "122137.942500", "122138.402500", "122138.862500", "122139.322500", "122139.782500", "122140.242500", "122140.702500", "122141.162500", "122141.622500", "122142.082500", "122142.542500", "122143.002500", "122143.462500", "122143.922500", "122144.382500", "122144.842500", "122145.302500", "122145.762500", "122146.222500", "122146.682500", "122147.142500", "122147.602500", "122148.062500", "122148.522500", "122148.982500", "122149.442500", "122149.902500", "122150.362500", "122150.822500", "122151.282500", "122151.742500", "122152.202500", "122152.662500", "122153.122500", "122153.582500", "122154.042500", "122154.502500", "122154.962500", "122155.422500", "122155.882500", "122156.342500", "122156.802500", "122157.262500", "122157.722500", "122158.182500", "122158.642500", "122159.102500", "122159.562500", "122200.022500", "122200.482500", "122200.942500", "122201.402500", "122201.862500", "122202.322500", "122202.782500", "122203.242500", "122203.702500", "122204.162500", "122204.622500", "122205.082500", "122205.542500", "122206.002500", "122206.462500", "122206.922500", "122207.382500", "122207.842500", "122208.302500", "122208.762500", "122209.222500", "122209.682500", "122210.142500", "122210.602500", "122211.062500", "122211.522500", "122211.982500", "122212.442500", "122212.902500", "122213.362500", "122213.822500", "122214.282500", "122214.742500", "122215.202500", "122215.662500", "122216.122500", "122216.582500", "122217.042500", "122217.502500", "122217.962500", "122218.422500", "122218.882500", "122219.342500", "122219.802500", "122220.262500", "122220.722500", "122221.182500", "122221.642500", "122222.102500", "122222.562500", "122223.022500", "122223.482500", "122223.942500", "122224.402500", "122224.862500", "122225.322500", "122225.782500", "122226.242500", "122226.702500", "122227.162500", "122227.622500", "122228.082500", "122228.542500", "122229.002500", "122229.462500", "122229.922500", "122230.382500", "122230.842500", "122231.302500", "122231.762500", "122232.222500", "122232.682500", "122233.142500", "122233.602500", "122234.062500", "122234.522500", "122234.982500", "122235.442500", "122235.902500", "122236.362500", "122236.822500", "122237.282500", "122237.742500", "122238.202500", "122238.662500", "122239.122500", "122239.582500", "122240.042500", "122240.502500", "122240.962500", "122241.422500", "122241.882500", "122242.342500", "122242.802500", "122243.262500", "122243.722500", "122244.182500", "122244.642500", "122245.102500", "122245.562500", "122246.022500", "122246.482500", "122246.942500", "122247.402500", "122247.862500", "122248.322500", "122248.782500", "122249.242500", "122249.702500", "122250.162500", "122250.622500", "122251.082500", "122251.542500", "122252.002500", "122252.462500", "122252.922500", "122253.382500", "122253.842500", "122254.302500", "122254.762500", "122255.222500", "122255.682500", "122256.142500", "122256.602500", "122257.062500", "122257.522500", "122257.982500", "122258.442500", "122258.902500", "122259.362500", "122259.822500", "122300.282500", "122300.742500", "122301.202500", "122301.662500", "122302.122500", "122302.582500", "122303.042500", "122303.502500", "122303.962500", "122304.422500", "122304.882500", "122305.342500", "122305.802500", "122306.262500", "122306.722500", "122307.182500", "122307.642500", "122308.102500", "122308.562500", "122309.022500", "122309.482500", "122309.942500", "122310.402500", "122310.862500", "122311.322500", "122311.782500", "122312.242500", "122312.702500", "122313.162500", "122313.622500", "122314.082500", "122314.542500", "122315.002500", "122315.462500", "122315.922500", "122316.382500", "122316.842500", "122317.302500", "122317.762500", "122318.222500", "122318.682500", "122319.142500", "122319.602500", "122320.062500", "122320.522500", "122320.982500", "122321.442500", "122321.902500", "122322.362500", "122322.822500", "122323.282500", "122323.742500", "122324.202500", "122324.662500", "122325.122500", "122325.582500", "122326.042500", "122326.502500", "122326.962500", "122327.422500", "122327.882500", "122328.342500", "122328.802500", "122329.262500", "122329.722500", "122330.182500", "122330.642500", "122331.102500", "122331.562500", "122332.022500", "122332.482500", "122332.942500", "122333.402500", "122333.862500", "122334.322500", "122334.782500", "122335.242500", "122335.702500", "122336.162500", "122336.622500", "122337.082500", "122337.542500", "122338.002500", "122338.462500", "122338.922500", "122339.382500", "122339.842500", "122340.302500", "122340.762500", "122341.222500", "122341.682500", "122342.142500", "122342.602500", "122343.062500", "122343.522500", "122343.982500", "122344.442500", "122344.902500", "122345.362500", "122345.822500", "122346.282500", "122346.742500", "122347.202500", "122347.662500", "122348.122500", "122348.582500", "122349.042500", "122349.502500", "122349.962500", "122350.422500", "122350.882500", "122351.342500", "122351.802500", "122352.262500", "122352.722500", "122353.182500", "122353.642500", "122354.102500", "122354.562500", "122355.022500", "122355.482500", "122355.942500", "122356.402500", "122356.862500", "122357.322500", "122357.782500", "122358.242500", "122358.702500", "122359.162500", "122359.622500", "122400.082500", "122400.542500", "122401.002500", "122401.462500", "122401.922500", "122402.382500", "122402.842500", "122403.302500", "122403.762500", "122404.222500", "122404.682500", "122405.142500", "122405.602500", "122406.062500", "122406.522500", "122406.982500", "122407.442500", "122407.902500", "122408.362500", "122408.822500", "122409.282500", "122409.742500", "122410.202500", "122410.662500", "122411.122500", "122411.582500", "122412.042500", "122412.502500", "122412.962500", "122413.422500", "122413.882500", "122414.342500", "122414.802500", "122415.262500", "122415.722500", "122416.182500", "122416.642500", "122417.102500", "122417.562500", "122418.022500", "122418.482500", "122418.942500", "122419.402500", "122419.862500", "122420.322500", "122420.782500", "122421.242500", "122421.702500", "122422.162500", "122422.622500", "122423.082500", "122423.542500", "122424.002500", "122424.462500", "122424.922500", "122425.382500", "122425.842500", "122426.302500", "122426.762500", "122427.222500", "122427.682500", "122428.142500", "122428.602500", "122429.062500", "122429.522500", "122429.982500", "122430.442500", "122430.902500", "122431.362500", "122431.822500", "122432.282500", "122432.742500", "122433.202500", "122433.662500", "122434.122500", "122434.582500", "122435.042500", "122435.502500", "122435.962500", "122436.422500", "122436.882500", "122437.342500", "122437.802500", "122438.262500", "122438.722500", "122439.182500", "122439.642500", "122440.102500", "122440.562500", "122441.022500", "122441.482500", "122441.942500", "122442.402500", "122442.862500", "122443.322500", "122443.782500", "122444.242500", "122444.702500", "122445.162500", "122445.622500", "122446.082500", "122446.542500", "122447.002500", "122447.462500", "122447.922500", "122448.382500", "122448.842500", "122449.302500", "122449.762500", "122450.222500", "122450.682500", "122451.142500", "122451.602500", "122452.062500", "122452.522500", "122452.982500", "122453.442500", "122453.902500", "122454.362500", "122454.822500", "122455.282500", "122455.742500", "122456.202500", "122456.662500", "122457.122500", "122457.582500", "122458.042500", "122458.502500", "122458.962500", "122459.422500", "122459.882500", "122500.342500", "122500.802500", "122501.262500", "122501.722500", "122502.182500", "122502.642500", "122503.102500", "122503.562500", "122504.022500", "122504.482500", "122504.942500", "122505.402500", "122505.862500", "122506.322500", "122506.782500", "122507.242500", "122507.702500", "122508.162500", "122508.622500", "122509.082500", "122509.542500", "122510.002500", "122510.462500", "122510.922500", "122511.382500", "122511.842500", "122512.302500", "122512.762500", "122513.222500", "122513.682500", "122514.142500", "122514.602500", "122515.062500", "122515.522500", "122515.982500", "122516.442500", "122516.902500", "122517.362500", "122517.822500", "122518.282500", "122518.742500", "122519.202500", "122519.662500", "122520.122500", "122520.582500", "122521.042500", "122521.502500", "122521.962500"],
