{
  "AcquisitionMatrixPE": 82,
  "AcquisitionNumber": 1,
  "AcquisitionTime": "11:38:37.227500",
  "BandwidthPerPixelPhaseEncode": 24.888,
  "BaseResolution": 82,
  "BodyPartExamined": "BRAIN",
  "ConsistencyInfo": "N4_VE11E_LATEST_20181129",
  "ConversionSoftware": "dcm2niix",
  "ConversionSoftwareVersion": "v1.0.20201102",
  "DerivedVendorReportedEchoSpacing": 0.00049,
  "DeviceSerialNumber": "66112",
  "DwellTime": 2e-06,
  "EchoTime": 0.0272,
  "EchoTrainLength": 82,
  "EffectiveEchoSpacing": 0.00049,
  "FlipAngle": 44,
  "ImageComments": "Unaliased MB8/PE3",
  "ImageOrientationPatientDICOM": [0.989919, 0.0900123, -0.109358, -0.0995051, 0.991427, -0.0846888],
  "ImageType": [
    "ORIGINAL",
    "PRIMARY",
    "M",
    "MB",
    "ND",
    "NORM",
    "MOSAIC"
],
  "ImagingFrequency": 123.259,
  "InPlanePhaseEncodingDirectionDICOM": "COL",
  "InstitutionAddress": "Maynard 3,Hanover,NH,US,03755",
  "InstitutionName": "Dartmouth College - PBS",
  "InstitutionalDepartmentName": "Department",
  "MRAcquisitionType": "2D",
  "MagneticFieldStrength": 3,
  "Manufacturer": "Siemens",
  "ManufacturersModelName": "Prisma",
  "Modality": "MR",
  "MultibandAccelerationFactor": 8,
  "PartialFourier": 1,
  "PatientPosition": "HFS",
  "PercentPhaseFOV": 100,
  "PercentSampling": 100,
  "PhaseEncodingDirection": "j-",
  "PhaseEncodingSteps": 82,
  "PhaseResolution": 1,
  "PixelBandwidth": 3050,
  "ProcedureStepDescription": "Wager_Wager^1076_spacetop",
  "ProtocolName": "func_run-03_task-social_acq-ap-mb8",
  "PulseSequenceDetails": "%CustomerSeq%\\cmrr_mbep2d_bold",
  "ReceiveCoilActiveElements": "HEA;HEP",
  "ReceiveCoilName": "Head_32",
  "ReconMatrixPE": 82,
  "RepetitionTime": 0.46,
  "SAR": 0.0849589,
  "ScanOptions": "FS",
  "ScanningSequence": "EP",
  "SequenceName": "epfid2d1_82",
  "SequenceVariant": "SK\\SS",
  "SeriesDescription": "func_run-03_task-social_acq-ap-mb8",
  "SeriesNumber": 12,
  "ShimSetting": [4171, -7740, -7261, 243, -188, 136, -71, 130],
  "SliceThickness": 2.7,
  "SliceTiming": [0, 0.2525, 0.0625, 0.315, 0.125, 0.3775, 0.19, 0, 0.2525, 0.0625, 0.315, 0.125, 0.3775, 0.19, 0, 0.2525, 0.0625, 0.315, 0.125, 0.3775, 0.19, 0, 0.2525, 0.0625, 0.315, 0.125, 0.3775, 0.19, 0, 0.2525, 0.0625, 0.315, 0.125, 0.3775, 0.19, 0, 0.2525, 0.0625, 0.315, 0.125, 0.3775, 0.19, 0, 0.2525, 0.0625, 0.315, 0.125, 0.3775, 0.19, 0, 0.2525, 0.0625, 0.315, 0.125, 0.3775, 0.19],
  "SoftwareVersions": "syngo MR E11",
  "SpacingBetweenSlices": 2.7,
  "StationName": "AWP66112",
  "TaskName": "social",
  "TotalReadoutTime": 0.03969,
  "TxRefAmp": 245.916,
  "WipMemBlock": "c96fa466-5b11-4d99-ba16-8938477bc8f4||Sequence: R016 ve11e/master r/434b28f1; Aug  7 2019 18:53:46 by eja",
  "dcmmeta_affine": [
    [-2.655879020690918, -0.26696479320526123, -0.27215173840522766, 130.47056579589844],
    [-0.24149630963802338, 2.6599249839782715, -0.2557348906993866, -85.80413818359375],
    [-0.29339829087257385, 0.2272137999534607, 2.6740481853485107, -84.47953033447266],
    [0.0, 0.0, 0.0, 1.0]
],
  "dcmmeta_reorient_transform": [
    [0.0, -1.0, 0.0, 81.0],
    [1.0, 0.0, 0.0, 0.0],
    [0.0, 0.0, 1.0, 0.0],
    [0.0, 0.0, 0.0, 1.0]
],
  "dcmmeta_shape": [82, 82, 56, 872],
  "dcmmeta_slice_dim": 2,
  "dcmmeta_version": 0.6,
  "global": {
    "const": {
      "AccessionNumber": "A004872",
      "AcquisitionMatrix": [82, 0, 0, 82],
      "AngioFlag": "N",
      "BitsAllocated": 16,
      "BitsStored": 16,
      "BodyPartExamined": "BRAIN",
      "Columns": 656,
      "EchoNumbers": 1,
      "EchoTime": 27.2,
      "EchoTrainLength": 82,
      "FlipAngle": 44.0,
      "HighBit": 15,
      "ImageOrientationPatient": [0.98991854262923, 0.09001226111914, -0.1093575411531, -0.0995050558102, 0.99142652510092, -0.0846887784451],
      "ImagePositionPatient": [-794.46481748705, -962.35766285629, 83.340454343544],
      "ImageType": [
        "ORIGINAL",
        "PRIMARY",
        "M",
        "MB",
        "ND",
        "NORM",
        "MOSAIC"
],
      "ImagedNucleus": "1H",
      "ImagingFrequency": 123.259087,
      "InPlanePhaseEncodingDirection": "COL",
      "MRAcquisitionType": "2D",
      "MagneticFieldStrength": 3.0,
      "Manufacturer": "SIEMENS",
      "ManufacturerModelName": "Prisma",
      "Modality": "MR",
      "NumberOfAverages": 1.0,
      "NumberOfPhaseEncodingSteps": 82,
      "PercentPhaseFieldOfView": 100.0,
      "PercentSampling": 100.0,
      "PerformedProcedureStepStartTime": "110919.426000",
      "PhotometricInterpretation": "MONOCHROME2",
      "PixelBandwidth": 3050.0,
      "PixelRepresentation": 0,
      "PixelSpacing": [2.6829268932343, 2.6829268932343],
      "ProtocolName": "func_run-03_task-social_acq-ap-mb8",
      "RepetitionTime": 460.0,
      "Rows": 656,
      "SAR": 0.08495892494288,
      "SamplesPerPixel": 1,
      "ScanOptions": "FS",
      "ScanningSequence": "EP",
      "SequenceName": "epfid2d1_82",
      "SequenceVariant": [
        "SK",
        "SS"
],
      "SeriesDescription": "func_run-03_task-social_acq-ap-mb8",
      "SeriesNumber": 12,
      "SeriesTime": "113848.286000",
      "SliceLocation": -88.691486268513,
      "SliceThickness": 2.7000000476837,
      "SmallestImagePixelValue": 0,
      "SoftwareVersions": "syngo MR E11",
      "SpacingBetweenSlices": 2.7000000507925,
      "SpecificCharacterSet": "ISO_IR 100",
      "StudyID": "2",
      "StudyTime": "110919.367000",
      "TransmitCoilName": "Body",
      "VariableFlipAngleFlag": "N",
      "WindowCenterWidthExplanation": "Algo1"
    },
    "slices": {}
  },
  "time": {
    "samples": {
      "AcquisitionNumber": [1, 2, 3, 4, 5, 6, 7, 8, 9, 10, 11, 12, 13, 14, 15, 16, 17, 18, 19, 20, 21, 22, 23, 24, 25, 26, 27, 28, 29, 30, 31, 32, 33, 34, 35, 36, 37, 38, 39, 40, 41, 42, 43, 44, 45, 46, 47, 48, 49, 50, 51, 52, 53, 54, 55, 56, 57, 58, 59, 60, 61, 62, 63, 64, 65, 66, 67, 68, 69, 70, 71, 72, 73, 74, 75, 76, 77, 78, 79, 80, 81, 82, 83, 84, 85, 86, 87, 88, 89, 90, 91, 92, 93, 94, 95, 96, 97, 98, 99, 100, 101, 102, 103, 104, 105, 106, 107, 108, 109, 110, 111, 112, 113, 114, 115, 116, 117, 118, 119, 120, 121, 122, 123, 124, 125, 126, 127, 128, 129, 130, 131, 132, 133, 134, 135, 136, 137, 138, 139, 140, 141, 142, 143, 144, 145, 146, 147, 148, 149, 150, 151, 152, 153, 154, 155, 156, 157, 158, 159, 160, 161, 162, 163, 164, 165, 166, 167, 168, 169, 170, 171, 172, 173, 174, 175, 176, 177, 178, 179, 180, 181, 182, 183, 184, 185, 186, 187, 188, 189, 190, 191, 192, 193, 194, 195, 196, 197, 198, 199, 200, 201, 202, 203, 204, 205, 206, 207, 208, 209, 210, 211, 212, 213, 214, 215, 216, 217, 218, 219, 220, 221, 222, 223, 224, 225, 226, 227, 228, 229, 230, 231, 232, 233, 234, 235, 236, 237, 238, 239, 240, 241, 242, 243, 244, 245, 246, 247, 248, 249, 250, 251, 252, 253, 254, 255, 256, 257, 258, 259, 260, 261, 262, 263, 264, 265, 266, 267, 268, 269, 270, 271, 272, 273, 274, 275, 276, 277, 278, 279, 280, 281, 282, 283, 284, 285, 286, 287, 288, 289, 290, 291, 292, 293, 294, 295, 296, 297, 298, 299, 300, 301, 302, 303, 304, 305, 306, 307, 308, 309, 310, 311, 312, 313, 314, 315, 316, 317, 318, 319, 320, 321, 322, 323, 324, 325, 326, 327, 328, 329, 330, 331, 332, 333, 334, 335, 336, 337, 338, 339, 340, 341, 342, 343, 344, 345, 346, 347, 348, 349, 350, 351, 352, 353, 354, 355, 356, 357, 358, 359, 360, 361, 362, 363, 364, 365, 366, 367, 368, 369, 370, 371, 372, 373, 374, 375, 376, 377, 378, 379, 380, 381, 382, 383, 384, 385, 386, 387, 388, 389, 390, 391, 392, 393, 394, 395, 396, 397, 398, 399, 400, 401, 402, 403, 404, 405, 406, 407, 408, 409, 410, 411, 412, 413, 414, 415, 416, 417, 418, 419, 420, 421, 422, 423, 424, 425, 426, 427, 428, 429, 430, 431, 432, 433, 434, 435, 436, 437, 438, 439, 440, 441, 442, 443, 444, 445, 446, 447, 448, 449, 450, 451, 452, 453, 454, 455, 456, 457, 458, 459, 460, 461, 462, 463, 464, 465, 466, 467, 468, 469, 470, 471, 472, 473, 474, 475, 476, 477, 478, 479, 480, 481, 482, 483, 484, 485, 486, 487, 488, 489, 490, 491, 492, 493, 494, 495, 496, 497, 498, 499, 500, 501, 502, 503, 504, 505, 506, 507, 508, 509, 510, 511, 512, 513, 514, 515, 516, 517, 518, 519, 520, 521, 522, 523, 524, 525, 526, 527, 528, 529, 530, 531, 532, 533, 534, 535, 536, 537, 538, 539, 540, 541, 542, 543, 544, 545, 546, 547, 548, 549, 550, 551, 552, 553, 554, 555, 556, 557, 558, 559, 560, 561, 562, 563, 564, 565, 566, 567, 568, 569, 570, 571, 572, 573, 574, 575, 576, 577, 578, 579, 580, 581, 582, 583, 584, 585, 586, 587, 588, 589, 590, 591, 592, 593, 594, 595, 596, 597, 598, 599, 600, 601, 602, 603, 604, 605, 606, 607, 608, 609, 610, 611, 612, 613, 614, 615, 616, 617, 618, 619, 620, 621, 622, 623, 624, 625, 626, 627, 628, 629, 630, 631, 632, 633, 634, 635, 636, 637, 638, 639, 640, 641, 642, 643, 644, 645, 646, 647, 648, 649, 650, 651, 652, 653, 654, 655, 656, 657, 658, 659, 660, 661, 662, 663, 664, 665, 666, 667, 668, 669, 670, 671, 672, 673, 674, 675, 676, 677, 678, 679, 680, 681, 682, 683, 684, 685, 686, 687, 688, 689, 690, 691, 692, 693, 694, 695, 696, 697, 698, 699, 700, 701, 702, 703, 704, 705, 706, 707, 708, 709, 710, 711, 712, 713, 714, 715, 716, 717, 718, 719, 720, 721, 722, 723, 724, 725, 726, 727, 728, 729, 730, 731, 732, 733, 734, 735, 736, 737, 738, 739, 740, 741, 742, 743, 744, 745, 746, 747, 748, 749, 750, 751, 752, 753, 754, 755, 756, 757, 758, 759, 760, 761, 762, 763, 764, 765, 766, 767, 768, 769, 770, 771, 772, 773, 774, 775, 776, 777, 778, 779, 780, 781, 782, 783, 784, 785, 786, 787, 788, 789, 790, 791, 792, 793, 794, 795, 796, 797, 798, 799, 800, 801, 802, 803, 804, 805, 806, 807, 808, 809, 810, 811, 812, 813, 814, 815, 816, 817, 818, 819, 820, 821, 822, 823, 824, 825, 826, 827, 828, 829, 830, 831, 832, 833, 834, 835, 836, 837, 838, 839, 840, 841, 842, 843, 844, 845, 846, 847, 848, 849, 850, 851, 852, 853, 854, 855, 856, 857, 858, 859, 860, 861, 862, 863, 864, 865, 866, 867, 868, 869, 870, 871, 872],
      "AcquisitionTime": ["113837.227500", "113837.687500", "113838.147500", "113838.607500", "113839.067500", "113839.527500", "113839.987500", "113840.447500", "113840.907500", "113841.367500", "113841.827500", "113842.287500", "113842.747500", "113843.207500", "113843.667500", "113844.127500", "113844.587500", "113845.047500", "113845.507500", "113845.967500", "113846.427500", "113846.887500", "113847.347500", "113847.807500", "113848.267500", "113848.727500", "113849.187500", "113849.647500", "113850.107500", "113850.567500", "113851.027500", "113851.487500", "113851.947500", "113852.407500", "113852.867500", "113853.327500", "113853.787500", "113854.247500", "113854.707500", "113855.167500", "113855.627500", "113856.087500", "113856.547500", "113857.007500", "113857.467500", "113857.927500", "113858.387500", "113858.847500", "113859.307500", "113859.767500", "113900.227500", "113900.687500", "113901.147500", "113901.607500", "113902.067500", "113902.527500", "113902.987500", "113903.447500", "113903.907500", "113904.367500", "113904.827500", "113905.287500", "113905.747500", "113906.207500", "113906.667500", "113907.127500", "113907.587500", "113908.047500", "113908.507500", "113908.967500", "113909.427500", "113909.887500", "113910.347500", "113910.807500", "113911.267500", "113911.727500", "113912.187500", "113912.647500", "113913.107500", "113913.567500", "113914.027500", "113914.487500", "113914.947500", "113915.407500", "113915.867500", "113916.327500", "113916.787500", "113917.247500", "113917.707500", "113918.167500", "113918.627500", "113919.087500", "113919.547500", "113920.007500", "113920.467500", "113920.927500", "113921.387500", "113921.847500", "113922.307500", "113922.767500", "113923.227500", "113923.687500", "113924.147500", "113924.607500", "113925.067500", "113925.527500", "113925.987500", "113926.447500", "113926.907500", "113927.367500", "113927.827500", "113928.287500", "113928.747500", "113929.207500", "113929.667500", "113930.127500", "113930.587500", "113931.047500", "113931.507500", "113931.967500", "113932.427500", "113932.887500", "113933.347500", "113933.807500", "113934.267500", "113934.727500", "113935.187500", "113935.647500", "113936.107500", "113936.567500", "113937.027500", "113937.487500", "113937.947500", "113938.407500", "113938.867500", "113939.327500", "113939.787500", "113940.247500", "113940.707500", "113941.167500", "113941.627500", "113942.087500", "113942.547500", "113943.007500", "113943.467500", "113943.927500", "113944.387500", "113944.847500", "113945.307500", "113945.767500", "113946.227500", "113946.687500", "113947.147500", "113947.607500", "113948.067500", "113948.527500", "113948.987500", "113949.447500", "113949.907500", "113950.367500", "113950.827500", "113951.287500", "113951.747500", "113952.207500", "113952.667500", "113953.127500", "113953.587500", "113954.047500", "113954.507500", "113954.967500", "113955.427500", "113955.887500", "113956.347500", "113956.807500", "113957.267500", "113957.727500", "113958.187500", "113958.647500", "113959.107500", "113959.567500", "114000.027500", "114000.487500", "114000.947500", "114001.407500", "114001.867500", "114002.327500", "114002.787500", "114003.247500", "114003.707500", "114004.167500", "114004.627500", "114005.087500", "114005.547500", "114006.007500", "114006.467500", "114006.927500", "114007.387500", "114007.847500", "114008.307500", "114008.767500", "114009.227500", "114009.687500", "114010.147500", "114010.607500", "114011.067500", "114011.527500", "114011.987500", "114012.447500", "114012.907500", "114013.367500", "114013.827500", "114014.287500", "114014.747500", "114015.207500", "114015.667500", "114016.127500", "114016.587500", "114017.047500", "114017.507500", "114017.967500", "114018.427500", "114018.887500", "114019.347500", "114019.807500", "114020.267500", "114020.727500", "114021.187500", "114021.647500", "114022.107500", "114022.567500", "114023.027500", "114023.487500", "114023.947500", "114024.407500", "114024.867500", "114025.327500", "114025.787500", "114026.247500", "114026.707500", "114027.167500", "114027.627500", "114028.087500", "114028.547500", "114029.007500", "114029.467500", "114029.927500", "114030.387500", "114030.847500", "114031.307500", "114031.767500", "114032.227500", "114032.687500", "114033.147500", "114033.607500", "114034.067500", "114034.527500", "114034.987500", "114035.447500", "114035.907500", "114036.367500", "114036.827500", "114037.287500", "114037.747500", "114038.207500", "114038.667500", "114039.127500", "114039.587500", "114040.047500", "114040.507500", "114040.967500", "114041.427500", "114041.887500", "114042.347500", "114042.807500", "114043.267500", "114043.727500", "114044.187500", "114044.647500", "114045.107500", "114045.567500", "114046.027500", "114046.487500", "114046.947500", "114047.407500", "114047.867500", "114048.327500", "114048.787500", "114049.247500", "114049.707500", "114050.167500", "114050.627500", "114051.087500", "114051.547500", "114052.007500", "114052.467500", "114052.927500", "114053.387500", "114053.847500", "114054.307500", "114054.767500", "114055.227500", "114055.687500", "114056.147500", "114056.607500", "114057.067500", "114057.527500", "114057.987500", "114058.447500", "114058.907500", "114059.367500", "114059.827500", "114100.287500", "114100.747500", "114101.207500", "114101.667500", "114102.127500", "114102.587500", "114103.047500", "114103.507500", "114103.967500", "114104.427500", "114104.887500", "114105.347500", "114105.807500", "114106.267500", "114106.727500", "114107.187500", "114107.647500", "114108.107500", "114108.567500", "114109.027500", "114109.487500", "114109.947500", "114110.407500", "114110.867500", "114111.327500", "114111.787500", "114112.247500", "114112.707500", "114113.167500", "114113.627500", "114114.087500", "114114.547500", "114115.007500", "114115.467500", "114115.927500", "114116.387500", "114116.847500", "114117.307500", "114117.767500", "114118.227500", "114118.687500", "114119.147500", "114119.607500", "114120.067500", "114120.527500", "114120.987500", "114121.447500", "114121.907500", "114122.367500", "114122.827500", "114123.287500", "114123.747500", "114124.207500", "114124.667500", "114125.127500", "114125.587500", "114126.047500", "114126.507500", "114126.967500", "114127.427500", "114127.887500", "114128.347500", "114128.807500", "114129.267500", "114129.727500", "114130.187500", "114130.647500", "114131.107500", "114131.567500", "114132.027500", "114132.487500", "114132.947500", "114133.407500", "114133.867500", "114134.327500", "114134.787500", "114135.247500", "114135.707500", "114136.167500", "114136.627500", "114137.087500", "114137.547500", "114138.007500", "114138.467500", "114138.927500", "114139.387500", "114139.847500", "114140.307500", "114140.767500", "114141.227500", "114141.687500", "114142.147500", "114142.607500", "114143.067500", "114143.527500", "114143.987500", "114144.447500", "114144.907500", "114145.367500", "114145.827500", "114146.287500", "114146.747500", "114147.207500", "114147.667500", "114148.127500", "114148.587500", "114149.047500", "114149.507500", "114149.967500", "114150.427500", "114150.887500", "114151.347500", "114151.807500", "114152.267500", "114152.727500", "114153.187500", "114153.647500", "114154.107500", "114154.567500", "114155.027500", "114155.487500", "114155.947500", "114156.407500", "114156.867500", "114157.327500", "114157.787500", "114158.247500", "114158.707500", "114159.167500", "114159.627500", "114200.087500", "114200.547500", "114201.007500", "114201.467500", "114201.927500", "114202.387500", "114202.847500", "114203.307500", "114203.767500", "114204.227500", "114204.687500", "114205.147500", "114205.607500", "114206.067500", "114206.527500", "114206.987500", "114207.447500", "114207.907500", "114208.367500", "114208.827500", "114209.287500", "114209.747500", "114210.207500", "114210.667500", "114211.127500", "114211.587500", "114212.047500", "114212.507500", "114212.967500", "114213.427500", "114213.887500", "114214.347500", "114214.807500", "114215.267500", "114215.727500", "114216.187500", "114216.647500", "114217.107500", "114217.567500", "114218.027500", "114218.487500", "114218.947500", "114219.407500", "114219.867500", "114220.327500", "114220.787500", "114221.247500", "114221.707500", "114222.167500", "114222.627500", "114223.087500", "114223.547500", "114224.007500", "114224.467500", "114224.927500", "114225.387500", "114225.847500", "114226.307500", "114226.767500", "114227.227500", "114227.687500", "114228.147500", "114228.607500", "114229.067500", "114229.527500", "114229.987500", "114230.447500", "114230.907500", "114231.367500", "114231.827500", "114232.287500", "114232.747500", "114233.207500", "114233.667500", "114234.127500", "114234.587500", "114235.047500", "114235.507500", "114235.967500", "114236.427500", "114236.887500", "114237.347500", "114237.807500", "114238.267500", "114238.727500", "114239.187500", "114239.647500", "114240.107500", "114240.567500", "114241.027500", "114241.487500", "114241.947500", "114242.407500", "114242.867500", "114243.327500", "114243.787500", "114244.247500", "114244.707500", "114245.167500", "114245.627500", "114246.087500", "114246.547500", "114247.007500", "114247.467500", "114247.927500", "114248.387500", "114248.847500", "114249.307500", "114249.767500", "114250.227500", "114250.687500", "114251.147500", "114251.607500", "114252.067500", "114252.527500", "114252.987500", "114253.447500", "114253.907500", "114254.367500", "114254.827500", "114255.287500", "114255.747500", "114256.207500", "114256.667500", "114257.127500", "114257.587500", "114258.047500", "114258.507500", "114258.967500", "114259.427500", "114259.887500", "114300.347500", "114300.807500", "114301.267500", "114301.727500", "114302.187500", "114302.647500", "114303.107500", "114303.567500", "114304.027500", "114304.487500", "114304.947500", "114305.407500", "114305.867500", "114306.327500", "114306.787500", "114307.247500", "114307.707500", "114308.167500", "114308.627500", "114309.087500", "114309.547500", "114310.007500", "114310.467500", "114310.927500", "114311.387500", "114311.847500", "114312.307500", "114312.767500", "114313.227500", "114313.687500", "114314.147500", "114314.607500", "114315.067500", "114315.527500", "114315.987500", "114316.447500", "114316.907500", "114317.367500", "114317.827500", "114318.287500", "114318.747500", "114319.207500", "114319.667500", "114320.127500", "114320.587500", "114321.047500", "114321.507500", "114321.967500", "114322.427500", "114322.887500", "114323.347500", "114323.807500", "114324.267500", "114324.727500", "114325.187500", "114325.647500", "114326.107500", "114326.567500", "114327.027500", "114327.487500", "114327.947500", "114328.407500", "114328.867500", "114329.327500", "114329.787500", "114330.247500", "114330.707500", "114331.167500", "114331.627500", "114332.087500", "114332.547500", "114333.007500", "114333.467500", "114333.927500", "114334.387500", "114334.847500", "114335.307500", "114335.767500", "114336.227500", "114336.687500", "114337.147500", "114337.607500", "114338.067500", "114338.527500", "114338.987500", "114339.447500", "114339.907500", "114340.367500", "114340.827500", "114341.287500", "114341.747500", "114342.207500", "114342.667500", "114343.127500", "114343.587500", "114344.047500", "114344.507500", "114344.967500", "114345.427500", "114345.887500", "114346.347500", "114346.807500", "114347.267500", "114347.727500", "114348.187500", "114348.647500", "114349.107500", "114349.567500", "114350.027500", "114350.487500", "114350.947500", "114351.407500", "114351.867500", "114352.327500", "114352.787500", "114353.247500", "114353.707500", "114354.167500", "114354.627500", "114355.087500", "114355.547500", "114356.007500", "114356.467500", "114356.927500", "114357.387500", "114357.847500", "114358.307500", "114358.767500", "114359.227500", "114359.687500", "114400.147500", "114400.607500", "114401.067500", "114401.527500", "114401.987500", "114402.447500", "114402.907500", "114403.367500", "114403.827500", "114404.287500", "114404.747500", "114405.207500", "114405.667500", "114406.127500", "114406.587500", "114407.047500", "114407.507500", "114407.967500", "114408.427500", "114408.887500", "114409.347500", "114409.807500", "114410.267500", "114410.727500", "114411.187500", "114411.647500", "114412.107500", "114412.567500", "114413.027500", "114413.487500", "114413.947500", "114414.407500", "114414.867500", "114415.327500", "114415.787500", "114416.247500", "114416.707500", "114417.167500", "114417.627500", "114418.087500", "114418.547500", "114419.007500", "114419.467500", "114419.927500", "114420.387500", "114420.847500", "114421.307500", "114421.767500", "114422.227500", "114422.687500", "114423.147500", "114423.607500", "114424.067500", "114424.527500", "114424.987500", "114425.447500", "114425.907500", "114426.367500", "114426.827500", "114427.287500", "114427.747500", "114428.207500", "114428.667500", "114429.127500", "114429.587500", "114430.047500", "114430.507500", "114430.967500", "114431.427500", "114431.887500", "114432.347500", "114432.807500", "114433.267500", "114433.727500", "114434.187500", "114434.647500", "114435.107500", "114435.567500", "114436.027500", "114436.487500", "114436.947500", "114437.407500", "114437.867500", "114438.327500", "114438.787500", "114439.247500", "114439.707500", "114440.167500", "114440.627500", "114441.087500", "114441.547500", "114442.007500", "114442.467500", "114442.927500", "114443.387500", "114443.847500", "114444.307500", "114444.767500", "114445.227500", "114445.687500", "114446.147500", "114446.607500", "114447.067500", "114447.527500", "114447.987500", "114448.447500", "114448.907500", "114449.367500", "114449.827500", "114450.287500", "114450.747500", "114451.207500", "114451.667500", "114452.127500", "114452.587500", "114453.047500", "114453.507500", "114453.967500", "114454.427500", "114454.887500", "114455.347500", "114455.807500", "114456.267500", "114456.727500", "114457.187500", "114457.647500", "114458.107500", "114458.567500", "114459.027500", "114459.487500", "114459.947500", "114500.407500", "114500.867500", "114501.327500", "114501.787500", "114502.247500", "114502.707500", "114503.167500", "114503.627500", "114504.087500", "114504.547500", "114505.007500", "114505.467500", "114505.927500", "114506.387500", "114506.847500", "114507.307500", "114507.767500", "114508.227500", "114508.687500", "114509.147500", "114509.607500", "114510.067500", "114510.527500", "114510.987500", "114511.447500", "114511.907500", "114512.367500", "114512.827500", "114513.287500", "114513.747500", "114514.207500", "114514.667500", "114515.127500", "114515.587500", "114516.047500", "114516.507500", "114516.967500", "114517.427500", "114517.887500"],
