{
  "AcquisitionMatrixPE": 140,
  "AcquisitionNumber": 1,
  "AcquisitionTime": "16:36:22.477500",
  "BandwidthPerPixelPhaseEncode": 10.352,
  "BaseResolution": 140,
  "BodyPartExamined": "BRAIN",
  "ConsistencyInfo": "N4_VE11C_LATEST_20160120",
  "ConversionSoftware": "dcm2niix",
  "ConversionSoftwareVersion": "v1.0.20201102",
  "DerivedVendorReportedEchoSpacing": 0.000689998,
  "DeviceSerialNumber": "66112",
  "DiffusionScheme": "Monopolar",
  "DwellTime": 2.1e-06,
  "EchoTime": 0.088,
  "EchoTrainLength": 105,
  "EffectiveEchoSpacing": 0.000689998,
  "FlipAngle": 90,
  "ImageComments": "Unaliased MB3/PE3",
  "ImageOrientationPatientDICOM": [0.999498, -0.00353211, -0.0314951, 0.0101181, 0.977327, 0.211493],
  "ImageType": [
    "ORIGINAL",
    "PRIMARY",
    "DIFFUSION",
    "NONE",
    "MB",
    "ND"
],
  "ImagingFrequency": 123.252,
  "InPlanePhaseEncodingDirectionDICOM": "COL",
  "InstitutionAddress": "Maynard 3,Hanover,NH,US,03755",
  "InstitutionName": "Dartmouth College - PBS",
  "InstitutionalDepartmentName": "Department",
  "IntendedFor": [
    "ses-01/dwi/sub-0040_ses-01_acq-96dirX6b0Xmb_dwi.nii.gz"
],
  "MRAcquisitionType": "2D",
  "MagneticFieldStrength": 3,
  "Manufacturer": "Siemens",
  "ManufacturersModelName": "Prisma",
  "Modality": "MR",
  "MultibandAccelerationFactor": 3,
  "PartialFourier": 0.75,
  "PatientPosition": "HFS",
  "PercentPhaseFOV": 100,
  "PercentSampling": 100,
  "PhaseEncodingDirection": "j",
  "PhaseEncodingSteps": 105,
  "PhaseResolution": 1,
  "PixelBandwidth": 1700,
  "ProcedureStepDescription": "Wager_Wager^1076_spacetop",
  "ProtocolName": "dwi_acq-discorr-PA",
  "PulseSequenceDetails": "%CustomerSeq%\\cmrr_mbep2d_diff",
  "ReceiveCoilActiveElements": "HEA;HEP",
  "ReceiveCoilName": "Head_32",
  "ReconMatrixPE": 140,
  "RepetitionTime": 4.1,
  "SAR": 0.127367,
  "ScanOptions": "PFP\\FS",
  "ScanningSequence": "EP",
  "SequenceName": "ep_b0",
  "SequenceVariant": "SK\\SS",
  "SeriesDescription": "dwi_acq-discorr-PA",
  "SeriesNumber": 6,
  "ShimSetting": [4135, -7737, -7224, 600, -41, -40, 67, 80],
  "SliceThickness": 1.7,
  "SliceTiming": [0, 2.10938, 0.14062, 2.26562, 0.29688, 2.40625, 0.45312, 2.5625, 0.59375, 2.71875, 0.75, 2.85938, 0.90625, 3.01562, 1.04688, 3.17188, 1.20312, 3.3125, 1.35938, 3.46875, 1.5, 3.625, 1.65625, 3.76562, 1.8125, 3.92188, 1.95312, 0, 2.10938, 0.14062, 2.26562, 0.29688, 2.40625, 0.45312, 2.5625, 0.59375, 2.71875, 0.75, 2.85938, 0.90625, 3.01562, 1.04688, 3.17188, 1.20312, 3.3125, 1.35938, 3.46875, 1.5, 3.625, 1.65625, 3.76562, 1.8125, 3.92188, 1.95312, 0, 2.10938, 0.14062, 2.26562, 0.29688, 2.40625, 0.45312, 2.5625, 0.59375, 2.71875, 0.75, 2.85938, 0.90625, 3.01562, 1.04688, 3.17188, 1.20312, 3.3125, 1.35938, 3.46875, 1.5, 3.625, 1.65625, 3.76562, 1.8125, 3.92188, 1.95312],
  "SoftwareVersions": "syngo MR E11",
  "SpacingBetweenSlices": 1.7,
  "StationName": "AWP66112",
  "TotalReadoutTime": 0.0959097,
  "TxRefAmp": 241.162,
  "WipMemBlock": "8a9b839f-c4cf-468e-b4c4-ec5926298ad2||Sequence: R016 ve11c/master r/e634e98; Dec 19 2017 11:11:25 by eja",
  "dcmmeta_affine": [
    [-1.713424563407898, 0.017345337197184563, -0.05105781555175781, 125.5146713256836],
    [0.00605505146086216, 1.6754179000854492, 0.35990142822265625, -102.11957550048828],
    [-0.05399160459637642, -0.36255982518196106, 1.6606826782226562, -16.155351638793945],
    [0.0, 0.0, 0.0, 1.0]
],
  "dcmmeta_reorient_transform": [
    [0.0, -1.0, 0.0, 139.0],
    [1.0, 0.0, 0.0, 0.0],
    [0.0, 0.0, -1.0, 80.0],
    [0.0, 0.0, 0.0, 1.0]
],
  "dcmmeta_shape": [140, 140, 81],
  "dcmmeta_slice_dim": 2,
  "dcmmeta_version": 0.6,
  "global": {
    "const": {
      "AccessionNumber": "A003804",
      "AcquisitionMatrix": [140, 0, 0, 140],
      "AcquisitionNumber": 1,
      "AngioFlag": "N",
      "BitsAllocated": 16,
      "BitsStored": 16,
      "BodyPartExamined": "BRAIN",
      "Columns": 140,
      "EchoNumbers": 1,
      "EchoTime": 88.0,
      "EchoTrainLength": 105,
      "FlipAngle": 90.0,
      "HighBit": 15,
      "ImageOrientationPatient": [0.9994976651808, -0.0035321132944, -0.0314951023782, 0.01011811372561, 0.97732708746579, 0.2114932336513],
      "ImageType": [
        "ORIGINAL",
        "PRIMARY",
        "DIFFUSION",
        "NONE",
        "MB",
        "ND"
],
      "ImagedNucleus": "1H",
      "ImagingFrequency": 123.252195,
      "InPlanePhaseEncodingDirection": "COL",
      "MRAcquisitionType": "2D",
      "MagneticFieldStrength": 3.0,
      "Manufacturer": "SIEMENS",
      "ManufacturerModelName": "Prisma",
      "Modality": "MR",
      "NumberOfAverages": 1.0,
      "NumberOfPhaseEncodingSteps": 105,
      "PercentPhaseFieldOfView": 100.0,
      "PercentSampling": 100.0,
      "PerformedProcedureStepStartTime": "162057.384000",
      "PhotometricInterpretation": "MONOCHROME2",
      "PixelBandwidth": 1700.0,
      "PixelRepresentation": 0,
      "PixelSpacing": [1.7142857313156, 1.7142857313156],
      "ProtocolName": "dwi_acq-discorr-PA",
      "RepetitionTime": 4100.0,
      "Rows": 140,
      "SAR": 0.12736682788855,
      "SamplesPerPixel": 1,
      "ScanOptions": [
        "PFP",
        "FS"
],
      "ScanningSequence": "EP",
      "SequenceName": "ep_b0",
      "SequenceVariant": [
        "SK",
        "SS"
],
      "SeriesDescription": "dwi_acq-discorr-PA",
      "SeriesNumber": 6,
      "SeriesTime": "163627.416000",
      "SliceThickness": 1.7000000476837,
      "SmallestImagePixelValue": 0,
      "SoftwareVersions": "syngo MR E11",
      "SpacingBetweenSlices": 1.7,
      "SpecificCharacterSet": "ISO_IR 100",
      "StudyID": "1",
      "StudyTime": "162057.265000",
      "TransmitCoilName": "Body",
      "VariableFlipAngleFlag": "N",
      "WindowCenterWidthExplanation": "Algo1",
      "dBdt": 0.0},
    "slices": {
      "AcquisitionTime": ["163622.477500", "163624.592500", "163622.630000", "163624.745000", "163622.780000", "163624.895000", "163622.932500", "163625.047500", "163623.082500", "163625.197500", "163623.235000", "163625.350000", "163623.385000", "163625.500000", "163623.535000", "163625.652500", "163623.687500", "163625.802500", "163623.837500", "163625.952500", "163623.990000", "163626.105000", "163624.140000", "163626.255000", "163624.292500", "163626.407500", "163624.442500", "163622.477500", "163624.592500", "163622.630000", "163624.745000", "163622.780000", "163624.895000", "163622.932500", "163625.047500", "163623.082500", "163625.197500", "163623.235000", "163625.350000", "163623.385000", "163625.500000", "163623.535000", "163625.652500", "163623.687500", "163625.802500", "163623.837500", "163625.952500", "163623.990000", "163626.105000", "163624.140000", "163626.255000", "163624.292500", "163626.407500", "163624.442500", "163622.477500", "163624.592500", "163622.630000", "163624.745000", "163622.780000", "163624.895000", "163622.932500", "163625.047500", "163623.082500", "163625.197500", "163623.235000", "163625.350000", "163623.385000", "163625.500000", "163623.535000", "163625.652500", "163623.687500", "163625.802500", "163623.837500", "163625.952500", "163623.990000", "163626.105000", "163624.140000", "163626.255000", "163624.292500", "163626.407500", "163624.442500"],
      "ContentTime": ["163627.426000", "163627.529000", "163627.434000", "163627.536000", "163627.441000", "163627.542000", "163627.448000", "163627.549000", "163627.455000", "163627.556000", "163627.462000", "163627.567000", "163627.469000", "163627.574000", "163627.477000", "163627.581000", "163627.484000", "163627.587000", "163627.490000", "163627.594000", "163627.497000", "163627.600000", "163627.504000", "163627.607000", "163627.510000", "163627.613000", "163627.523000", "163627.429000", "163627.531000", "163627.436000", "163627.538000", "163627.443000", "163627.545000", "163627.450000", "163627.551000", "163627.457000", "163627.558000", "163627.465000", "163627.570000", "163627.471000", "163627.577000", "163627.479000", "163627.583000", "163627.486000", "163627.590000", "163627.493000", "163627.596000", "163627.499000", "163627.603000", "163627.506000", "163627.609000", "163627.512000", "163627.615000", "163627.525000", "163627.432000", "163627.534000", "163627.439000", "163627.540000", "163627.446000", "163627.547000", "163627.452000", "163627.553000", "163627.460000", "163627.560000", "163627.467000", "163627.572000", "163627.474000", "163627.579000", "163627.481000", "163627.585000", "163627.488000", "163627.592000", "163627.495000", "163627.598000", "163627.501000", "163627.605000", "163627.508000", "163627.611000", "163627.520000", "163627.618000", "163627.527000"],
      "CsaImage.ICE_Dims": [
        "X_1_1_1_1_1_1_1_1_1_1_1_221",
        "X_1_1_1_1_1_1_42_1_1_2_1_221",
        "X_1_1_1_1_1_1_2_1_1_3_1_221",
        "X_1_1_1_1_1_1_43_1_1_4_1_221",
        "X_1_1_1_1_1_1_3_1_1_5_1_221",
        "X_1_1_1_1_1_1_44_1_1_6_1_221",
        "X_1_1_1_1_1_1_4_1_1_7_1_221",
        "X_1_1_1_1_1_1_45_1_1_8_1_221",
        "X_1_1_1_1_1_1_5_1_1_9_1_221",
        "X_1_1_1_1_1_1_46_1_1_10_1_221",
        "X_1_1_1_1_1_1_6_1_1_11_1_221",
        "X_1_1_1_1_1_1_47_1_1_12_1_221",
        "X_1_1_1_1_1_1_7_1_1_13_1_221",
        "X_1_1_1_1_1_1_48_1_1_14_1_221",
        "X_1_1_1_1_1_1_8_1_1_15_1_221",
        "X_1_1_1_1_1_1_49_1_1_16_1_221",
        "X_1_1_1_1_1_1_9_1_1_17_1_221",
        "X_1_1_1_1_1_1_50_1_1_18_1_221",
        "X_1_1_1_1_1_1_10_1_1_19_1_221",
        "X_1_1_1_1_1_1_51_1_1_20_1_221",
        "X_1_1_1_1_1_1_11_1_1_21_1_221",
        "X_1_1_1_1_1_1_52_1_1_22_1_221",
        "X_1_1_1_1_1_1_12_1_1_23_1_221",
        "X_1_1_1_1_1_1_53_1_1_24_1_221",
        "X_1_1_1_1_1_1_13_1_1_25_1_221",
        "X_1_1_1_1_1_1_54_1_1_26_1_221",
        "X_1_1_1_1_1_1_14_1_1_27_1_221",
        "X_1_1_1_1_1_1_55_1_1_28_1_221",
        "X_1_1_1_1_1_1_15_1_1_29_1_221",
        "X_1_1_1_1_1_1_56_1_1_30_1_221",
        "X_1_1_1_1_1_1_16_1_1_31_1_221",
        "X_1_1_1_1_1_1_57_1_1_32_1_221",
        "X_1_1_1_1_1_1_17_1_1_33_1_221",
        "X_1_1_1_1_1_1_58_1_1_34_1_221",
        "X_1_1_1_1_1_1_18_1_1_35_1_221",
        "X_1_1_1_1_1_1_59_1_1_36_1_221",
        "X_1_1_1_1_1_1_19_1_1_37_1_221",
        "X_1_1_1_1_1_1_60_1_1_38_1_221",
        "X_1_1_1_1_1_1_20_1_1_39_1_221",
        "X_1_1_1_1_1_1_61_1_1_40_1_221",
        "X_1_1_1_1_1_1_21_1_1_41_1_221",
        "X_1_1_1_1_1_1_62_1_1_42_1_221",
        "X_1_1_1_1_1_1_22_1_1_43_1_221",
        "X_1_1_1_1_1_1_63_1_1_44_1_221",
        "X_1_1_1_1_1_1_23_1_1_45_1_221",
        "X_1_1_1_1_1_1_64_1_1_46_1_221",
        "X_1_1_1_1_1_1_24_1_1_47_1_221",
        "X_1_1_1_1_1_1_65_1_1_48_1_221",
        "X_1_1_1_1_1_1_25_1_1_49_1_221",
        "X_1_1_1_1_1_1_66_1_1_50_1_221",
        "X_1_1_1_1_1_1_26_1_1_51_1_221",
        "X_1_1_1_1_1_1_67_1_1_52_1_221",
        "X_1_1_1_1_1_1_27_1_1_53_1_221",
        "X_1_1_1_1_1_1_68_1_1_54_1_221",
        "X_1_1_1_1_1_1_28_1_1_55_1_221",
        "X_1_1_1_1_1_1_69_1_1_56_1_221",
        "X_1_1_1_1_1_1_29_1_1_57_1_221",
        "X_1_1_1_1_1_1_70_1_1_58_1_221",
        "X_1_1_1_1_1_1_30_1_1_59_1_221",
        "X_1_1_1_1_1_1_71_1_1_60_1_221",
        "X_1_1_1_1_1_1_31_1_1_61_1_221",
        "X_1_1_1_1_1_1_72_1_1_62_1_221",
        "X_1_1_1_1_1_1_32_1_1_63_1_221",
        "X_1_1_1_1_1_1_73_1_1_64_1_221",
        "X_1_1_1_1_1_1_33_1_1_65_1_221",
        "X_1_1_1_1_1_1_74_1_1_66_1_221",
        "X_1_1_1_1_1_1_34_1_1_67_1_221",
        "X_1_1_1_1_1_1_75_1_1_68_1_221",
        "X_1_1_1_1_1_1_35_1_1_69_1_221",
        "X_1_1_1_1_1_1_76_1_1_70_1_221",
        "X_1_1_1_1_1_1_36_1_1_71_1_221",
        "X_1_1_1_1_1_1_77_1_1_72_1_221",
        "X_1_1_1_1_1_1_37_1_1_73_1_221",
        "X_1_1_1_1_1_1_78_1_1_74_1_221",
        "X_1_1_1_1_1_1_38_1_1_75_1_221",
        "X_1_1_1_1_1_1_79_1_1_76_1_221",
        "X_1_1_1_1_1_1_39_1_1_77_1_221",
        "X_1_1_1_1_1_1_80_1_1_78_1_221",
        "X_1_1_1_1_1_1_40_1_1_79_1_221",
        "X_1_1_1_1_1_1_81_1_1_80_1_221",
        "X_1_1_1_1_1_1_41_1_1_81_1_221"
],
      "CsaImage.ProtocolSliceNumber": [0, 1, 2, 3, 4, 5, 6, 7, 8, 9, 10, 11, 12, 13, 14, 15, 16, 17, 18, 19, 20, 21, 22, 23, 24, 25, 26, 27, 28, 29, 30, 31, 32, 33, 34, 35, 36, 37, 38, 39, 40, 41, 42, 43, 44, 45, 46, 47, 48, 49, 50, 51, 52, 53, 54, 55, 56, 57, 58, 59, 60, 61, 62, 63, 64, 65, 66, 67, 68, 69, 70, 71, 72, 73, 74, 75, 76, 77, 78, 79, 80],
      "CsaImage.RFSWDDataType": [
        "predicted",
        "predicted",
        "predicted",
        "predicted",
        "predicted",
        "predicted",
        "predicted",
        "predicted",
        "predicted",
        "predicted",
        "predicted",
        "predicted",
        "predicted",
        "predicted",
        "predicted",
        "predicted",
        "predicted",
        "predicted",
        "predicted",
        "predicted",
        "predicted",
        "predicted",
        "predicted",
        "predicted",
        "predicted",
        "measured",
        "predicted",
        "predicted",
        "predicted",
        "predicted",
        "predicted",
        "predicted",
        "predicted",
        "predicted",
        "predicted",
        "predicted",
        "predicted",
        "predicted",
        "predicted",
        "predicted",
        "predicted",
        "predicted",
        "predicted",
        "predicted",
        "predicted",
        "predicted",
        "predicted",
        "predicted",
        "predicted",
        "predicted",
        "predicted",
        "predicted",
        "measured",
        "predicted",
        "predicted",
        "predicted",
        "predicted",
        "predicted",
        "predicted",
        "predicted",
        "predicted",
        "predicted",
        "predicted",
        "predicted",
        "predicted",
        "predicted",
        "predicted",
        "predicted",
        "predicted",
        "predicted",
        "predicted",
        "predicted",
        "predicted",
        "predicted",
        "predicted",
        "predicted",
        "predicted",
        "predicted",
        "predicted",
        "measured",
        "predicted"
],
      "CsaImage.SlicePosition_PCS": [
        [-127.92566896, -130.76365841, -66.55112713],
        [-127.87461115, -131.12355793, -64.89044445],
        [-127.82355333, -131.48345745, -63.22976178],
        [-127.77249552, -131.84335697, -61.56908291],
        [-127.7214377, -132.20325649, -59.90840023],
        [-127.67037989, -132.56315601, -58.24771756],
        [-127.61932207, -132.92305553, -56.58703488],
        [-127.56826426, -133.28295505, -54.9263522],
        [-127.51720644, -133.64285457, -53.26566952],
        [-127.46614862, -134.00275409, -51.60498875],
        [-127.41509081, -134.36265362, -49.94430607],
        [-127.36403299, -134.72255504, -48.28362339],
        [-127.31297518, -135.08245456, -46.62294072],
        [-127.26191736, -135.44235409, -44.96225995],
        [-127.21085955, -135.80225361, -43.30157727],
        [-127.15980173, -136.16215313, -41.64089459],
        [-127.10874392, -136.52205265, -39.98021191],
        [-127.0576861, -136.88195217, -38.31953114],
        [-127.00662876, -137.24185169, -36.65884846],
        [-126.95557095, -137.60175121, -34.99816578],
        [-126.90451313, -137.96165073, -33.33748406],
        [-126.85345531, -138.32155025, -31.67680233],
        [-126.8023975, -138.68144977, -30.01611966],
        [-126.75133968, -139.04134929, -28.35543745],
        [-126.70028187, -139.40124882, -26.69475525],
        [-126.64922405, -139.76114834, -25.03407305],
        [-126.59816624, -140.12104786, -23.37339085],
        [-126.54710842, -140.48094738, -21.71270866],
        [-126.49605061, -140.8408469, -20.05202645],
        [-126.44499279, -141.20074642, -18.39134425],
        [-126.39393497, -141.56064594, -16.73066205],
        [-126.34287716, -141.92054737, -15.06997984],
        [-126.29181934, -142.28044689, -13.40929764],
        [-126.24076153, -142.64034641, -11.74861592],
        [-126.18970371, -143.00024593, -10.08793324],
        [-126.1386459, -143.36014545, -8.42725152],
        [-126.08758808, -143.72004497, -6.76656884],
        [-126.03653027, -144.07994449, -5.10588711],
        [-125.98547293, -144.43984401, -3.44520443],
        [-125.93441511, -144.79974354, -1.78452176],
        [-125.8833573, -145.15964306, -0.12384099],
        [-125.83229948, -145.51954258, 1.53684169],
        [-125.78124166, -145.8794421, 3.19752437],
        [-125.73018385, -146.23934162, 4.85820705],
        [-125.67912603, -146.59924114, 6.51888782],
        [-125.62806822, -146.95914066, 8.1795705],
        [-125.5770104, -147.31904018, 9.84025318],
        [-125.52595259, -147.6789397, 11.50093586],
        [-125.47489477, -148.03883922, 13.16161853],
        [-125.42383696, -148.39873874, 14.82230121],
        [-125.37277914, -148.75863827, 16.48298008],
        [-125.32172132, -149.11853969, 18.14366275],
        [-125.27066351, -149.47843731, 19.80434543],
        [-125.21960569, -149.83833874, 21.46502811],
        [-125.16854788, -150.19823635, 23.12571079],
        [-125.1174903, -150.55813778, 24.78639347],
        [-125.06643249, -150.91803539, 26.44707614],
        [-125.01537467, -151.27793682, 28.10775882],
        [-124.96431685, -151.63783443, 29.76843769],
        [-124.91325904, -151.99773586, 31.42912036],
        [-124.86220122, -152.35763347, 33.08980304],
        [-124.81114341, -152.7175349, 34.75048572],
        [-124.76008583, -153.07743633, 36.4111684],
        [-124.70902802, -153.43733394, 38.07185108],
        [-124.6579702, -153.79723537, 39.73253376],
        [-124.60691238, -154.15713299, 41.39321643],
        [-124.55585457, -154.51703441, 43.0538953],
        [-124.50479675, -154.87693203, 44.71457798],
        [-124.45373894, -155.23683346, 46.37526065],
        [-124.40268112, -155.59673107, 48.03594333],
        [-124.35162331, -155.9566325, 49.69662601],
        [-124.30056549, -156.31653011, 51.35730869],
        [-124.24950791, -156.67643154, 53.01799137],
        [-124.1984501, -157.03632915, 54.67867404],
        [-124.14739228, -157.39623058, 56.33935672],
        [-124.09633447, -157.75612819, 58.0000394],
        [-124.04527665, -158.11602962, 59.66072208],
        [-123.99421884, -158.47592724, 61.32140476],
        [-123.94316102, -158.83582866, 62.98207981],
        [-123.8921032, -159.19572628, 64.64276248],
        [-123.84104539, -159.55562771, 66.30344516]
],
      "CsaImage.TimeAfterStart": [16.4, 18.515, 16.5525, 18.6675, 16.7025, 18.8175, 16.8525, 18.97, 17.005, 19.12, 17.155, 19.2725, 17.3075, 19.4225, 17.4575, 19.5725, 17.61, 19.725, 17.76, 19.875, 17.9125, 20.0275, 18.0625, 20.1775, 18.2125, 20.33, 18.365, 16.4, 18.515, 16.5525, 18.6675, 16.7025, 18.8175, 16.8525, 18.97, 17.005, 19.12, 17.155, 19.2725, 17.3075, 19.4225, 17.4575, 19.5725, 17.61, 19.725, 17.76, 19.875, 17.9125, 20.0275, 18.0625, 20.1775, 18.2125, 20.33, 18.365, 16.4, 18.515, 16.5525, 18.6675, 16.7025, 18.8175, 16.8525, 18.97, 17.005, 19.12, 17.155, 19.2725, 17.3075, 19.4225, 17.4575, 19.5725, 17.61, 19.725, 17.76, 19.875, 17.9125, 20.0275, 18.0625, 20.1775, 18.2125, 20.33, 18.365],
      "ImagePositionPatient": [
        [-127.92566896432, -130.76365840688, -66.55112713312],
        [-127.87461114877, -131.12355792775, -64.890444454897],
        [-127.82355333321, -131.48345744862, -63.229761776675],
        [-127.77249551766, -131.8433569695, -61.569082913149],
        [-127.72143770211, -132.20325649037, -59.908400234927],
        [-127.67037988656, -132.56315601125, -58.247717556704],
        [-127.61932207101, -132.92305553212, -56.587034878481],
        [-127.56826425545, -133.282955053, -54.926352200259],
        [-127.5172064399, -133.64285457387, -53.265669522036],
        [-127.46614862435, -134.00275409474, -51.604988751162],
        [-127.4150908088, -134.36265361562, -49.944306072939],
        [-127.36403299325, -134.72255504384, -48.283623394717],
        [-127.3129751777, -135.08245456471, -46.622940716494],
        [-127.26191736214, -135.44235408559, -44.96225994562],
        [-127.21085954659, -135.80225360646, -43.301577267397],
        [-127.15980173104, -136.16215312734, -41.640894589175],
        [-127.10874391549, -136.52205264821, -39.980211910952],
        [-127.05768609994, -136.88195216908, -38.319531140078],
        [-127.00662876122, -137.24185168996, -36.658848461855],
        [-126.95557094567, -137.60175121083, -34.998165783633],
        [-126.90451313012, -137.96165073171, -33.337484059084],
        [-126.85345531457, -138.32155025258, -31.676802334536],
        [-126.80239749902, -138.68144977345, -30.016119656313],
        [-126.75133968346, -139.04134929433, -28.355437454928],
        [-126.70028186791, -139.4012488152, -26.694755253542],
        [-126.64922405236, -139.76114833608, -25.034073052157],
        [-126.59816623681, -140.12104785695, -23.373390850771],
        [-126.54710842126, -140.48094737782, -21.712708656836],
        [-126.49605060571, -140.8408468987, -20.052026448],
        [-126.44499279015, -141.20074641957, -18.391344246615],
        [-126.3939349746, -141.56064594045, -16.730662045229],
        [-126.34287715905, -141.92054736867, -15.069979843844],
        [-126.2918193435, -142.28044688954, -13.409297642458],
        [-126.24076152795, -142.64034641042, -11.74861591791],
        [-126.18970371239, -143.00024593129, -10.087933239687],
        [-126.13864589684, -143.36014545216, -8.4272515151391],
        [-126.08758808129, -143.72004497304, -6.7665688369164],
        [-126.03653026574, -144.07994449391, -5.1058871123681],
        [-125.98547292702, -144.43984401479, -3.4452044341454],
        [-125.93441511147, -144.79974353566, -1.7845217559228],
        [-125.88335729592, -145.15964305654, -0.1238409850487],
        [-125.83229948037, -145.51954257741, 1.5368416931739],
        [-125.78124166482, -145.87944209828, 3.1975243713966],
        [-125.73018384927, -146.23934161916, 4.8582070496192],
        [-125.67912603371, -146.59924114003, 6.5188878204933],
        [-125.62806821816, -146.95914066091, 8.1795704987159],
        [-125.57701040261, -147.31904018178, 9.8402531769386],
        [-125.52595258706, -147.67893970265, 11.500935855161],
        [-125.47489477151, -148.03883922353, 13.161618533384],
        [-125.42383695596, -148.3987387444, 14.822301211607],
        [-125.3727791404, -148.75863826528, 16.482980075132],
        [-125.32172132485, -149.1185396935, 18.143662753355],
        [-125.2706635093, -149.47843730702, 19.804345431577],
        [-125.21960569375, -149.83833873525, 21.4650281098],
        [-125.1685478782, -150.19823634877, 23.125710788023],
        [-125.11749030106, -150.55813777699, 24.786393466245],
        [-125.06643248551, -150.91803539052, 26.447076144468],
        [-125.01537466996, -151.27793681874, 28.107758822691],
        [-124.96431685441, -151.63783443227, 29.768437686216],
        [-124.91325903886, -151.99773586049, 31.429120364439],
        [-124.8622012233, -152.35763347402, 33.089803042661],
        [-124.81114340775, -152.71753490224, 34.750485720884],
        [-124.76008583062, -153.07743633046, 36.411168399107],
        [-124.70902801507, -153.43733394399, 38.071851077329],
        [-124.65797019952, -153.79723537221, 39.732533755552],
        [-124.60691238396, -154.15713298573, 41.393216433775],
        [-124.55585456841, -154.51703441396, 43.0538952973],
        [-124.50479675286, -154.87693202748, 44.714577975523],
        [-124.45373893731, -155.2368334557, 46.375260653745],
        [-124.40268112176, -155.59673106923, 48.035943331968],
        [-124.35162330621, -155.95663249745, 49.696626010191],
        [-124.30056549065, -156.31653011098, 51.357308688413],
        [-124.24950791352, -156.6764315392, 53.017991366636],
        [-124.19845009797, -157.03632915273, 54.678674044858],
        [-124.14739228242, -157.39623058095, 56.339356723081],
        [-124.09633446687, -157.75612819447, 58.000039401304],
        [-124.04527665131, -158.1160296227, 59.660722079526],
        [-123.99421883576, -158.47592723622, 61.321404757749],
        [-123.94316102021, -158.83582866445, 62.982079806577],
        [-123.89210320466, -159.19572627797, 64.6427624848],
        [-123.84104538911, -159.55562770619, 66.303445163023]
],
      "InstanceCreationTime": ["163627.426000", "163627.529000", "163627.434000", "163627.536000", "163627.441000", "163627.542000", "163627.448000", "163627.549000", "163627.455000", "163627.556000", "163627.462000", "163627.567000", "163627.469000", "163627.574000", "163627.477000", "163627.581000", "163627.484000", "163627.587000", "163627.490000", "163627.594000", "163627.497000", "163627.600000", "163627.504000", "163627.607000", "163627.510000", "163627.613000", "163627.523000", "163627.429000", "163627.531000", "163627.436000", "163627.538000", "163627.443000", "163627.545000", "163627.450000", "163627.551000", "163627.457000", "163627.558000", "163627.465000", "163627.570000", "163627.471000", "163627.577000", "163627.479000", "163627.583000", "163627.486000", "163627.590000", "163627.493000", "163627.596000", "163627.499000", "163627.603000", "163627.506000", "163627.609000", "163627.512000", "163627.615000", "163627.525000", "163627.432000", "163627.534000", "163627.439000", "163627.540000", "163627.446000", "163627.547000", "163627.452000", "163627.553000", "163627.460000", "163627.560000", "163627.467000", "163627.572000", "163627.474000", "163627.579000", "163627.481000", "163627.585000", "163627.488000", "163627.592000", "163627.495000", "163627.598000", "163627.501000", "163627.605000", "163627.508000", "163627.611000", "163627.520000", "163627.618000", "163627.527000"],
      "InstanceNumber": [1, 2, 3, 4, 5, 6, 7, 8, 9, 10, 11, 12, 13, 14, 15, 16, 17, 18, 19, 20, 21, 22, 23, 24, 25, 26, 27, 28, 29, 30, 31, 32, 33, 34, 35, 36, 37, 38, 39, 40, 41, 42, 43, 44, 45, 46, 47, 48, 49, 50, 51, 52, 53, 54, 55, 56, 57, 58, 59, 60, 61, 62, 63, 64, 65, 66, 67, 68, 69, 70, 71, 72, 73, 74, 75, 76, 77, 78, 79, 80, 81],
      "LargestImagePixelValue": [29956, 28275, 29289, 33595, 31942, 39529, 39136, 50524, 56289, 61731, 38709, 34234, 27242, 51283, 65535, 65535, 65535, 65535, 65535, 65535, 65535, 65535, 65535, 65535, 57814, 58859, 63685, 48861, 56388, 47340, 41339, 44187, 50704, 43451, 40777, 39599, 42457, 41145, 42436, 39713, 41779, 42066, 33708, 46230, 34171, 33675, 45028, 37376, 40463, 40859, 41986, 41975, 44524, 45679, 49993, 45507, 40783, 37801, 45468, 40512, 49078, 40753, 45987, 54154, 48959, 34605, 35602, 40839, 38853, 39199, 43997, 51938, 48072, 32812, 27584, 12219, 11067, 9920, 8820, 3579, 1131],
      "SliceLocation": [-41.170636902725, -39.470636454666, -37.770636006606, -36.070639285017, -34.370638836957, -32.670638388898, -30.970637940838, -29.270637492778, -27.570637044719, -25.870638459894, -24.170638011835, -22.470637159979, -20.770636711919, -19.070638127095, -17.370637679035, -15.670637230975, -13.970636782916, -12.270638198091, -10.570637764353, -8.8706373162932, -7.1706377998512, -5.4706382834092, -3.7706378353495, -2.0706378530987, -0.3706378708478, 1.329362111403, 3.0293620936538, 4.7293620686264, 6.4293620581555, 8.1293620404063, 9.8293620226572, 11.529362408705, 13.229362390955, 14.929361907397, 16.629362355457, 18.329361871899, 20.029362319959, 21.729361836401, 23.429362270139, 25.129362718199, 26.829361303023, 28.529361751083, 30.229362199142, 31.929362647202, 33.629361232026, 35.329361680086, 37.029362128146, 38.729362576205, 40.429363024265, 42.129363472325, 43.829360193914, 45.52936104577, 47.229361090033, 48.929361941889, 50.629361986152, 52.329362830848, 54.029362875111, 55.729363726967, 57.42936004476, 59.129360896616, 60.829360940879, 62.529361792735, 64.229362637431, 65.929362681694, 67.62936353355, 69.329363577813, 71.029360703199, 72.729360747462, 74.429361599318, 76.129361643581, 77.829362495437, 79.529362539701, 81.229363384396, 82.929363428659, 84.629364280515, 86.329364324779, 88.029365176635, 89.729365220898, 91.429358619813, 93.129358664076, 94.829359515932],
      "WindowCenter": [6683.0, 6746.0, 6916.0, 7068.0, 6457.0, 7221.0, 7556.0, 7926.0, 8144.0, 8157.0, 7812.0, 7588.0, 7264.0, 7986.0, 8460.0, 8779.0, 8924.0, 9076.0, 9048.0, 9003.0, 9071.0, 9122.0, 9256.0, 9202.0, 8954.0, 9080.0, 9104.0, 8678.0, 9047.0, 8958.0, 8797.0, 8898.0, 9094.0, 9188.0, 9189.0, 9241.0, 9298.0, 9508.0, 9530.0, 9528.0, 9669.0, 9649.0, 9514.0, 9796.0, 9785.0, 9758.0, 9670.0, 9740.0, 9873.0, 10192.0, 10265.0, 10503.0, 10692.0, 10573.0, 10028.0, 10135.0, 10378.0, 10054.0, 9983.0, 9702.0, 9730.0, 9489.0, 9698.0, 9592.0, 9564.0, 9172.0, 9165.0, 9325.0, 9199.0, 9081.0, 9338.0, 9162.0, 8370.0, 5640.0, 4714.0, 2435.0, 1679.0, 1544.0, 1439.0, 1271.0, 991.0],
      "WindowWidth": [14718.0, 14796.0, 15111.0, 15329.0, 14382.0, 15502.0, 16054.0, 16956.0, 17749.0, 17641.0, 16698.0, 16123.0, 15607.0, 17267.0, 19160.0, 20446.0, 21105.0, 21585.0, 21676.0, 22067.0, 22089.0, 22064.0, 22155.0, 21693.0, 20638.0, 20296.0, 19775.0, 19154.0, 20054.0, 19751.0, 19348.0, 19498.0, 19872.0, 19995.0, 19874.0, 19969.0, 19913.0, 20410.0, 20446.0, 20479.0, 20680.0, 20636.0, 20401.0, 21092.0, 21023.0, 20967.0, 20786.0, 21017.0, 21281.0, 21985.0, 22200.0, 22905.0, 23408.0, 23133.0, 21848.0, 22117.0, 22909.0, 22145.0, 21989.0, 21249.0, 21439.0, 20795.0, 21283.0, 21072.0, 20988.0, 19951.0, 20131.0, 20377.0, 20089.0, 19612.0, 20276.0, 19813.0, 18139.0, 12645.0, 10527.0, 6450.0, 5049.0, 4548.0, 4099.0, 3372.0, 2433.0]
    }
  }
}