{
  "AcquisitionMatrixPE": 140,
  "AcquisitionNumber": 1,
  "AcquisitionTime": "16:36:46.037500",
  "BandwidthPerPixelPhaseEncode": 10.352,
  "BaseResolution": 140,
  "BodyPartExamined": "BRAIN",
  "ConsistencyInfo": "N4_VE11C_LATEST_20160120",
  "ConversionSoftware": "dcm2niix",
  "ConversionSoftwareVersion": "v1.0.20201102",
  "DerivedVendorReportedEchoSpacing": 0.000689998,
  "DeviceSerialNumber": "66112",
  "DiffusionScheme": "Monopolar",
  "DwellTime": 2.1e-06,
  "EchoTime": 0.088,
  "EchoTrainLength": 105,
  "EffectiveEchoSpacing": 0.000689998,
  "FlipAngle": 90,
  "ImageComments": "Unaliased MB3/PE3",
  "ImageOrientationPatientDICOM": [0.999498, -0.00353211, -0.0314951, 0.0101181, 0.977327, 0.211493],
  "ImageType": [
    "ORIGINAL",
    "PRIMARY",
    "DIFFUSION",
    "NONE",
    "MB",
    "ND"
],
  "ImagingFrequency": 123.252,
  "InPlanePhaseEncodingDirectionDICOM": "COL",
  "InstitutionAddress": "Maynard 3,Hanover,NH,US,03755",
  "InstitutionName": "Dartmouth College - PBS",
  "InstitutionalDepartmentName": "Department",
  "IntendedFor": [
    "ses-01/dwi/sub-0040_ses-01_acq-96dirX6b0Xmb_dwi.nii.gz"
],
  "MRAcquisitionType": "2D",
  "MagneticFieldStrength": 3,
  "Manufacturer": "Siemens",
  "ManufacturersModelName": "Prisma",
  "Modality": "MR",
  "MultibandAccelerationFactor": 3,
  "PartialFourier": 0.75,
  "PatientPosition": "HFS",
  "PercentPhaseFOV": 100,
  "PercentSampling": 100,
  "PhaseEncodingDirection": "j-",
  "PhaseEncodingSteps": 105,
  "PhaseResolution": 1,
  "PixelBandwidth": 1700,
  "ProcedureStepDescription": "Wager_Wager^1076_spacetop",
  "ProtocolName": "dwi_acq-discorr-AP",
  "PulseSequenceDetails": "%CustomerSeq%\\cmrr_mbep2d_diff",
  "ReceiveCoilActiveElements": "HEA;HEP",
  "ReceiveCoilName": "Head_32",
  "ReconMatrixPE": 140,
  "RepetitionTime": 4.1,
  "SAR": 0.127367,
  "ScanOptions": "PFP\\FS",
  "ScanningSequence": "EP",
  "SequenceName": "ep_b0",
  "SequenceVariant": "SK\\SS",
  "SeriesDescription": "dwi_acq-discorr-AP",
  "SeriesNumber": 7,
  "ShimSetting": [4135, -7737, -7224, 600, -41, -40, 67, 80],
  "SliceThickness": 1.7,
  "SliceTiming": [0, 2.125, 0.15625, 2.28125, 0.3125, 2.42188, 0.46875, 2.57812, 0.60938, 2.71875, 0.76562, 2.875, 0.90625, 3.03125, 1.0625, 3.1875, 1.21875, 3.32812, 1.35938, 3.48438, 1.51562, 3.64062, 1.67188, 3.78125, 1.82812, 3.9375, 1.96875, 0, 2.125, 0.15625, 2.28125, 0.3125, 2.42188, 0.46875, 2.57812, 0.60938, 2.71875, 0.76562, 2.875, 0.90625, 3.03125, 1.0625, 3.1875, 1.21875, 3.32812, 1.35938, 3.48438, 1.51562, 3.64062, 1.67188, 3.78125, 1.82812, 3.9375, 1.96875, 0, 2.125, 0.15625, 2.28125, 0.3125, 2.42188, 0.46875, 2.57812, 0.60938, 2.71875, 0.76562, 2.875, 0.90625, 3.03125, 1.0625, 3.1875, 1.21875, 3.32812, 1.35938, 3.48438, 1.51562, 3.64062, 1.67188, 3.78125, 1.82812, 3.9375, 1.96875],
  "SoftwareVersions": "syngo MR E11",
  "SpacingBetweenSlices": 1.7,
  "StationName": "AWP66112",
  "TotalReadoutTime": 0.0959097,
  "TxRefAmp": 241.162,
  "WipMemBlock": "0d187e5c-476d-4ae6-8305-654502f8ca0e||Sequence: R016 ve11c/master r/e634e98; Dec 19 2017 11:11:25 by eja",
  "dcmmeta_affine": [
    [-1.713424563407898, 0.017345337197184563, -0.05105781555175781, 125.5146713256836],
    [0.00605505146086216, 1.6754179000854492, 0.35990142822265625, -102.11957550048828],
    [-0.05399160459637642, -0.36255982518196106, 1.6606826782226562, -16.155351638793945],
    [0.0, 0.0, 0.0, 1.0]
],
  "dcmmeta_reorient_transform": [
    [0.0, -1.0, 0.0, 139.0],
    [1.0, 0.0, 0.0, 0.0],
    [0.0, 0.0, -1.0, 80.0],
    [0.0, 0.0, 0.0, 1.0]
],
  "dcmmeta_shape": [140, 140, 81],
  "dcmmeta_slice_dim": 2,
  "dcmmeta_version": 0.6,
  "global": {
    "const": {
      "AccessionNumber": "A003804",
      "AcquisitionMatrix": [140, 0, 0, 140],
      "AcquisitionNumber": 1,
      "AngioFlag": "N",
      "BitsAllocated": 16,
      "BitsStored": 16,
      "BodyPartExamined": "BRAIN",
      "Columns": 140,
      "EchoNumbers": 1,
      "EchoTime": 88.0,
      "EchoTrainLength": 105,
      "FlipAngle": 90.0,
      "HighBit": 15,
      "ImageOrientationPatient": [0.9994976651808, -0.0035321132944, -0.0314951023782, 0.01011811372561, 0.97732708746579, 0.2114932336513],
      "ImageType": [
        "ORIGINAL",
        "PRIMARY",
        "DIFFUSION",
        "NONE",
        "MB",
        "ND"
],
      "ImagedNucleus": "1H",
      "ImagingFrequency": 123.252192,
      "InPlanePhaseEncodingDirection": "COL",
      "MRAcquisitionType": "2D",
      "MagneticFieldStrength": 3.0,
      "Manufacturer": "SIEMENS",
      "ManufacturerModelName": "Prisma",
      "Modality": "MR",
      "NumberOfAverages": 1.0,
      "NumberOfPhaseEncodingSteps": 105,
      "PercentPhaseFieldOfView": 100.0,
      "PercentSampling": 100.0,
      "PerformedProcedureStepStartTime": "162057.384000",
      "PhotometricInterpretation": "MONOCHROME2",
      "PixelBandwidth": 1700.0,
      "PixelRepresentation": 0,
      "PixelSpacing": [1.7142857313156, 1.7142857313156],
      "ProtocolName": "dwi_acq-discorr-AP",
      "RepetitionTime": 4100.0,
      "Rows": 140,
      "SAR": 0.12736682788855,
      "SamplesPerPixel": 1,
      "ScanOptions": [
        "PFP",
        "FS"
],
      "ScanningSequence": "EP",
      "SequenceName": "ep_b0",
      "SequenceVariant": [
        "SK",
        "SS"
],
      "SeriesDescription": "dwi_acq-discorr-AP",
      "SeriesNumber": 7,
      "SeriesTime": "163650.541000",
      "SliceThickness": 1.7000000476837,
      "SmallestImagePixelValue": 0,
      "SoftwareVersions": "syngo MR E11",
      "SpacingBetweenSlices": 1.7,
      "SpecificCharacterSet": "ISO_IR 100",
      "StudyID": "1",
      "StudyTime": "162057.265000",
      "TransmitCoilName": "Body",
      "VariableFlipAngleFlag": "N",
      "WindowCenterWidthExplanation": "Algo1",
      "dBdt": 0.0},
    "slices": {
      "AcquisitionTime": ["163646.037500", "163648.152500", "163646.190000", "163648.305000", "163646.340000", "163648.455000", "163646.492500", "163648.607500", "163646.642500", "163648.757500", "163646.792500", "163648.910000", "163646.945000", "163649.060000", "163647.095000", "163649.212500", "163647.247500", "163649.362500", "163647.397500", "163649.512500", "163647.550000", "163649.665000", "163647.700000", "163649.815000", "163647.852500", "163649.967500", "163648.002500", "163646.037500", "163648.152500", "163646.190000", "163648.305000", "163646.340000", "163648.455000", "163646.492500", "163648.607500", "163646.642500", "163648.757500", "163646.792500", "163648.910000", "163646.945000", "163649.060000", "163647.095000", "163649.212500", "163647.247500", "163649.362500", "163647.397500", "163649.512500", "163647.550000", "163649.665000", "163647.700000", "163649.815000", "163647.852500", "163649.967500", "163648.002500", "163646.037500", "163648.152500", "163646.190000", "163648.305000", "163646.340000", "163648.455000", "163646.492500", "163648.607500", "163646.642500", "163648.757500", "163646.792500", "163648.910000", "163646.945000", "163649.060000", "163647.095000", "163649.212500", "163647.247500", "163649.362500", "163647.397500", "163649.512500", "163647.550000", "163649.665000", "163647.700000", "163649.815000", "163647.852500", "163649.967500", "163648.002500"],
      "ContentTime": ["163650.546000", "163650.652000", "163650.555000", "163650.658000", "163650.563000", "163650.669000", "163650.570000", "163650.675000", "163650.577000", "163650.682000", "163650.584000", "163650.688000", "163650.596000", "163650.695000", "163650.604000", "163650.702000", "163650.611000", "163650.708000", "163650.617000", "163650.714000", "163650.623000", "163650.721000", "163650.631000", "163650.727000", "163650.638000", "163650.734000", "163650.645000", "163650.550000", "163650.654000", "163650.558000", "163650.660000", "163650.565000", "163650.671000", "163650.572000", "163650.677000", "163650.579000", "163650.684000", "163650.586000", "163650.690000", "163650.599000", "163650.697000", "163650.606000", "163650.704000", "163650.613000", "163650.710000", "163650.619000", "163650.717000", "163650.626000", "163650.723000", "163650.633000", "163650.729000", "163650.641000", "163650.736000", "163650.647000", "163650.553000", "163650.656000", "163650.561000", "163650.666000", "163650.567000", "163650.673000", "163650.574000", "163650.679000", "163650.582000", "163650.686000", "163650.588000", "163650.693000", "163650.601000", "163650.699000", "163650.608000", "163650.706000", "163650.615000", "163650.712000", "163650.621000", "163650.719000", "163650.628000", "163650.725000", "163650.636000", "163650.732000", "163650.643000", "163650.738000", "163650.650000"],
      "CsaImage.ICE_Dims": [
        "X_1_1_1_1_1_1_1_1_1_1_1_223",
        "X_1_1_1_1_1_1_42_1_1_2_1_223",
        "X_1_1_1_1_1_1_2_1_1_3_1_223",
        "X_1_1_1_1_1_1_43_1_1_4_1_223",
        "X_1_1_1_1_1_1_3_1_1_5_1_223",
        "X_1_1_1_1_1_1_44_1_1_6_1_223",
        "X_1_1_1_1_1_1_4_1_1_7_1_223",
        "X_1_1_1_1_1_1_45_1_1_8_1_223",
        "X_1_1_1_1_1_1_5_1_1_9_1_223",
        "X_1_1_1_1_1_1_46_1_1_10_1_223",
        "X_1_1_1_1_1_1_6_1_1_11_1_223",
        "X_1_1_1_1_1_1_47_1_1_12_1_223",
        "X_1_1_1_1_1_1_7_1_1_13_1_223",
        "X_1_1_1_1_1_1_48_1_1_14_1_223",
        "X_1_1_1_1_1_1_8_1_1_15_1_223",
        "X_1_1_1_1_1_1_49_1_1_16_1_223",
        "X_1_1_1_1_1_1_9_1_1_17_1_223",
        "X_1_1_1_1_1_1_50_1_1_18_1_223",
        "X_1_1_1_1_1_1_10_1_1_19_1_223",
        "X_1_1_1_1_1_1_51_1_1_20_1_223",
        "X_1_1_1_1_1_1_11_1_1_21_1_223",
        "X_1_1_1_1_1_1_52_1_1_22_1_223",
        "X_1_1_1_1_1_1_12_1_1_23_1_223",
        "X_1_1_1_1_1_1_53_1_1_24_1_223",
        "X_1_1_1_1_1_1_13_1_1_25_1_223",
        "X_1_1_1_1_1_1_54_1_1_26_1_223",
        "X_1_1_1_1_1_1_14_1_1_27_1_223",
        "X_1_1_1_1_1_1_55_1_1_28_1_223",
        "X_1_1_1_1_1_1_15_1_1_29_1_223",
        "X_1_1_1_1_1_1_56_1_1_30_1_223",
        "X_1_1_1_1_1_1_16_1_1_31_1_223",
        "X_1_1_1_1_1_1_57_1_1_32_1_223",
        "X_1_1_1_1_1_1_17_1_1_33_1_223",
        "X_1_1_1_1_1_1_58_1_1_34_1_223",
        "X_1_1_1_1_1_1_18_1_1_35_1_223",
        "X_1_1_1_1_1_1_59_1_1_36_1_223",
        "X_1_1_1_1_1_1_19_1_1_37_1_223",
        "X_1_1_1_1_1_1_60_1_1_38_1_223",
        "X_1_1_1_1_1_1_20_1_1_39_1_223",
        "X_1_1_1_1_1_1_61_1_1_40_1_223",
        "X_1_1_1_1_1_1_21_1_1_41_1_223",
        "X_1_1_1_1_1_1_62_1_1_42_1_223",
        "X_1_1_1_1_1_1_22_1_1_43_1_223",
        "X_1_1_1_1_1_1_63_1_1_44_1_223",
        "X_1_1_1_1_1_1_23_1_1_45_1_223",
        "X_1_1_1_1_1_1_64_1_1_46_1_223",
        "X_1_1_1_1_1_1_24_1_1_47_1_223",
        "X_1_1_1_1_1_1_65_1_1_48_1_223",
        "X_1_1_1_1_1_1_25_1_1_49_1_223",
        "X_1_1_1_1_1_1_66_1_1_50_1_223",
        "X_1_1_1_1_1_1_26_1_1_51_1_223",
        "X_1_1_1_1_1_1_67_1_1_52_1_223",
        "X_1_1_1_1_1_1_27_1_1_53_1_223",
        "X_1_1_1_1_1_1_68_1_1_54_1_223",
        "X_1_1_1_1_1_1_28_1_1_55_1_223",
        "X_1_1_1_1_1_1_69_1_1_56_1_223",
        "X_1_1_1_1_1_1_29_1_1_57_1_223",
        "X_1_1_1_1_1_1_70_1_1_58_1_223",
        "X_1_1_1_1_1_1_30_1_1_59_1_223",
        "X_1_1_1_1_1_1_71_1_1_60_1_223",
        "X_1_1_1_1_1_1_31_1_1_61_1_223",
        "X_1_1_1_1_1_1_72_1_1_62_1_223",
        "X_1_1_1_1_1_1_32_1_1_63_1_223",
        "X_1_1_1_1_1_1_73_1_1_64_1_223",
        "X_1_1_1_1_1_1_33_1_1_65_1_223",
        "X_1_1_1_1_1_1_74_1_1_66_1_223",
        "X_1_1_1_1_1_1_34_1_1_67_1_223",
        "X_1_1_1_1_1_1_75_1_1_68_1_223",
        "X_1_1_1_1_1_1_35_1_1_69_1_223",
        "X_1_1_1_1_1_1_76_1_1_70_1_223",
        "X_1_1_1_1_1_1_36_1_1_71_1_223",
        "X_1_1_1_1_1_1_77_1_1_72_1_223",
        "X_1_1_1_1_1_1_37_1_1_73_1_223",
        "X_1_1_1_1_1_1_78_1_1_74_1_223",
        "X_1_1_1_1_1_1_38_1_1_75_1_223",
        "X_1_1_1_1_1_1_79_1_1_76_1_223",
        "X_1_1_1_1_1_1_39_1_1_77_1_223",
        "X_1_1_1_1_1_1_80_1_1_78_1_223",
        "X_1_1_1_1_1_1_40_1_1_79_1_223",
        "X_1_1_1_1_1_1_81_1_1_80_1_223",
        "X_1_1_1_1_1_1_41_1_1_81_1_223"
],
      "CsaImage.ProtocolSliceNumber": [0, 1, 2, 3, 4, 5, 6, 7, 8, 9, 10, 11, 12, 13, 14, 15, 16, 17, 18, 19, 20, 21, 22, 23, 24, 25, 26, 27, 28, 29, 30, 31, 32, 33, 34, 35, 36, 37, 38, 39, 40, 41, 42, 43, 44, 45, 46, 47, 48, 49, 50, 51, 52, 53, 54, 55, 56, 57, 58, 59, 60, 61, 62, 63, 64, 65, 66, 67, 68, 69, 70, 71, 72, 73, 74, 75, 76, 77, 78, 79, 80],
      "CsaImage.RFSWDDataType": [
        "predicted",
        "predicted",
        "predicted",
        "predicted",
        "predicted",
        "predicted",
        "predicted",
        "predicted",
        "predicted",
        "predicted",
        "predicted",
        "predicted",
        "predicted",
        "predicted",
        "predicted",
        "predicted",
        "predicted",
        "predicted",
        "predicted",
        "predicted",
        "predicted",
        "predicted",
        "predicted",
        "predicted",
        "predicted",
        "measured",
        "predicted",
        "predicted",
        "predicted",
        "predicted",
        "predicted",
        "predicted",
        "predicted",
        "predicted",
        "predicted",
        "predicted",
        "predicted",
        "predicted",
        "predicted",
        "predicted",
        "predicted",
        "predicted",
        "predicted",
        "predicted",
        "predicted",
        "predicted",
        "predicted",
        "predicted",
        "predicted",
        "predicted",
        "predicted",
        "predicted",
        "measured",
        "predicted",
        "predicted",
        "predicted",
        "predicted",
        "predicted",
        "predicted",
        "predicted",
        "predicted",
        "predicted",
        "predicted",
        "predicted",
        "predicted",
        "predicted",
        "predicted",
        "predicted",
        "predicted",
        "predicted",
        "predicted",
        "predicted",
        "predicted",
        "predicted",
        "predicted",
        "predicted",
        "predicted",
        "predicted",
        "predicted",
        "measured",
        "predicted"
],
      "CsaImage.SlicePosition_PCS": [
        [-127.92566896, -130.76365841, -66.55112713],
        [-127.87461115, -131.12355793, -64.89044445],
        [-127.82355333, -131.48345745, -63.22976178],
        [-127.77249552, -131.84335697, -61.56908291],
        [-127.7214377, -132.20325649, -59.90840023],
        [-127.67037989, -132.56315601, -58.24771756],
        [-127.61932207, -132.92305553, -56.58703488],
        [-127.56826426, -133.28295505, -54.9263522],
        [-127.51720644, -133.64285457, -53.26566952],
        [-127.46614862, -134.00275409, -51.60498875],
        [-127.41509081, -134.36265362, -49.94430607],
        [-127.36403299, -134.72255504, -48.28362339],
        [-127.31297518, -135.08245456, -46.62294072],
        [-127.26191736, -135.44235409, -44.96225995],
        [-127.21085955, -135.80225361, -43.30157727],
        [-127.15980173, -136.16215313, -41.64089459],
        [-127.10874392, -136.52205265, -39.98021191],
        [-127.0576861, -136.88195217, -38.31953114],
        [-127.00662876, -137.24185169, -36.65884846],
        [-126.95557095, -137.60175121, -34.99816578],
        [-126.90451313, -137.96165073, -33.33748406],
        [-126.85345531, -138.32155025, -31.67680233],
        [-126.8023975, -138.68144977, -30.01611966],
        [-126.75133968, -139.04134929, -28.35543745],
        [-126.70028187, -139.40124882, -26.69475525],
        [-126.64922405, -139.76114834, -25.03407305],
        [-126.59816624, -140.12104786, -23.37339085],
        [-126.54710842, -140.48094738, -21.71270866],
        [-126.49605061, -140.8408469, -20.05202645],
        [-126.44499279, -141.20074642, -18.39134425],
        [-126.39393497, -141.56064594, -16.73066205],
        [-126.34287716, -141.92054737, -15.06997984],
        [-126.29181934, -142.28044689, -13.40929764],
        [-126.24076153, -142.64034641, -11.74861592],
        [-126.18970371, -143.00024593, -10.08793324],
        [-126.1386459, -143.36014545, -8.42725152],
        [-126.08758808, -143.72004497, -6.76656884],
        [-126.03653027, -144.07994449, -5.10588711],
        [-125.98547293, -144.43984401, -3.44520443],
        [-125.93441511, -144.79974354, -1.78452176],
        [-125.8833573, -145.15964306, -0.12384099],
        [-125.83229948, -145.51954258, 1.53684169],
        [-125.78124166, -145.8794421, 3.19752437],
        [-125.73018385, -146.23934162, 4.85820705],
        [-125.67912603, -146.59924114, 6.51888782],
        [-125.62806822, -146.95914066, 8.1795705],
        [-125.5770104, -147.31904018, 9.84025318],
        [-125.52595259, -147.6789397, 11.50093586],
        [-125.47489477, -148.03883922, 13.16161853],
        [-125.42383696, -148.39873874, 14.82230121],
        [-125.37277914, -148.75863827, 16.48298008],
        [-125.32172132, -149.11853969, 18.14366275],
        [-125.27066351, -149.47843731, 19.80434543],
        [-125.21960569, -149.83833874, 21.46502811],
        [-125.16854788, -150.19823635, 23.12571079],
        [-125.1174903, -150.55813778, 24.78639347],
        [-125.06643249, -150.91803539, 26.44707614],
        [-125.01537467, -151.27793682, 28.10775882],
        [-124.96431685, -151.63783443, 29.76843769],
        [-124.91325904, -151.99773586, 31.42912036],
        [-124.86220122, -152.35763347, 33.08980304],
        [-124.81114341, -152.7175349, 34.75048572],
        [-124.76008583, -153.07743633, 36.4111684],
        [-124.70902802, -153.43733394, 38.07185108],
        [-124.6579702, -153.79723537, 39.73253376],
        [-124.60691238, -154.15713299, 41.39321643],
        [-124.55585457, -154.51703441, 43.0538953],
        [-124.50479675, -154.87693203, 44.71457798],
        [-124.45373894, -155.23683346, 46.37526065],
        [-124.40268112, -155.59673107, 48.03594333],
        [-124.35162331, -155.9566325, 49.69662601],
        [-124.30056549, -156.31653011, 51.35730869],
        [-124.24950791, -156.67643154, 53.01799137],
        [-124.1984501, -157.03632915, 54.67867404],
        [-124.14739228, -157.39623058, 56.33935672],
        [-124.09633447, -157.75612819, 58.0000394],
        [-124.04527665, -158.11602962, 59.66072208],
        [-123.99421884, -158.47592724, 61.32140476],
        [-123.94316102, -158.83582866, 62.98207981],
        [-123.8921032, -159.19572628, 64.64276248],
        [-123.84104539, -159.55562771, 66.30344516]
],
      "CsaImage.TimeAfterStart": [16.4, 18.515, 16.55, 18.6675, 16.7025, 18.8175, 16.8525, 18.97, 17.005, 19.12, 17.155, 19.27, 17.3075, 19.4225, 17.4575, 19.5725, 17.61, 19.725, 17.76, 19.875, 17.91, 20.0275, 18.0625, 20.1775, 18.2125, 20.33, 18.365, 16.4, 18.515, 16.55, 18.6675, 16.7025, 18.8175, 16.8525, 18.97, 17.005, 19.12, 17.155, 19.27, 17.3075, 19.4225, 17.4575, 19.5725, 17.61, 19.725, 17.76, 19.875, 17.91, 20.0275, 18.0625, 20.1775, 18.2125, 20.33, 18.365, 16.4, 18.515, 16.55, 18.6675, 16.7025, 18.8175, 16.8525, 18.97, 17.005, 19.12, 17.155, 19.27, 17.3075, 19.4225, 17.4575, 19.5725, 17.61, 19.725, 17.76, 19.875, 17.91, 20.0275, 18.0625, 20.1775, 18.2125, 20.33, 18.365],
      "ImagePositionPatient": [
        [-127.92566896432, -130.76365840688, -66.55112713312],
        [-127.87461114877, -131.12355792775, -64.890444454897],
        [-127.82355333321, -131.48345744863, -63.229761776675],
        [-127.77249551766, -131.8433569695, -61.569082913149],
        [-127.72143770211, -132.20325649037, -59.908400234927],
        [-127.67037988656, -132.56315601125, -58.247717556704],
        [-127.61932207101, -132.92305553212, -56.587034878481],
        [-127.56826425545, -133.282955053, -54.926352200259],
        [-127.5172064399, -133.64285457387, -53.265669522036],
        [-127.46614862435, -134.00275409474, -51.604988751162],
        [-127.4150908088, -134.36265361562, -49.944306072939],
        [-127.36403299325, -134.72255504384, -48.283623394717],
        [-127.3129751777, -135.08245456471, -46.622940716494],
        [-127.26191736214, -135.44235408559, -44.96225994562],
        [-127.21085954659, -135.80225360646, -43.301577267397],
        [-127.15980173104, -136.16215312734, -41.640894589175],
        [-127.10874391549, -136.52205264821, -39.980211910952],
        [-127.05768609994, -136.88195216908, -38.319531140078],
        [-127.00662876122, -137.24185168996, -36.658848461855],
        [-126.95557094567, -137.60175121083, -34.998165783633],
        [-126.90451313012, -137.96165073171, -33.337484059084],
        [-126.85345531457, -138.32155025258, -31.676802334536],
        [-126.80239749902, -138.68144977345, -30.016119656313],
        [-126.75133968346, -139.04134929433, -28.355437454928],
        [-126.70028186791, -139.4012488152, -26.694755253542],
        [-126.64922405236, -139.76114833608, -25.034073052157],
        [-126.59816623681, -140.12104785695, -23.373390850771],
        [-126.54710842126, -140.48094737782, -21.712708656836],
        [-126.49605060571, -140.8408468987, -20.052026448],
        [-126.44499279015, -141.20074641957, -18.391344246615],
        [-126.3939349746, -141.56064594045, -16.730662045229],
        [-126.34287715905, -141.92054736867, -15.069979843844],
        [-126.2918193435, -142.28044688954, -13.409297642458],
        [-126.24076152795, -142.64034641042, -11.74861591791],
        [-126.18970371239, -143.00024593129, -10.087933239687],
        [-126.13864589684, -143.36014545217, -8.4272515151391],
        [-126.08758808129, -143.72004497304, -6.7665688369164],
        [-126.03653026574, -144.07994449391, -5.1058871123681],
        [-125.98547292702, -144.43984401479, -3.4452044341454],
        [-125.93441511147, -144.79974353566, -1.7845217559228],
        [-125.88335729592, -145.15964305654, -0.1238409850487],
        [-125.83229948037, -145.51954257741, 1.5368416931739],
        [-125.78124166482, -145.87944209828, 3.1975243713966],
        [-125.73018384927, -146.23934161916, 4.8582070496192],
        [-125.67912603371, -146.59924114003, 6.5188878204933],
        [-125.62806821816, -146.95914066091, 8.1795704987159],
        [-125.57701040261, -147.31904018178, 9.8402531769386],
        [-125.52595258706, -147.67893970265, 11.500935855161],
        [-125.47489477151, -148.03883922353, 13.161618533384],
        [-125.42383695596, -148.3987387444, 14.822301211607],
        [-125.3727791404, -148.75863826528, 16.482980075132],
        [-125.32172132485, -149.1185396935, 18.143662753355],
        [-125.2706635093, -149.47843730702, 19.804345431577],
        [-125.21960569375, -149.83833873525, 21.4650281098],
        [-125.1685478782, -150.19823634877, 23.125710788023],
        [-125.11749030106, -150.55813777699, 24.786393466245],
        [-125.06643248551, -150.91803539052, 26.447076144468],
        [-125.01537466996, -151.27793681874, 28.107758822691],
        [-124.96431685441, -151.63783443227, 29.768437686216],
        [-124.91325903886, -151.99773586049, 31.429120364439],
        [-124.8622012233, -152.35763347402, 33.089803042661],
        [-124.81114340775, -152.71753490224, 34.750485720884],
        [-124.76008583062, -153.07743633046, 36.411168399107],
        [-124.70902801507, -153.43733394399, 38.071851077329],
        [-124.65797019952, -153.79723537221, 39.732533755552],
        [-124.60691238396, -154.15713298573, 41.393216433775],
        [-124.55585456841, -154.51703441396, 43.0538952973],
        [-124.50479675286, -154.87693202748, 44.714577975523],
        [-124.45373893731, -155.23683345571, 46.375260653745],
        [-124.40268112176, -155.59673106923, 48.035943331968],
        [-124.35162330621, -155.95663249745, 49.696626010191],
        [-124.30056549065, -156.31653011098, 51.357308688413],
        [-124.24950791352, -156.6764315392, 53.017991366636],
        [-124.19845009797, -157.03632915273, 54.678674044858],
        [-124.14739228242, -157.39623058095, 56.339356723081],
        [-124.09633446687, -157.75612819447, 58.000039401304],
        [-124.04527665131, -158.1160296227, 59.660722079526],
        [-123.99421883576, -158.47592723622, 61.321404757749],
        [-123.94316102021, -158.83582866445, 62.982079806577],
        [-123.89210320466, -159.19572627797, 64.6427624848],
        [-123.84104538911, -159.55562770619, 66.303445163023]
],
      "InstanceCreationTime": ["163650.546000", "163650.652000", "163650.555000", "163650.658000", "163650.563000", "163650.669000", "163650.570000", "163650.675000", "163650.577000", "163650.682000", "163650.584000", "163650.688000", "163650.596000", "163650.695000", "163650.604000", "163650.702000", "163650.611000", "163650.708000", "163650.617000", "163650.714000", "163650.623000", "163650.721000", "163650.631000", "163650.727000", "163650.638000", "163650.734000", "163650.645000", "163650.550000", "163650.654000", "163650.558000", "163650.660000", "163650.565000", "163650.671000", "163650.572000", "163650.677000", "163650.579000", "163650.684000", "163650.586000", "163650.690000", "163650.599000", "163650.697000", "163650.606000", "163650.704000", "163650.613000", "163650.710000", "163650.619000", "163650.717000", "163650.626000", "163650.723000", "163650.633000", "163650.729000", "163650.641000", "163650.736000", "163650.647000", "163650.553000", "163650.656000", "163650.561000", "163650.666000", "163650.567000", "163650.673000", "163650.574000", "163650.679000", "163650.582000", "163650.686000", "163650.588000", "163650.693000", "163650.601000", "163650.699000", "163650.608000", "163650.706000", "163650.615000", "163650.712000", "163650.621000", "163650.719000", "163650.628000", "163650.725000", "163650.636000", "163650.732000", "163650.643000", "163650.738000", "163650.650000"],
      "InstanceNumber": [1, 2, 3, 4, 5, 6, 7, 8, 9, 10, 11, 12, 13, 14, 15, 16, 17, 18, 19, 20, 21, 22, 23, 24, 25, 26, 27, 28, 29, 30, 31, 32, 33, 34, 35, 36, 37, 38, 39, 40, 41, 42, 43, 44, 45, 46, 47, 48, 49, 50, 51, 52, 53, 54, 55, 56, 57, 58, 59, 60, 61, 62, 63, 64, 65, 66, 67, 68, 69, 70, 71, 72, 73, 74, 75, 76, 77, 78, 79, 80, 81],
      "LargestImagePixelValue": [23856, 19706, 24489, 26591, 31858, 32662, 26123, 23926, 22111, 24495, 26655, 33423, 34460, 30699, 29901, 29616, 43542, 59909, 63803, 65535, 65535, 65535, 62778, 59959, 65535, 56452, 55291, 56577, 43528, 31325, 30290, 32536, 34026, 34568, 31122, 31388, 32670, 36344, 50701, 64724, 56517, 53537, 50724, 65535, 65535, 52790, 46012, 43571, 51097, 53803, 65535, 65535, 50041, 44070, 42720, 40484, 40453, 42421, 55214, 42090, 31470, 35459, 38379, 44915, 63928, 65535, 63441, 53849, 41420, 39318, 43291, 65535, 65535, 47991, 38114, 9539, 10598, 13446, 13942, 9877, 1678],
      "SliceLocation": [-41.170636902725, -39.470636454666, -37.770636006606, -36.070639285017, -34.370638836957, -32.670638388898, -30.970637940838, -29.270637492778, -27.570637044719, -25.870638459894, -24.170638011835, -22.470637159979, -20.770636711919, -19.070638127095, -17.370637679035, -15.670637230975, -13.970636782916, -12.270638198091, -10.570637764353, -8.8706373162932, -7.1706377998512, -5.4706382834092, -3.7706378353495, -2.0706378530987, -0.3706378708478, 1.329362111403, 3.0293620936538, 4.7293620686264, 6.4293620581555, 8.1293620404063, 9.8293620226572, 11.529362408705, 13.229362390955, 14.929361907397, 16.629362355457, 18.329361871899, 20.029362319959, 21.729361836401, 23.429362270139, 25.129362718199, 26.829361303023, 28.529361751083, 30.229362199142, 31.929362647202, 33.629361232026, 35.329361680086, 37.029362128146, 38.729362576205, 40.429363024265, 42.129363472325, 43.829360193914, 45.52936104577, 47.229361090033, 48.929361941889, 50.629361986152, 52.329362830848, 54.029362875111, 55.729363726967, 57.42936004476, 59.129360896616, 60.829360940879, 62.529361792735, 64.229362637431, 65.929362681694, 67.62936353355, 69.329363577813, 71.029360703199, 72.729360747462, 74.429361599318, 76.129361643581, 77.829362495437, 79.529362539701, 81.229363384396, 82.929363428659, 84.629364280515, 86.329364324779, 88.029365176635, 89.729365220898, 91.429358619813, 93.129358664076, 94.829359515932],
      "WindowCenter": [5957.0, 5722.0, 5794.0, 5723.0, 5574.0, 5777.0, 5705.0, 5892.0, 5978.0, 6165.0, 6281.0, 6679.0, 6872.0, 6998.0, 7436.0, 7919.0, 8383.0, 8588.0, 8713.0, 8859.0, 9051.0, 9287.0, 9383.0, 9304.0, 9282.0, 9156.0, 8980.0, 8715.0, 8591.0, 8484.0, 8331.0, 8444.0, 8427.0, 8600.0, 8739.0, 9083.0, 9423.0, 9690.0, 9836.0, 9961.0, 9879.0, 9926.0, 9957.0, 10115.0, 10192.0, 10027.0, 9859.0, 9897.0, 10065.0, 10333.0, 10465.0, 10661.0, 10641.0, 10588.0, 9933.0, 9972.0, 10103.0, 10028.0, 9929.0, 9578.0, 9296.0, 9267.0, 9488.0, 9635.0, 10029.0, 9826.0, 9944.0, 9671.0, 9387.0, 9157.0, 9267.0, 9785.0, 9643.0, 6128.0, 5000.0, 1667.0, 1641.0, 3224.0, 3389.0, 1462.0, 1038.0],
      "WindowWidth": [13003.0, 12574.0, 12566.0, 12593.0, 12310.0, 12592.0, 12510.0, 12978.0, 13296.0, 13679.0, 13868.0, 14572.0, 14844.0, 15011.0, 15885.0, 17023.0, 18270.0, 19118.0, 19408.0, 19675.0, 20214.0, 20931.0, 21146.0, 20785.0, 20680.0, 20498.0, 19873.0, 19067.0, 18554.0, 18250.0, 17919.0, 18167.0, 18154.0, 18502.0, 18869.0, 19628.0, 20299.0, 20942.0, 21459.0, 21794.0, 21538.0, 21607.0, 21683.0, 22099.0, 22274.0, 21976.0, 21357.0, 21502.0, 21947.0, 22532.0, 22805.0, 23376.0, 23427.0, 23222.0, 21607.0, 21697.0, 22202.0, 22046.0, 21665.0, 20819.0, 20143.0, 20089.0, 20690.0, 20988.0, 22120.0, 21702.0, 21964.0, 21106.0, 20616.0, 19926.0, 20336.0, 22113.0, 21511.0, 14082.0, 11523.0, 5057.0, 4939.0, 7538.0, 7853.0, 4333.0, 2549.0]
    }
  }
}