{
  "AcquisitionMatrixPE": 82,
  "AcquisitionNumber": 1,
  "AcquisitionTime": "10:39:19.112500",
  "BandwidthPerPixelPhaseEncode": 24.888,
  "BaseResolution": 82,
  "BodyPartExamined": "BRAIN",
  "ConsistencyInfo": "N4_VE11C_LATEST_20160120",
  "ConversionSoftware": "dcm2niix",
  "ConversionSoftwareVersion": "v1.0.20201102",
  "DerivedVendorReportedEchoSpacing": 0.00049,
  "DeviceSerialNumber": "66112",
  "DwellTime": 2e-06,
  "EchoTime": 0.0272,
  "EchoTrainLength": 82,
  "EffectiveEchoSpacing": 0.00049,
  "FlipAngle": 44,
  "ImageComments": "Unaliased MB8/PE3",
  "ImageOrientationPatientDICOM": [0.989531, -0.071731, 0.125235, 0.0509933, 0.985542, 0.161573],
  "ImageType": [
    "ORIGINAL",
    "PRIMARY",
    "M",
    "MB",
    "ND",
    "NORM",
    "MOSAIC"
],
  "ImagingFrequency": 123.252,
  "InPlanePhaseEncodingDirectionDICOM": "COL",
  "InstitutionAddress": "Maynard 3,Hanover,NH,US,03755",
  "InstitutionName": "Dartmouth College - PBS",
  "InstitutionalDepartmentName": "Department",
  "MRAcquisitionType": "2D",
  "MagneticFieldStrength": 3,
  "Manufacturer": "Siemens",
  "ManufacturersModelName": "Prisma",
  "Modality": "MR",
  "MultibandAccelerationFactor": 8,
  "PartialFourier": 1,
  "PatientPosition": "HFS",
  "PercentPhaseFOV": 100,
  "PercentSampling": 100,
  "PhaseEncodingDirection": "j-",
  "PhaseEncodingSteps": 82,
  "PhaseResolution": 1,
  "PixelBandwidth": 3050,
  "ProcedureStepDescription": "Wager_Wager^1076_spacetop",
  "ProtocolName": "func_run-01_task-alignvideo_acq-ap-mb8",
  "PulseSequenceDetails": "%CustomerSeq%\\cmrr_mbep2d_bold",
  "ReceiveCoilActiveElements": "HEA;HEP",
  "ReceiveCoilName": "Head_32",
  "ReconMatrixPE": 82,
  "RepetitionTime": 0.46,
  "SAR": 0.0713667,
  "ScanOptions": "FS",
  "ScanningSequence": "EP",
  "SequenceName": "epfid2d1_82",
  "SequenceVariant": "SK\\SS",
  "SeriesDescription": "func_run-01_task-alignvideo_acq-ap-mb8",
  "SeriesNumber": 30,
  "ShimSetting": [4156, -7788, -7281, 517, -79, -342, 28, 69],
  "SliceThickness": 2.7,
  "SliceTiming": [0, 0.2525, 0.0625, 0.315, 0.1275, 0.3775, 0.19, 0, 0.2525, 0.0625, 0.315, 0.1275, 0.3775, 0.19, 0, 0.2525, 0.0625, 0.315, 0.1275, 0.3775, 0.19, 0, 0.2525, 0.0625, 0.315, 0.1275, 0.3775, 0.19, 0, 0.2525, 0.0625, 0.315, 0.1275, 0.3775, 0.19, 0, 0.2525, 0.0625, 0.315, 0.1275, 0.3775, 0.19, 0, 0.2525, 0.0625, 0.315, 0.1275, 0.3775, 0.19, 0, 0.2525, 0.0625, 0.315, 0.1275, 0.3775, 0.19],
  "SoftwareVersions": "syngo MR E11",
  "SpacingBetweenSlices": 2.7,
  "StationName": "AWP66112",
  "TaskName": "alignvideo",
  "TotalReadoutTime": 0.03969,
  "TxRefAmp": 233.707,
  "WipMemBlock": "3d325b91-a0e1-4b8f-ae27-56f9a2420d97||Sequence: R016 ve11c/master r/e634e98; Dec 19 2017 11:00:25 by eja",
  "dcmmeta_affine": [
    [-2.6548383235931396, 0.1368112415075302, 0.36453744769096375, 105.39185333251953],
    [0.19244912266731262, 2.6441380977630615, 0.41443783044815063, -115.53483581542969],
    [0.3359954059123993, -0.43348902463912964, 2.642982006072998, -57.98563003540039],
    [0.0, 0.0, 0.0, 1.0]
],
  "dcmmeta_reorient_transform": [
    [0.0, -1.0, 0.0, 81.0],
    [1.0, 0.0, 0.0, 0.0],
    [0.0, 0.0, 1.0, 0.0],
    [0.0, 0.0, 0.0, 1.0]
],
  "dcmmeta_shape": [82, 82, 56, 1073],
  "dcmmeta_slice_dim": 2,
  "dcmmeta_version": 0.6,
  "global": {
    "const": {
      "AccessionNumber": "A003466",
      "AcquisitionMatrix": [82, 0, 0, 82],
      "AngioFlag": "N",
      "BitsAllocated": 16,
      "BitsStored": 16,
      "BodyPartExamined": "BRAIN",
      "Columns": 656,
      "EchoNumbers": 1,
      "EchoTime": 27.2,
      "EchoTrainLength": 82,
      "FlipAngle": 44.0,
      "HighBit": 15,
      "ImageOrientationPatient": [0.98953066761625, -0.0717310342505, 0.12523464605412, 0.05099327982312, 0.98554238472907, 0.16157318253787],
      "ImagePositionPatient": [-917.67701979302, -802.27511099966, -313.94027643452],
      "ImageType": [
        "ORIGINAL",
        "PRIMARY",
        "M",
        "MB",
        "ND",
        "NORM",
        "MOSAIC"
],
      "ImagedNucleus": "1H",
      "ImagingFrequency": 123.252138,
      "InPlanePhaseEncodingDirection": "COL",
      "MRAcquisitionType": "2D",
      "MagneticFieldStrength": 3.0,
      "Manufacturer": "SIEMENS",
      "ManufacturerModelName": "Prisma",
      "Modality": "MR",
      "NumberOfAverages": 1.0,
      "NumberOfPhaseEncodingSteps": 82,
      "PercentPhaseFieldOfView": 100.0,
      "PercentSampling": 100.0,
      "PerformedProcedureStepStartTime": "085422.745000",
      "PhotometricInterpretation": "MONOCHROME2",
      "PixelBandwidth": 3050.0,
      "PixelRepresentation": 0,
      "PixelSpacing": [2.6829268932343, 2.6829268932343],
      "ProtocolName": "func_run-01_task-alignvideo_acq-ap-mb8",
      "RepetitionTime": 460.0,
      "Rows": 656,
      "SAR": 0.0713667295847,
      "SamplesPerPixel": 1,
      "ScanOptions": "FS",
      "ScanningSequence": "EP",
      "SequenceName": "epfid2d1_82",
      "SequenceVariant": [
        "SK",
        "SS"
],
      "SeriesDescription": "func_run-01_task-alignvideo_acq-ap-mb8",
      "SeriesNumber": 30,
      "SeriesTime": "103929.351000",
      "SliceLocation": -60.265819077186,
      "SliceThickness": 2.7000000476837,
      "SmallestImagePixelValue": 0,
      "SoftwareVersions": "syngo MR E11",
      "SpacingBetweenSlices": 2.7000000173886,
      "SpecificCharacterSet": "ISO_IR 100",
      "StudyID": "1",
      "StudyTime": "085422.620000",
      "TransmitCoilName": "Body",
      "VariableFlipAngleFlag": "N",
      "WindowCenterWidthExplanation": "Algo1",
      "dBdt": 0.0},
    "slices": {}
  },
  "time": {
    "samples": {
      "AcquisitionNumber": [1, 2, 3, 4, 5, 6, 7, 8, 9, 10, 11, 12, 13, 14, 15, 16, 17, 18, 19, 20, 21, 22, 23, 24, 25, 26, 27, 28, 29, 30, 31, 32, 33, 34, 35, 36, 37, 38, 39, 40, 41, 42, 43, 44, 45, 46, 47, 48, 49, 50, 51, 52, 53, 54, 55, 56, 57, 58, 59, 60, 61, 62, 63, 64, 65, 66, 67, 68, 69, 70, 71, 72, 73, 74, 75, 76, 77, 78, 79, 80, 81, 82, 83, 84, 85, 86, 87, 88, 89, 90, 91, 92, 93, 94, 95, 96, 97, 98, 99, 100, 101, 102, 103, 104, 105, 106, 107, 108, 109, 110, 111, 112, 113, 114, 115, 116, 117, 118, 119, 120, 121, 122, 123, 124, 125, 126, 127, 128, 129, 130, 131, 132, 133, 134, 135, 136, 137, 138, 139, 140, 141, 142, 143, 144, 145, 146, 147, 148, 149, 150, 151, 152, 153, 154, 155, 156, 157, 158, 159, 160, 161, 162, 163, 164, 165, 166, 167, 168, 169, 170, 171, 172, 173, 174, 175, 176, 177, 178, 179, 180, 181, 182, 183, 184, 185, 186, 187, 188, 189, 190, 191, 192, 193, 194, 195, 196, 197, 198, 199, 200, 201, 202, 203, 204, 205, 206, 207, 208, 209, 210, 211, 212, 213, 214, 215, 216, 217, 218, 219, 220, 221, 222, 223, 224, 225, 226, 227, 228, 229, 230, 231, 232, 233, 234, 235, 236, 237, 238, 239, 240, 241, 242, 243, 244, 245, 246, 247, 248, 249, 250, 251, 252, 253, 254, 255, 256, 257, 258, 259, 260, 261, 262, 263, 264, 265, 266, 267, 268, 269, 270, 271, 272, 273, 274, 275, 276, 277, 278, 279, 280, 281, 282, 283, 284, 285, 286, 287, 288, 289, 290, 291, 292, 293, 294, 295, 296, 297, 298, 299, 300, 301, 302, 303, 304, 305, 306, 307, 308, 309, 310, 311, 312, 313, 314, 315, 316, 317, 318, 319, 320, 321, 322, 323, 324, 325, 326, 327, 328, 329, 330, 331, 332, 333, 334, 335, 336, 337, 338, 339, 340, 341, 342, 343, 344, 345, 346, 347, 348, 349, 350, 351, 352, 353, 354, 355, 356, 357, 358, 359, 360, 361, 362, 363, 364, 365, 366, 367, 368, 369, 370, 371, 372, 373, 374, 375, 376, 377, 378, 379, 380, 381, 382, 383, 384, 385, 386, 387, 388, 389, 390, 391, 392, 393, 394, 395, 396, 397, 398, 399, 400, 401, 402, 403, 404, 405, 406, 407, 408, 409, 410, 411, 412, 413, 414, 415, 416, 417, 418, 419, 420, 421, 422, 423, 424, 425, 426, 427, 428, 429, 430, 431, 432, 433, 434, 435, 436, 437, 438, 439, 440, 441, 442, 443, 444, 445, 446, 447, 448, 449, 450, 451, 452, 453, 454, 455, 456, 457, 458, 459, 460, 461, 462, 463, 464, 465, 466, 467, 468, 469, 470, 471, 472, 473, 474, 475, 476, 477, 478, 479, 480, 481, 482, 483, 484, 485, 486, 487, 488, 489, 490, 491, 492, 493, 494, 495, 496, 497, 498, 499, 500, 501, 502, 503, 504, 505, 506, 507, 508, 509, 510, 511, 512, 513, 514, 515, 516, 517, 518, 519, 520, 521, 522, 523, 524, 525, 526, 527, 528, 529, 530, 531, 532, 533, 534, 535, 536, 537, 538, 539, 540, 541, 542, 543, 544, 545, 546, 547, 548, 549, 550, 551, 552, 553, 554, 555, 556, 557, 558, 559, 560, 561, 562, 563, 564, 565, 566, 567, 568, 569, 570, 571, 572, 573, 574, 575, 576, 577, 578, 579, 580, 581, 582, 583, 584, 585, 586, 587, 588, 589, 590, 591, 592, 593, 594, 595, 596, 597, 598, 599, 600, 601, 602, 603, 604, 605, 606, 607, 608, 609, 610, 611, 612, 613, 614, 615, 616, 617, 618, 619, 620, 621, 622, 623, 624, 625, 626, 627, 628, 629, 630, 631, 632, 633, 634, 635, 636, 637, 638, 639, 640, 641, 642, 643, 644, 645, 646, 647, 648, 649, 650, 651, 652, 653, 654, 655, 656, 657, 658, 659, 660, 661, 662, 663, 664, 665, 666, 667, 668, 669, 670, 671, 672, 673, 674, 675, 676, 677, 678, 679, 680, 681, 682, 683, 684, 685, 686, 687, 688, 689, 690, 691, 692, 693, 694, 695, 696, 697, 698, 699, 700, 701, 702, 703, 704, 705, 706, 707, 708, 709, 710, 711, 712, 713, 714, 715, 716, 717, 718, 719, 720, 721, 722, 723, 724, 725, 726, 727, 728, 729, 730, 731, 732, 733, 734, 735, 736, 737, 738, 739, 740, 741, 742, 743, 744, 745, 746, 747, 748, 749, 750, 751, 752, 753, 754, 755, 756, 757, 758, 759, 760, 761, 762, 763, 764, 765, 766, 767, 768, 769, 770, 771, 772, 773, 774, 775, 776, 777, 778, 779, 780, 781, 782, 783, 784, 785, 786, 787, 788, 789, 790, 791, 792, 793, 794, 795, 796, 797, 798, 799, 800, 801, 802, 803, 804, 805, 806, 807, 808, 809, 810, 811, 812, 813, 814, 815, 816, 817, 818, 819, 820, 821, 822, 823, 824, 825, 826, 827, 828, 829, 830, 831, 832, 833, 834, 835, 836, 837, 838, 839, 840, 841, 842, 843, 844, 845, 846, 847, 848, 849, 850, 851, 852, 853, 854, 855, 856, 857, 858, 859, 860, 861, 862, 863, 864, 865, 866, 867, 868, 869, 870, 871, 872, 873, 874, 875, 876, 877, 878, 879, 880, 881, 882, 883, 884, 885, 886, 887, 888, 889, 890, 891, 892, 893, 894, 895, 896, 897, 898, 899, 900, 901, 902, 903, 904, 905, 906, 907, 908, 909, 910, 911, 912, 913, 914, 915, 916, 917, 918, 919, 920, 921, 922, 923, 924, 925, 926, 927, 928, 929, 930, 931, 932, 933, 934, 935, 936, 937, 938, 939, 940, 941, 942, 943, 944, 945, 946, 947, 948, 949, 950, 951, 952, 953, 954, 955, 956, 957, 958, 959, 960, 961, 962, 963, 964, 965, 966, 967, 968, 969, 970, 971, 972, 973, 974, 975, 976, 977, 978, 979, 980, 981, 982, 983, 984, 985, 986, 987, 988, 989, 990, 991, 992, 993, 994, 995, 996, 997, 998, 999, 1000, 1001, 1002, 1003, 1004, 1005, 1006, 1007, 1008, 1009, 1010, 1011, 1012, 1013, 1014, 1015, 1016, 1017, 1018, 1019, 1020, 1021, 1022, 1023, 1024, 1025, 1026, 1027, 1028, 1029, 1030, 1031, 1032, 1033, 1034, 1035, 1036, 1037, 1038, 1039, 1040, 1041, 1042, 1043, 1044, 1045, 1046, 1047, 1048, 1049, 1050, 1051, 1052, 1053, 1054, 1055, 1056, 1057, 1058, 1059, 1060, 1061, 1062, 1063, 1064, 1065, 1066, 1067, 1068, 1069, 1070, 1071, 1072, 1073],
      "AcquisitionTime": ["103919.112500", "103919.572500", "103920.032500", "103920.492500", "103920.952500", "103921.412500", "103921.872500", "103922.332500", "103922.792500", "103923.252500", "103923.712500", "103924.172500", "103924.632500", "103925.092500", "103925.552500", "103926.012500", "103926.472500", "103926.932500", "103927.392500", "103927.852500", "103928.312500", "103928.772500", "103929.232500", "103929.692500", "103930.152500", "103930.612500", "103931.072500", "103931.532500", "103931.992500", "103932.452500", "103932.912500", "103933.372500", "103933.832500", "103934.292500", "103934.752500", "103935.212500", "103935.672500", "103936.132500", "103936.592500", "103937.052500", "103937.512500", "103937.972500", "103938.432500", "103938.892500", "103939.352500", "103939.812500", "103940.272500", "103940.732500", "103941.192500", "103941.652500", "103942.112500", "103942.572500", "103943.032500", "103943.492500", "103943.952500", "103944.412500", "103944.872500", "103945.332500", "103945.792500", "103946.252500", "103946.712500", "103947.172500", "103947.632500", "103948.092500", "103948.552500", "103949.012500", "103949.472500", "103949.932500", "103950.392500", "103950.852500", "103951.312500", "103951.772500", "103952.232500", "103952.692500", "103953.152500", "103953.612500", "103954.072500", "103954.532500", "103954.992500", "103955.452500", "103955.912500", "103956.372500", "103956.832500", "103957.292500", "103957.752500", "103958.212500", "103958.672500", "103959.132500", "103959.592500", "104000.052500", "104000.512500", "104000.972500", "104001.432500", "104001.892500", "104002.352500", "104002.812500", "104003.272500", "104003.732500", "104004.192500", "104004.652500", "104005.112500", "104005.572500", "104006.032500", "104006.492500", "104006.952500", "104007.412500", "104007.872500", "104008.332500", "104008.792500", "104009.252500", "104009.712500", "104010.172500", "104010.632500", "104011.092500", "104011.552500", "104012.012500", "104012.472500", "104012.932500", "104013.392500", "104013.852500", "104014.312500", "104014.772500", "104015.232500", "104015.692500", "104016.152500", "104016.612500", "104017.072500", "104017.532500", "104017.992500", "104018.452500", "104018.912500", "104019.372500", "104019.832500", "104020.292500", "104020.752500", "104021.212500", "104021.672500", "104022.132500", "104022.592500", "104023.052500", "104023.512500", "104023.972500", "104024.432500", "104024.892500", "104025.352500", "104025.812500", "104026.272500", "104026.732500", "104027.192500", "104027.652500", "104028.112500", "104028.572500", "104029.032500", "104029.492500", "104029.952500", "104030.412500", "104030.872500", "104031.332500", "104031.792500", "104032.252500", "104032.712500", "104033.172500", "104033.632500", "104034.092500", "104034.552500", "104035.012500", "104035.472500", "104035.932500", "104036.392500", "104036.852500", "104037.312500", "104037.772500", "104038.232500", "104038.692500", "104039.152500", "104039.612500", "104040.072500", "104040.532500", "104040.992500", "104041.452500", "104041.912500", "104042.372500", "104042.832500", "104043.292500", "104043.752500", "104044.212500", "104044.672500", "104045.132500", "104045.592500", "104046.052500", "104046.512500", "104046.972500", "104047.432500", "104047.892500", "104048.352500", "104048.812500", "104049.272500", "104049.732500", "104050.192500", "104050.652500", "104051.112500", "104051.572500", "104052.032500", "104052.492500", "104052.952500", "104053.412500", "104053.872500", "104054.332500", "104054.792500", "104055.252500", "104055.712500", "104056.172500", "104056.632500", "104057.092500", "104057.552500", "104058.012500", "104058.472500", "104058.932500", "104059.392500", "104059.852500", "104100.312500", "104100.772500", "104101.232500", "104101.692500", "104102.152500", "104102.612500", "104103.072500", "104103.532500", "104103.992500", "104104.452500", "104104.912500", "104105.372500", "104105.832500", "104106.292500", "104106.752500", "104107.212500", "104107.672500", "104108.132500", "104108.592500", "104109.052500", "104109.512500", "104109.972500", "104110.432500", "104110.892500", "104111.352500", "104111.812500", "104112.272500", "104112.732500", "104113.192500", "104113.652500", "104114.112500", "104114.572500", "104115.032500", "104115.492500", "104115.952500", "104116.412500", "104116.872500", "104117.332500", "104117.792500", "104118.252500", "104118.712500", "104119.172500", "104119.632500", "104120.092500", "104120.552500", "104121.012500", "104121.472500", "104121.932500", "104122.392500", "104122.852500", "104123.312500", "104123.772500", "104124.232500", "104124.692500", "104125.152500", "104125.612500", "104126.072500", "104126.532500", "104126.992500", "104127.452500", "104127.912500", "104128.372500", "104128.832500", "104129.292500", "104129.752500", "104130.212500", "104130.672500", "104131.132500", "104131.592500", "104132.052500", "104132.512500", "104132.972500", "104133.432500", "104133.892500", "104134.352500", "104134.812500", "104135.272500", "104135.732500", "104136.192500", "104136.652500", "104137.112500", "104137.572500", "104138.032500", "104138.492500", "104138.952500", "104139.412500", "104139.872500", "104140.332500", "104140.792500", "104141.252500", "104141.712500", "104142.172500", "104142.632500", "104143.092500", "104143.552500", "104144.012500", "104144.472500", "104144.932500", "104145.392500", "104145.852500", "104146.312500", "104146.772500", "104147.232500", "104147.692500", "104148.152500", "104148.612500", "104149.072500", "104149.532500", "104149.992500", "104150.452500", "104150.912500", "104151.372500", "104151.832500", "104152.292500", "104152.752500", "104153.212500", "104153.672500", "104154.132500", "104154.592500", "104155.052500", "104155.512500", "104155.972500", "104156.432500", "104156.892500", "104157.352500", "104157.812500", "104158.272500", "104158.732500", "104159.192500", "104159.652500", "104200.112500", "104200.572500", "104201.032500", "104201.492500", "104201.952500", "104202.412500", "104202.872500", "104203.332500", "104203.792500", "104204.252500", "104204.712500", "104205.172500", "104205.632500", "104206.092500", "104206.552500", "104207.012500", "104207.472500", "104207.932500", "104208.392500", "104208.852500", "104209.312500", "104209.772500", "104210.232500", "104210.692500", "104211.152500", "104211.612500", "104212.072500", "104212.532500", "104212.992500", "104213.452500", "104213.912500", "104214.372500", "104214.832500", "104215.292500", "104215.752500", "104216.212500", "104216.672500", "104217.132500", "104217.592500", "104218.052500", "104218.512500", "104218.972500", "104219.432500", "104219.892500", "104220.352500", "104220.812500", "104221.272500", "104221.732500", "104222.192500", "104222.652500", "104223.112500", "104223.572500", "104224.032500", "104224.492500", "104224.952500", "104225.412500", "104225.872500", "104226.332500", "104226.792500", "104227.252500", "104227.712500", "104228.172500", "104228.632500", "104229.092500", "104229.552500", "104230.012500", "104230.472500", "104230.932500", "104231.392500", "104231.852500", "104232.312500", "104232.772500", "104233.232500", "104233.692500", "104234.152500", "104234.612500", "104235.072500", "104235.532500", "104235.992500", "104236.452500", "104236.912500", "104237.372500", "104237.832500", "104238.292500", "104238.752500", "104239.212500", "104239.672500", "104240.132500", "104240.592500", "104241.052500", "104241.512500", "104241.972500", "104242.432500", "104242.892500", "104243.352500", "104243.812500", "104244.272500", "104244.732500", "104245.192500", "104245.652500", "104246.112500", "104246.572500", "104247.032500", "104247.492500", "104247.952500", "104248.412500", "104248.872500", "104249.332500", "104249.792500", "104250.252500", "104250.712500", "104251.172500", "104251.632500", "104252.092500", "104252.552500", "104253.012500", "104253.472500", "104253.932500", "104254.392500", "104254.852500", "104255.312500", "104255.772500", "104256.232500", "104256.692500", "104257.152500", "104257.612500", "104258.072500", "104258.532500", "104258.992500", "104259.452500", "104259.912500", "104300.372500", "104300.832500", "104301.292500", "104301.752500", "104302.212500", "104302.672500", "104303.132500", "104303.592500", "104304.052500", "104304.512500", "104304.972500", "104305.432500", "104305.892500", "104306.352500", "104306.812500", "104307.272500", "104307.732500", "104308.192500", "104308.652500", "104309.112500", "104309.572500", "104310.032500", "104310.492500", "104310.952500", "104311.412500", "104311.872500", "104312.332500", "104312.792500", "104313.252500", "104313.712500", "104314.172500", "104314.632500", "104315.092500", "104315.552500", "104316.012500", "104316.472500", "104316.932500", "104317.392500", "104317.852500", "104318.312500", "104318.772500", "104319.232500", "104319.692500", "104320.152500", "104320.612500", "104321.072500", "104321.532500", "104321.992500", "104322.452500", "104322.912500", "104323.372500", "104323.832500", "104324.292500", "104324.752500", "104325.212500", "104325.672500", "104326.132500", "104326.592500", "104327.052500", "104327.512500", "104327.972500", "104328.432500", "104328.892500", "104329.352500", "104329.812500", "104330.272500", "104330.732500", "104331.192500", "104331.652500", "104332.112500", "104332.572500", "104333.032500", "104333.492500", "104333.952500", "104334.412500", "104334.872500", "104335.332500", "104335.792500", "104336.252500", "104336.712500", "104337.172500", "104337.632500", "104338.092500", "104338.552500", "104339.012500", "104339.472500", "104339.932500", "104340.392500", "104340.852500", "104341.312500", "104341.772500", "104342.232500", "104342.692500", "104343.152500", "104343.612500", "104344.072500", "104344.532500", "104344.992500", "104345.452500", "104345.912500", "104346.372500", "104346.832500", "104347.292500", "104347.752500", "104348.212500", "104348.672500", "104349.132500", "104349.592500", "104350.052500", "104350.512500", "104350.972500", "104351.432500", "104351.892500", "104352.352500", "104352.812500", "104353.272500", "104353.732500", "104354.192500", "104354.652500", "104355.112500", "104355.572500", "104356.032500", "104356.492500", "104356.952500", "104357.412500", "104357.872500", "104358.332500", "104358.792500", "104359.252500", "104359.712500", "104400.172500", "104400.632500", "104401.092500", "104401.552500", "104402.012500", "104402.472500", "104402.932500", "104403.392500", "104403.852500", "104404.312500", "104404.772500", "104405.232500", "104405.692500", "104406.152500", "104406.612500", "104407.072500", "104407.532500", "104407.992500", "104408.452500", "104408.912500", "104409.372500", "104409.832500", "104410.292500", "104410.752500", "104411.212500", "104411.672500", "104412.132500", "104412.592500", "104413.052500", "104413.512500", "104413.972500", "104414.432500", "104414.892500", "104415.352500", "104415.812500", "104416.272500", "104416.732500", "104417.192500", "104417.652500", "104418.112500", "104418.572500", "104419.032500", "104419.492500", "104419.952500", "104420.412500", "104420.872500", "104421.332500", "104421.792500", "104422.252500", "104422.712500", "104423.172500", "104423.632500", "104424.092500", "104424.552500", "104425.012500", "104425.472500", "104425.932500", "104426.392500", "104426.852500", "104427.312500", "104427.772500", "104428.232500", "104428.692500", "104429.152500", "104429.612500", "104430.072500", "104430.532500", "104430.992500", "104431.452500", "104431.912500", "104432.372500", "104432.832500", "104433.292500", "104433.752500", "104434.212500", "104434.672500", "104435.132500", "104435.592500", "104436.052500", "104436.512500", "104436.972500", "104437.432500", "104437.892500", "104438.352500", "104438.812500", "104439.272500", "104439.732500", "104440.192500", "104440.652500", "104441.112500", "104441.572500", "104442.032500", "104442.492500", "104442.952500", "104443.412500", "104443.872500", "104444.332500", "104444.792500", "104445.252500", "104445.712500", "104446.172500", "104446.632500", "104447.092500", "104447.552500", "104448.012500", "104448.472500", "104448.932500", "104449.392500", "104449.852500", "104450.312500", "104450.772500", "104451.232500", "104451.692500", "104452.152500", "104452.612500", "104453.072500", "104453.532500", "104453.992500", "104454.452500", "104454.912500", "104455.372500", "104455.832500", "104456.292500", "104456.752500", "104457.212500", "104457.672500", "104458.132500", "104458.592500", "104459.052500", "104459.512500", "104459.972500", "104500.432500", "104500.892500", "104501.352500", "104501.812500", "104502.272500", "104502.732500", "104503.192500", "104503.652500", "104504.112500", "104504.572500", "104505.032500", "104505.492500", "104505.952500", "104506.412500", "104506.872500", "104507.332500", "104507.792500", "104508.252500", "104508.712500", "104509.172500", "104509.632500", "104510.092500", "104510.552500", "104511.012500", "104511.472500", "104511.932500", "104512.392500", "104512.852500", "104513.312500", "104513.772500", "104514.232500", "104514.692500", "104515.152500", "104515.612500", "104516.072500", "104516.532500", "104516.992500", "104517.452500", "104517.912500", "104518.372500", "104518.832500", "104519.292500", "104519.752500", "104520.212500", "104520.672500", "104521.132500", "104521.592500", "104522.052500", "104522.512500", "104522.972500", "104523.432500", "104523.892500", "104524.352500", "104524.812500", "104525.272500", "104525.732500", "104526.192500", "104526.652500", "104527.112500", "104527.572500", "104528.032500", "104528.492500", "104528.952500", "104529.412500", "104529.872500", "104530.332500", "104530.792500", "104531.252500", "104531.712500", "104532.172500", "104532.632500", "104533.092500", "104533.552500", "104534.012500", "104534.472500", "104534.932500", "104535.392500", "104535.852500", "104536.312500", "104536.772500", "104537.232500", "104537.692500", "104538.152500", "104538.612500", "104539.072500", "104539.532500", "104539.992500", "104540.452500", "104540.912500", "104541.372500", "104541.832500", "104542.292500", "104542.752500", "104543.212500", "104543.672500", "104544.132500", "104544.592500", "104545.052500", "104545.512500", "104545.972500", "104546.432500", "104546.892500", "104547.352500", "104547.812500", "104548.272500", "104548.732500", "104549.192500", "104549.652500", "104550.112500", "104550.572500", "104551.032500", "104551.492500", "104551.952500", "104552.412500", "104552.872500", "104553.332500", "104553.792500", "104554.252500", "104554.712500", "104555.172500", "104555.632500", "104556.092500", "104556.552500", "104557.012500", "104557.472500", "104557.932500", "104558.392500", "104558.852500", "104559.312500", "104559.772500", "104600.232500", "104600.692500", "104601.152500", "104601.612500", "104602.072500", "104602.532500", "104602.992500", "104603.452500", "104603.912500", "104604.372500", "104604.832500", "104605.292500", "104605.752500", "104606.212500", "104606.672500", "104607.132500", "104607.592500", "104608.052500", "104608.512500", "104608.972500", "104609.432500", "104609.892500", "104610.352500", "104610.812500", "104611.272500", "104611.732500", "104612.192500", "104612.652500", "104613.112500", "104613.572500", "104614.032500", "104614.492500", "104614.952500", "104615.412500", "104615.872500", "104616.332500", "104616.792500", "104617.252500", "104617.712500", "104618.172500", "104618.632500", "104619.092500", "104619.552500", "104620.012500", "104620.472500", "104620.932500", "104621.392500", "104621.852500", "104622.312500", "104622.772500", "104623.232500", "104623.692500", "104624.152500", "104624.612500", "104625.072500", "104625.532500", "104625.992500", "104626.452500", "104626.912500", "104627.372500", "104627.832500", "104628.292500", "104628.752500", "104629.212500", "104629.672500", "104630.132500", "104630.592500", "104631.052500", "104631.512500", "104631.972500", "104632.432500", "104632.892500", "104633.352500", "104633.812500", "104634.272500", "104634.732500", "104635.192500", "104635.652500", "104636.112500", "104636.572500", "104637.032500", "104637.492500", "104637.952500", "104638.412500", "104638.872500", "104639.332500", "104639.792500", "104640.252500", "104640.712500", "104641.172500", "104641.632500", "104642.092500", "104642.552500", "104643.012500", "104643.472500", "104643.932500", "104644.392500", "104644.852500", "104645.312500", "104645.772500", "104646.232500", "104646.692500", "104647.152500", "104647.612500", "104648.072500", "104648.532500", "104648.992500", "104649.452500", "104649.912500", "104650.372500", "104650.832500", "104651.292500", "104651.752500", "104652.212500", "104652.672500", "104653.132500", "104653.592500", "104654.052500", "104654.512500", "104654.972500", "104655.432500", "104655.892500", "104656.352500", "104656.812500", "104657.272500", "104657.732500", "104658.192500", "104658.652500", "104659.112500", "104659.572500", "104700.032500", "104700.492500", "104700.952500", "104701.412500", "104701.872500", "104702.332500", "104702.792500", "104703.252500", "104703.712500", "104704.172500", "104704.632500", "104705.092500", "104705.552500", "104706.012500", "104706.472500", "104706.932500", "104707.392500", "104707.852500", "104708.312500", "104708.772500", "104709.232500", "104709.692500", "104710.152500", "104710.612500", "104711.072500", "104711.532500", "104711.992500", "104712.452500", "104712.912500", "104713.372500", "104713.832500", "104714.292500", "104714.752500", "104715.212500", "104715.672500", "104716.132500", "104716.592500", "104717.052500", "104717.512500", "104717.972500", "104718.432500", "104718.892500", "104719.352500", "104719.812500", "104720.272500", "104720.732500", "104721.192500", "104721.652500", "104722.112500", "104722.572500", "104723.032500", "104723.492500", "104723.952500", "104724.412500", "104724.872500", "104725.332500", "104725.792500", "104726.252500", "104726.712500", "104727.172500", "104727.632500", "104728.092500", "104728.552500", "104729.012500", "104729.472500", "104729.932500", "104730.392500", "104730.852500", "104731.312500", "104731.772500", "104732.232500"],
