{
  "AcquisitionMatrixPE": 82,
  "AcquisitionNumber": 1,
  "AcquisitionTime": "10:58:51.302500",
  "BandwidthPerPixelPhaseEncode": 24.888,
  "BaseResolution": 82,
  "BodyPartExamined": "BRAIN",
  "ConsistencyInfo": "N4_VE11C_LATEST_20160120",
  "ConversionSoftware": "dcm2niix",
  "ConversionSoftwareVersion": "v1.0.20201102",
  "DerivedVendorReportedEchoSpacing": 0.00049,
  "DeviceSerialNumber": "66112",
  "DwellTime": 2e-06,
  "EchoTime": 0.0272,
  "EchoTrainLength": 82,
  "EffectiveEchoSpacing": 0.00049,
  "FlipAngle": 44,
  "ImageComments": "Unaliased MB8/PE3",
  "ImageOrientationPatientDICOM": [0.989531, -0.071731, 0.125235, 0.0509933, 0.985542, 0.161573],
  "ImageType": [
    "ORIGINAL",
    "PRIMARY",
    "M",
    "MB",
    "ND",
    "NORM",
    "MOSAIC"
],
  "ImagingFrequency": 123.252,
  "InPlanePhaseEncodingDirectionDICOM": "COL",
  "InstitutionAddress": "Maynard 3,Hanover,NH,US,03755",
  "InstitutionName": "Dartmouth College - PBS",
  "InstitutionalDepartmentName": "Department",
  "MRAcquisitionType": "2D",
  "MagneticFieldStrength": 3,
  "Manufacturer": "Siemens",
  "ManufacturersModelName": "Prisma",
  "Modality": "MR",
  "MultibandAccelerationFactor": 8,
  "PartialFourier": 1,
  "PatientPosition": "HFS",
  "PercentPhaseFOV": 100,
  "PercentSampling": 100,
  "PhaseEncodingDirection": "j-",
  "PhaseEncodingSteps": 82,
  "PhaseResolution": 1,
  "PixelBandwidth": 3050,
  "ProcedureStepDescription": "Wager_Wager^1076_spacetop",
  "ProtocolName": "func_run-03_task-alignvideo_acq-ap-mb8",
  "PulseSequenceDetails": "%CustomerSeq%\\cmrr_mbep2d_bold",
  "ReceiveCoilActiveElements": "HEA;HEP",
  "ReceiveCoilName": "Head_32",
  "ReconMatrixPE": 82,
  "RepetitionTime": 0.46,
  "SAR": 0.0713465,
  "ScanOptions": "FS",
  "ScanningSequence": "EP",
  "SequenceName": "epfid2d1_82",
  "SequenceVariant": "SK\\SS",
  "SeriesDescription": "func_run-03_task-alignvideo_acq-ap-mb8",
  "SeriesNumber": 34,
  "ShimSetting": [4156, -7788, -7281, 517, -79, -342, 28, 69],
  "SliceThickness": 2.7,
  "SliceTiming": [0, 0.2525, 0.0625, 0.315, 0.125, 0.3775, 0.1875, 0, 0.2525, 0.0625, 0.315, 0.125, 0.3775, 0.1875, 0, 0.2525, 0.0625, 0.315, 0.125, 0.3775, 0.1875, 0, 0.2525, 0.0625, 0.315, 0.125, 0.3775, 0.1875, 0, 0.2525, 0.0625, 0.315, 0.125, 0.3775, 0.1875, 0, 0.2525, 0.0625, 0.315, 0.125, 0.3775, 0.1875, 0, 0.2525, 0.0625, 0.315, 0.125, 0.3775, 0.1875, 0, 0.2525, 0.0625, 0.315, 0.125, 0.3775, 0.1875],
  "SoftwareVersions": "syngo MR E11",
  "SpacingBetweenSlices": 2.7,
  "StationName": "AWP66112",
  "TaskName": "alignvideo",
  "TotalReadoutTime": 0.03969,
  "TxRefAmp": 233.707,
  "WipMemBlock": "a4920c39-0a83-4804-a4c3-73a16776d5b4||Sequence: R016 ve11c/master r/e634e98; Dec 19 2017 11:00:25 by eja",
  "dcmmeta_affine": [
    [-2.6548383235931396, 0.1368112415075302, 0.36453744769096375, 105.39185333251953],
    [0.19244912266731262, 2.6441380977630615, 0.41443783044815063, -115.53483581542969],
    [0.3359954059123993, -0.43348902463912964, 2.642982006072998, -57.98563003540039],
    [0.0, 0.0, 0.0, 1.0]
],
  "dcmmeta_reorient_transform": [
    [0.0, -1.0, 0.0, 81.0],
    [1.0, 0.0, 0.0, 0.0],
    [0.0, 0.0, 1.0, 0.0],
    [0.0, 0.0, 0.0, 1.0]
],
  "dcmmeta_shape": [82, 82, 56, 1016],
  "dcmmeta_slice_dim": 2,
  "dcmmeta_version": 0.6,
  "global": {
    "const": {
      "AccessionNumber": "A003466",
      "AcquisitionMatrix": [82, 0, 0, 82],
      "AngioFlag": "N",
      "BitsAllocated": 16,
      "BitsStored": 16,
      "BodyPartExamined": "BRAIN",
      "Columns": 656,
      "EchoNumbers": 1,
      "EchoTime": 27.2,
      "EchoTrainLength": 82,
      "FlipAngle": 44.0,
      "HighBit": 15,
      "ImageOrientationPatient": [0.98953066761625, -0.0717310342505, 0.12523464605412, 0.05099327982312, 0.98554238472907, 0.16157318253787],
      "ImagePositionPatient": [-917.67701979302, -802.27511099966, -313.94027643452],
      "ImageType": [
        "ORIGINAL",
        "PRIMARY",
        "M",
        "MB",
        "ND",
        "NORM",
        "MOSAIC"
],
      "ImagedNucleus": "1H",
      "ImagingFrequency": 123.252143,
      "InPlanePhaseEncodingDirection": "COL",
      "MRAcquisitionType": "2D",
      "MagneticFieldStrength": 3.0,
      "Manufacturer": "SIEMENS",
      "ManufacturerModelName": "Prisma",
      "Modality": "MR",
      "NumberOfAverages": 1.0,
      "NumberOfPhaseEncodingSteps": 82,
      "PercentPhaseFieldOfView": 100.0,
      "PercentSampling": 100.0,
      "PerformedProcedureStepStartTime": "085422.745000",
      "PhotometricInterpretation": "MONOCHROME2",
      "PixelBandwidth": 3050.0,
      "PixelRepresentation": 0,
      "PixelSpacing": [2.6829268932343, 2.6829268932343],
      "ProtocolName": "func_run-03_task-alignvideo_acq-ap-mb8",
      "RepetitionTime": 460.0,
      "Rows": 656,
      "SAR": 0.07134645185137,
      "SamplesPerPixel": 1,
      "ScanOptions": "FS",
      "ScanningSequence": "EP",
      "SequenceName": "epfid2d1_82",
      "SequenceVariant": [
        "SK",
        "SS"
],
      "SeriesDescription": "func_run-03_task-alignvideo_acq-ap-mb8",
      "SeriesNumber": 34,
      "SeriesTime": "105909.306000",
      "SliceLocation": -60.265819077186,
      "SliceThickness": 2.7000000476837,
      "SmallestImagePixelValue": 0,
      "SoftwareVersions": "syngo MR E11",
      "SpacingBetweenSlices": 2.7000000173886,
      "SpecificCharacterSet": "ISO_IR 100",
      "StudyID": "1",
      "StudyTime": "085422.620000",
      "TransmitCoilName": "Body",
      "VariableFlipAngleFlag": "N",
      "WindowCenterWidthExplanation": "Algo1",
      "dBdt": 0.0},
    "slices": {}
  },
  "time": {
    "samples": {
      "AcquisitionNumber": [1, 2, 3, 4, 5, 6, 7, 8, 9, 10, 11, 12, 13, 14, 15, 16, 17, 18, 19, 20, 21, 22, 23, 24, 25, 26, 27, 28, 29, 30, 31, 32, 33, 34, 35, 36, 37, 38, 39, 40, 41, 42, 43, 44, 45, 46, 47, 48, 49, 50, 51, 52, 53, 54, 55, 56, 57, 58, 59, 60, 61, 62, 63, 64, 65, 66, 67, 68, 69, 70, 71, 72, 73, 74, 75, 76, 77, 78, 79, 80, 81, 82, 83, 84, 85, 86, 87, 88, 89, 90, 91, 92, 93, 94, 95, 96, 97, 98, 99, 100, 101, 102, 103, 104, 105, 106, 107, 108, 109, 110, 111, 112, 113, 114, 115, 116, 117, 118, 119, 120, 121, 122, 123, 124, 125, 126, 127, 128, 129, 130, 131, 132, 133, 134, 135, 136, 137, 138, 139, 140, 141, 142, 143, 144, 145, 146, 147, 148, 149, 150, 151, 152, 153, 154, 155, 156, 157, 158, 159, 160, 161, 162, 163, 164, 165, 166, 167, 168, 169, 170, 171, 172, 173, 174, 175, 176, 177, 178, 179, 180, 181, 182, 183, 184, 185, 186, 187, 188, 189, 190, 191, 192, 193, 194, 195, 196, 197, 198, 199, 200, 201, 202, 203, 204, 205, 206, 207, 208, 209, 210, 211, 212, 213, 214, 215, 216, 217, 218, 219, 220, 221, 222, 223, 224, 225, 226, 227, 228, 229, 230, 231, 232, 233, 234, 235, 236, 237, 238, 239, 240, 241, 242, 243, 244, 245, 246, 247, 248, 249, 250, 251, 252, 253, 254, 255, 256, 257, 258, 259, 260, 261, 262, 263, 264, 265, 266, 267, 268, 269, 270, 271, 272, 273, 274, 275, 276, 277, 278, 279, 280, 281, 282, 283, 284, 285, 286, 287, 288, 289, 290, 291, 292, 293, 294, 295, 296, 297, 298, 299, 300, 301, 302, 303, 304, 305, 306, 307, 308, 309, 310, 311, 312, 313, 314, 315, 316, 317, 318, 319, 320, 321, 322, 323, 324, 325, 326, 327, 328, 329, 330, 331, 332, 333, 334, 335, 336, 337, 338, 339, 340, 341, 342, 343, 344, 345, 346, 347, 348, 349, 350, 351, 352, 353, 354, 355, 356, 357, 358, 359, 360, 361, 362, 363, 364, 365, 366, 367, 368, 369, 370, 371, 372, 373, 374, 375, 376, 377, 378, 379, 380, 381, 382, 383, 384, 385, 386, 387, 388, 389, 390, 391, 392, 393, 394, 395, 396, 397, 398, 399, 400, 401, 402, 403, 404, 405, 406, 407, 408, 409, 410, 411, 412, 413, 414, 415, 416, 417, 418, 419, 420, 421, 422, 423, 424, 425, 426, 427, 428, 429, 430, 431, 432, 433, 434, 435, 436, 437, 438, 439, 440, 441, 442, 443, 444, 445, 446, 447, 448, 449, 450, 451, 452, 453, 454, 455, 456, 457, 458, 459, 460, 461, 462, 463, 464, 465, 466, 467, 468, 469, 470, 471, 472, 473, 474, 475, 476, 477, 478, 479, 480, 481, 482, 483, 484, 485, 486, 487, 488, 489, 490, 491, 492, 493, 494, 495, 496, 497, 498, 499, 500, 501, 502, 503, 504, 505, 506, 507, 508, 509, 510, 511, 512, 513, 514, 515, 516, 517, 518, 519, 520, 521, 522, 523, 524, 525, 526, 527, 528, 529, 530, 531, 532, 533, 534, 535, 536, 537, 538, 539, 540, 541, 542, 543, 544, 545, 546, 547, 548, 549, 550, 551, 552, 553, 554, 555, 556, 557, 558, 559, 560, 561, 562, 563, 564, 565, 566, 567, 568, 569, 570, 571, 572, 573, 574, 575, 576, 577, 578, 579, 580, 581, 582, 583, 584, 585, 586, 587, 588, 589, 590, 591, 592, 593, 594, 595, 596, 597, 598, 599, 600, 601, 602, 603, 604, 605, 606, 607, 608, 609, 610, 611, 612, 613, 614, 615, 616, 617, 618, 619, 620, 621, 622, 623, 624, 625, 626, 627, 628, 629, 630, 631, 632, 633, 634, 635, 636, 637, 638, 639, 640, 641, 642, 643, 644, 645, 646, 647, 648, 649, 650, 651, 652, 653, 654, 655, 656, 657, 658, 659, 660, 661, 662, 663, 664, 665, 666, 667, 668, 669, 670, 671, 672, 673, 674, 675, 676, 677, 678, 679, 680, 681, 682, 683, 684, 685, 686, 687, 688, 689, 690, 691, 692, 693, 694, 695, 696, 697, 698, 699, 700, 701, 702, 703, 704, 705, 706, 707, 708, 709, 710, 711, 712, 713, 714, 715, 716, 717, 718, 719, 720, 721, 722, 723, 724, 725, 726, 727, 728, 729, 730, 731, 732, 733, 734, 735, 736, 737, 738, 739, 740, 741, 742, 743, 744, 745, 746, 747, 748, 749, 750, 751, 752, 753, 754, 755, 756, 757, 758, 759, 760, 761, 762, 763, 764, 765, 766, 767, 768, 769, 770, 771, 772, 773, 774, 775, 776, 777, 778, 779, 780, 781, 782, 783, 784, 785, 786, 787, 788, 789, 790, 791, 792, 793, 794, 795, 796, 797, 798, 799, 800, 801, 802, 803, 804, 805, 806, 807, 808, 809, 810, 811, 812, 813, 814, 815, 816, 817, 818, 819, 820, 821, 822, 823, 824, 825, 826, 827, 828, 829, 830, 831, 832, 833, 834, 835, 836, 837, 838, 839, 840, 841, 842, 843, 844, 845, 846, 847, 848, 849, 850, 851, 852, 853, 854, 855, 856, 857, 858, 859, 860, 861, 862, 863, 864, 865, 866, 867, 868, 869, 870, 871, 872, 873, 874, 875, 876, 877, 878, 879, 880, 881, 882, 883, 884, 885, 886, 887, 888, 889, 890, 891, 892, 893, 894, 895, 896, 897, 898, 899, 900, 901, 902, 903, 904, 905, 906, 907, 908, 909, 910, 911, 912, 913, 914, 915, 916, 917, 918, 919, 920, 921, 922, 923, 924, 925, 926, 927, 928, 929, 930, 931, 932, 933, 934, 935, 936, 937, 938, 939, 940, 941, 942, 943, 944, 945, 946, 947, 948, 949, 950, 951, 952, 953, 954, 955, 956, 957, 958, 959, 960, 961, 962, 963, 964, 965, 966, 967, 968, 969, 970, 971, 972, 973, 974, 975, 976, 977, 978, 979, 980, 981, 982, 983, 984, 985, 986, 987, 988, 989, 990, 991, 992, 993, 994, 995, 996, 997, 998, 999, 1000, 1001, 1002, 1003, 1004, 1005, 1006, 1007, 1008, 1009, 1010, 1011, 1012, 1013, 1014, 1015, 1016],
      "AcquisitionTime": ["105851.302500", "105851.762500", "105852.222500", "105852.682500", "105853.142500", "105853.602500", "105854.062500", "105854.522500", "105854.982500", "105855.442500", "105855.902500", "105856.362500", "105856.822500", "105857.282500", "105857.742500", "105858.202500", "105858.662500", "105859.122500", "105859.582500", "105900.042500", "105900.502500", "105900.962500", "105901.422500", "105901.882500", "105902.342500", "105902.802500", "105903.262500", "105903.722500", "105904.182500", "105904.642500", "105905.102500", "105905.562500", "105906.022500", "105906.482500", "105906.942500", "105907.402500", "105907.862500", "105908.322500", "105908.782500", "105909.242500", "105909.702500", "105910.162500", "105910.622500", "105911.082500", "105911.542500", "105912.002500", "105912.462500", "105912.922500", "105913.382500", "105913.842500", "105914.302500", "105914.762500", "105915.222500", "105915.682500", "105916.142500", "105916.602500", "105917.062500", "105917.522500", "105917.982500", "105918.442500", "105918.902500", "105919.362500", "105919.822500", "105920.282500", "105920.742500", "105921.202500", "105921.662500", "105922.122500", "105922.582500", "105923.042500", "105923.502500", "105923.962500", "105924.422500", "105924.882500", "105925.342500", "105925.802500", "105926.262500", "105926.722500", "105927.182500", "105927.642500", "105928.102500", "105928.562500", "105929.022500", "105929.482500", "105929.942500", "105930.402500", "105930.862500", "105931.322500", "105931.782500", "105932.242500", "105932.702500", "105933.162500", "105933.622500", "105934.082500", "105934.542500", "105935.002500", "105935.462500", "105935.922500", "105936.382500", "105936.842500", "105937.302500", "105937.762500", "105938.222500", "105938.682500", "105939.142500", "105939.602500", "105940.062500", "105940.522500", "105940.982500", "105941.442500", "105941.902500", "105942.362500", "105942.822500", "105943.282500", "105943.742500", "105944.202500", "105944.662500", "105945.122500", "105945.582500", "105946.042500", "105946.502500", "105946.962500", "105947.422500", "105947.882500", "105948.342500", "105948.802500", "105949.262500", "105949.722500", "105950.182500", "105950.642500", "105951.102500", "105951.562500", "105952.022500", "105952.482500", "105952.942500", "105953.402500", "105953.862500", "105954.322500", "105954.782500", "105955.242500", "105955.702500", "105956.162500", "105956.622500", "105957.082500", "105957.542500", "105958.002500", "105958.462500", "105958.922500", "105959.382500", "105959.842500", "110000.302500", "110000.762500", "110001.222500", "110001.682500", "110002.142500", "110002.602500", "110003.062500", "110003.522500", "110003.982500", "110004.442500", "110004.902500", "110005.362500", "110005.822500", "110006.282500", "110006.742500", "110007.202500", "110007.662500", "110008.122500", "110008.582500", "110009.042500", "110009.502500", "110009.962500", "110010.422500", "110010.882500", "110011.342500", "110011.802500", "110012.262500", "110012.722500", "110013.182500", "110013.642500", "110014.102500", "110014.562500", "110015.022500", "110015.482500", "110015.942500", "110016.402500", "110016.862500", "110017.322500", "110017.782500", "110018.242500", "110018.702500", "110019.162500", "110019.622500", "110020.082500", "110020.542500", "110021.002500", "110021.462500", "110021.922500", "110022.382500", "110022.842500", "110023.302500", "110023.762500", "110024.222500", "110024.682500", "110025.142500", "110025.602500", "110026.062500", "110026.522500", "110026.982500", "110027.442500", "110027.902500", "110028.362500", "110028.822500", "110029.282500", "110029.742500", "110030.202500", "110030.662500", "110031.122500", "110031.582500", "110032.042500", "110032.502500", "110032.962500", "110033.422500", "110033.882500", "110034.342500", "110034.802500", "110035.262500", "110035.722500", "110036.182500", "110036.642500", "110037.102500", "110037.562500", "110038.022500", "110038.482500", "110038.942500", "110039.402500", "110039.862500", "110040.322500", "110040.782500", "110041.242500", "110041.702500", "110042.162500", "110042.622500", "110043.082500", "110043.542500", "110044.002500", "110044.462500", "110044.922500", "110045.382500", "110045.842500", "110046.302500", "110046.762500", "110047.222500", "110047.682500", "110048.142500", "110048.602500", "110049.062500", "110049.522500", "110049.982500", "110050.442500", "110050.902500", "110051.362500", "110051.822500", "110052.282500", "110052.742500", "110053.202500", "110053.662500", "110054.122500", "110054.582500", "110055.042500", "110055.502500", "110055.962500", "110056.422500", "110056.882500", "110057.342500", "110057.802500", "110058.262500", "110058.722500", "110059.182500", "110059.642500", "110100.102500", "110100.562500", "110101.022500", "110101.482500", "110101.942500", "110102.402500", "110102.862500", "110103.322500", "110103.782500", "110104.242500", "110104.702500", "110105.162500", "110105.622500", "110106.082500", "110106.542500", "110107.002500", "110107.462500", "110107.922500", "110108.382500", "110108.842500", "110109.302500", "110109.762500", "110110.222500", "110110.682500", "110111.142500", "110111.602500", "110112.062500", "110112.522500", "110112.982500", "110113.442500", "110113.902500", "110114.362500", "110114.822500", "110115.282500", "110115.742500", "110116.202500", "110116.662500", "110117.122500", "110117.582500", "110118.042500", "110118.502500", "110118.962500", "110119.422500", "110119.882500", "110120.342500", "110120.802500", "110121.262500", "110121.722500", "110122.182500", "110122.642500", "110123.102500", "110123.562500", "110124.022500", "110124.482500", "110124.942500", "110125.402500", "110125.862500", "110126.322500", "110126.782500", "110127.242500", "110127.702500", "110128.162500", "110128.622500", "110129.082500", "110129.542500", "110130.002500", "110130.462500", "110130.922500", "110131.382500", "110131.842500", "110132.302500", "110132.762500", "110133.222500", "110133.682500", "110134.142500", "110134.602500", "110135.062500", "110135.522500", "110135.982500", "110136.442500", "110136.902500", "110137.362500", "110137.822500", "110138.282500", "110138.742500", "110139.202500", "110139.662500", "110140.122500", "110140.582500", "110141.042500", "110141.502500", "110141.962500", "110142.422500", "110142.882500", "110143.342500", "110143.802500", "110144.262500", "110144.722500", "110145.182500", "110145.642500", "110146.102500", "110146.562500", "110147.022500", "110147.482500", "110147.942500", "110148.402500", "110148.862500", "110149.322500", "110149.782500", "110150.242500", "110150.702500", "110151.162500", "110151.622500", "110152.082500", "110152.542500", "110153.002500", "110153.462500", "110153.922500", "110154.382500", "110154.842500", "110155.302500", "110155.762500", "110156.222500", "110156.682500", "110157.142500", "110157.602500", "110158.062500", "110158.522500", "110158.982500", "110159.442500", "110159.902500", "110200.362500", "110200.822500", "110201.282500", "110201.742500", "110202.202500", "110202.662500", "110203.122500", "110203.582500", "110204.042500", "110204.502500", "110204.962500", "110205.422500", "110205.882500", "110206.342500", "110206.802500", "110207.262500", "110207.722500", "110208.182500", "110208.642500", "110209.102500", "110209.562500", "110210.022500", "110210.482500", "110210.942500", "110211.402500", "110211.862500", "110212.322500", "110212.782500", "110213.242500", "110213.702500", "110214.162500", "110214.622500", "110215.082500", "110215.542500", "110216.002500", "110216.462500", "110216.922500", "110217.382500", "110217.842500", "110218.302500", "110218.762500", "110219.222500", "110219.682500", "110220.142500", "110220.602500", "110221.062500", "110221.522500", "110221.982500", "110222.442500", "110222.902500", "110223.362500", "110223.822500", "110224.282500", "110224.742500", "110225.202500", "110225.662500", "110226.122500", "110226.582500", "110227.042500", "110227.502500", "110227.962500", "110228.422500", "110228.882500", "110229.342500", "110229.802500", "110230.262500", "110230.722500", "110231.182500", "110231.642500", "110232.102500", "110232.562500", "110233.022500", "110233.482500", "110233.942500", "110234.402500", "110234.862500", "110235.322500", "110235.782500", "110236.242500", "110236.702500", "110237.162500", "110237.622500", "110238.082500", "110238.542500", "110239.002500", "110239.462500", "110239.922500", "110240.382500", "110240.842500", "110241.302500", "110241.762500", "110242.222500", "110242.682500", "110243.142500", "110243.602500", "110244.062500", "110244.522500", "110244.982500", "110245.442500", "110245.902500", "110246.362500", "110246.822500", "110247.282500", "110247.742500", "110248.202500", "110248.662500", "110249.122500", "110249.582500", "110250.042500", "110250.502500", "110250.962500", "110251.422500", "110251.882500", "110252.342500", "110252.802500", "110253.262500", "110253.722500", "110254.182500", "110254.642500", "110255.102500", "110255.562500", "110256.022500", "110256.482500", "110256.942500", "110257.402500", "110257.862500", "110258.322500", "110258.782500", "110259.242500", "110259.702500", "110300.162500", "110300.622500", "110301.082500", "110301.542500", "110302.002500", "110302.462500", "110302.922500", "110303.382500", "110303.842500", "110304.302500", "110304.762500", "110305.222500", "110305.682500", "110306.142500", "110306.602500", "110307.062500", "110307.522500", "110307.982500", "110308.442500", "110308.902500", "110309.362500", "110309.822500", "110310.282500", "110310.742500", "110311.202500", "110311.662500", "110312.122500", "110312.582500", "110313.042500", "110313.502500", "110313.962500", "110314.422500", "110314.882500", "110315.342500", "110315.802500", "110316.262500", "110316.722500", "110317.182500", "110317.642500", "110318.102500", "110318.562500", "110319.022500", "110319.482500", "110319.942500", "110320.402500", "110320.862500", "110321.322500", "110321.782500", "110322.242500", "110322.702500", "110323.162500", "110323.622500", "110324.082500", "110324.542500", "110325.002500", "110325.462500", "110325.922500", "110326.382500", "110326.842500", "110327.302500", "110327.762500", "110328.222500", "110328.682500", "110329.142500", "110329.602500", "110330.062500", "110330.522500", "110330.982500", "110331.442500", "110331.902500", "110332.362500", "110332.822500", "110333.282500", "110333.742500", "110334.202500", "110334.662500", "110335.122500", "110335.582500", "110336.042500", "110336.502500", "110336.962500", "110337.422500", "110337.882500", "110338.342500", "110338.802500", "110339.262500", "110339.722500", "110340.182500", "110340.642500", "110341.102500", "110341.562500", "110342.022500", "110342.482500", "110342.942500", "110343.402500", "110343.862500", "110344.322500", "110344.782500", "110345.242500", "110345.702500", "110346.162500", "110346.622500", "110347.082500", "110347.542500", "110348.002500", "110348.462500", "110348.922500", "110349.382500", "110349.842500", "110350.302500", "110350.762500", "110351.222500", "110351.682500", "110352.142500", "110352.602500", "110353.062500", "110353.522500", "110353.982500", "110354.442500", "110354.902500", "110355.362500", "110355.822500", "110356.282500", "110356.742500", "110357.202500", "110357.662500", "110358.122500", "110358.582500", "110359.042500", "110359.502500", "110359.962500", "110400.422500", "110400.882500", "110401.342500", "110401.802500", "110402.262500", "110402.722500", "110403.182500", "110403.642500", "110404.102500", "110404.562500", "110405.022500", "110405.482500", "110405.942500", "110406.402500", "110406.862500", "110407.322500", "110407.782500", "110408.242500", "110408.702500", "110409.162500", "110409.622500", "110410.082500", "110410.542500", "110411.002500", "110411.462500", "110411.922500", "110412.382500", "110412.842500", "110413.302500", "110413.762500", "110414.222500", "110414.682500", "110415.142500", "110415.602500", "110416.062500", "110416.522500", "110416.982500", "110417.442500", "110417.902500", "110418.362500", "110418.822500", "110419.282500", "110419.742500", "110420.202500", "110420.662500", "110421.122500", "110421.582500", "110422.042500", "110422.502500", "110422.962500", "110423.422500", "110423.882500", "110424.342500", "110424.802500", "110425.262500", "110425.722500", "110426.182500", "110426.642500", "110427.102500", "110427.562500", "110428.022500", "110428.482500", "110428.942500", "110429.402500", "110429.862500", "110430.322500", "110430.782500", "110431.242500", "110431.702500", "110432.162500", "110432.622500", "110433.082500", "110433.542500", "110434.002500", "110434.462500", "110434.922500", "110435.382500", "110435.842500", "110436.302500", "110436.762500", "110437.222500", "110437.682500", "110438.142500", "110438.602500", "110439.062500", "110439.522500", "110439.982500", "110440.442500", "110440.902500", "110441.362500", "110441.822500", "110442.282500", "110442.742500", "110443.202500", "110443.662500", "110444.122500", "110444.582500", "110445.042500", "110445.502500", "110445.962500", "110446.422500", "110446.882500", "110447.342500", "110447.802500", "110448.262500", "110448.722500", "110449.182500", "110449.642500", "110450.102500", "110450.562500", "110451.022500", "110451.482500", "110451.942500", "110452.402500", "110452.862500", "110453.322500", "110453.782500", "110454.242500", "110454.702500", "110455.162500", "110455.622500", "110456.082500", "110456.542500", "110457.002500", "110457.462500", "110457.922500", "110458.382500", "110458.842500", "110459.302500", "110459.762500", "110500.222500", "110500.682500", "110501.142500", "110501.602500", "110502.062500", "110502.522500", "110502.982500", "110503.442500", "110503.902500", "110504.362500", "110504.822500", "110505.282500", "110505.742500", "110506.202500", "110506.662500", "110507.122500", "110507.582500", "110508.042500", "110508.502500", "110508.962500", "110509.422500", "110509.882500", "110510.342500", "110510.802500", "110511.262500", "110511.722500", "110512.182500", "110512.642500", "110513.102500", "110513.562500", "110514.022500", "110514.482500", "110514.942500", "110515.402500", "110515.862500", "110516.322500", "110516.782500", "110517.242500", "110517.702500", "110518.162500", "110518.622500", "110519.082500", "110519.542500", "110520.002500", "110520.462500", "110520.922500", "110521.382500", "110521.842500", "110522.302500", "110522.762500", "110523.222500", "110523.682500", "110524.142500", "110524.602500", "110525.062500", "110525.522500", "110525.982500", "110526.442500", "110526.902500", "110527.362500", "110527.822500", "110528.282500", "110528.742500", "110529.202500", "110529.662500", "110530.122500", "110530.582500", "110531.042500", "110531.502500", "110531.962500", "110532.422500", "110532.882500", "110533.342500", "110533.802500", "110534.262500", "110534.722500", "110535.182500", "110535.642500", "110536.102500", "110536.562500", "110537.022500", "110537.482500", "110537.942500", "110538.402500", "110538.862500", "110539.322500", "110539.782500", "110540.242500", "110540.702500", "110541.162500", "110541.622500", "110542.082500", "110542.542500", "110543.002500", "110543.462500", "110543.922500", "110544.382500", "110544.842500", "110545.302500", "110545.762500", "110546.222500", "110546.682500", "110547.142500", "110547.602500", "110548.062500", "110548.522500", "110548.982500", "110549.442500", "110549.902500", "110550.362500", "110550.822500", "110551.282500", "110551.742500", "110552.202500", "110552.662500", "110553.122500", "110553.582500", "110554.042500", "110554.502500", "110554.962500", "110555.422500", "110555.882500", "110556.342500", "110556.802500", "110557.262500", "110557.722500", "110558.182500", "110558.642500", "110559.102500", "110559.562500", "110600.022500", "110600.482500", "110600.942500", "110601.402500", "110601.862500", "110602.322500", "110602.782500", "110603.242500", "110603.702500", "110604.162500", "110604.622500", "110605.082500", "110605.542500", "110606.002500", "110606.462500", "110606.922500", "110607.382500", "110607.842500", "110608.302500", "110608.762500", "110609.222500", "110609.682500", "110610.142500", "110610.602500", "110611.062500", "110611.522500", "110611.982500", "110612.442500", "110612.902500", "110613.362500", "110613.822500", "110614.282500", "110614.742500", "110615.202500", "110615.662500", "110616.122500", "110616.582500", "110617.042500", "110617.502500", "110617.962500", "110618.422500", "110618.882500", "110619.342500", "110619.802500", "110620.262500", "110620.722500", "110621.182500", "110621.642500", "110622.102500", "110622.562500", "110623.022500", "110623.482500", "110623.942500", "110624.402500", "110624.862500", "110625.322500", "110625.782500", "110626.242500", "110626.702500", "110627.162500", "110627.622500", "110628.082500", "110628.542500", "110629.002500", "110629.462500", "110629.922500", "110630.382500", "110630.842500", "110631.302500", "110631.762500", "110632.222500", "110632.682500", "110633.142500", "110633.602500", "110634.062500", "110634.522500", "110634.982500", "110635.442500", "110635.902500", "110636.362500", "110636.822500", "110637.282500", "110637.742500", "110638.202500"],
