{
  "AcquisitionMatrixPE": 82,
  "AcquisitionNumber": 1,
  "AcquisitionTime": "10:22:41.560000",
  "BandwidthPerPixelPhaseEncode": 24.888,
  "BaseResolution": 82,
  "BodyPartExamined": "BRAIN",
  "ConsistencyInfo": "N4_VE11C_LATEST_20160120",
  "ConversionSoftware": "dcm2niix",
  "ConversionSoftwareVersion": "v1.0.20201102",
  "DerivedVendorReportedEchoSpacing": 0.00049,
  "DeviceSerialNumber": "66112",
  "DwellTime": 2e-06,
  "EchoTime": 0.0272,
  "EchoTrainLength": 82,
  "EffectiveEchoSpacing": 0.00049,
  "FlipAngle": 44,
  "ImageComments": "Unaliased MB8/PE3",
  "ImageOrientationPatientDICOM": [0.995306, -0.0321507, 0.0912771, 0.00990197, 0.972084, 0.234426],
  "ImageType": [
    "ORIGINAL",
    "PRIMARY",
    "M",
    "MB",
    "ND",
    "NORM",
    "MOSAIC"
],
  "ImagingFrequency": 123.252,
  "InPlanePhaseEncodingDirectionDICOM": "COL",
  "InstitutionAddress": "Maynard 3,Hanover,NH,US,03755",
  "InstitutionName": "Dartmouth College - PBS",
  "InstitutionalDepartmentName": "Department",
  "MRAcquisitionType": "2D",
  "MagneticFieldStrength": 3,
  "Manufacturer": "Siemens",
  "ManufacturersModelName": "Prisma",
  "Modality": "MR",
  "MultibandAccelerationFactor": 8,
  "PartialFourier": 1,
  "PatientPosition": "HFS",
  "PercentPhaseFOV": 100,
  "PercentSampling": 100,
  "PhaseEncodingDirection": "j-",
  "PhaseEncodingSteps": 82,
  "PhaseResolution": 1,
  "PixelBandwidth": 3050,
  "ProcedureStepDescription": "Wager_Wager^1076_spacetop",
  "ProtocolName": "func_run-05_task-social_acq-ap-mb8",
  "PulseSequenceDetails": "%CustomerSeq%\\cmrr_mbep2d_bold",
  "ReceiveCoilActiveElements": "HEA;HEP",
  "ReceiveCoilName": "Head_32",
  "ReconMatrixPE": 82,
  "RepetitionTime": 0.46,
  "SAR": 0.0712836,
  "ScanOptions": "FS",
  "ScanningSequence": "EP",
  "SequenceName": "epfid2d1_82",
  "SequenceVariant": "SK\\SS",
  "SeriesDescription": "func_run-05_task-social_acq-ap-mb8",
  "SeriesNumber": 20,
  "ShimSetting": [4156, -7784, -7285, 498, -89, -320, 40, 71],
  "SliceThickness": 2.7,
  "SliceTiming": [0, 0.2525, 0.0625, 0.315, 0.125, 0.3775, 0.1875, 0, 0.2525, 0.0625, 0.315, 0.125, 0.3775, 0.1875, 0, 0.2525, 0.0625, 0.315, 0.125, 0.3775, 0.1875, 0, 0.2525, 0.0625, 0.315, 0.125, 0.3775, 0.1875, 0, 0.2525, 0.0625, 0.315, 0.125, 0.3775, 0.1875, 0, 0.2525, 0.0625, 0.315, 0.125, 0.3775, 0.1875, 0, 0.2525, 0.0625, 0.315, 0.125, 0.3775, 0.1875, 0, 0.2525, 0.0625, 0.315, 0.125, 0.3775, 0.1875],
  "SoftwareVersions": "syngo MR E11",
  "SpacingBetweenSlices": 2.7,
  "StationName": "AWP66112",
  "TaskName": "social",
  "TotalReadoutTime": 0.03969,
  "TxRefAmp": 233.707,
  "WipMemBlock": "dfec3e5a-218e-4309-9692-a1403f8a2459||Sequence: R016 ve11c/master r/e634e98; Dec 19 2017 11:00:25 by eja",
  "dcmmeta_affine": [
    [-2.6703343391418457, 0.0265662744641304, 0.2599179148674011, 109.67444610595703],
    [0.08625806123018265, 2.6080291271209717, 0.6275385618209839, -108.73139190673828],
    [0.24488967657089233, -0.6289473176002502, 2.613166332244873, -43.26124572753906],
    [0.0, 0.0, 0.0, 1.0]
],
  "dcmmeta_reorient_transform": [
    [0.0, -1.0, 0.0, 81.0],
    [1.0, 0.0, 0.0, 0.0],
    [0.0, 0.0, 1.0, 0.0],
    [0.0, 0.0, 0.0, 1.0]
],
  "dcmmeta_shape": [82, 82, 56, 872],
  "dcmmeta_slice_dim": 2,
  "dcmmeta_version": 0.6,
  "global": {
    "const": {
      "AccessionNumber": "A003466",
      "AcquisitionMatrix": [82, 0, 0, 82],
      "AngioFlag": "N",
      "BitsAllocated": 16,
      "BitsStored": 16,
      "BodyPartExamined": "BRAIN",
      "Columns": 656,
      "EchoNumbers": 1,
      "EchoTime": 27.2,
      "EchoTrainLength": 82,
      "FlipAngle": 44.0,
      "HighBit": 15,
      "ImageOrientationPatient": [0.99530639934538, -0.0321507309751, 0.09127706130184, 0.00990197474341, 0.97208358236329, 0.23442580872408],
      "ImagePositionPatient": [-885.83678060044, -826.26728459019, -344.9971945657],
      "ImageType": [
        "ORIGINAL",
        "PRIMARY",
        "M",
        "MB",
        "ND",
        "NORM",
        "MOSAIC"
],
      "ImagedNucleus": "1H",
      "ImagingFrequency": 123.252139,
      "InPlanePhaseEncodingDirection": "COL",
      "MRAcquisitionType": "2D",
      "MagneticFieldStrength": 3.0,
      "Manufacturer": "SIEMENS",
      "ManufacturerModelName": "Prisma",
      "Modality": "MR",
      "NumberOfAverages": 1.0,
      "NumberOfPhaseEncodingSteps": 82,
      "PercentPhaseFieldOfView": 100.0,
      "PercentSampling": 100.0,
      "PerformedProcedureStepStartTime": "085422.745000",
      "PhotometricInterpretation": "MONOCHROME2",
      "PixelBandwidth": 3050.0,
      "PixelRepresentation": 0,
      "PixelSpacing": [2.6829268932343, 2.6829268932343],
      "ProtocolName": "func_run-05_task-social_acq-ap-mb8",
      "RepetitionTime": 460.0,
      "Rows": 656,
      "SAR": 0.07128360078537,
      "SamplesPerPixel": 1,
      "ScanOptions": "FS",
      "ScanningSequence": "EP",
      "SequenceName": "epfid2d1_82",
      "SequenceVariant": [
        "SK",
        "SS"
],
      "SeriesDescription": "func_run-05_task-social_acq-ap-mb8",
      "SeriesNumber": 20,
      "SeriesTime": "102309.208000",
      "SliceLocation": -56.583562474136,
      "SliceThickness": 2.7000000476837,
      "SmallestImagePixelValue": 0,
      "SoftwareVersions": "syngo MR E11",
      "SpacingBetweenSlices": 2.6999999700596,
      "SpecificCharacterSet": "ISO_IR 100",
      "StudyID": "1",
      "StudyTime": "085422.620000",
      "TransmitCoilName": "Body",
      "VariableFlipAngleFlag": "N",
      "WindowCenterWidthExplanation": "Algo1",
      "dBdt": 0.0},
    "slices": {}
  },
  "time": {
    "samples": {
      "AcquisitionNumber": [1, 2, 3, 4, 5, 6, 7, 8, 9, 10, 11, 12, 13, 14, 15, 16, 17, 18, 19, 20, 21, 22, 23, 24, 25, 26, 27, 28, 29, 30, 31, 32, 33, 34, 35, 36, 37, 38, 39, 40, 41, 42, 43, 44, 45, 46, 47, 48, 49, 50, 51, 52, 53, 54, 55, 56, 57, 58, 59, 60, 61, 62, 63, 64, 65, 66, 67, 68, 69, 70, 71, 72, 73, 74, 75, 76, 77, 78, 79, 80, 81, 82, 83, 84, 85, 86, 87, 88, 89, 90, 91, 92, 93, 94, 95, 96, 97, 98, 99, 100, 101, 102, 103, 104, 105, 106, 107, 108, 109, 110, 111, 112, 113, 114, 115, 116, 117, 118, 119, 120, 121, 122, 123, 124, 125, 126, 127, 128, 129, 130, 131, 132, 133, 134, 135, 136, 137, 138, 139, 140, 141, 142, 143, 144, 145, 146, 147, 148, 149, 150, 151, 152, 153, 154, 155, 156, 157, 158, 159, 160, 161, 162, 163, 164, 165, 166, 167, 168, 169, 170, 171, 172, 173, 174, 175, 176, 177, 178, 179, 180, 181, 182, 183, 184, 185, 186, 187, 188, 189, 190, 191, 192, 193, 194, 195, 196, 197, 198, 199, 200, 201, 202, 203, 204, 205, 206, 207, 208, 209, 210, 211, 212, 213, 214, 215, 216, 217, 218, 219, 220, 221, 222, 223, 224, 225, 226, 227, 228, 229, 230, 231, 232, 233, 234, 235, 236, 237, 238, 239, 240, 241, 242, 243, 244, 245, 246, 247, 248, 249, 250, 251, 252, 253, 254, 255, 256, 257, 258, 259, 260, 261, 262, 263, 264, 265, 266, 267, 268, 269, 270, 271, 272, 273, 274, 275, 276, 277, 278, 279, 280, 281, 282, 283, 284, 285, 286, 287, 288, 289, 290, 291, 292, 293, 294, 295, 296, 297, 298, 299, 300, 301, 302, 303, 304, 305, 306, 307, 308, 309, 310, 311, 312, 313, 314, 315, 316, 317, 318, 319, 320, 321, 322, 323, 324, 325, 326, 327, 328, 329, 330, 331, 332, 333, 334, 335, 336, 337, 338, 339, 340, 341, 342, 343, 344, 345, 346, 347, 348, 349, 350, 351, 352, 353, 354, 355, 356, 357, 358, 359, 360, 361, 362, 363, 364, 365, 366, 367, 368, 369, 370, 371, 372, 373, 374, 375, 376, 377, 378, 379, 380, 381, 382, 383, 384, 385, 386, 387, 388, 389, 390, 391, 392, 393, 394, 395, 396, 397, 398, 399, 400, 401, 402, 403, 404, 405, 406, 407, 408, 409, 410, 411, 412, 413, 414, 415, 416, 417, 418, 419, 420, 421, 422, 423, 424, 425, 426, 427, 428, 429, 430, 431, 432, 433, 434, 435, 436, 437, 438, 439, 440, 441, 442, 443, 444, 445, 446, 447, 448, 449, 450, 451, 452, 453, 454, 455, 456, 457, 458, 459, 460, 461, 462, 463, 464, 465, 466, 467, 468, 469, 470, 471, 472, 473, 474, 475, 476, 477, 478, 479, 480, 481, 482, 483, 484, 485, 486, 487, 488, 489, 490, 491, 492, 493, 494, 495, 496, 497, 498, 499, 500, 501, 502, 503, 504, 505, 506, 507, 508, 509, 510, 511, 512, 513, 514, 515, 516, 517, 518, 519, 520, 521, 522, 523, 524, 525, 526, 527, 528, 529, 530, 531, 532, 533, 534, 535, 536, 537, 538, 539, 540, 541, 542, 543, 544, 545, 546, 547, 548, 549, 550, 551, 552, 553, 554, 555, 556, 557, 558, 559, 560, 561, 562, 563, 564, 565, 566, 567, 568, 569, 570, 571, 572, 573, 574, 575, 576, 577, 578, 579, 580, 581, 582, 583, 584, 585, 586, 587, 588, 589, 590, 591, 592, 593, 594, 595, 596, 597, 598, 599, 600, 601, 602, 603, 604, 605, 606, 607, 608, 609, 610, 611, 612, 613, 614, 615, 616, 617, 618, 619, 620, 621, 622, 623, 624, 625, 626, 627, 628, 629, 630, 631, 632, 633, 634, 635, 636, 637, 638, 639, 640, 641, 642, 643, 644, 645, 646, 647, 648, 649, 650, 651, 652, 653, 654, 655, 656, 657, 658, 659, 660, 661, 662, 663, 664, 665, 666, 667, 668, 669, 670, 671, 672, 673, 674, 675, 676, 677, 678, 679, 680, 681, 682, 683, 684, 685, 686, 687, 688, 689, 690, 691, 692, 693, 694, 695, 696, 697, 698, 699, 700, 701, 702, 703, 704, 705, 706, 707, 708, 709, 710, 711, 712, 713, 714, 715, 716, 717, 718, 719, 720, 721, 722, 723, 724, 725, 726, 727, 728, 729, 730, 731, 732, 733, 734, 735, 736, 737, 738, 739, 740, 741, 742, 743, 744, 745, 746, 747, 748, 749, 750, 751, 752, 753, 754, 755, 756, 757, 758, 759, 760, 761, 762, 763, 764, 765, 766, 767, 768, 769, 770, 771, 772, 773, 774, 775, 776, 777, 778, 779, 780, 781, 782, 783, 784, 785, 786, 787, 788, 789, 790, 791, 792, 793, 794, 795, 796, 797, 798, 799, 800, 801, 802, 803, 804, 805, 806, 807, 808, 809, 810, 811, 812, 813, 814, 815, 816, 817, 818, 819, 820, 821, 822, 823, 824, 825, 826, 827, 828, 829, 830, 831, 832, 833, 834, 835, 836, 837, 838, 839, 840, 841, 842, 843, 844, 845, 846, 847, 848, 849, 850, 851, 852, 853, 854, 855, 856, 857, 858, 859, 860, 861, 862, 863, 864, 865, 866, 867, 868, 869, 870, 871, 872],
      "AcquisitionTime": ["102241.560000", "102242.020000", "102242.480000", "102242.940000", "102243.400000", "102243.860000", "102244.320000", "102244.780000", "102245.240000", "102245.700000", "102246.160000", "102246.620000", "102247.080000", "102247.540000", "102248.000000", "102248.460000", "102248.920000", "102249.380000", "102249.840000", "102250.300000", "102250.760000", "102251.220000", "102251.680000", "102252.140000", "102252.600000", "102253.060000", "102253.520000", "102253.980000", "102254.440000", "102254.900000", "102255.360000", "102255.820000", "102256.280000", "102256.740000", "102257.200000", "102257.660000", "102258.120000", "102258.580000", "102259.040000", "102259.500000", "102259.960000", "102300.420000", "102300.880000", "102301.340000", "102301.800000", "102302.260000", "102302.720000", "102303.180000", "102303.640000", "102304.100000", "102304.560000", "102305.020000", "102305.480000", "102305.940000", "102306.400000", "102306.860000", "102307.320000", "102307.780000", "102308.240000", "102308.700000", "102309.160000", "102309.620000", "102310.080000", "102310.540000", "102311.000000", "102311.460000", "102311.920000", "102312.380000", "102312.840000", "102313.300000", "102313.760000", "102314.220000", "102314.680000", "102315.140000", "102315.600000", "102316.060000", "102316.520000", "102316.980000", "102317.440000", "102317.900000", "102318.360000", "102318.820000", "102319.280000", "102319.740000", "102320.200000", "102320.660000", "102321.120000", "102321.580000", "102322.040000", "102322.500000", "102322.960000", "102323.420000", "102323.880000", "102324.340000", "102324.800000", "102325.260000", "102325.720000", "102326.180000", "102326.640000", "102327.100000", "102327.560000", "102328.020000", "102328.480000", "102328.940000", "102329.400000", "102329.860000", "102330.320000", "102330.780000", "102331.240000", "102331.700000", "102332.160000", "102332.620000", "102333.080000", "102333.540000", "102334.000000", "102334.460000", "102334.920000", "102335.380000", "102335.840000", "102336.300000", "102336.760000", "102337.220000", "102337.680000", "102338.140000", "102338.600000", "102339.060000", "102339.520000", "102339.980000", "102340.440000", "102340.900000", "102341.360000", "102341.820000", "102342.280000", "102342.740000", "102343.200000", "102343.660000", "102344.120000", "102344.580000", "102345.040000", "102345.500000", "102345.960000", "102346.420000", "102346.880000", "102347.340000", "102347.800000", "102348.260000", "102348.720000", "102349.180000", "102349.640000", "102350.100000", "102350.560000", "102351.020000", "102351.480000", "102351.940000", "102352.400000", "102352.860000", "102353.320000", "102353.780000", "102354.240000", "102354.700000", "102355.160000", "102355.620000", "102356.080000", "102356.540000", "102357.000000", "102357.460000", "102357.920000", "102358.380000", "102358.840000", "102359.300000", "102359.760000", "102400.220000", "102400.680000", "102401.140000", "102401.600000", "102402.060000", "102402.520000", "102402.980000", "102403.440000", "102403.900000", "102404.360000", "102404.820000", "102405.280000", "102405.740000", "102406.200000", "102406.660000", "102407.120000", "102407.580000", "102408.040000", "102408.500000", "102408.960000", "102409.420000", "102409.880000", "102410.340000", "102410.800000", "102411.260000", "102411.720000", "102412.180000", "102412.640000", "102413.100000", "102413.560000", "102414.020000", "102414.480000", "102414.940000", "102415.400000", "102415.860000", "102416.320000", "102416.780000", "102417.240000", "102417.700000", "102418.160000", "102418.620000", "102419.080000", "102419.540000", "102420.000000", "102420.460000", "102420.920000", "102421.380000", "102421.840000", "102422.300000", "102422.760000", "102423.220000", "102423.680000", "102424.140000", "102424.600000", "102425.060000", "102425.520000", "102425.980000", "102426.440000", "102426.900000", "102427.360000", "102427.820000", "102428.280000", "102428.740000", "102429.200000", "102429.660000", "102430.120000", "102430.580000", "102431.040000", "102431.500000", "102431.960000", "102432.420000", "102432.880000", "102433.340000", "102433.800000", "102434.260000", "102434.720000", "102435.180000", "102435.640000", "102436.100000", "102436.560000", "102437.020000", "102437.480000", "102437.940000", "102438.400000", "102438.860000", "102439.320000", "102439.780000", "102440.240000", "102440.700000", "102441.160000", "102441.620000", "102442.080000", "102442.540000", "102443.000000", "102443.460000", "102443.920000", "102444.380000", "102444.840000", "102445.300000", "102445.760000", "102446.220000", "102446.680000", "102447.140000", "102447.600000", "102448.060000", "102448.520000", "102448.980000", "102449.440000", "102449.900000", "102450.360000", "102450.820000", "102451.280000", "102451.740000", "102452.200000", "102452.660000", "102453.120000", "102453.580000", "102454.040000", "102454.500000", "102454.960000", "102455.420000", "102455.880000", "102456.340000", "102456.800000", "102457.260000", "102457.720000", "102458.180000", "102458.640000", "102459.100000", "102459.560000", "102500.020000", "102500.480000", "102500.940000", "102501.400000", "102501.860000", "102502.320000", "102502.780000", "102503.240000", "102503.700000", "102504.160000", "102504.620000", "102505.080000", "102505.540000", "102506.000000", "102506.460000", "102506.920000", "102507.380000", "102507.840000", "102508.300000", "102508.760000", "102509.220000", "102509.680000", "102510.140000", "102510.600000", "102511.060000", "102511.520000", "102511.980000", "102512.440000", "102512.900000", "102513.360000", "102513.820000", "102514.280000", "102514.740000", "102515.200000", "102515.660000", "102516.120000", "102516.580000", "102517.040000", "102517.500000", "102517.960000", "102518.420000", "102518.880000", "102519.340000", "102519.800000", "102520.260000", "102520.720000", "102521.180000", "102521.640000", "102522.100000", "102522.560000", "102523.020000", "102523.480000", "102523.940000", "102524.400000", "102524.860000", "102525.320000", "102525.780000", "102526.240000", "102526.700000", "102527.160000", "102527.620000", "102528.080000", "102528.540000", "102529.000000", "102529.460000", "102529.920000", "102530.380000", "102530.840000", "102531.300000", "102531.760000", "102532.220000", "102532.680000", "102533.140000", "102533.600000", "102534.060000", "102534.520000", "102534.980000", "102535.440000", "102535.900000", "102536.360000", "102536.820000", "102537.280000", "102537.740000", "102538.200000", "102538.660000", "102539.120000", "102539.580000", "102540.040000", "102540.500000", "102540.960000", "102541.420000", "102541.880000", "102542.340000", "102542.800000", "102543.260000", "102543.720000", "102544.180000", "102544.640000", "102545.100000", "102545.560000", "102546.020000", "102546.480000", "102546.940000", "102547.400000", "102547.860000", "102548.320000", "102548.780000", "102549.240000", "102549.700000", "102550.160000", "102550.620000", "102551.080000", "102551.540000", "102552.000000", "102552.460000", "102552.920000", "102553.380000", "102553.840000", "102554.300000", "102554.760000", "102555.220000", "102555.680000", "102556.140000", "102556.600000", "102557.060000", "102557.520000", "102557.980000", "102558.440000", "102558.900000", "102559.360000", "102559.820000", "102600.280000", "102600.740000", "102601.200000", "102601.660000", "102602.120000", "102602.580000", "102603.040000", "102603.500000", "102603.960000", "102604.420000", "102604.880000", "102605.340000", "102605.800000", "102606.260000", "102606.720000", "102607.180000", "102607.640000", "102608.100000", "102608.560000", "102609.020000", "102609.480000", "102609.940000", "102610.400000", "102610.860000", "102611.320000", "102611.780000", "102612.240000", "102612.700000", "102613.160000", "102613.620000", "102614.080000", "102614.540000", "102615.000000", "102615.460000", "102615.920000", "102616.380000", "102616.840000", "102617.300000", "102617.760000", "102618.220000", "102618.680000", "102619.140000", "102619.600000", "102620.060000", "102620.520000", "102620.980000", "102621.440000", "102621.900000", "102622.360000", "102622.820000", "102623.280000", "102623.740000", "102624.200000", "102624.660000", "102625.120000", "102625.580000", "102626.040000", "102626.500000", "102626.960000", "102627.420000", "102627.880000", "102628.340000", "102628.800000", "102629.260000", "102629.720000", "102630.180000", "102630.640000", "102631.100000", "102631.560000", "102632.020000", "102632.480000", "102632.940000", "102633.400000", "102633.860000", "102634.320000", "102634.780000", "102635.240000", "102635.700000", "102636.160000", "102636.620000", "102637.080000", "102637.540000", "102638.000000", "102638.460000", "102638.920000", "102639.380000", "102639.840000", "102640.300000", "102640.760000", "102641.220000", "102641.680000", "102642.140000", "102642.600000", "102643.060000", "102643.520000", "102643.980000", "102644.440000", "102644.900000", "102645.360000", "102645.820000", "102646.280000", "102646.740000", "102647.200000", "102647.660000", "102648.120000", "102648.580000", "102649.040000", "102649.500000", "102649.960000", "102650.420000", "102650.880000", "102651.340000", "102651.800000", "102652.260000", "102652.720000", "102653.180000", "102653.640000", "102654.100000", "102654.560000", "102655.020000", "102655.480000", "102655.940000", "102656.400000", "102656.860000", "102657.320000", "102657.780000", "102658.240000", "102658.700000", "102659.160000", "102659.620000", "102700.080000", "102700.540000", "102701.000000", "102701.460000", "102701.920000", "102702.380000", "102702.840000", "102703.300000", "102703.760000", "102704.220000", "102704.680000", "102705.140000", "102705.600000", "102706.060000", "102706.520000", "102706.980000", "102707.440000", "102707.900000", "102708.360000", "102708.820000", "102709.280000", "102709.740000", "102710.200000", "102710.660000", "102711.120000", "102711.580000", "102712.040000", "102712.500000", "102712.960000", "102713.420000", "102713.880000", "102714.340000", "102714.800000", "102715.260000", "102715.720000", "102716.180000", "102716.640000", "102717.100000", "102717.560000", "102718.020000", "102718.480000", "102718.940000", "102719.400000", "102719.860000", "102720.320000", "102720.780000", "102721.240000", "102721.700000", "102722.160000", "102722.620000", "102723.080000", "102723.540000", "102724.000000", "102724.460000", "102724.920000", "102725.380000", "102725.840000", "102726.300000", "102726.760000", "102727.220000", "102727.680000", "102728.140000", "102728.600000", "102729.060000", "102729.520000", "102729.980000", "102730.440000", "102730.900000", "102731.360000", "102731.820000", "102732.280000", "102732.740000", "102733.200000", "102733.660000", "102734.120000", "102734.580000", "102735.040000", "102735.500000", "102735.960000", "102736.420000", "102736.880000", "102737.340000", "102737.800000", "102738.260000", "102738.720000", "102739.180000", "102739.640000", "102740.100000", "102740.560000", "102741.020000", "102741.480000", "102741.940000", "102742.400000", "102742.860000", "102743.320000", "102743.780000", "102744.240000", "102744.700000", "102745.160000", "102745.620000", "102746.080000", "102746.540000", "102747.000000", "102747.460000", "102747.920000", "102748.380000", "102748.840000", "102749.300000", "102749.760000", "102750.220000", "102750.680000", "102751.140000", "102751.600000", "102752.060000", "102752.520000", "102752.980000", "102753.440000", "102753.900000", "102754.360000", "102754.820000", "102755.280000", "102755.740000", "102756.200000", "102756.660000", "102757.120000", "102757.580000", "102758.040000", "102758.500000", "102758.960000", "102759.420000", "102759.880000", "102800.340000", "102800.800000", "102801.260000", "102801.720000", "102802.180000", "102802.640000", "102803.100000", "102803.560000", "102804.020000", "102804.480000", "102804.940000", "102805.400000", "102805.860000", "102806.320000", "102806.780000", "102807.240000", "102807.700000", "102808.160000", "102808.620000", "102809.080000", "102809.540000", "102810.000000", "102810.460000", "102810.920000", "102811.380000", "102811.840000", "102812.300000", "102812.760000", "102813.220000", "102813.680000", "102814.140000", "102814.600000", "102815.060000", "102815.520000", "102815.980000", "102816.440000", "102816.900000", "102817.360000", "102817.820000", "102818.280000", "102818.740000", "102819.200000", "102819.660000", "102820.120000", "102820.580000", "102821.040000", "102821.500000", "102821.960000", "102822.420000", "102822.880000", "102823.340000", "102823.800000", "102824.260000", "102824.720000", "102825.180000", "102825.640000", "102826.100000", "102826.560000", "102827.020000", "102827.480000", "102827.940000", "102828.400000", "102828.860000", "102829.320000", "102829.780000", "102830.240000", "102830.700000", "102831.160000", "102831.620000", "102832.080000", "102832.540000", "102833.000000", "102833.460000", "102833.920000", "102834.380000", "102834.840000", "102835.300000", "102835.760000", "102836.220000", "102836.680000", "102837.140000", "102837.600000", "102838.060000", "102838.520000", "102838.980000", "102839.440000", "102839.900000", "102840.360000", "102840.820000", "102841.280000", "102841.740000", "102842.200000", "102842.660000", "102843.120000", "102843.580000", "102844.040000", "102844.500000", "102844.960000", "102845.420000", "102845.880000", "102846.340000", "102846.800000", "102847.260000", "102847.720000", "102848.180000", "102848.640000", "102849.100000", "102849.560000", "102850.020000", "102850.480000", "102850.940000", "102851.400000", "102851.860000", "102852.320000", "102852.780000", "102853.240000", "102853.700000", "102854.160000", "102854.620000", "102855.080000", "102855.540000", "102856.000000", "102856.460000", "102856.920000", "102857.380000", "102857.840000", "102858.300000", "102858.760000", "102859.220000", "102859.680000", "102900.140000", "102900.600000", "102901.060000", "102901.520000", "102901.980000", "102902.440000", "102902.900000", "102903.360000", "102903.820000", "102904.280000", "102904.740000", "102905.200000", "102905.660000", "102906.120000", "102906.580000", "102907.040000", "102907.500000", "102907.960000", "102908.420000", "102908.880000", "102909.340000", "102909.800000", "102910.260000", "102910.720000", "102911.180000", "102911.640000", "102912.100000", "102912.560000", "102913.020000", "102913.480000", "102913.940000", "102914.400000", "102914.860000", "102915.320000", "102915.780000", "102916.240000", "102916.700000", "102917.160000", "102917.620000", "102918.080000", "102918.540000", "102919.000000", "102919.460000", "102919.920000", "102920.380000", "102920.840000", "102921.300000", "102921.760000", "102922.220000"],
