{
  "AcquisitionMatrixPE": 140,
  "AcquisitionNumber": 1,
  "AcquisitionTime": "15:06:26.092500",
  "BandwidthPerPixelPhaseEncode": 10.352,
  "BaseResolution": 140,
  "BodyPartExamined": "BRAIN",
  "ConsistencyInfo": "N4_VE11C_LATEST_20160120",
  "ConversionSoftware": "dcm2niix",
  "ConversionSoftwareVersion": "v1.0.20201102",
  "DerivedVendorReportedEchoSpacing": 0.000689998,
  "DeviceSerialNumber": "66112",
  "DiffusionScheme": "Monopolar",
  "DwellTime": 2.1e-06,
  "EchoTime": 0.0884,
  "EchoTrainLength": 105,
  "EffectiveEchoSpacing": 0.000689998,
  "FlipAngle": 90,
  "ImageComments": "Unaliased MB3/PE3 SENSE1",
  "ImageOrientationPatientDICOM": [0.997585, 0.0681888, 0.0131827, -0.0688832, 0.995667, 0.0624692],
  "ImageType": [
    "ORIGINAL",
    "PRIMARY",
    "DIFFUSION",
    "NONE",
    "MB",
    "ND",
    "MOSAIC"
],
  "ImagingFrequency": 123.252,
  "InPlanePhaseEncodingDirectionDICOM": "COL",
  "InstitutionAddress": "Maynard 3,Hanover,NH,US,03755",
  "InstitutionName": "dartmouth_brain_imaging_center",
  "InstitutionalDepartmentName": "Department",
  "MRAcquisitionType": "2D",
  "MagneticFieldStrength": 3,
  "Manufacturer": "Siemens",
  "ManufacturersModelName": "Prisma",
  "Modality": "MR",
  "MultibandAccelerationFactor": 3,
  "PartialFourier": 0.75,
  "PatientPosition": "HFS",
  "PercentPhaseFOV": 100,
  "PercentSampling": 100,
  "PhaseEncodingDirection": "j-",
  "PhaseEncodingSteps": 105,
  "PhaseResolution": 1,
  "PixelBandwidth": 1700,
  "ProcedureStepDescription": "Wager_Wager^1076_spacetop",
  "ProtocolName": "dwi_acq-96dir-6b0-mb",
  "PulseSequenceDetails": "%CustomerSeq%\\cmrr_mbep2d_diff",
  "ReceiveCoilActiveElements": "HEA;HEP",
  "ReceiveCoilName": "Head_32",
  "ReconMatrixPE": 140,
  "RepetitionTime": 4.11,
  "SAR": 0.274897,
  "ScanOptions": "PFP\\FS",
  "ScanningSequence": "EP",
  "SequenceName": "ep_b5#1",
  "SequenceVariant": "SK\\SS",
  "SeriesDescription": "dwi_acq-96dir-6b0-mb",
  "SeriesNumber": 8,
  "ShimSetting": [4155, -7774, -7168, 596, -39, -178, -82, 71],
  "SliceThickness": 1.7,
  "SliceTiming": [0, 2.1225, 0.1525, 2.2725, 0.3025, 2.425, 0.455, 2.575, 0.6075, 2.7275, 0.7575, 2.8775, 0.91, 3.03, 1.06, 3.1825, 1.2125, 3.3325, 1.365, 3.485, 1.515, 3.635, 1.6675, 3.7875, 1.8175, 3.94, 1.97, 0, 2.1225, 0.1525, 2.2725, 0.3025, 2.425, 0.455, 2.575, 0.6075, 2.7275, 0.7575, 2.8775, 0.91, 3.03, 1.06, 3.1825, 1.2125, 3.3325, 1.365, 3.485, 1.515, 3.635, 1.6675, 3.7875, 1.8175, 3.94, 1.97, 0, 2.1225, 0.1525, 2.2725, 0.3025, 2.425, 0.455, 2.575, 0.6075, 2.7275, 0.7575, 2.8775, 0.91, 3.03, 1.06, 3.1825, 1.2125, 3.3325, 1.365, 3.485, 1.515, 3.635, 1.6675, 3.7875, 1.8175, 3.94, 1.97],
  "SoftwareVersions": "syngo MR E11",
  "SpacingBetweenSlices": 1.7,
  "StationName": "AWP66112",
  "TotalReadoutTime": 0.0959097,
  "TxRefAmp": 251.157,
  "WipMemBlock": "7912e055-20eb-4bfc-a422-d6c73536a8b6||Sequence: R016 ve11c/master r/e634e98; Dec 19 2017 11:11:25 by eja",
  "dcmmeta_affine": [
    [-1.7101463079452515, -0.11808552592992783, 0.015072009526193142, 128.1539764404297],
    [-0.1168951615691185, 1.706857681274414, 0.10748500376939774, -89.47669982910156],
    [0.022598939016461372, -0.10709013789892197, 1.6965317726135254, -42.411643981933594],
    [0.0, 0.0, 0.0, 1.0]
],
  "dcmmeta_reorient_transform": [
    [0.0, -1.0, 0.0, 139.0],
    [1.0, 0.0, 0.0, 0.0],
    [0.0, 0.0, 1.0, 0.0],
    [0.0, 0.0, 0.0, 1.0]
],
  "dcmmeta_shape": [140, 140, 81, 103],
  "dcmmeta_slice_dim": 2,
  "dcmmeta_version": 0.6,
  "global": {
    "const": {
      "AccessionNumber": "A003496",
      "AcquisitionMatrix": [140, 0, 0, 140],
      "AngioFlag": "N",
      "BitsAllocated": 16,
      "BitsStored": 16,
      "BodyPartExamined": "BRAIN",
      "Columns": 1260,
      "EchoNumbers": 1,
      "EchoTime": 88.4,
      "EchoTrainLength": 105,
      "FlipAngle": 90.0,
      "HighBit": 15,
      "ImageOrientationPatient": [0.99758533345781, 0.06818884439168, 0.01318271483449, -0.0688832236549, 0.99566695980427, 0.06246924565755],
      "ImagePositionPatient": [-1003.2941193372, -1169.0781009752, -129.92305506323],
      "ImageType": [
        "ORIGINAL",
        "PRIMARY",
        "DIFFUSION",
        "NONE",
        "MB",
        "ND",
        "MOSAIC"
],
      "ImagedNucleus": "1H",
      "ImagingFrequency": 123.252075,
      "InPlanePhaseEncodingDirection": "COL",
      "MRAcquisitionType": "2D",
      "MagneticFieldStrength": 3.0,
      "Manufacturer": "SIEMENS",
      "ManufacturerModelName": "Prisma",
      "Modality": "MR",
      "NumberOfAverages": 1.0,
      "NumberOfPhaseEncodingSteps": 105,
      "PercentPhaseFieldOfView": 100.0,
      "PercentSampling": 100.0,
      "PerformedProcedureStepStartTime": "115920.336000",
      "PhotometricInterpretation": "MONOCHROME2",
      "PixelBandwidth": 1700.0,
      "PixelRepresentation": 0,
      "PixelSpacing": [1.7142857313156, 1.7142857313156],
      "ProtocolName": "dwi_acq-96dir-6b0-mb",
      "RepetitionTime": 4110.0,
      "Rows": 1260,
      "SAR": 0.27489708464477,
      "SamplesPerPixel": 1,
      "ScanOptions": [
        "PFP",
        "FS"
],
      "ScanningSequence": "EP",
      "SequenceVariant": [
        "SK",
        "SS"
],
      "SeriesDescription": "dwi_acq-96dir-6b0-mb",
      "SeriesNumber": 8,
      "SeriesTime": "150633.712000",
      "SliceLocation": -46.846213051834,
      "SliceThickness": 1.7000000476837,
      "SmallestImagePixelValue": 0,
      "SoftwareVersions": "syngo MR E11",
      "SpacingBetweenSlices": 1.7000000253298,
      "SpecificCharacterSet": "ISO_IR 100",
      "StudyID": "1",
      "StudyTime": "115920.207000",
      "TransmitCoilName": "Body",
      "VariableFlipAngleFlag": "N",
      "WindowCenterWidthExplanation": "Algo1",
      "dBdt": 0.0},
    "slices": {}
  },
  "time": {
    "samples": {
      "AcquisitionNumber": [1, 2, 3, 4, 5, 6, 7, 8, 9, 10, 11, 12, 13, 14, 15, 16, 17, 18, 19, 20, 21, 22, 23, 24, 25, 26, 27, 28, 29, 30, 31, 32, 33, 34, 35, 36, 37, 38, 39, 40, 41, 42, 43, 44, 45, 46, 47, 48, 49, 50, 51, 52, 53, 54, 55, 56, 57, 58, 59, 60, 61, 62, 63, 64, 65, 66, 67, 68, 69, 70, 71, 72, 73, 74, 75, 76, 77, 78, 79, 80, 81, 82, 83, 84, 85, 86, 87, 88, 89, 90, 91, 92, 93, 94, 95, 96, 97, 98, 99, 100, 101, 102, 103],
      "AcquisitionTime": ["150626.092500", "150630.202500", "150634.312500", "150638.422500", "150642.532500", "150646.642500", "150650.752500", "150654.862500", "150658.972500", "150703.082500", "150707.192500", "150711.302500", "150715.412500", "150719.522500", "150723.632500", "150727.742500", "150731.852500", "150735.962500", "150740.072500", "150744.182500", "150748.292500", "150752.402500", "150756.512500", "150800.622500", "150804.732500", "150808.842500", "150812.952500", "150817.062500", "150821.172500", "150825.282500", "150829.392500", "150833.502500", "150837.612500", "150841.722500", "150845.832500", "150849.942500", "150854.052500", "150858.162500", "150902.272500", "150906.382500", "150910.492500", "150914.602500", "150918.712500", "150922.822500", "150926.932500", "150931.042500", "150935.152500", "150939.262500", "150943.372500", "150947.482500", "150951.592500", "150955.702500", "150959.812500", "151003.922500", "151008.032500", "151012.142500", "151016.252500", "151020.362500", "151024.472500", "151028.582500", "151032.692500", "151036.802500", "151040.912500", "151045.022500", "151049.132500", "151053.242500", "151057.352500", "151101.462500", "151105.572500", "151109.682500", "151113.792500", "151117.902500", "151122.012500", "151126.122500", "151130.232500", "151134.342500", "151138.452500", "151142.562500", "151146.672500", "151150.782500", "151154.892500", "151159.002500", "151203.112500", "151207.222500", "151211.332500", "151215.442500", "151219.552500", "151223.662500", "151227.772500", "151231.882500", "151235.992500", "151240.102500", "151244.212500", "151248.322500", "151252.432500", "151256.542500", "151300.652500", "151304.762500", "151308.872500", "151312.982500", "151317.092500", "151321.202500", "151325.312500"],
      "ContentTime": ["150633.716000", "150753.711000", "150753.715000", "150753.718000", "150753.721000", "150753.725000", "150753.728000", "150753.731000", "150753.735000", "150753.738000", "150753.741000", "150753.745000", "150753.760000", "150753.763000", "150753.767000", "150753.770000", "150753.777000", "150753.781000", "150753.784000", "150753.787000", "150753.791000", "150933.711000", "150933.715000", "150933.718000", "150933.722000", "150933.725000", "150933.728000", "150933.731000", "150933.735000", "150933.738000", "150933.741000", "150933.745000", "150933.748000", "150933.752000", "150933.755000", "150933.758000", "150933.761000", "150933.765000", "150933.768000", "150933.771000", "150933.775000", "150933.778000", "150933.781000", "150933.785000", "150933.796000", "151113.711000", "151113.715000", "151113.718000", "151113.722000", "151113.725000", "151113.736000", "151113.739000", "151113.743000", "151113.746000", "151113.750000", "151113.753000", "151113.756000", "151113.760000", "151113.763000", "151113.766000", "151113.770000", "151113.773000", "151113.776000", "151113.788000", "151113.792000", "151113.795000", "151113.798000", "151113.801000", "151113.805000", "151233.711000", "151233.715000", "151233.718000", "151233.722000", "151233.725000", "151233.728000", "151233.732000", "151233.735000", "151233.738000", "151233.742000", "151233.745000", "151233.748000", "151233.752000", "151233.755000", "151233.764000", "151233.771000", "151233.774000", "151233.778000", "151233.781000", "151233.784000", "151330.008000", "151330.012000", "151330.015000", "151330.019000", "151330.022000", "151330.026000", "151330.029000", "151330.032000", "151330.036000", "151330.039000", "151330.043000", "151330.046000", "151330.050000", "151330.053000"],
      "InstanceCreationTime": ["150633.716000", "150753.711000", "150753.715000", "150753.718000", "150753.721000", "150753.725000", "150753.728000", "150753.731000", "150753.735000", "150753.738000", "150753.741000", "150753.745000", "150753.760000", "150753.763000", "150753.767000", "150753.770000", "150753.777000", "150753.781000", "150753.784000", "150753.787000", "150753.791000", "150933.711000", "150933.715000", "150933.718000", "150933.722000", "150933.725000", "150933.728000", "150933.731000", "150933.735000", "150933.738000", "150933.741000", "150933.745000", "150933.748000", "150933.752000", "150933.755000", "150933.758000", "150933.761000", "150933.765000", "150933.768000", "150933.771000", "150933.775000", "150933.778000", "150933.781000", "150933.785000", "150933.796000", "151113.711000", "151113.715000", "151113.718000", "151113.722000", "151113.725000", "151113.736000", "151113.739000", "151113.743000", "151113.746000", "151113.750000", "151113.753000", "151113.756000", "151113.760000", "151113.763000", "151113.766000", "151113.770000", "151113.773000", "151113.776000", "151113.788000", "151113.792000", "151113.795000", "151113.798000", "151113.801000", "151113.805000", "151233.711000", "151233.715000", "151233.718000", "151233.722000", "151233.725000", "151233.728000", "151233.732000", "151233.735000", "151233.738000", "151233.742000", "151233.745000", "151233.748000", "151233.752000", "151233.755000", "151233.764000", "151233.771000", "151233.774000", "151233.778000", "151233.781000", "151233.784000", "151330.008000", "151330.012000", "151330.015000", "151330.019000", "151330.022000", "151330.026000", "151330.029000", "151330.032000", "151330.036000", "151330.039000", "151330.043000", "151330.046000", "151330.050000", "151330.053000"],
      "InstanceNumber": [1, 2, 3, 4, 5, 6, 7, 8, 9, 10, 11, 12, 13, 14, 15, 16, 17, 18, 19, 20, 21, 22, 23, 24, 25, 26, 27, 28, 29, 30, 31, 32, 33, 34, 35, 36, 37, 38, 39, 40, 41, 42, 43, 44, 45, 46, 47, 48, 49, 50, 51, 52, 53, 54, 55, 56, 57, 58, 59, 60, 61, 62, 63, 64, 65, 66, 67, 68, 69, 70, 71, 72, 73, 74, 75, 76, 77, 78, 79, 80, 81, 82, 83, 84, 85, 86, 87, 88, 89, 90, 91, 92, 93, 94, 95, 96, 97, 98, 99, 100, 101, 102, 103],
      "LargestImagePixelValue": [65535, 65535, 43821, 44234, 43585, 45597, 46018, 42986, 65535, 28815, 25864, 28172, 30003, 29148, 30564, 27109, 29880, 30320, 28908, 28365, 31608, 29029, 24117, 27032, 65535, 13799, 13107, 13182, 13428, 14008, 15580, 13033, 13936, 13255, 13714, 12783, 13774, 12614, 15402, 13309, 65535, 7269, 7684, 8543, 9032, 7525, 7811, 8406, 9053, 9397, 7520, 8246, 7522, 8015, 8190, 8647, 8705, 7574, 8923, 8321, 7291, 9143, 7502, 7785, 7841, 8052, 7638, 7173, 9513, 8501, 9183, 7738, 7797, 65535, 8113, 8162, 9455, 6828, 7745, 7669, 8307, 7780, 8143, 10096, 7571, 7540, 8012, 9155, 9545, 9009, 10030, 7064, 8262, 7610, 9501, 8797, 7426, 7324, 9794, 8211, 8799, 7435, 65535],
      "SequenceName": [
 "ep_b5#1",
 "ep_b5#1",
 "ep_b500#2",
 "ep_b495#3",
 "ep_b500#4",
 "ep_b505#5",
 "ep_b495#6",
 "ep_b500#7",
 "ep_b5#8",
 "ep_b1000#9",
 "ep_b1005#10",
 "ep_b995#11",
 "ep_b1005#12",
 "ep_b995#13",
 "ep_b995#14",
 "ep_b1005#15",
 "ep_b1000#16",
 "ep_b1005#17",
 "ep_b995#18",
 "ep_b1000#19",
 "ep_b995#20",
 "ep_b1000#21",
 "ep_b1005#22",
 "ep_b1005#23",
 "ep_b5#24",
 "ep_b2000#25",
 "ep_b1995#26",
 "ep_b1990#27",
 "ep_b1995#28",
 "ep_b2005#29",
 "ep_b2010#30",
 "ep_b2000#31",
 "ep_b2010#32",
 "ep_b1995#33",
 "ep_b1995#34",
 "ep_b1995#35",
 "ep_b2005#36",
 "ep_b2000#37",
 "ep_b2005#38",
 "ep_b1995#39",
 "ep_b5#40",
 "ep_b3000#41",
 "ep_b3005#42",
 "ep_b3010#43",
 "ep_b3010#44",
 "ep_b3000#45",
 "ep_b3000#46",
 "ep_b2990#47",
 "ep_b3005#48",
 "ep_b3000#49",
 "ep_b2990#50",
 "ep_b2990#51",
 "ep_b2995#52",
 "ep_b2995#53",
 "ep_b3010#54",
 "ep_b3000#55",
 "ep_b2995#56",
 "ep_b2995#57",
 "ep_b2990#58",
 "ep_b2990#59",
 "ep_b3000#60",
 "ep_b2990#61",
 "ep_b2990#62",
 "ep_b2995#63",
 "ep_b3000#64",
 "ep_b3010#65",
 "ep_b3000#66",
 "ep_b3005#67",
 "ep_b3010#68",
 "ep_b3005#69",
 "ep_b3005#70",
 "ep_b3005#71",
 "ep_b2990#72",
 "ep_b5#73",
 "ep_b3010#74",
 "ep_b3000#75",
 "ep_b3005#76",
 "ep_b3000#77",
 "ep_b2990#78",
 "ep_b3005#79",
 "ep_b2995#80",
 "ep_b3010#81",
 "ep_b3005#82",
 "ep_b3005#83",
 "ep_b3000#84",
 "ep_b3000#85",
 "ep_b3010#86",
 "ep_b3010#87",
 "ep_b2990#88",
 "ep_b3010#89",
 "ep_b2995#90",
 "ep_b2995#91",
 "ep_b2990#92",
 "ep_b2995#93",
 "ep_b3005#94",
 "ep_b3005#95",
 "ep_b2995#96",
 "ep_b3000#97",
 "ep_b2990#98",
 "ep_b3000#99",
 "ep_b2995#100",
 "ep_b2995#101",
 "ep_b5#102"
],
      "WindowCenter": [8978.0, 8993.0, 6332.0, 6349.0, 6320.0, 6279.0, 6388.0, 6340.0, 8969.0, 4844.0, 4736.0, 4805.0, 4789.0, 4793.0, 4859.0, 4790.0, 4884.0, 4758.0, 4842.0, 4799.0, 4900.0, 4821.0, 4702.0, 4676.0, 8875.0, 3099.0, 3047.0, 3035.0, 3123.0, 3047.0, 3078.0, 3029.0, 3041.0, 3059.0, 3111.0, 3079.0, 3018.0, 3019.0, 3081.0, 3042.0, 8810.0, 2064.0, 2102.0, 2191.0, 2197.0, 2126.0, 2151.0, 2187.0, 2151.0, 2183.0, 2128.0, 2169.0, 2144.0, 2170.0, 2180.0, 2143.0, 2193.0, 2104.0, 2215.0, 2186.0, 2116.0, 2194.0, 2169.0, 2162.0, 2171.0, 2168.0, 2108.0, 2091.0, 2176.0, 2162.0, 2182.0, 2147.0, 2162.0, 8747.0, 2146.0, 2146.0, 2145.0, 2081.0, 2100.0, 2102.0, 2126.0, 2118.0, 2151.0, 2189.0, 2142.0, 2128.0, 2110.0, 2144.0, 2189.0, 2165.0, 2223.0, 2080.0, 2139.0, 2141.0, 2190.0, 2190.0, 2145.0, 2093.0, 2230.0, 2141.0, 2173.0, 2149.0, 8752.0],
      "WindowWidth": [19459.0, 19504.0, 13384.0, 13406.0, 13351.0, 13295.0, 13482.0, 13401.0, 19434.0, 10456.0, 10270.0, 10381.0, 10363.0, 10372.0, 10488.0, 10365.0, 10526.0, 10299.0, 10446.0, 10373.0, 10556.0, 10416.0, 10192.0, 10125.0, 19245.0, 7105.0, 7009.0, 6982.0, 7159.0, 7011.0, 7046.0, 6972.0, 6983.0, 7034.0, 7130.0, 7083.0, 6950.0, 6952.0, 7058.0, 6986.0, 19055.0, 5117.0, 5161.0, 5354.0, 5344.0, 5240.0, 5289.0, 5337.0, 5246.0, 5324.0, 5206.0, 5286.0, 5285.0, 5335.0, 5343.0, 5248.0, 5371.0, 5172.0, 5389.0, 5328.0, 5226.0, 5335.0, 5330.0, 5336.0, 5342.0, 5323.0, 5190.0, 5185.0, 5299.0, 5305.0, 5326.0, 5304.0, 5296.0, 18908.0, 5253.0, 5262.0, 5220.0, 5173.0, 5153.0, 5168.0, 5208.0, 5196.0, 5288.0, 5318.0, 5275.0, 5250.0, 5167.0, 5217.0, 5314.0, 5273.0, 5401.0, 5133.0, 5227.0, 5278.0, 5323.0, 5354.0, 5298.0, 5157.0, 5392.0, 5235.0, 5317.0, 5309.0, 18895.0]
    },
    "slices": {}
  }
}