{
  "AcquisitionMatrixPE": 82,
  "AcquisitionNumber": 1,
  "AcquisitionTime": "10:35:6.415000",
  "BandwidthPerPixelPhaseEncode": 24.888,
  "BaseResolution": 82,
  "BodyPartExamined": "BRAIN",
  "ConsistencyInfo": "N4_VE11C_LATEST_20160120",
  "ConversionSoftware": "dcm2niix",
  "ConversionSoftwareVersion": "v1.0.20201102",
  "DerivedVendorReportedEchoSpacing": 0.00049,
  "DeviceSerialNumber": "66112",
  "DwellTime": 2e-06,
  "EchoTime": 0.0272,
  "EchoTrainLength": 82,
  "EffectiveEchoSpacing": 0.00049,
  "FlipAngle": 44,
  "ImageComments": "Unaliased MB8/PE3",
  "ImageOrientationPatientDICOM": [0.998872, 0.046949, 0.00717879, -0.047455, 0.980396, 0.191239],
  "ImageType": [
    "ORIGINAL",
    "PRIMARY",
    "M",
    "MB",
    "ND",
    "NORM",
    "MOSAIC"
],
  "ImagingFrequency": 123.252,
  "InPlanePhaseEncodingDirectionDICOM": "COL",
  "InstitutionAddress": "Maynard 3,Hanover,NH,US,03755",
  "InstitutionName": "Dartmouth College - PBS",
  "InstitutionalDepartmentName": "Department",
  "MRAcquisitionType": "2D",
  "MagneticFieldStrength": 3,
  "Manufacturer": "Siemens",
  "ManufacturersModelName": "Prisma",
  "Modality": "MR",
  "MultibandAccelerationFactor": 8,
  "PartialFourier": 1,
  "PatientPosition": "HFS",
  "PercentPhaseFOV": 100,
  "PercentSampling": 100,
  "PhaseEncodingDirection": "j-",
  "PhaseEncodingSteps": 82,
  "PhaseResolution": 1,
  "PixelBandwidth": 3050,
  "ProcedureStepDescription": "Wager_Wager^1076_spacetop",
  "ProtocolName": "func_run-05_task-social_acq-ap-mb8",
  "PulseSequenceDetails": "%CustomerSeq%\\cmrr_mbep2d_bold",
  "ReceiveCoilActiveElements": "HEA;HEP",
  "ReceiveCoilName": "Head_32",
  "ReconMatrixPE": 82,
  "RepetitionTime": 0.46,
  "SAR": 0.0728201,
  "ScanOptions": "FS",
  "ScanningSequence": "EP",
  "SequenceName": "epfid2d1_82",
  "SequenceVariant": "SK\\SS",
  "SeriesDescription": "func_run-05_task-social_acq-ap-mb8",
  "SeriesNumber": 22,
  "ShimSetting": [4160, -7725, -7492, 357, -8, -207, 47, 57],
  "SliceThickness": 2.7,
  "SliceTiming": [0, 0.2525, 0.065, 0.315, 0.1275, 0.3775, 0.19, 0, 0.2525, 0.065, 0.315, 0.1275, 0.3775, 0.19, 0, 0.2525, 0.065, 0.315, 0.1275, 0.3775, 0.19, 0, 0.2525, 0.065, 0.315, 0.1275, 0.3775, 0.19, 0, 0.2525, 0.065, 0.315, 0.1275, 0.3775, 0.19, 0, 0.2525, 0.065, 0.315, 0.1275, 0.3775, 0.19, 0, 0.2525, 0.065, 0.315, 0.1275, 0.3775, 0.19, 0, 0.2525, 0.065, 0.315, 0.1275, 0.3775, 0.19],
  "SoftwareVersions": "syngo MR E11",
  "SpacingBetweenSlices": 2.7,
  "StationName": "AWP66112",
  "TaskName": "social",
  "TotalReadoutTime": 0.03969,
  "TxRefAmp": 237.481,
  "WipMemBlock": "f3adda15-ccc3-43ee-811f-4fa830c3d333||Sequence: R016 ve11c/master r/e634e98; Dec 19 2017 11:00:25 by eja",
  "dcmmeta_affine": [
    [-2.679899215698242, -0.12731830775737762, -0.0052391644567251205, 117.86956024169922],
    [-0.12596070766448975, 2.6303298473358154, 0.5166827440261841, -102.18193817138672],
    [0.019260164350271225, -0.5130805969238281, 2.6500966548919678, -51.76309585571289],
    [0.0, 0.0, 0.0, 1.0]
],
  "dcmmeta_reorient_transform": [
    [0.0, -1.0, 0.0, 81.0],
    [1.0, 0.0, 0.0, 0.0],
    [0.0, 0.0, 1.0, 0.0],
    [0.0, 0.0, 0.0, 1.0]
],
  "dcmmeta_shape": [82, 82, 56, 872],
  "dcmmeta_slice_dim": 2,
  "dcmmeta_version": 0.6,
  "global": {
    "const": {
      "AccessionNumber": "A003485",
      "AcquisitionMatrix": [82, 0, 0, 82],
      "AngioFlag": "N",
      "BitsAllocated": 16,
      "BitsStored": 16,
      "BodyPartExamined": "BRAIN",
      "Columns": 656,
      "EchoNumbers": 1,
      "EchoTime": 27.2,
      "EchoTrainLength": 82,
      "FlipAngle": 44.0,
      "HighBit": 15,
      "ImageOrientationPatient": [0.99887149179401, 0.04694899233709, 0.00717878817999, -0.0474550061423, 0.98039564577303, 0.19123911770692],
      "ImagePositionPatient": [-840.14748682674, -901.93016968004, -246.10441203926],
      "ImageType": [
        "ORIGINAL",
        "PRIMARY",
        "M",
        "MB",
        "ND",
        "NORM",
        "MOSAIC"
],
      "ImagedNucleus": "1H",
      "ImagingFrequency": 123.252346,
      "InPlanePhaseEncodingDirection": "COL",
      "MRAcquisitionType": "2D",
      "MagneticFieldStrength": 3.0,
      "Manufacturer": "SIEMENS",
      "ManufacturerModelName": "Prisma",
      "Modality": "MR",
      "NumberOfAverages": 1.0,
      "NumberOfPhaseEncodingSteps": 82,
      "PercentPhaseFieldOfView": 100.0,
      "PercentSampling": 100.0,
      "PerformedProcedureStepStartTime": "092023.974000",
      "PhotometricInterpretation": "MONOCHROME2",
      "PixelBandwidth": 3050.0,
      "PixelRepresentation": 0,
      "PixelSpacing": [2.6829268932343, 2.6829268932343],
      "ProtocolName": "func_run-05_task-social_acq-ap-mb8",
      "RepetitionTime": 460.0,
      "Rows": 656,
      "SAR": 0.07282006383573,
      "SamplesPerPixel": 1,
      "ScanOptions": "FS",
      "ScanningSequence": "EP",
      "SequenceName": "epfid2d1_82",
      "SequenceVariant": [
        "SK",
        "SS"
],
      "SeriesDescription": "func_run-05_task-social_acq-ap-mb8",
      "SeriesNumber": 22,
      "SeriesTime": "103520.915000",
      "SliceLocation": -70.58902825168,
      "SliceThickness": 2.7000000476837,
      "SmallestImagePixelValue": 0,
      "SoftwareVersions": "syngo MR E11",
      "SpacingBetweenSlices": 2.700000034862,
      "SpecificCharacterSet": "ISO_IR 100",
      "StudyID": "5",
      "StudyTime": "092023.896000",
      "TransmitCoilName": "Body",
      "VariableFlipAngleFlag": "N",
      "WindowCenterWidthExplanation": "Algo1",
      "dBdt": 0.0},
    "slices": {}
  },
  "time": {
    "samples": {
      "AcquisitionNumber": [1, 2, 3, 4, 5, 6, 7, 8, 9, 10, 11, 12, 13, 14, 15, 16, 17, 18, 19, 20, 21, 22, 23, 24, 25, 26, 27, 28, 29, 30, 31, 32, 33, 34, 35, 36, 37, 38, 39, 40, 41, 42, 43, 44, 45, 46, 47, 48, 49, 50, 51, 52, 53, 54, 55, 56, 57, 58, 59, 60, 61, 62, 63, 64, 65, 66, 67, 68, 69, 70, 71, 72, 73, 74, 75, 76, 77, 78, 79, 80, 81, 82, 83, 84, 85, 86, 87, 88, 89, 90, 91, 92, 93, 94, 95, 96, 97, 98, 99, 100, 101, 102, 103, 104, 105, 106, 107, 108, 109, 110, 111, 112, 113, 114, 115, 116, 117, 118, 119, 120, 121, 122, 123, 124, 125, 126, 127, 128, 129, 130, 131, 132, 133, 134, 135, 136, 137, 138, 139, 140, 141, 142, 143, 144, 145, 146, 147, 148, 149, 150, 151, 152, 153, 154, 155, 156, 157, 158, 159, 160, 161, 162, 163, 164, 165, 166, 167, 168, 169, 170, 171, 172, 173, 174, 175, 176, 177, 178, 179, 180, 181, 182, 183, 184, 185, 186, 187, 188, 189, 190, 191, 192, 193, 194, 195, 196, 197, 198, 199, 200, 201, 202, 203, 204, 205, 206, 207, 208, 209, 210, 211, 212, 213, 214, 215, 216, 217, 218, 219, 220, 221, 222, 223, 224, 225, 226, 227, 228, 229, 230, 231, 232, 233, 234, 235, 236, 237, 238, 239, 240, 241, 242, 243, 244, 245, 246, 247, 248, 249, 250, 251, 252, 253, 254, 255, 256, 257, 258, 259, 260, 261, 262, 263, 264, 265, 266, 267, 268, 269, 270, 271, 272, 273, 274, 275, 276, 277, 278, 279, 280, 281, 282, 283, 284, 285, 286, 287, 288, 289, 290, 291, 292, 293, 294, 295, 296, 297, 298, 299, 300, 301, 302, 303, 304, 305, 306, 307, 308, 309, 310, 311, 312, 313, 314, 315, 316, 317, 318, 319, 320, 321, 322, 323, 324, 325, 326, 327, 328, 329, 330, 331, 332, 333, 334, 335, 336, 337, 338, 339, 340, 341, 342, 343, 344, 345, 346, 347, 348, 349, 350, 351, 352, 353, 354, 355, 356, 357, 358, 359, 360, 361, 362, 363, 364, 365, 366, 367, 368, 369, 370, 371, 372, 373, 374, 375, 376, 377, 378, 379, 380, 381, 382, 383, 384, 385, 386, 387, 388, 389, 390, 391, 392, 393, 394, 395, 396, 397, 398, 399, 400, 401, 402, 403, 404, 405, 406, 407, 408, 409, 410, 411, 412, 413, 414, 415, 416, 417, 418, 419, 420, 421, 422, 423, 424, 425, 426, 427, 428, 429, 430, 431, 432, 433, 434, 435, 436, 437, 438, 439, 440, 441, 442, 443, 444, 445, 446, 447, 448, 449, 450, 451, 452, 453, 454, 455, 456, 457, 458, 459, 460, 461, 462, 463, 464, 465, 466, 467, 468, 469, 470, 471, 472, 473, 474, 475, 476, 477, 478, 479, 480, 481, 482, 483, 484, 485, 486, 487, 488, 489, 490, 491, 492, 493, 494, 495, 496, 497, 498, 499, 500, 501, 502, 503, 504, 505, 506, 507, 508, 509, 510, 511, 512, 513, 514, 515, 516, 517, 518, 519, 520, 521, 522, 523, 524, 525, 526, 527, 528, 529, 530, 531, 532, 533, 534, 535, 536, 537, 538, 539, 540, 541, 542, 543, 544, 545, 546, 547, 548, 549, 550, 551, 552, 553, 554, 555, 556, 557, 558, 559, 560, 561, 562, 563, 564, 565, 566, 567, 568, 569, 570, 571, 572, 573, 574, 575, 576, 577, 578, 579, 580, 581, 582, 583, 584, 585, 586, 587, 588, 589, 590, 591, 592, 593, 594, 595, 596, 597, 598, 599, 600, 601, 602, 603, 604, 605, 606, 607, 608, 609, 610, 611, 612, 613, 614, 615, 616, 617, 618, 619, 620, 621, 622, 623, 624, 625, 626, 627, 628, 629, 630, 631, 632, 633, 634, 635, 636, 637, 638, 639, 640, 641, 642, 643, 644, 645, 646, 647, 648, 649, 650, 651, 652, 653, 654, 655, 656, 657, 658, 659, 660, 661, 662, 663, 664, 665, 666, 667, 668, 669, 670, 671, 672, 673, 674, 675, 676, 677, 678, 679, 680, 681, 682, 683, 684, 685, 686, 687, 688, 689, 690, 691, 692, 693, 694, 695, 696, 697, 698, 699, 700, 701, 702, 703, 704, 705, 706, 707, 708, 709, 710, 711, 712, 713, 714, 715, 716, 717, 718, 719, 720, 721, 722, 723, 724, 725, 726, 727, 728, 729, 730, 731, 732, 733, 734, 735, 736, 737, 738, 739, 740, 741, 742, 743, 744, 745, 746, 747, 748, 749, 750, 751, 752, 753, 754, 755, 756, 757, 758, 759, 760, 761, 762, 763, 764, 765, 766, 767, 768, 769, 770, 771, 772, 773, 774, 775, 776, 777, 778, 779, 780, 781, 782, 783, 784, 785, 786, 787, 788, 789, 790, 791, 792, 793, 794, 795, 796, 797, 798, 799, 800, 801, 802, 803, 804, 805, 806, 807, 808, 809, 810, 811, 812, 813, 814, 815, 816, 817, 818, 819, 820, 821, 822, 823, 824, 825, 826, 827, 828, 829, 830, 831, 832, 833, 834, 835, 836, 837, 838, 839, 840, 841, 842, 843, 844, 845, 846, 847, 848, 849, 850, 851, 852, 853, 854, 855, 856, 857, 858, 859, 860, 861, 862, 863, 864, 865, 866, 867, 868, 869, 870, 871, 872],
      "AcquisitionTime": ["103506.415000", "103506.875000", "103507.335000", "103507.795000", "103508.255000", "103508.715000", "103509.175000", "103509.635000", "103510.095000", "103510.555000", "103511.015000", "103511.475000", "103511.935000", "103512.395000", "103512.855000", "103513.315000", "103513.775000", "103514.235000", "103514.695000", "103515.155000", "103515.615000", "103516.075000", "103516.535000", "103516.995000", "103517.455000", "103517.915000", "103518.375000", "103518.835000", "103519.295000", "103519.755000", "103520.215000", "103520.675000", "103521.135000", "103521.595000", "103522.055000", "103522.515000", "103522.975000", "103523.435000", "103523.895000", "103524.355000", "103524.815000", "103525.275000", "103525.735000", "103526.195000", "103526.655000", "103527.115000", "103527.575000", "103528.035000", "103528.495000", "103528.955000", "103529.415000", "103529.875000", "103530.335000", "103530.795000", "103531.255000", "103531.715000", "103532.175000", "103532.635000", "103533.095000", "103533.555000", "103534.015000", "103534.475000", "103534.935000", "103535.395000", "103535.855000", "103536.315000", "103536.775000", "103537.235000", "103537.695000", "103538.155000", "103538.615000", "103539.075000", "103539.535000", "103539.995000", "103540.455000", "103540.915000", "103541.375000", "103541.835000", "103542.295000", "103542.755000", "103543.215000", "103543.675000", "103544.135000", "103544.595000", "103545.055000", "103545.515000", "103545.975000", "103546.435000", "103546.895000", "103547.355000", "103547.815000", "103548.275000", "103548.735000", "103549.195000", "103549.655000", "103550.115000", "103550.575000", "103551.035000", "103551.495000", "103551.955000", "103552.415000", "103552.875000", "103553.335000", "103553.795000", "103554.255000", "103554.715000", "103555.175000", "103555.635000", "103556.095000", "103556.555000", "103557.015000", "103557.475000", "103557.935000", "103558.395000", "103558.855000", "103559.315000", "103559.775000", "103600.235000", "103600.695000", "103601.155000", "103601.615000", "103602.075000", "103602.535000", "103602.995000", "103603.455000", "103603.915000", "103604.375000", "103604.835000", "103605.295000", "103605.755000", "103606.215000", "103606.675000", "103607.135000", "103607.595000", "103608.055000", "103608.515000", "103608.975000", "103609.435000", "103609.895000", "103610.355000", "103610.815000", "103611.275000", "103611.735000", "103612.195000", "103612.655000", "103613.115000", "103613.575000", "103614.035000", "103614.495000", "103614.955000", "103615.415000", "103615.875000", "103616.335000", "103616.795000", "103617.255000", "103617.715000", "103618.175000", "103618.635000", "103619.095000", "103619.555000", "103620.015000", "103620.475000", "103620.935000", "103621.395000", "103621.855000", "103622.315000", "103622.775000", "103623.235000", "103623.695000", "103624.155000", "103624.615000", "103625.075000", "103625.535000", "103625.995000", "103626.455000", "103626.915000", "103627.375000", "103627.835000", "103628.295000", "103628.755000", "103629.215000", "103629.675000", "103630.135000", "103630.595000", "103631.055000", "103631.515000", "103631.975000", "103632.435000", "103632.895000", "103633.355000", "103633.815000", "103634.275000", "103634.735000", "103635.195000", "103635.655000", "103636.115000", "103636.575000", "103637.035000", "103637.495000", "103637.955000", "103638.415000", "103638.875000", "103639.335000", "103639.795000", "103640.255000", "103640.715000", "103641.175000", "103641.635000", "103642.095000", "103642.555000", "103643.015000", "103643.475000", "103643.935000", "103644.395000", "103644.855000", "103645.315000", "103645.775000", "103646.235000", "103646.695000", "103647.155000", "103647.615000", "103648.075000", "103648.535000", "103648.995000", "103649.455000", "103649.915000", "103650.375000", "103650.835000", "103651.295000", "103651.755000", "103652.215000", "103652.675000", "103653.135000", "103653.595000", "103654.055000", "103654.515000", "103654.975000", "103655.435000", "103655.895000", "103656.355000", "103656.815000", "103657.275000", "103657.735000", "103658.195000", "103658.655000", "103659.115000", "103659.575000", "103700.035000", "103700.495000", "103700.955000", "103701.415000", "103701.875000", "103702.335000", "103702.795000", "103703.255000", "103703.715000", "103704.175000", "103704.635000", "103705.095000", "103705.555000", "103706.015000", "103706.475000", "103706.935000", "103707.395000", "103707.855000", "103708.315000", "103708.775000", "103709.235000", "103709.695000", "103710.155000", "103710.615000", "103711.075000", "103711.535000", "103711.995000", "103712.455000", "103712.915000", "103713.375000", "103713.835000", "103714.295000", "103714.755000", "103715.215000", "103715.675000", "103716.135000", "103716.595000", "103717.055000", "103717.515000", "103717.975000", "103718.435000", "103718.895000", "103719.355000", "103719.815000", "103720.275000", "103720.735000", "103721.195000", "103721.655000", "103722.115000", "103722.575000", "103723.035000", "103723.495000", "103723.955000", "103724.415000", "103724.875000", "103725.335000", "103725.795000", "103726.255000", "103726.715000", "103727.175000", "103727.635000", "103728.095000", "103728.555000", "103729.015000", "103729.475000", "103729.935000", "103730.395000", "103730.855000", "103731.315000", "103731.775000", "103732.235000", "103732.695000", "103733.155000", "103733.615000", "103734.075000", "103734.535000", "103734.995000", "103735.455000", "103735.915000", "103736.375000", "103736.835000", "103737.295000", "103737.755000", "103738.215000", "103738.675000", "103739.135000", "103739.595000", "103740.055000", "103740.515000", "103740.975000", "103741.435000", "103741.895000", "103742.355000", "103742.815000", "103743.275000", "103743.735000", "103744.195000", "103744.655000", "103745.115000", "103745.575000", "103746.035000", "103746.495000", "103746.955000", "103747.415000", "103747.875000", "103748.335000", "103748.795000", "103749.255000", "103749.715000", "103750.175000", "103750.635000", "103751.095000", "103751.555000", "103752.015000", "103752.475000", "103752.935000", "103753.395000", "103753.855000", "103754.315000", "103754.775000", "103755.235000", "103755.695000", "103756.155000", "103756.615000", "103757.075000", "103757.535000", "103757.995000", "103758.455000", "103758.915000", "103759.375000", "103759.835000", "103800.295000", "103800.755000", "103801.215000", "103801.675000", "103802.135000", "103802.595000", "103803.055000", "103803.515000", "103803.975000", "103804.435000", "103804.895000", "103805.355000", "103805.815000", "103806.275000", "103806.735000", "103807.195000", "103807.655000", "103808.115000", "103808.575000", "103809.035000", "103809.495000", "103809.955000", "103810.415000", "103810.875000", "103811.335000", "103811.795000", "103812.255000", "103812.715000", "103813.175000", "103813.635000", "103814.095000", "103814.555000", "103815.015000", "103815.475000", "103815.935000", "103816.395000", "103816.855000", "103817.315000", "103817.775000", "103818.235000", "103818.695000", "103819.155000", "103819.615000", "103820.075000", "103820.535000", "103820.995000", "103821.455000", "103821.915000", "103822.375000", "103822.835000", "103823.295000", "103823.755000", "103824.215000", "103824.675000", "103825.135000", "103825.595000", "103826.055000", "103826.515000", "103826.975000", "103827.435000", "103827.895000", "103828.355000", "103828.815000", "103829.275000", "103829.735000", "103830.195000", "103830.655000", "103831.115000", "103831.575000", "103832.035000", "103832.495000", "103832.955000", "103833.415000", "103833.875000", "103834.335000", "103834.795000", "103835.255000", "103835.715000", "103836.175000", "103836.635000", "103837.095000", "103837.555000", "103838.015000", "103838.475000", "103838.935000", "103839.395000", "103839.855000", "103840.315000", "103840.775000", "103841.235000", "103841.695000", "103842.155000", "103842.615000", "103843.075000", "103843.535000", "103843.995000", "103844.455000", "103844.915000", "103845.375000", "103845.835000", "103846.295000", "103846.755000", "103847.215000", "103847.675000", "103848.135000", "103848.595000", "103849.055000", "103849.515000", "103849.975000", "103850.435000", "103850.895000", "103851.355000", "103851.815000", "103852.275000", "103852.735000", "103853.195000", "103853.655000", "103854.115000", "103854.575000", "103855.035000", "103855.495000", "103855.955000", "103856.415000", "103856.875000", "103857.335000", "103857.795000", "103858.255000", "103858.715000", "103859.175000", "103859.635000", "103900.095000", "103900.555000", "103901.015000", "103901.475000", "103901.935000", "103902.395000", "103902.855000", "103903.315000", "103903.775000", "103904.235000", "103904.695000", "103905.155000", "103905.615000", "103906.075000", "103906.535000", "103906.995000", "103907.455000", "103907.915000", "103908.375000", "103908.835000", "103909.295000", "103909.755000", "103910.215000", "103910.675000", "103911.135000", "103911.595000", "103912.055000", "103912.515000", "103912.975000", "103913.435000", "103913.895000", "103914.355000", "103914.815000", "103915.275000", "103915.735000", "103916.195000", "103916.655000", "103917.115000", "103917.575000", "103918.035000", "103918.495000", "103918.955000", "103919.415000", "103919.875000", "103920.335000", "103920.795000", "103921.255000", "103921.715000", "103922.175000", "103922.635000", "103923.095000", "103923.555000", "103924.015000", "103924.475000", "103924.935000", "103925.395000", "103925.855000", "103926.315000", "103926.775000", "103927.235000", "103927.695000", "103928.155000", "103928.615000", "103929.075000", "103929.535000", "103929.995000", "103930.455000", "103930.915000", "103931.375000", "103931.835000", "103932.295000", "103932.755000", "103933.215000", "103933.675000", "103934.135000", "103934.595000", "103935.055000", "103935.515000", "103935.975000", "103936.435000", "103936.895000", "103937.355000", "103937.815000", "103938.275000", "103938.735000", "103939.195000", "103939.655000", "103940.115000", "103940.575000", "103941.035000", "103941.495000", "103941.955000", "103942.415000", "103942.875000", "103943.335000", "103943.795000", "103944.255000", "103944.715000", "103945.175000", "103945.635000", "103946.095000", "103946.555000", "103947.015000", "103947.475000", "103947.935000", "103948.395000", "103948.855000", "103949.315000", "103949.775000", "103950.235000", "103950.695000", "103951.155000", "103951.615000", "103952.075000", "103952.535000", "103952.995000", "103953.455000", "103953.915000", "103954.375000", "103954.835000", "103955.295000", "103955.755000", "103956.215000", "103956.675000", "103957.135000", "103957.595000", "103958.055000", "103958.515000", "103958.975000", "103959.435000", "103959.895000", "104000.355000", "104000.815000", "104001.275000", "104001.735000", "104002.195000", "104002.655000", "104003.115000", "104003.575000", "104004.035000", "104004.495000", "104004.955000", "104005.415000", "104005.875000", "104006.335000", "104006.795000", "104007.255000", "104007.715000", "104008.175000", "104008.635000", "104009.095000", "104009.555000", "104010.015000", "104010.475000", "104010.935000", "104011.395000", "104011.855000", "104012.315000", "104012.775000", "104013.235000", "104013.695000", "104014.155000", "104014.615000", "104015.075000", "104015.535000", "104015.995000", "104016.455000", "104016.915000", "104017.375000", "104017.835000", "104018.295000", "104018.755000", "104019.215000", "104019.675000", "104020.135000", "104020.595000", "104021.055000", "104021.515000", "104021.975000", "104022.435000", "104022.895000", "104023.355000", "104023.815000", "104024.275000", "104024.735000", "104025.195000", "104025.655000", "104026.115000", "104026.575000", "104027.035000", "104027.495000", "104027.955000", "104028.415000", "104028.875000", "104029.335000", "104029.795000", "104030.255000", "104030.715000", "104031.175000", "104031.635000", "104032.095000", "104032.555000", "104033.015000", "104033.475000", "104033.935000", "104034.395000", "104034.855000", "104035.315000", "104035.775000", "104036.235000", "104036.695000", "104037.155000", "104037.615000", "104038.075000", "104038.535000", "104038.995000", "104039.455000", "104039.915000", "104040.375000", "104040.835000", "104041.295000", "104041.755000", "104042.215000", "104042.675000", "104043.135000", "104043.595000", "104044.055000", "104044.515000", "104044.975000", "104045.435000", "104045.895000", "104046.355000", "104046.815000", "104047.275000", "104047.735000", "104048.195000", "104048.655000", "104049.115000", "104049.575000", "104050.035000", "104050.495000", "104050.955000", "104051.415000", "104051.875000", "104052.335000", "104052.795000", "104053.255000", "104053.715000", "104054.175000", "104054.635000", "104055.095000", "104055.555000", "104056.015000", "104056.475000", "104056.935000", "104057.395000", "104057.855000", "104058.315000", "104058.775000", "104059.235000", "104059.695000", "104100.155000", "104100.615000", "104101.075000", "104101.535000", "104101.995000", "104102.455000", "104102.915000", "104103.375000", "104103.835000", "104104.295000", "104104.755000", "104105.215000", "104105.675000", "104106.135000", "104106.595000", "104107.055000", "104107.515000", "104107.975000", "104108.435000", "104108.895000", "104109.355000", "104109.815000", "104110.275000", "104110.735000", "104111.195000", "104111.655000", "104112.115000", "104112.575000", "104113.035000", "104113.495000", "104113.955000", "104114.415000", "104114.875000", "104115.335000", "104115.795000", "104116.255000", "104116.715000", "104117.175000", "104117.635000", "104118.095000", "104118.555000", "104119.015000", "104119.475000", "104119.935000", "104120.395000", "104120.855000", "104121.315000", "104121.775000", "104122.235000", "104122.695000", "104123.155000", "104123.615000", "104124.075000", "104124.535000", "104124.995000", "104125.455000", "104125.915000", "104126.375000", "104126.835000", "104127.295000", "104127.755000", "104128.215000", "104128.675000", "104129.135000", "104129.595000", "104130.055000", "104130.515000", "104130.975000", "104131.435000", "104131.895000", "104132.355000", "104132.815000", "104133.275000", "104133.735000", "104134.195000", "104134.655000", "104135.115000", "104135.575000", "104136.035000", "104136.495000", "104136.955000", "104137.415000", "104137.875000", "104138.335000", "104138.795000", "104139.255000", "104139.715000", "104140.175000", "104140.635000", "104141.095000", "104141.555000", "104142.015000", "104142.475000", "104142.935000", "104143.395000", "104143.855000", "104144.315000", "104144.775000", "104145.235000", "104145.695000", "104146.155000", "104146.615000", "104147.075000"],
