{
  "AcquisitionMatrixPE": 82,
  "AcquisitionNumber": 1,
  "AcquisitionTime": "10:42:8.405000",
  "BandwidthPerPixelPhaseEncode": 24.888,
  "BaseResolution": 82,
  "BodyPartExamined": "BRAIN",
  "ConsistencyInfo": "N4_VE11C_LATEST_20160120",
  "ConversionSoftware": "dcm2niix",
  "ConversionSoftwareVersion": "v1.0.20201102",
  "DerivedVendorReportedEchoSpacing": 0.00049,
  "DeviceSerialNumber": "66112",
  "DwellTime": 2e-06,
  "EchoTime": 0.0272,
  "EchoTrainLength": 82,
  "EffectiveEchoSpacing": 0.00049,
  "FlipAngle": 44,
  "ImageComments": "Unaliased MB8/PE3",
  "ImageOrientationPatientDICOM": [0.998872, 0.046949, 0.00717879, -0.047455, 0.980396, 0.191239],
  "ImageType": [
    "ORIGINAL",
    "PRIMARY",
    "M",
    "MB",
    "ND",
    "NORM",
    "MOSAIC"
],
  "ImagingFrequency": 123.252,
  "InPlanePhaseEncodingDirectionDICOM": "COL",
  "InstitutionAddress": "Maynard 3,Hanover,NH,US,03755",
  "InstitutionName": "Dartmouth College - PBS",
  "InstitutionalDepartmentName": "Department",
  "MRAcquisitionType": "2D",
  "MagneticFieldStrength": 3,
  "Manufacturer": "Siemens",
  "ManufacturersModelName": "Prisma",
  "Modality": "MR",
  "MultibandAccelerationFactor": 8,
  "PartialFourier": 1,
  "PatientPosition": "HFS",
  "PercentPhaseFOV": 100,
  "PercentSampling": 100,
  "PhaseEncodingDirection": "j-",
  "PhaseEncodingSteps": 82,
  "PhaseResolution": 1,
  "PixelBandwidth": 3050,
  "ProcedureStepDescription": "Wager_Wager^1076_spacetop",
  "ProtocolName": "func_run-06_task-social_acq-ap-mb8",
  "PulseSequenceDetails": "%CustomerSeq%\\cmrr_mbep2d_bold",
  "ReceiveCoilActiveElements": "HEA;HEP",
  "ReceiveCoilName": "Head_32",
  "ReconMatrixPE": 82,
  "RepetitionTime": 0.46,
  "SAR": 0.0728201,
  "ScanOptions": "FS",
  "ScanningSequence": "EP",
  "SequenceName": "epfid2d1_82",
  "SequenceVariant": "SK\\SS",
  "SeriesDescription": "func_run-06_task-social_acq-ap-mb8",
  "SeriesNumber": 24,
  "ShimSetting": [4160, -7725, -7492, 357, -8, -207, 47, 57],
  "SliceThickness": 2.7,
  "SliceTiming": [0, 0.25, 0.0625, 0.3125, 0.125, 0.3775, 0.1875, 0, 0.25, 0.0625, 0.3125, 0.125, 0.3775, 0.1875, 0, 0.25, 0.0625, 0.3125, 0.125, 0.3775, 0.1875, 0, 0.25, 0.0625, 0.3125, 0.125, 0.3775, 0.1875, 0, 0.25, 0.0625, 0.3125, 0.125, 0.3775, 0.1875, 0, 0.25, 0.0625, 0.3125, 0.125, 0.3775, 0.1875, 0, 0.25, 0.0625, 0.3125, 0.125, 0.3775, 0.1875, 0, 0.25, 0.0625, 0.3125, 0.125, 0.3775, 0.1875],
  "SoftwareVersions": "syngo MR E11",
  "SpacingBetweenSlices": 2.7,
  "StationName": "AWP66112",
  "TaskName": "social",
  "TotalReadoutTime": 0.03969,
  "TxRefAmp": 237.481,
  "WipMemBlock": "8b8614f6-e9b6-4810-a4e7-d59038151d0b||Sequence: R016 ve11c/master r/e634e98; Dec 19 2017 11:00:25 by eja",
  "dcmmeta_affine": [
    [-2.679899215698242, -0.12731830775737762, -0.0052391644567251205, 117.86956024169922],
    [-0.12596070766448975, 2.6303298473358154, 0.5166827440261841, -102.18193817138672],
    [0.019260164350271225, -0.5130805969238281, 2.6500966548919678, -51.76309585571289],
    [0.0, 0.0, 0.0, 1.0]
],
  "dcmmeta_reorient_transform": [
    [0.0, -1.0, 0.0, 81.0],
    [1.0, 0.0, 0.0, 0.0],
    [0.0, 0.0, 1.0, 0.0],
    [0.0, 0.0, 0.0, 1.0]
],
  "dcmmeta_shape": [82, 82, 56, 872],
  "dcmmeta_slice_dim": 2,
  "dcmmeta_version": 0.6,
  "global": {
    "const": {
      "AccessionNumber": "A003485",
      "AcquisitionMatrix": [82, 0, 0, 82],
      "AngioFlag": "N",
      "BitsAllocated": 16,
      "BitsStored": 16,
      "BodyPartExamined": "BRAIN",
      "Columns": 656,
      "EchoNumbers": 1,
      "EchoTime": 27.2,
      "EchoTrainLength": 82,
      "FlipAngle": 44.0,
      "HighBit": 15,
      "ImageOrientationPatient": [0.99887149179401, 0.04694899233709, 0.00717878817999, -0.0474550061423, 0.98039564577303, 0.19123911770692],
      "ImagePositionPatient": [-840.14748682674, -901.93016968004, -246.10441203926],
      "ImageType": [
        "ORIGINAL",
        "PRIMARY",
        "M",
        "MB",
        "ND",
        "NORM",
        "MOSAIC"
],
      "ImagedNucleus": "1H",
      "ImagingFrequency": 123.252345,
      "InPlanePhaseEncodingDirection": "COL",
      "MRAcquisitionType": "2D",
      "MagneticFieldStrength": 3.0,
      "Manufacturer": "SIEMENS",
      "ManufacturerModelName": "Prisma",
      "Modality": "MR",
      "NumberOfAverages": 1.0,
      "NumberOfPhaseEncodingSteps": 82,
      "PercentPhaseFieldOfView": 100.0,
      "PercentSampling": 100.0,
      "PerformedProcedureStepStartTime": "092023.974000",
      "PhotometricInterpretation": "MONOCHROME2",
      "PixelBandwidth": 3050.0,
      "PixelRepresentation": 0,
      "PixelSpacing": [2.6829268932343, 2.6829268932343],
      "ProtocolName": "func_run-06_task-social_acq-ap-mb8",
      "RepetitionTime": 460.0,
      "Rows": 656,
      "SAR": 0.07282006383573,
      "SamplesPerPixel": 1,
      "ScanOptions": "FS",
      "ScanningSequence": "EP",
      "SequenceName": "epfid2d1_82",
      "SequenceVariant": [
        "SK",
        "SS"
],
      "SeriesDescription": "func_run-06_task-social_acq-ap-mb8",
      "SeriesNumber": 24,
      "SeriesTime": "104220.772000",
      "SliceLocation": -70.58902825168,
      "SliceThickness": 2.7000000476837,
      "SmallestImagePixelValue": 0,
      "SoftwareVersions": "syngo MR E11",
      "SpacingBetweenSlices": 2.700000034862,
      "SpecificCharacterSet": "ISO_IR 100",
      "StudyID": "5",
      "StudyTime": "092023.896000",
      "TransmitCoilName": "Body",
      "VariableFlipAngleFlag": "N",
      "WindowCenterWidthExplanation": "Algo1",
      "dBdt": 0.0},
    "slices": {}
  },
  "time": {
    "samples": {
      "AcquisitionNumber": [1, 2, 3, 4, 5, 6, 7, 8, 9, 10, 11, 12, 13, 14, 15, 16, 17, 18, 19, 20, 21, 22, 23, 24, 25, 26, 27, 28, 29, 30, 31, 32, 33, 34, 35, 36, 37, 38, 39, 40, 41, 42, 43, 44, 45, 46, 47, 48, 49, 50, 51, 52, 53, 54, 55, 56, 57, 58, 59, 60, 61, 62, 63, 64, 65, 66, 67, 68, 69, 70, 71, 72, 73, 74, 75, 76, 77, 78, 79, 80, 81, 82, 83, 84, 85, 86, 87, 88, 89, 90, 91, 92, 93, 94, 95, 96, 97, 98, 99, 100, 101, 102, 103, 104, 105, 106, 107, 108, 109, 110, 111, 112, 113, 114, 115, 116, 117, 118, 119, 120, 121, 122, 123, 124, 125, 126, 127, 128, 129, 130, 131, 132, 133, 134, 135, 136, 137, 138, 139, 140, 141, 142, 143, 144, 145, 146, 147, 148, 149, 150, 151, 152, 153, 154, 155, 156, 157, 158, 159, 160, 161, 162, 163, 164, 165, 166, 167, 168, 169, 170, 171, 172, 173, 174, 175, 176, 177, 178, 179, 180, 181, 182, 183, 184, 185, 186, 187, 188, 189, 190, 191, 192, 193, 194, 195, 196, 197, 198, 199, 200, 201, 202, 203, 204, 205, 206, 207, 208, 209, 210, 211, 212, 213, 214, 215, 216, 217, 218, 219, 220, 221, 222, 223, 224, 225, 226, 227, 228, 229, 230, 231, 232, 233, 234, 235, 236, 237, 238, 239, 240, 241, 242, 243, 244, 245, 246, 247, 248, 249, 250, 251, 252, 253, 254, 255, 256, 257, 258, 259, 260, 261, 262, 263, 264, 265, 266, 267, 268, 269, 270, 271, 272, 273, 274, 275, 276, 277, 278, 279, 280, 281, 282, 283, 284, 285, 286, 287, 288, 289, 290, 291, 292, 293, 294, 295, 296, 297, 298, 299, 300, 301, 302, 303, 304, 305, 306, 307, 308, 309, 310, 311, 312, 313, 314, 315, 316, 317, 318, 319, 320, 321, 322, 323, 324, 325, 326, 327, 328, 329, 330, 331, 332, 333, 334, 335, 336, 337, 338, 339, 340, 341, 342, 343, 344, 345, 346, 347, 348, 349, 350, 351, 352, 353, 354, 355, 356, 357, 358, 359, 360, 361, 362, 363, 364, 365, 366, 367, 368, 369, 370, 371, 372, 373, 374, 375, 376, 377, 378, 379, 380, 381, 382, 383, 384, 385, 386, 387, 388, 389, 390, 391, 392, 393, 394, 395, 396, 397, 398, 399, 400, 401, 402, 403, 404, 405, 406, 407, 408, 409, 410, 411, 412, 413, 414, 415, 416, 417, 418, 419, 420, 421, 422, 423, 424, 425, 426, 427, 428, 429, 430, 431, 432, 433, 434, 435, 436, 437, 438, 439, 440, 441, 442, 443, 444, 445, 446, 447, 448, 449, 450, 451, 452, 453, 454, 455, 456, 457, 458, 459, 460, 461, 462, 463, 464, 465, 466, 467, 468, 469, 470, 471, 472, 473, 474, 475, 476, 477, 478, 479, 480, 481, 482, 483, 484, 485, 486, 487, 488, 489, 490, 491, 492, 493, 494, 495, 496, 497, 498, 499, 500, 501, 502, 503, 504, 505, 506, 507, 508, 509, 510, 511, 512, 513, 514, 515, 516, 517, 518, 519, 520, 521, 522, 523, 524, 525, 526, 527, 528, 529, 530, 531, 532, 533, 534, 535, 536, 537, 538, 539, 540, 541, 542, 543, 544, 545, 546, 547, 548, 549, 550, 551, 552, 553, 554, 555, 556, 557, 558, 559, 560, 561, 562, 563, 564, 565, 566, 567, 568, 569, 570, 571, 572, 573, 574, 575, 576, 577, 578, 579, 580, 581, 582, 583, 584, 585, 586, 587, 588, 589, 590, 591, 592, 593, 594, 595, 596, 597, 598, 599, 600, 601, 602, 603, 604, 605, 606, 607, 608, 609, 610, 611, 612, 613, 614, 615, 616, 617, 618, 619, 620, 621, 622, 623, 624, 625, 626, 627, 628, 629, 630, 631, 632, 633, 634, 635, 636, 637, 638, 639, 640, 641, 642, 643, 644, 645, 646, 647, 648, 649, 650, 651, 652, 653, 654, 655, 656, 657, 658, 659, 660, 661, 662, 663, 664, 665, 666, 667, 668, 669, 670, 671, 672, 673, 674, 675, 676, 677, 678, 679, 680, 681, 682, 683, 684, 685, 686, 687, 688, 689, 690, 691, 692, 693, 694, 695, 696, 697, 698, 699, 700, 701, 702, 703, 704, 705, 706, 707, 708, 709, 710, 711, 712, 713, 714, 715, 716, 717, 718, 719, 720, 721, 722, 723, 724, 725, 726, 727, 728, 729, 730, 731, 732, 733, 734, 735, 736, 737, 738, 739, 740, 741, 742, 743, 744, 745, 746, 747, 748, 749, 750, 751, 752, 753, 754, 755, 756, 757, 758, 759, 760, 761, 762, 763, 764, 765, 766, 767, 768, 769, 770, 771, 772, 773, 774, 775, 776, 777, 778, 779, 780, 781, 782, 783, 784, 785, 786, 787, 788, 789, 790, 791, 792, 793, 794, 795, 796, 797, 798, 799, 800, 801, 802, 803, 804, 805, 806, 807, 808, 809, 810, 811, 812, 813, 814, 815, 816, 817, 818, 819, 820, 821, 822, 823, 824, 825, 826, 827, 828, 829, 830, 831, 832, 833, 834, 835, 836, 837, 838, 839, 840, 841, 842, 843, 844, 845, 846, 847, 848, 849, 850, 851, 852, 853, 854, 855, 856, 857, 858, 859, 860, 861, 862, 863, 864, 865, 866, 867, 868, 869, 870, 871, 872],
      "AcquisitionTime": ["104208.405000", "104208.865000", "104209.325000", "104209.785000", "104210.245000", "104210.705000", "104211.165000", "104211.625000", "104212.085000", "104212.545000", "104213.005000", "104213.465000", "104213.925000", "104214.385000", "104214.845000", "104215.305000", "104215.765000", "104216.225000", "104216.685000", "104217.145000", "104217.605000", "104218.065000", "104218.525000", "104218.985000", "104219.445000", "104219.905000", "104220.365000", "104220.825000", "104221.285000", "104221.745000", "104222.205000", "104222.665000", "104223.125000", "104223.585000", "104224.045000", "104224.505000", "104224.965000", "104225.425000", "104225.885000", "104226.345000", "104226.805000", "104227.265000", "104227.725000", "104228.185000", "104228.645000", "104229.105000", "104229.565000", "104230.025000", "104230.485000", "104230.945000", "104231.405000", "104231.865000", "104232.325000", "104232.785000", "104233.245000", "104233.705000", "104234.165000", "104234.625000", "104235.085000", "104235.545000", "104236.005000", "104236.465000", "104236.925000", "104237.385000", "104237.845000", "104238.305000", "104238.765000", "104239.225000", "104239.685000", "104240.145000", "104240.605000", "104241.065000", "104241.525000", "104241.985000", "104242.445000", "104242.905000", "104243.365000", "104243.825000", "104244.285000", "104244.745000", "104245.205000", "104245.665000", "104246.125000", "104246.585000", "104247.045000", "104247.505000", "104247.965000", "104248.425000", "104248.885000", "104249.345000", "104249.805000", "104250.265000", "104250.725000", "104251.185000", "104251.645000", "104252.105000", "104252.565000", "104253.025000", "104253.485000", "104253.945000", "104254.405000", "104254.865000", "104255.325000", "104255.785000", "104256.245000", "104256.705000", "104257.165000", "104257.625000", "104258.085000", "104258.545000", "104259.005000", "104259.465000", "104259.925000", "104300.385000", "104300.845000", "104301.305000", "104301.765000", "104302.225000", "104302.685000", "104303.145000", "104303.605000", "104304.065000", "104304.525000", "104304.985000", "104305.445000", "104305.905000", "104306.365000", "104306.825000", "104307.285000", "104307.745000", "104308.205000", "104308.665000", "104309.125000", "104309.585000", "104310.045000", "104310.505000", "104310.965000", "104311.425000", "104311.885000", "104312.345000", "104312.805000", "104313.265000", "104313.725000", "104314.185000", "104314.645000", "104315.105000", "104315.565000", "104316.025000", "104316.485000", "104316.945000", "104317.405000", "104317.865000", "104318.325000", "104318.785000", "104319.245000", "104319.705000", "104320.165000", "104320.625000", "104321.085000", "104321.545000", "104322.005000", "104322.465000", "104322.925000", "104323.385000", "104323.845000", "104324.305000", "104324.765000", "104325.225000", "104325.685000", "104326.145000", "104326.605000", "104327.065000", "104327.525000", "104327.985000", "104328.445000", "104328.905000", "104329.365000", "104329.825000", "104330.285000", "104330.745000", "104331.205000", "104331.665000", "104332.125000", "104332.585000", "104333.045000", "104333.505000", "104333.965000", "104334.425000", "104334.885000", "104335.345000", "104335.805000", "104336.265000", "104336.725000", "104337.185000", "104337.645000", "104338.105000", "104338.565000", "104339.025000", "104339.485000", "104339.945000", "104340.405000", "104340.865000", "104341.325000", "104341.785000", "104342.245000", "104342.705000", "104343.165000", "104343.625000", "104344.085000", "104344.545000", "104345.005000", "104345.465000", "104345.925000", "104346.385000", "104346.845000", "104347.305000", "104347.765000", "104348.225000", "104348.685000", "104349.145000", "104349.605000", "104350.065000", "104350.525000", "104350.985000", "104351.445000", "104351.905000", "104352.365000", "104352.825000", "104353.285000", "104353.745000", "104354.205000", "104354.665000", "104355.125000", "104355.585000", "104356.045000", "104356.505000", "104356.965000", "104357.425000", "104357.885000", "104358.345000", "104358.805000", "104359.265000", "104359.725000", "104400.185000", "104400.645000", "104401.105000", "104401.565000", "104402.025000", "104402.485000", "104402.945000", "104403.405000", "104403.865000", "104404.325000", "104404.785000", "104405.245000", "104405.705000", "104406.165000", "104406.625000", "104407.085000", "104407.545000", "104408.005000", "104408.465000", "104408.925000", "104409.385000", "104409.845000", "104410.305000", "104410.765000", "104411.225000", "104411.685000", "104412.145000", "104412.605000", "104413.065000", "104413.525000", "104413.985000", "104414.445000", "104414.905000", "104415.365000", "104415.825000", "104416.285000", "104416.745000", "104417.205000", "104417.665000", "104418.125000", "104418.585000", "104419.045000", "104419.505000", "104419.965000", "104420.425000", "104420.885000", "104421.345000", "104421.805000", "104422.265000", "104422.725000", "104423.185000", "104423.645000", "104424.105000", "104424.565000", "104425.025000", "104425.485000", "104425.945000", "104426.405000", "104426.865000", "104427.325000", "104427.785000", "104428.245000", "104428.705000", "104429.165000", "104429.625000", "104430.085000", "104430.545000", "104431.005000", "104431.465000", "104431.925000", "104432.385000", "104432.845000", "104433.305000", "104433.765000", "104434.225000", "104434.685000", "104435.145000", "104435.605000", "104436.065000", "104436.525000", "104436.985000", "104437.445000", "104437.905000", "104438.365000", "104438.825000", "104439.285000", "104439.745000", "104440.205000", "104440.665000", "104441.125000", "104441.585000", "104442.045000", "104442.505000", "104442.965000", "104443.425000", "104443.885000", "104444.345000", "104444.805000", "104445.265000", "104445.725000", "104446.185000", "104446.645000", "104447.105000", "104447.565000", "104448.025000", "104448.485000", "104448.945000", "104449.405000", "104449.865000", "104450.325000", "104450.785000", "104451.245000", "104451.705000", "104452.165000", "104452.625000", "104453.085000", "104453.545000", "104454.005000", "104454.465000", "104454.925000", "104455.385000", "104455.845000", "104456.305000", "104456.765000", "104457.225000", "104457.685000", "104458.145000", "104458.605000", "104459.065000", "104459.525000", "104459.985000", "104500.445000", "104500.905000", "104501.365000", "104501.825000", "104502.285000", "104502.745000", "104503.205000", "104503.665000", "104504.125000", "104504.585000", "104505.045000", "104505.505000", "104505.965000", "104506.425000", "104506.885000", "104507.345000", "104507.805000", "104508.265000", "104508.725000", "104509.185000", "104509.645000", "104510.105000", "104510.565000", "104511.025000", "104511.485000", "104511.945000", "104512.405000", "104512.865000", "104513.325000", "104513.785000", "104514.245000", "104514.705000", "104515.165000", "104515.625000", "104516.085000", "104516.545000", "104517.005000", "104517.465000", "104517.925000", "104518.385000", "104518.845000", "104519.305000", "104519.765000", "104520.225000", "104520.685000", "104521.145000", "104521.605000", "104522.065000", "104522.525000", "104522.985000", "104523.445000", "104523.905000", "104524.365000", "104524.825000", "104525.285000", "104525.745000", "104526.205000", "104526.665000", "104527.125000", "104527.585000", "104528.045000", "104528.505000", "104528.965000", "104529.425000", "104529.885000", "104530.345000", "104530.805000", "104531.265000", "104531.725000", "104532.185000", "104532.645000", "104533.105000", "104533.565000", "104534.025000", "104534.485000", "104534.945000", "104535.405000", "104535.865000", "104536.325000", "104536.785000", "104537.245000", "104537.705000", "104538.165000", "104538.625000", "104539.085000", "104539.545000", "104540.005000", "104540.465000", "104540.925000", "104541.385000", "104541.845000", "104542.305000", "104542.765000", "104543.225000", "104543.685000", "104544.145000", "104544.605000", "104545.065000", "104545.525000", "104545.985000", "104546.445000", "104546.905000", "104547.365000", "104547.825000", "104548.285000", "104548.745000", "104549.205000", "104549.665000", "104550.125000", "104550.585000", "104551.045000", "104551.505000", "104551.965000", "104552.425000", "104552.885000", "104553.345000", "104553.805000", "104554.265000", "104554.725000", "104555.185000", "104555.645000", "104556.105000", "104556.565000", "104557.025000", "104557.485000", "104557.945000", "104558.405000", "104558.865000", "104559.325000", "104559.785000", "104600.245000", "104600.705000", "104601.165000", "104601.625000", "104602.085000", "104602.545000", "104603.005000", "104603.465000", "104603.925000", "104604.385000", "104604.845000", "104605.305000", "104605.765000", "104606.225000", "104606.685000", "104607.145000", "104607.605000", "104608.065000", "104608.525000", "104608.985000", "104609.445000", "104609.905000", "104610.365000", "104610.825000", "104611.285000", "104611.745000", "104612.205000", "104612.665000", "104613.125000", "104613.585000", "104614.045000", "104614.505000", "104614.965000", "104615.425000", "104615.885000", "104616.345000", "104616.805000", "104617.265000", "104617.725000", "104618.185000", "104618.645000", "104619.105000", "104619.565000", "104620.025000", "104620.485000", "104620.945000", "104621.405000", "104621.865000", "104622.325000", "104622.785000", "104623.245000", "104623.705000", "104624.165000", "104624.625000", "104625.085000", "104625.545000", "104626.005000", "104626.465000", "104626.925000", "104627.385000", "104627.845000", "104628.305000", "104628.765000", "104629.225000", "104629.685000", "104630.145000", "104630.605000", "104631.065000", "104631.525000", "104631.985000", "104632.445000", "104632.905000", "104633.365000", "104633.825000", "104634.285000", "104634.745000", "104635.205000", "104635.665000", "104636.125000", "104636.585000", "104637.045000", "104637.505000", "104637.965000", "104638.425000", "104638.885000", "104639.345000", "104639.805000", "104640.265000", "104640.725000", "104641.185000", "104641.645000", "104642.105000", "104642.565000", "104643.025000", "104643.485000", "104643.945000", "104644.405000", "104644.865000", "104645.325000", "104645.785000", "104646.245000", "104646.705000", "104647.165000", "104647.625000", "104648.085000", "104648.545000", "104649.005000", "104649.465000", "104649.925000", "104650.385000", "104650.845000", "104651.305000", "104651.765000", "104652.225000", "104652.685000", "104653.145000", "104653.605000", "104654.065000", "104654.525000", "104654.985000", "104655.445000", "104655.905000", "104656.365000", "104656.825000", "104657.285000", "104657.745000", "104658.205000", "104658.665000", "104659.125000", "104659.585000", "104700.045000", "104700.505000", "104700.965000", "104701.425000", "104701.885000", "104702.345000", "104702.805000", "104703.265000", "104703.725000", "104704.185000", "104704.645000", "104705.105000", "104705.565000", "104706.025000", "104706.485000", "104706.945000", "104707.405000", "104707.865000", "104708.325000", "104708.785000", "104709.245000", "104709.705000", "104710.165000", "104710.625000", "104711.085000", "104711.545000", "104712.005000", "104712.465000", "104712.925000", "104713.385000", "104713.845000", "104714.305000", "104714.765000", "104715.225000", "104715.685000", "104716.145000", "104716.605000", "104717.065000", "104717.525000", "104717.985000", "104718.445000", "104718.905000", "104719.365000", "104719.825000", "104720.285000", "104720.745000", "104721.205000", "104721.665000", "104722.125000", "104722.585000", "104723.045000", "104723.505000", "104723.965000", "104724.425000", "104724.885000", "104725.345000", "104725.805000", "104726.265000", "104726.725000", "104727.185000", "104727.645000", "104728.105000", "104728.565000", "104729.025000", "104729.485000", "104729.945000", "104730.405000", "104730.865000", "104731.325000", "104731.785000", "104732.245000", "104732.705000", "104733.165000", "104733.625000", "104734.085000", "104734.545000", "104735.005000", "104735.465000", "104735.925000", "104736.385000", "104736.845000", "104737.305000", "104737.765000", "104738.225000", "104738.685000", "104739.145000", "104739.605000", "104740.065000", "104740.525000", "104740.985000", "104741.445000", "104741.905000", "104742.365000", "104742.825000", "104743.285000", "104743.745000", "104744.205000", "104744.665000", "104745.125000", "104745.585000", "104746.045000", "104746.505000", "104746.965000", "104747.425000", "104747.885000", "104748.345000", "104748.805000", "104749.265000", "104749.725000", "104750.185000", "104750.645000", "104751.105000", "104751.565000", "104752.025000", "104752.485000", "104752.945000", "104753.405000", "104753.865000", "104754.325000", "104754.785000", "104755.245000", "104755.705000", "104756.165000", "104756.625000", "104757.085000", "104757.545000", "104758.005000", "104758.465000", "104758.925000", "104759.385000", "104759.845000", "104800.305000", "104800.765000", "104801.225000", "104801.685000", "104802.145000", "104802.605000", "104803.065000", "104803.525000", "104803.985000", "104804.445000", "104804.905000", "104805.365000", "104805.825000", "104806.285000", "104806.745000", "104807.205000", "104807.665000", "104808.125000", "104808.585000", "104809.045000", "104809.505000", "104809.965000", "104810.425000", "104810.885000", "104811.345000", "104811.805000", "104812.265000", "104812.725000", "104813.185000", "104813.645000", "104814.105000", "104814.565000", "104815.025000", "104815.485000", "104815.945000", "104816.405000", "104816.865000", "104817.325000", "104817.785000", "104818.245000", "104818.705000", "104819.165000", "104819.625000", "104820.085000", "104820.545000", "104821.005000", "104821.465000", "104821.925000", "104822.385000", "104822.845000", "104823.305000", "104823.765000", "104824.225000", "104824.685000", "104825.145000", "104825.605000", "104826.065000", "104826.525000", "104826.985000", "104827.445000", "104827.905000", "104828.365000", "104828.825000", "104829.285000", "104829.745000", "104830.205000", "104830.665000", "104831.125000", "104831.585000", "104832.045000", "104832.505000", "104832.965000", "104833.425000", "104833.885000", "104834.345000", "104834.805000", "104835.265000", "104835.725000", "104836.185000", "104836.645000", "104837.105000", "104837.565000", "104838.025000", "104838.485000", "104838.945000", "104839.405000", "104839.865000", "104840.325000", "104840.785000", "104841.245000", "104841.705000", "104842.165000", "104842.625000", "104843.085000", "104843.545000", "104844.005000", "104844.465000", "104844.925000", "104845.385000", "104845.845000", "104846.305000", "104846.765000", "104847.225000", "104847.685000", "104848.145000", "104848.605000", "104849.065000"],
