{
  "AcquisitionMatrixPE": 82,
  "AcquisitionNumber": 1,
  "AcquisitionTime": "10:08:19.542500",
  "BandwidthPerPixelPhaseEncode": 24.888,
  "BaseResolution": 82,
  "BodyPartExamined": "BRAIN",
  "ConsistencyInfo": "N4_VE11C_LATEST_20160120",
  "ConversionSoftware": "dcm2niix",
  "ConversionSoftwareVersion": "v1.0.20201102",
  "DerivedVendorReportedEchoSpacing": 0.00049,
  "DeviceSerialNumber": "66112",
  "DwellTime": 2e-06,
  "EchoTime": 0.0272,
  "EchoTrainLength": 82,
  "EffectiveEchoSpacing": 0.00049,
  "FlipAngle": 44,
  "ImageComments": "Unaliased MB8/PE3",
  "ImageOrientationPatientDICOM": [0.998872, 0.046949, 0.00717879, -0.047455, 0.980396, 0.191239],
  "ImageType": [
    "ORIGINAL",
    "PRIMARY",
    "M",
    "MB",
    "ND",
    "NORM",
    "MOSAIC"
],
  "ImagingFrequency": 123.252,
  "InPlanePhaseEncodingDirectionDICOM": "COL",
  "InstitutionAddress": "Maynard 3,Hanover,NH,US,03755",
  "InstitutionName": "Dartmouth College - PBS",
  "InstitutionalDepartmentName": "Department",
  "MRAcquisitionType": "2D",
  "MagneticFieldStrength": 3,
  "Manufacturer": "Siemens",
  "ManufacturersModelName": "Prisma",
  "Modality": "MR",
  "MultibandAccelerationFactor": 8,
  "PartialFourier": 1,
  "PatientPosition": "HFS",
  "PercentPhaseFOV": 100,
  "PercentSampling": 100,
  "PhaseEncodingDirection": "j-",
  "PhaseEncodingSteps": 82,
  "PhaseResolution": 1,
  "PixelBandwidth": 3050,
  "ProcedureStepDescription": "Wager_Wager^1076_spacetop",
  "ProtocolName": "func_run-02_task-social_acq-ap-mb8",
  "PulseSequenceDetails": "%CustomerSeq%\\cmrr_mbep2d_bold",
  "ReceiveCoilActiveElements": "HEA;HEP",
  "ReceiveCoilName": "Head_32",
  "ReconMatrixPE": 82,
  "RepetitionTime": 0.46,
  "SAR": 0.0728201,
  "ScanOptions": "FS",
  "ScanningSequence": "EP",
  "SequenceName": "epfid2d1_82",
  "SequenceVariant": "SK\\SS",
  "SeriesDescription": "func_run-02_task-social_acq-ap-mb8",
  "SeriesNumber": 14,
  "ShimSetting": [4160, -7725, -7492, 357, -8, -207, 47, 57],
  "SliceThickness": 2.7,
  "SliceTiming": [0, 0.25, 0.0625, 0.3125, 0.125, 0.375, 0.1875, 0, 0.25, 0.0625, 0.3125, 0.125, 0.375, 0.1875, 0, 0.25, 0.0625, 0.3125, 0.125, 0.375, 0.1875, 0, 0.25, 0.0625, 0.3125, 0.125, 0.375, 0.1875, 0, 0.25, 0.0625, 0.3125, 0.125, 0.375, 0.1875, 0, 0.25, 0.0625, 0.3125, 0.125, 0.375, 0.1875, 0, 0.25, 0.0625, 0.3125, 0.125, 0.375, 0.1875, 0, 0.25, 0.0625, 0.3125, 0.125, 0.375, 0.1875],
  "SoftwareVersions": "syngo MR E11",
  "SpacingBetweenSlices": 2.7,
  "StationName": "AWP66112",
  "TaskName": "social",
  "TotalReadoutTime": 0.03969,
  "TxRefAmp": 237.481,
  "WipMemBlock": "e4c47ab2-a3e2-4b01-9720-7fb34caa467e||Sequence: R016 ve11c/master r/e634e98; Dec 19 2017 11:00:25 by eja",
  "dcmmeta_affine": [
    [-2.679899215698242, -0.12731830775737762, -0.0052391644567251205, 117.86956024169922],
    [-0.12596070766448975, 2.6303298473358154, 0.5166827440261841, -102.18193817138672],
    [0.019260164350271225, -0.5130805969238281, 2.6500966548919678, -51.76309585571289],
    [0.0, 0.0, 0.0, 1.0]
],
  "dcmmeta_reorient_transform": [
    [0.0, -1.0, 0.0, 81.0],
    [1.0, 0.0, 0.0, 0.0],
    [0.0, 0.0, 1.0, 0.0],
    [0.0, 0.0, 0.0, 1.0]
],
  "dcmmeta_shape": [82, 82, 56, 872],
  "dcmmeta_slice_dim": 2,
  "dcmmeta_version": 0.6,
  "global": {
    "const": {
      "AccessionNumber": "A003485",
      "AcquisitionMatrix": [82, 0, 0, 82],
      "AngioFlag": "N",
      "BitsAllocated": 16,
      "BitsStored": 16,
      "BodyPartExamined": "BRAIN",
      "Columns": 656,
      "EchoNumbers": 1,
      "EchoTime": 27.2,
      "EchoTrainLength": 82,
      "FlipAngle": 44.0,
      "HighBit": 15,
      "ImageOrientationPatient": [0.99887149179401, 0.04694899233709, 0.00717878817999, -0.0474550061423, 0.98039564577303, 0.19123911770692],
      "ImagePositionPatient": [-840.14748682674, -901.93016968004, -246.10441203926],
      "ImageType": [
        "ORIGINAL",
        "PRIMARY",
        "M",
        "MB",
        "ND",
        "NORM",
        "MOSAIC"
],
      "ImagedNucleus": "1H",
      "ImagingFrequency": 123.25234,
      "InPlanePhaseEncodingDirection": "COL",
      "MRAcquisitionType": "2D",
      "MagneticFieldStrength": 3.0,
      "Manufacturer": "SIEMENS",
      "ManufacturerModelName": "Prisma",
      "Modality": "MR",
      "NumberOfAverages": 1.0,
      "NumberOfPhaseEncodingSteps": 82,
      "PercentPhaseFieldOfView": 100.0,
      "PercentSampling": 100.0,
      "PerformedProcedureStepStartTime": "092023.974000",
      "PhotometricInterpretation": "MONOCHROME2",
      "PixelBandwidth": 3050.0,
      "PixelRepresentation": 0,
      "PixelSpacing": [2.6829268932343, 2.6829268932343],
      "ProtocolName": "func_run-02_task-social_acq-ap-mb8",
      "RepetitionTime": 460.0,
      "Rows": 656,
      "SAR": 0.07282006383573,
      "SamplesPerPixel": 1,
      "ScanOptions": "FS",
      "ScanningSequence": "EP",
      "SequenceName": "epfid2d1_82",
      "SequenceVariant": [
        "SK",
        "SS"
],
      "SeriesDescription": "func_run-02_task-social_acq-ap-mb8",
      "SeriesNumber": 14,
      "SeriesTime": "100840.841000",
      "SliceLocation": -70.58902825168,
      "SliceThickness": 2.7000000476837,
      "SmallestImagePixelValue": 0,
      "SoftwareVersions": "syngo MR E11",
      "SpacingBetweenSlices": 2.700000034862,
      "SpecificCharacterSet": "ISO_IR 100",
      "StudyID": "5",
      "StudyTime": "092023.896000",
      "TransmitCoilName": "Body",
      "VariableFlipAngleFlag": "N",
      "WindowCenterWidthExplanation": "Algo1",
      "dBdt": 0.0},
    "slices": {}
  },
  "time": {
    "samples": {
      "AcquisitionNumber": [1, 2, 3, 4, 5, 6, 7, 8, 9, 10, 11, 12, 13, 14, 15, 16, 17, 18, 19, 20, 21, 22, 23, 24, 25, 26, 27, 28, 29, 30, 31, 32, 33, 34, 35, 36, 37, 38, 39, 40, 41, 42, 43, 44, 45, 46, 47, 48, 49, 50, 51, 52, 53, 54, 55, 56, 57, 58, 59, 60, 61, 62, 63, 64, 65, 66, 67, 68, 69, 70, 71, 72, 73, 74, 75, 76, 77, 78, 79, 80, 81, 82, 83, 84, 85, 86, 87, 88, 89, 90, 91, 92, 93, 94, 95, 96, 97, 98, 99, 100, 101, 102, 103, 104, 105, 106, 107, 108, 109, 110, 111, 112, 113, 114, 115, 116, 117, 118, 119, 120, 121, 122, 123, 124, 125, 126, 127, 128, 129, 130, 131, 132, 133, 134, 135, 136, 137, 138, 139, 140, 141, 142, 143, 144, 145, 146, 147, 148, 149, 150, 151, 152, 153, 154, 155, 156, 157, 158, 159, 160, 161, 162, 163, 164, 165, 166, 167, 168, 169, 170, 171, 172, 173, 174, 175, 176, 177, 178, 179, 180, 181, 182, 183, 184, 185, 186, 187, 188, 189, 190, 191, 192, 193, 194, 195, 196, 197, 198, 199, 200, 201, 202, 203, 204, 205, 206, 207, 208, 209, 210, 211, 212, 213, 214, 215, 216, 217, 218, 219, 220, 221, 222, 223, 224, 225, 226, 227, 228, 229, 230, 231, 232, 233, 234, 235, 236, 237, 238, 239, 240, 241, 242, 243, 244, 245, 246, 247, 248, 249, 250, 251, 252, 253, 254, 255, 256, 257, 258, 259, 260, 261, 262, 263, 264, 265, 266, 267, 268, 269, 270, 271, 272, 273, 274, 275, 276, 277, 278, 279, 280, 281, 282, 283, 284, 285, 286, 287, 288, 289, 290, 291, 292, 293, 294, 295, 296, 297, 298, 299, 300, 301, 302, 303, 304, 305, 306, 307, 308, 309, 310, 311, 312, 313, 314, 315, 316, 317, 318, 319, 320, 321, 322, 323, 324, 325, 326, 327, 328, 329, 330, 331, 332, 333, 334, 335, 336, 337, 338, 339, 340, 341, 342, 343, 344, 345, 346, 347, 348, 349, 350, 351, 352, 353, 354, 355, 356, 357, 358, 359, 360, 361, 362, 363, 364, 365, 366, 367, 368, 369, 370, 371, 372, 373, 374, 375, 376, 377, 378, 379, 380, 381, 382, 383, 384, 385, 386, 387, 388, 389, 390, 391, 392, 393, 394, 395, 396, 397, 398, 399, 400, 401, 402, 403, 404, 405, 406, 407, 408, 409, 410, 411, 412, 413, 414, 415, 416, 417, 418, 419, 420, 421, 422, 423, 424, 425, 426, 427, 428, 429, 430, 431, 432, 433, 434, 435, 436, 437, 438, 439, 440, 441, 442, 443, 444, 445, 446, 447, 448, 449, 450, 451, 452, 453, 454, 455, 456, 457, 458, 459, 460, 461, 462, 463, 464, 465, 466, 467, 468, 469, 470, 471, 472, 473, 474, 475, 476, 477, 478, 479, 480, 481, 482, 483, 484, 485, 486, 487, 488, 489, 490, 491, 492, 493, 494, 495, 496, 497, 498, 499, 500, 501, 502, 503, 504, 505, 506, 507, 508, 509, 510, 511, 512, 513, 514, 515, 516, 517, 518, 519, 520, 521, 522, 523, 524, 525, 526, 527, 528, 529, 530, 531, 532, 533, 534, 535, 536, 537, 538, 539, 540, 541, 542, 543, 544, 545, 546, 547, 548, 549, 550, 551, 552, 553, 554, 555, 556, 557, 558, 559, 560, 561, 562, 563, 564, 565, 566, 567, 568, 569, 570, 571, 572, 573, 574, 575, 576, 577, 578, 579, 580, 581, 582, 583, 584, 585, 586, 587, 588, 589, 590, 591, 592, 593, 594, 595, 596, 597, 598, 599, 600, 601, 602, 603, 604, 605, 606, 607, 608, 609, 610, 611, 612, 613, 614, 615, 616, 617, 618, 619, 620, 621, 622, 623, 624, 625, 626, 627, 628, 629, 630, 631, 632, 633, 634, 635, 636, 637, 638, 639, 640, 641, 642, 643, 644, 645, 646, 647, 648, 649, 650, 651, 652, 653, 654, 655, 656, 657, 658, 659, 660, 661, 662, 663, 664, 665, 666, 667, 668, 669, 670, 671, 672, 673, 674, 675, 676, 677, 678, 679, 680, 681, 682, 683, 684, 685, 686, 687, 688, 689, 690, 691, 692, 693, 694, 695, 696, 697, 698, 699, 700, 701, 702, 703, 704, 705, 706, 707, 708, 709, 710, 711, 712, 713, 714, 715, 716, 717, 718, 719, 720, 721, 722, 723, 724, 725, 726, 727, 728, 729, 730, 731, 732, 733, 734, 735, 736, 737, 738, 739, 740, 741, 742, 743, 744, 745, 746, 747, 748, 749, 750, 751, 752, 753, 754, 755, 756, 757, 758, 759, 760, 761, 762, 763, 764, 765, 766, 767, 768, 769, 770, 771, 772, 773, 774, 775, 776, 777, 778, 779, 780, 781, 782, 783, 784, 785, 786, 787, 788, 789, 790, 791, 792, 793, 794, 795, 796, 797, 798, 799, 800, 801, 802, 803, 804, 805, 806, 807, 808, 809, 810, 811, 812, 813, 814, 815, 816, 817, 818, 819, 820, 821, 822, 823, 824, 825, 826, 827, 828, 829, 830, 831, 832, 833, 834, 835, 836, 837, 838, 839, 840, 841, 842, 843, 844, 845, 846, 847, 848, 849, 850, 851, 852, 853, 854, 855, 856, 857, 858, 859, 860, 861, 862, 863, 864, 865, 866, 867, 868, 869, 870, 871, 872],
      "AcquisitionTime": ["100819.542500", "100820.002500", "100820.462500", "100820.922500", "100821.382500", "100821.842500", "100822.302500", "100822.762500", "100823.222500", "100823.682500", "100824.142500", "100824.602500", "100825.062500", "100825.522500", "100825.982500", "100826.442500", "100826.902500", "100827.362500", "100827.822500", "100828.282500", "100828.742500", "100829.202500", "100829.662500", "100830.122500", "100830.582500", "100831.042500", "100831.502500", "100831.962500", "100832.422500", "100832.882500", "100833.342500", "100833.802500", "100834.262500", "100834.722500", "100835.182500", "100835.642500", "100836.102500", "100836.562500", "100837.022500", "100837.482500", "100837.942500", "100838.402500", "100838.862500", "100839.322500", "100839.782500", "100840.242500", "100840.702500", "100841.162500", "100841.622500", "100842.082500", "100842.542500", "100843.002500", "100843.462500", "100843.922500", "100844.382500", "100844.842500", "100845.302500", "100845.762500", "100846.222500", "100846.682500", "100847.142500", "100847.602500", "100848.062500", "100848.522500", "100848.982500", "100849.442500", "100849.902500", "100850.362500", "100850.822500", "100851.282500", "100851.742500", "100852.202500", "100852.662500", "100853.122500", "100853.582500", "100854.042500", "100854.502500", "100854.962500", "100855.422500", "100855.882500", "100856.342500", "100856.802500", "100857.262500", "100857.722500", "100858.182500", "100858.642500", "100859.102500", "100859.562500", "100900.022500", "100900.482500", "100900.942500", "100901.402500", "100901.862500", "100902.322500", "100902.782500", "100903.242500", "100903.702500", "100904.162500", "100904.622500", "100905.082500", "100905.542500", "100906.002500", "100906.462500", "100906.922500", "100907.382500", "100907.842500", "100908.302500", "100908.762500", "100909.222500", "100909.682500", "100910.142500", "100910.602500", "100911.062500", "100911.522500", "100911.982500", "100912.442500", "100912.902500", "100913.362500", "100913.822500", "100914.282500", "100914.742500", "100915.202500", "100915.662500", "100916.122500", "100916.582500", "100917.042500", "100917.502500", "100917.962500", "100918.422500", "100918.882500", "100919.342500", "100919.802500", "100920.262500", "100920.722500", "100921.182500", "100921.642500", "100922.102500", "100922.562500", "100923.022500", "100923.482500", "100923.942500", "100924.402500", "100924.862500", "100925.322500", "100925.782500", "100926.242500", "100926.702500", "100927.162500", "100927.622500", "100928.082500", "100928.542500", "100929.002500", "100929.462500", "100929.922500", "100930.382500", "100930.842500", "100931.302500", "100931.762500", "100932.222500", "100932.682500", "100933.142500", "100933.602500", "100934.062500", "100934.522500", "100934.982500", "100935.442500", "100935.902500", "100936.362500", "100936.822500", "100937.282500", "100937.742500", "100938.202500", "100938.662500", "100939.122500", "100939.582500", "100940.042500", "100940.502500", "100940.962500", "100941.422500", "100941.882500", "100942.342500", "100942.802500", "100943.262500", "100943.722500", "100944.182500", "100944.642500", "100945.102500", "100945.562500", "100946.022500", "100946.482500", "100946.942500", "100947.402500", "100947.862500", "100948.322500", "100948.782500", "100949.242500", "100949.702500", "100950.162500", "100950.622500", "100951.082500", "100951.542500", "100952.002500", "100952.462500", "100952.922500", "100953.382500", "100953.842500", "100954.302500", "100954.762500", "100955.222500", "100955.682500", "100956.142500", "100956.602500", "100957.062500", "100957.522500", "100957.982500", "100958.442500", "100958.902500", "100959.362500", "100959.822500", "101000.282500", "101000.742500", "101001.202500", "101001.662500", "101002.122500", "101002.582500", "101003.042500", "101003.502500", "101003.962500", "101004.422500", "101004.882500", "101005.342500", "101005.802500", "101006.262500", "101006.722500", "101007.182500", "101007.642500", "101008.102500", "101008.562500", "101009.022500", "101009.482500", "101009.942500", "101010.402500", "101010.862500", "101011.322500", "101011.782500", "101012.242500", "101012.702500", "101013.162500", "101013.622500", "101014.082500", "101014.542500", "101015.002500", "101015.462500", "101015.922500", "101016.382500", "101016.842500", "101017.302500", "101017.762500", "101018.222500", "101018.682500", "101019.142500", "101019.602500", "101020.062500", "101020.522500", "101020.982500", "101021.442500", "101021.902500", "101022.362500", "101022.822500", "101023.282500", "101023.742500", "101024.202500", "101024.662500", "101025.122500", "101025.582500", "101026.042500", "101026.502500", "101026.962500", "101027.422500", "101027.882500", "101028.342500", "101028.802500", "101029.262500", "101029.722500", "101030.182500", "101030.642500", "101031.102500", "101031.562500", "101032.022500", "101032.482500", "101032.942500", "101033.402500", "101033.862500", "101034.322500", "101034.782500", "101035.242500", "101035.702500", "101036.162500", "101036.622500", "101037.082500", "101037.542500", "101038.002500", "101038.462500", "101038.922500", "101039.382500", "101039.842500", "101040.302500", "101040.762500", "101041.222500", "101041.682500", "101042.142500", "101042.602500", "101043.062500", "101043.522500", "101043.982500", "101044.442500", "101044.902500", "101045.362500", "101045.822500", "101046.282500", "101046.742500", "101047.202500", "101047.662500", "101048.122500", "101048.582500", "101049.042500", "101049.502500", "101049.962500", "101050.422500", "101050.882500", "101051.342500", "101051.802500", "101052.262500", "101052.722500", "101053.182500", "101053.642500", "101054.102500", "101054.562500", "101055.022500", "101055.482500", "101055.942500", "101056.402500", "101056.862500", "101057.322500", "101057.782500", "101058.242500", "101058.702500", "101059.162500", "101059.622500", "101100.082500", "101100.542500", "101101.002500", "101101.462500", "101101.922500", "101102.382500", "101102.842500", "101103.302500", "101103.762500", "101104.222500", "101104.682500", "101105.142500", "101105.602500", "101106.062500", "101106.522500", "101106.982500", "101107.442500", "101107.902500", "101108.362500", "101108.822500", "101109.282500", "101109.742500", "101110.202500", "101110.662500", "101111.122500", "101111.582500", "101112.042500", "101112.502500", "101112.962500", "101113.422500", "101113.882500", "101114.342500", "101114.802500", "101115.262500", "101115.722500", "101116.182500", "101116.642500", "101117.102500", "101117.562500", "101118.022500", "101118.482500", "101118.942500", "101119.402500", "101119.862500", "101120.322500", "101120.782500", "101121.242500", "101121.702500", "101122.162500", "101122.622500", "101123.082500", "101123.542500", "101124.002500", "101124.462500", "101124.922500", "101125.382500", "101125.842500", "101126.302500", "101126.762500", "101127.222500", "101127.682500", "101128.142500", "101128.602500", "101129.062500", "101129.522500", "101129.982500", "101130.442500", "101130.902500", "101131.362500", "101131.822500", "101132.282500", "101132.742500", "101133.202500", "101133.662500", "101134.122500", "101134.582500", "101135.042500", "101135.502500", "101135.962500", "101136.422500", "101136.882500", "101137.342500", "101137.802500", "101138.262500", "101138.722500", "101139.182500", "101139.642500", "101140.102500", "101140.562500", "101141.022500", "101141.482500", "101141.942500", "101142.402500", "101142.862500", "101143.322500", "101143.782500", "101144.242500", "101144.702500", "101145.162500", "101145.622500", "101146.082500", "101146.542500", "101147.002500", "101147.462500", "101147.922500", "101148.382500", "101148.842500", "101149.302500", "101149.762500", "101150.222500", "101150.682500", "101151.142500", "101151.602500", "101152.062500", "101152.522500", "101152.982500", "101153.442500", "101153.902500", "101154.362500", "101154.822500", "101155.282500", "101155.742500", "101156.202500", "101156.662500", "101157.122500", "101157.582500", "101158.042500", "101158.502500", "101158.962500", "101159.422500", "101159.882500", "101200.342500", "101200.802500", "101201.262500", "101201.722500", "101202.182500", "101202.642500", "101203.102500", "101203.562500", "101204.022500", "101204.482500", "101204.942500", "101205.402500", "101205.862500", "101206.322500", "101206.782500", "101207.242500", "101207.702500", "101208.162500", "101208.622500", "101209.082500", "101209.542500", "101210.002500", "101210.462500", "101210.922500", "101211.382500", "101211.842500", "101212.302500", "101212.762500", "101213.222500", "101213.682500", "101214.142500", "101214.602500", "101215.062500", "101215.522500", "101215.982500", "101216.442500", "101216.902500", "101217.362500", "101217.822500", "101218.282500", "101218.742500", "101219.202500", "101219.662500", "101220.122500", "101220.582500", "101221.042500", "101221.502500", "101221.962500", "101222.422500", "101222.882500", "101223.342500", "101223.802500", "101224.262500", "101224.722500", "101225.182500", "101225.642500", "101226.102500", "101226.562500", "101227.022500", "101227.482500", "101227.942500", "101228.402500", "101228.862500", "101229.322500", "101229.782500", "101230.242500", "101230.702500", "101231.162500", "101231.622500", "101232.082500", "101232.542500", "101233.002500", "101233.462500", "101233.922500", "101234.382500", "101234.842500", "101235.302500", "101235.762500", "101236.222500", "101236.682500", "101237.142500", "101237.602500", "101238.062500", "101238.522500", "101238.982500", "101239.442500", "101239.902500", "101240.362500", "101240.822500", "101241.282500", "101241.742500", "101242.202500", "101242.662500", "101243.122500", "101243.582500", "101244.042500", "101244.502500", "101244.962500", "101245.422500", "101245.882500", "101246.342500", "101246.802500", "101247.262500", "101247.722500", "101248.182500", "101248.642500", "101249.102500", "101249.562500", "101250.022500", "101250.482500", "101250.942500", "101251.402500", "101251.862500", "101252.322500", "101252.782500", "101253.242500", "101253.702500", "101254.162500", "101254.622500", "101255.082500", "101255.542500", "101256.002500", "101256.462500", "101256.922500", "101257.382500", "101257.842500", "101258.302500", "101258.762500", "101259.222500", "101259.682500", "101300.142500", "101300.602500", "101301.062500", "101301.522500", "101301.982500", "101302.442500", "101302.902500", "101303.362500", "101303.822500", "101304.282500", "101304.742500", "101305.202500", "101305.662500", "101306.122500", "101306.582500", "101307.042500", "101307.502500", "101307.962500", "101308.422500", "101308.882500", "101309.342500", "101309.802500", "101310.262500", "101310.722500", "101311.182500", "101311.642500", "101312.102500", "101312.562500", "101313.022500", "101313.482500", "101313.942500", "101314.402500", "101314.862500", "101315.322500", "101315.782500", "101316.242500", "101316.702500", "101317.162500", "101317.622500", "101318.082500", "101318.542500", "101319.002500", "101319.462500", "101319.922500", "101320.382500", "101320.842500", "101321.302500", "101321.762500", "101322.222500", "101322.682500", "101323.142500", "101323.602500", "101324.062500", "101324.522500", "101324.982500", "101325.442500", "101325.902500", "101326.362500", "101326.822500", "101327.282500", "101327.742500", "101328.202500", "101328.662500", "101329.122500", "101329.582500", "101330.042500", "101330.502500", "101330.962500", "101331.422500", "101331.882500", "101332.342500", "101332.802500", "101333.262500", "101333.722500", "101334.182500", "101334.642500", "101335.102500", "101335.562500", "101336.022500", "101336.482500", "101336.942500", "101337.402500", "101337.862500", "101338.322500", "101338.782500", "101339.242500", "101339.702500", "101340.162500", "101340.622500", "101341.082500", "101341.542500", "101342.002500", "101342.462500", "101342.922500", "101343.382500", "101343.842500", "101344.302500", "101344.762500", "101345.222500", "101345.682500", "101346.142500", "101346.602500", "101347.062500", "101347.522500", "101347.982500", "101348.442500", "101348.902500", "101349.362500", "101349.822500", "101350.282500", "101350.742500", "101351.202500", "101351.662500", "101352.122500", "101352.582500", "101353.042500", "101353.502500", "101353.962500", "101354.422500", "101354.882500", "101355.342500", "101355.802500", "101356.262500", "101356.722500", "101357.182500", "101357.642500", "101358.102500", "101358.562500", "101359.022500", "101359.482500", "101359.942500", "101400.402500", "101400.862500", "101401.322500", "101401.782500", "101402.242500", "101402.702500", "101403.162500", "101403.622500", "101404.082500", "101404.542500", "101405.002500", "101405.462500", "101405.922500", "101406.382500", "101406.842500", "101407.302500", "101407.762500", "101408.222500", "101408.682500", "101409.142500", "101409.602500", "101410.062500", "101410.522500", "101410.982500", "101411.442500", "101411.902500", "101412.362500", "101412.822500", "101413.282500", "101413.742500", "101414.202500", "101414.662500", "101415.122500", "101415.582500", "101416.042500", "101416.502500", "101416.962500", "101417.422500", "101417.882500", "101418.342500", "101418.802500", "101419.262500", "101419.722500", "101420.182500", "101420.642500", "101421.102500", "101421.562500", "101422.022500", "101422.482500", "101422.942500", "101423.402500", "101423.862500", "101424.322500", "101424.782500", "101425.242500", "101425.702500", "101426.162500", "101426.622500", "101427.082500", "101427.542500", "101428.002500", "101428.462500", "101428.922500", "101429.382500", "101429.842500", "101430.302500", "101430.762500", "101431.222500", "101431.682500", "101432.142500", "101432.602500", "101433.062500", "101433.522500", "101433.982500", "101434.442500", "101434.902500", "101435.362500", "101435.822500", "101436.282500", "101436.742500", "101437.202500", "101437.662500", "101438.122500", "101438.582500", "101439.042500", "101439.502500", "101439.962500", "101440.422500", "101440.882500", "101441.342500", "101441.802500", "101442.262500", "101442.722500", "101443.182500", "101443.642500", "101444.102500", "101444.562500", "101445.022500", "101445.482500", "101445.942500", "101446.402500", "101446.862500", "101447.322500", "101447.782500", "101448.242500", "101448.702500", "101449.162500", "101449.622500", "101450.082500", "101450.542500", "101451.002500", "101451.462500", "101451.922500", "101452.382500", "101452.842500", "101453.302500", "101453.762500", "101454.222500", "101454.682500", "101455.142500", "101455.602500", "101456.062500", "101456.522500", "101456.982500", "101457.442500", "101457.902500", "101458.362500", "101458.822500", "101459.282500", "101459.742500", "101500.202500"],
