{
  "AcquisitionMatrixPE": 82,
  "AcquisitionNumber": 1,
  "AcquisitionTime": "10:01:16.217500",
  "BandwidthPerPixelPhaseEncode": 24.888,
  "BaseResolution": 82,
  "BodyPartExamined": "BRAIN",
  "ConsistencyInfo": "N4_VE11C_LATEST_20160120",
  "ConversionSoftware": "dcm2niix",
  "ConversionSoftwareVersion": "v1.0.20201102",
  "DerivedVendorReportedEchoSpacing": 0.00049,
  "DeviceSerialNumber": "66112",
  "DwellTime": 2e-06,
  "EchoTime": 0.0272,
  "EchoTrainLength": 82,
  "EffectiveEchoSpacing": 0.00049,
  "FlipAngle": 44,
  "ImageComments": "Unaliased MB8/PE3",
  "ImageOrientationPatientDICOM": [0.998872, 0.046949, 0.00717879, -0.047455, 0.980396, 0.191239],
  "ImageType": [
    "ORIGINAL",
    "PRIMARY",
    "M",
    "MB",
    "ND",
    "NORM",
    "MOSAIC"
],
  "ImagingFrequency": 123.252,
  "InPlanePhaseEncodingDirectionDICOM": "COL",
  "InstitutionAddress": "Maynard 3,Hanover,NH,US,03755",
  "InstitutionName": "Dartmouth College - PBS",
  "InstitutionalDepartmentName": "Department",
  "MRAcquisitionType": "2D",
  "MagneticFieldStrength": 3,
  "Manufacturer": "Siemens",
  "ManufacturersModelName": "Prisma",
  "Modality": "MR",
  "MultibandAccelerationFactor": 8,
  "PartialFourier": 1,
  "PatientPosition": "HFS",
  "PercentPhaseFOV": 100,
  "PercentSampling": 100,
  "PhaseEncodingDirection": "j-",
  "PhaseEncodingSteps": 82,
  "PhaseResolution": 1,
  "PixelBandwidth": 3050,
  "ProcedureStepDescription": "Wager_Wager^1076_spacetop",
  "ProtocolName": "func_run-01_task-social_acq-ap-mb8",
  "PulseSequenceDetails": "%CustomerSeq%\\cmrr_mbep2d_bold",
  "ReceiveCoilActiveElements": "HEA;HEP",
  "ReceiveCoilName": "Head_32",
  "ReconMatrixPE": 82,
  "RepetitionTime": 0.46,
  "SAR": 0.0728201,
  "ScanOptions": "FS",
  "ScanningSequence": "EP",
  "SequenceName": "epfid2d1_82",
  "SequenceVariant": "SK\\SS",
  "SeriesDescription": "func_run-01_task-social_acq-ap-mb8",
  "SeriesNumber": 12,
  "ShimSetting": [4160, -7725, -7492, 357, -8, -207, 47, 57],
  "SliceThickness": 2.7,
  "SliceTiming": [0, 0.25, 0.0625, 0.3125, 0.125, 0.3775, 0.1875, 0, 0.25, 0.0625, 0.3125, 0.125, 0.3775, 0.1875, 0, 0.25, 0.0625, 0.3125, 0.125, 0.3775, 0.1875, 0, 0.25, 0.0625, 0.3125, 0.125, 0.3775, 0.1875, 0, 0.25, 0.0625, 0.3125, 0.125, 0.3775, 0.1875, 0, 0.25, 0.0625, 0.3125, 0.125, 0.3775, 0.1875, 0, 0.25, 0.0625, 0.3125, 0.125, 0.3775, 0.1875, 0, 0.25, 0.0625, 0.3125, 0.125, 0.3775, 0.1875],
  "SoftwareVersions": "syngo MR E11",
  "SpacingBetweenSlices": 2.7,
  "StationName": "AWP66112",
  "TaskName": "social",
  "TotalReadoutTime": 0.03969,
  "TxRefAmp": 237.481,
  "WipMemBlock": "8d7626b3-01ae-4db8-9867-13cbae04993d||Sequence: R016 ve11c/master r/e634e98; Dec 19 2017 11:00:25 by eja",
  "dcmmeta_affine": [
    [-2.679899215698242, -0.12731830775737762, -0.0052391644567251205, 117.86956024169922],
    [-0.12596070766448975, 2.6303298473358154, 0.5166827440261841, -102.18193817138672],
    [0.019260164350271225, -0.5130805969238281, 2.6500966548919678, -51.76309585571289],
    [0.0, 0.0, 0.0, 1.0]
],
  "dcmmeta_reorient_transform": [
    [0.0, -1.0, 0.0, 81.0],
    [1.0, 0.0, 0.0, 0.0],
    [0.0, 0.0, 1.0, 0.0],
    [0.0, 0.0, 0.0, 1.0]
],
  "dcmmeta_shape": [82, 82, 56, 872],
  "dcmmeta_slice_dim": 2,
  "dcmmeta_version": 0.6,
  "global": {
    "const": {
      "AccessionNumber": "A003485",
      "AcquisitionMatrix": [82, 0, 0, 82],
      "AngioFlag": "N",
      "BitsAllocated": 16,
      "BitsStored": 16,
      "BodyPartExamined": "BRAIN",
      "Columns": 656,
      "EchoNumbers": 1,
      "EchoTime": 27.2,
      "EchoTrainLength": 82,
      "FlipAngle": 44.0,
      "HighBit": 15,
      "ImageOrientationPatient": [0.99887149179401, 0.04694899233709, 0.00717878817999, -0.0474550061423, 0.98039564577303, 0.19123911770692],
      "ImagePositionPatient": [-840.14748682674, -901.93016968004, -246.10441203926],
      "ImageType": [
        "ORIGINAL",
        "PRIMARY",
        "M",
        "MB",
        "ND",
        "NORM",
        "MOSAIC"
],
      "ImagedNucleus": "1H",
      "ImagingFrequency": 123.252338,
      "InPlanePhaseEncodingDirection": "COL",
      "MRAcquisitionType": "2D",
      "MagneticFieldStrength": 3.0,
      "Manufacturer": "SIEMENS",
      "ManufacturerModelName": "Prisma",
      "Modality": "MR",
      "NumberOfAverages": 1.0,
      "NumberOfPhaseEncodingSteps": 82,
      "PercentPhaseFieldOfView": 100.0,
      "PercentSampling": 100.0,
      "PerformedProcedureStepStartTime": "092023.974000",
      "PhotometricInterpretation": "MONOCHROME2",
      "PixelBandwidth": 3050.0,
      "PixelRepresentation": 0,
      "PixelSpacing": [2.6829268932343, 2.6829268932343],
      "ProtocolName": "func_run-01_task-social_acq-ap-mb8",
      "RepetitionTime": 460.0,
      "Rows": 656,
      "SAR": 0.07282006383573,
      "SamplesPerPixel": 1,
      "ScanOptions": "FS",
      "ScanningSequence": "EP",
      "SequenceName": "epfid2d1_82",
      "SequenceVariant": [
        "SK",
        "SS"
],
      "SeriesDescription": "func_run-01_task-social_acq-ap-mb8",
      "SeriesNumber": 12,
      "SeriesTime": "100140.778000",
      "SliceLocation": -70.58902825168,
      "SliceThickness": 2.7000000476837,
      "SmallestImagePixelValue": 0,
      "SoftwareVersions": "syngo MR E11",
      "SpacingBetweenSlices": 2.700000034862,
      "SpecificCharacterSet": "ISO_IR 100",
      "StudyID": "5",
      "StudyTime": "092023.896000",
      "TransmitCoilName": "Body",
      "VariableFlipAngleFlag": "N",
      "WindowCenterWidthExplanation": "Algo1",
      "dBdt": 0.0},
    "slices": {}
  },
  "time": {
    "samples": {
      "AcquisitionNumber": [1, 2, 3, 4, 5, 6, 7, 8, 9, 10, 11, 12, 13, 14, 15, 16, 17, 18, 19, 20, 21, 22, 23, 24, 25, 26, 27, 28, 29, 30, 31, 32, 33, 34, 35, 36, 37, 38, 39, 40, 41, 42, 43, 44, 45, 46, 47, 48, 49, 50, 51, 52, 53, 54, 55, 56, 57, 58, 59, 60, 61, 62, 63, 64, 65, 66, 67, 68, 69, 70, 71, 72, 73, 74, 75, 76, 77, 78, 79, 80, 81, 82, 83, 84, 85, 86, 87, 88, 89, 90, 91, 92, 93, 94, 95, 96, 97, 98, 99, 100, 101, 102, 103, 104, 105, 106, 107, 108, 109, 110, 111, 112, 113, 114, 115, 116, 117, 118, 119, 120, 121, 122, 123, 124, 125, 126, 127, 128, 129, 130, 131, 132, 133, 134, 135, 136, 137, 138, 139, 140, 141, 142, 143, 144, 145, 146, 147, 148, 149, 150, 151, 152, 153, 154, 155, 156, 157, 158, 159, 160, 161, 162, 163, 164, 165, 166, 167, 168, 169, 170, 171, 172, 173, 174, 175, 176, 177, 178, 179, 180, 181, 182, 183, 184, 185, 186, 187, 188, 189, 190, 191, 192, 193, 194, 195, 196, 197, 198, 199, 200, 201, 202, 203, 204, 205, 206, 207, 208, 209, 210, 211, 212, 213, 214, 215, 216, 217, 218, 219, 220, 221, 222, 223, 224, 225, 226, 227, 228, 229, 230, 231, 232, 233, 234, 235, 236, 237, 238, 239, 240, 241, 242, 243, 244, 245, 246, 247, 248, 249, 250, 251, 252, 253, 254, 255, 256, 257, 258, 259, 260, 261, 262, 263, 264, 265, 266, 267, 268, 269, 270, 271, 272, 273, 274, 275, 276, 277, 278, 279, 280, 281, 282, 283, 284, 285, 286, 287, 288, 289, 290, 291, 292, 293, 294, 295, 296, 297, 298, 299, 300, 301, 302, 303, 304, 305, 306, 307, 308, 309, 310, 311, 312, 313, 314, 315, 316, 317, 318, 319, 320, 321, 322, 323, 324, 325, 326, 327, 328, 329, 330, 331, 332, 333, 334, 335, 336, 337, 338, 339, 340, 341, 342, 343, 344, 345, 346, 347, 348, 349, 350, 351, 352, 353, 354, 355, 356, 357, 358, 359, 360, 361, 362, 363, 364, 365, 366, 367, 368, 369, 370, 371, 372, 373, 374, 375, 376, 377, 378, 379, 380, 381, 382, 383, 384, 385, 386, 387, 388, 389, 390, 391, 392, 393, 394, 395, 396, 397, 398, 399, 400, 401, 402, 403, 404, 405, 406, 407, 408, 409, 410, 411, 412, 413, 414, 415, 416, 417, 418, 419, 420, 421, 422, 423, 424, 425, 426, 427, 428, 429, 430, 431, 432, 433, 434, 435, 436, 437, 438, 439, 440, 441, 442, 443, 444, 445, 446, 447, 448, 449, 450, 451, 452, 453, 454, 455, 456, 457, 458, 459, 460, 461, 462, 463, 464, 465, 466, 467, 468, 469, 470, 471, 472, 473, 474, 475, 476, 477, 478, 479, 480, 481, 482, 483, 484, 485, 486, 487, 488, 489, 490, 491, 492, 493, 494, 495, 496, 497, 498, 499, 500, 501, 502, 503, 504, 505, 506, 507, 508, 509, 510, 511, 512, 513, 514, 515, 516, 517, 518, 519, 520, 521, 522, 523, 524, 525, 526, 527, 528, 529, 530, 531, 532, 533, 534, 535, 536, 537, 538, 539, 540, 541, 542, 543, 544, 545, 546, 547, 548, 549, 550, 551, 552, 553, 554, 555, 556, 557, 558, 559, 560, 561, 562, 563, 564, 565, 566, 567, 568, 569, 570, 571, 572, 573, 574, 575, 576, 577, 578, 579, 580, 581, 582, 583, 584, 585, 586, 587, 588, 589, 590, 591, 592, 593, 594, 595, 596, 597, 598, 599, 600, 601, 602, 603, 604, 605, 606, 607, 608, 609, 610, 611, 612, 613, 614, 615, 616, 617, 618, 619, 620, 621, 622, 623, 624, 625, 626, 627, 628, 629, 630, 631, 632, 633, 634, 635, 636, 637, 638, 639, 640, 641, 642, 643, 644, 645, 646, 647, 648, 649, 650, 651, 652, 653, 654, 655, 656, 657, 658, 659, 660, 661, 662, 663, 664, 665, 666, 667, 668, 669, 670, 671, 672, 673, 674, 675, 676, 677, 678, 679, 680, 681, 682, 683, 684, 685, 686, 687, 688, 689, 690, 691, 692, 693, 694, 695, 696, 697, 698, 699, 700, 701, 702, 703, 704, 705, 706, 707, 708, 709, 710, 711, 712, 713, 714, 715, 716, 717, 718, 719, 720, 721, 722, 723, 724, 725, 726, 727, 728, 729, 730, 731, 732, 733, 734, 735, 736, 737, 738, 739, 740, 741, 742, 743, 744, 745, 746, 747, 748, 749, 750, 751, 752, 753, 754, 755, 756, 757, 758, 759, 760, 761, 762, 763, 764, 765, 766, 767, 768, 769, 770, 771, 772, 773, 774, 775, 776, 777, 778, 779, 780, 781, 782, 783, 784, 785, 786, 787, 788, 789, 790, 791, 792, 793, 794, 795, 796, 797, 798, 799, 800, 801, 802, 803, 804, 805, 806, 807, 808, 809, 810, 811, 812, 813, 814, 815, 816, 817, 818, 819, 820, 821, 822, 823, 824, 825, 826, 827, 828, 829, 830, 831, 832, 833, 834, 835, 836, 837, 838, 839, 840, 841, 842, 843, 844, 845, 846, 847, 848, 849, 850, 851, 852, 853, 854, 855, 856, 857, 858, 859, 860, 861, 862, 863, 864, 865, 866, 867, 868, 869, 870, 871, 872],
      "AcquisitionTime": ["100116.217500", "100116.677500", "100117.137500", "100117.597500", "100118.057500", "100118.517500", "100118.977500", "100119.437500", "100119.897500", "100120.357500", "100120.817500", "100121.277500", "100121.737500", "100122.197500", "100122.657500", "100123.117500", "100123.577500", "100124.037500", "100124.497500", "100124.957500", "100125.417500", "100125.877500", "100126.337500", "100126.797500", "100127.257500", "100127.717500", "100128.177500", "100128.637500", "100129.097500", "100129.557500", "100130.017500", "100130.477500", "100130.937500", "100131.397500", "100131.857500", "100132.317500", "100132.777500", "100133.237500", "100133.697500", "100134.157500", "100134.617500", "100135.077500", "100135.537500", "100135.997500", "100136.457500", "100136.917500", "100137.377500", "100137.837500", "100138.297500", "100138.757500", "100139.217500", "100139.677500", "100140.137500", "100140.597500", "100141.057500", "100141.517500", "100141.977500", "100142.437500", "100142.897500", "100143.357500", "100143.817500", "100144.277500", "100144.737500", "100145.197500", "100145.657500", "100146.117500", "100146.577500", "100147.037500", "100147.497500", "100147.957500", "100148.417500", "100148.877500", "100149.337500", "100149.797500", "100150.257500", "100150.717500", "100151.177500", "100151.637500", "100152.097500", "100152.557500", "100153.017500", "100153.477500", "100153.937500", "100154.397500", "100154.857500", "100155.317500", "100155.777500", "100156.237500", "100156.697500", "100157.157500", "100157.617500", "100158.077500", "100158.537500", "100158.997500", "100159.457500", "100159.917500", "100200.377500", "100200.837500", "100201.297500", "100201.757500", "100202.217500", "100202.677500", "100203.137500", "100203.597500", "100204.057500", "100204.517500", "100204.977500", "100205.437500", "100205.897500", "100206.357500", "100206.817500", "100207.277500", "100207.737500", "100208.197500", "100208.657500", "100209.117500", "100209.577500", "100210.037500", "100210.497500", "100210.957500", "100211.417500", "100211.877500", "100212.337500", "100212.797500", "100213.257500", "100213.717500", "100214.177500", "100214.637500", "100215.097500", "100215.557500", "100216.017500", "100216.477500", "100216.937500", "100217.397500", "100217.857500", "100218.317500", "100218.777500", "100219.237500", "100219.697500", "100220.157500", "100220.617500", "100221.077500", "100221.537500", "100221.997500", "100222.457500", "100222.917500", "100223.377500", "100223.837500", "100224.297500", "100224.757500", "100225.217500", "100225.677500", "100226.137500", "100226.597500", "100227.057500", "100227.517500", "100227.977500", "100228.437500", "100228.897500", "100229.357500", "100229.817500", "100230.277500", "100230.737500", "100231.197500", "100231.657500", "100232.117500", "100232.577500", "100233.037500", "100233.497500", "100233.957500", "100234.417500", "100234.877500", "100235.337500", "100235.797500", "100236.257500", "100236.717500", "100237.177500", "100237.637500", "100238.097500", "100238.557500", "100239.017500", "100239.477500", "100239.937500", "100240.397500", "100240.857500", "100241.317500", "100241.777500", "100242.237500", "100242.697500", "100243.157500", "100243.617500", "100244.077500", "100244.537500", "100244.997500", "100245.457500", "100245.917500", "100246.377500", "100246.837500", "100247.297500", "100247.757500", "100248.217500", "100248.677500", "100249.137500", "100249.597500", "100250.057500", "100250.517500", "100250.977500", "100251.437500", "100251.897500", "100252.357500", "100252.817500", "100253.277500", "100253.737500", "100254.197500", "100254.657500", "100255.117500", "100255.577500", "100256.037500", "100256.497500", "100256.957500", "100257.417500", "100257.877500", "100258.337500", "100258.797500", "100259.257500", "100259.717500", "100300.177500", "100300.637500", "100301.097500", "100301.557500", "100302.017500", "100302.477500", "100302.937500", "100303.397500", "100303.857500", "100304.317500", "100304.777500", "100305.237500", "100305.697500", "100306.157500", "100306.617500", "100307.077500", "100307.537500", "100307.997500", "100308.457500", "100308.917500", "100309.377500", "100309.837500", "100310.297500", "100310.757500", "100311.217500", "100311.677500", "100312.137500", "100312.597500", "100313.057500", "100313.517500", "100313.977500", "100314.437500", "100314.897500", "100315.357500", "100315.817500", "100316.277500", "100316.737500", "100317.197500", "100317.657500", "100318.117500", "100318.577500", "100319.037500", "100319.497500", "100319.957500", "100320.417500", "100320.877500", "100321.337500", "100321.797500", "100322.257500", "100322.717500", "100323.177500", "100323.637500", "100324.097500", "100324.557500", "100325.017500", "100325.477500", "100325.937500", "100326.397500", "100326.857500", "100327.317500", "100327.777500", "100328.237500", "100328.697500", "100329.157500", "100329.617500", "100330.077500", "100330.537500", "100330.997500", "100331.457500", "100331.917500", "100332.377500", "100332.837500", "100333.297500", "100333.757500", "100334.217500", "100334.677500", "100335.137500", "100335.597500", "100336.057500", "100336.517500", "100336.977500", "100337.437500", "100337.897500", "100338.357500", "100338.817500", "100339.277500", "100339.737500", "100340.197500", "100340.657500", "100341.117500", "100341.577500", "100342.037500", "100342.497500", "100342.957500", "100343.417500", "100343.877500", "100344.337500", "100344.797500", "100345.257500", "100345.717500", "100346.177500", "100346.637500", "100347.097500", "100347.557500", "100348.017500", "100348.477500", "100348.937500", "100349.397500", "100349.857500", "100350.317500", "100350.777500", "100351.237500", "100351.697500", "100352.157500", "100352.617500", "100353.077500", "100353.537500", "100353.997500", "100354.457500", "100354.917500", "100355.377500", "100355.837500", "100356.297500", "100356.757500", "100357.217500", "100357.677500", "100358.137500", "100358.597500", "100359.057500", "100359.517500", "100359.977500", "100400.437500", "100400.897500", "100401.357500", "100401.817500", "100402.277500", "100402.737500", "100403.197500", "100403.657500", "100404.117500", "100404.577500", "100405.037500", "100405.497500", "100405.957500", "100406.417500", "100406.877500", "100407.337500", "100407.797500", "100408.257500", "100408.717500", "100409.177500", "100409.637500", "100410.097500", "100410.557500", "100411.017500", "100411.477500", "100411.937500", "100412.397500", "100412.857500", "100413.317500", "100413.777500", "100414.237500", "100414.697500", "100415.157500", "100415.617500", "100416.077500", "100416.537500", "100416.997500", "100417.457500", "100417.917500", "100418.377500", "100418.837500", "100419.297500", "100419.757500", "100420.217500", "100420.677500", "100421.137500", "100421.597500", "100422.057500", "100422.517500", "100422.977500", "100423.437500", "100423.897500", "100424.357500", "100424.817500", "100425.277500", "100425.737500", "100426.197500", "100426.657500", "100427.117500", "100427.577500", "100428.037500", "100428.497500", "100428.957500", "100429.417500", "100429.877500", "100430.337500", "100430.797500", "100431.257500", "100431.717500", "100432.177500", "100432.637500", "100433.097500", "100433.557500", "100434.017500", "100434.477500", "100434.937500", "100435.397500", "100435.857500", "100436.317500", "100436.777500", "100437.237500", "100437.697500", "100438.157500", "100438.617500", "100439.077500", "100439.537500", "100439.997500", "100440.457500", "100440.917500", "100441.377500", "100441.837500", "100442.297500", "100442.757500", "100443.217500", "100443.677500", "100444.137500", "100444.597500", "100445.057500", "100445.517500", "100445.977500", "100446.437500", "100446.897500", "100447.357500", "100447.817500", "100448.277500", "100448.737500", "100449.197500", "100449.657500", "100450.117500", "100450.577500", "100451.037500", "100451.497500", "100451.957500", "100452.417500", "100452.877500", "100453.337500", "100453.797500", "100454.257500", "100454.717500", "100455.177500", "100455.637500", "100456.097500", "100456.557500", "100457.017500", "100457.477500", "100457.937500", "100458.397500", "100458.857500", "100459.317500", "100459.777500", "100500.237500", "100500.697500", "100501.157500", "100501.617500", "100502.077500", "100502.537500", "100502.997500", "100503.457500", "100503.917500", "100504.377500", "100504.837500", "100505.297500", "100505.757500", "100506.217500", "100506.677500", "100507.137500", "100507.597500", "100508.057500", "100508.517500", "100508.977500", "100509.437500", "100509.897500", "100510.357500", "100510.817500", "100511.277500", "100511.737500", "100512.197500", "100512.657500", "100513.117500", "100513.577500", "100514.037500", "100514.497500", "100514.957500", "100515.417500", "100515.877500", "100516.337500", "100516.797500", "100517.257500", "100517.717500", "100518.177500", "100518.637500", "100519.097500", "100519.557500", "100520.017500", "100520.477500", "100520.937500", "100521.397500", "100521.857500", "100522.317500", "100522.777500", "100523.237500", "100523.697500", "100524.157500", "100524.617500", "100525.077500", "100525.537500", "100525.997500", "100526.457500", "100526.917500", "100527.377500", "100527.837500", "100528.297500", "100528.757500", "100529.217500", "100529.677500", "100530.137500", "100530.597500", "100531.057500", "100531.517500", "100531.977500", "100532.437500", "100532.897500", "100533.357500", "100533.817500", "100534.277500", "100534.737500", "100535.197500", "100535.657500", "100536.117500", "100536.577500", "100537.037500", "100537.497500", "100537.957500", "100538.417500", "100538.877500", "100539.337500", "100539.797500", "100540.257500", "100540.717500", "100541.177500", "100541.637500", "100542.097500", "100542.557500", "100543.017500", "100543.477500", "100543.937500", "100544.397500", "100544.857500", "100545.317500", "100545.777500", "100546.237500", "100546.697500", "100547.157500", "100547.617500", "100548.077500", "100548.537500", "100548.997500", "100549.457500", "100549.917500", "100550.377500", "100550.837500", "100551.297500", "100551.757500", "100552.217500", "100552.677500", "100553.137500", "100553.597500", "100554.057500", "100554.517500", "100554.977500", "100555.437500", "100555.897500", "100556.357500", "100556.817500", "100557.277500", "100557.737500", "100558.197500", "100558.657500", "100559.117500", "100559.577500", "100600.037500", "100600.497500", "100600.957500", "100601.417500", "100601.877500", "100602.337500", "100602.797500", "100603.257500", "100603.717500", "100604.177500", "100604.637500", "100605.097500", "100605.557500", "100606.017500", "100606.477500", "100606.937500", "100607.397500", "100607.857500", "100608.317500", "100608.777500", "100609.237500", "100609.697500", "100610.157500", "100610.617500", "100611.077500", "100611.537500", "100611.997500", "100612.457500", "100612.917500", "100613.377500", "100613.837500", "100614.297500", "100614.757500", "100615.217500", "100615.677500", "100616.137500", "100616.597500", "100617.057500", "100617.517500", "100617.977500", "100618.437500", "100618.897500", "100619.357500", "100619.817500", "100620.277500", "100620.737500", "100621.197500", "100621.657500", "100622.117500", "100622.577500", "100623.037500", "100623.497500", "100623.957500", "100624.417500", "100624.877500", "100625.337500", "100625.797500", "100626.257500", "100626.717500", "100627.177500", "100627.637500", "100628.097500", "100628.557500", "100629.017500", "100629.477500", "100629.937500", "100630.397500", "100630.857500", "100631.317500", "100631.777500", "100632.237500", "100632.697500", "100633.157500", "100633.617500", "100634.077500", "100634.537500", "100634.997500", "100635.457500", "100635.917500", "100636.377500", "100636.837500", "100637.297500", "100637.757500", "100638.217500", "100638.677500", "100639.137500", "100639.597500", "100640.057500", "100640.517500", "100640.977500", "100641.437500", "100641.897500", "100642.357500", "100642.817500", "100643.277500", "100643.737500", "100644.197500", "100644.657500", "100645.117500", "100645.577500", "100646.037500", "100646.497500", "100646.957500", "100647.417500", "100647.877500", "100648.337500", "100648.797500", "100649.257500", "100649.717500", "100650.177500", "100650.637500", "100651.097500", "100651.557500", "100652.017500", "100652.477500", "100652.937500", "100653.397500", "100653.857500", "100654.317500", "100654.777500", "100655.237500", "100655.697500", "100656.157500", "100656.617500", "100657.077500", "100657.537500", "100657.997500", "100658.457500", "100658.917500", "100659.377500", "100659.837500", "100700.297500", "100700.757500", "100701.217500", "100701.677500", "100702.137500", "100702.597500", "100703.057500", "100703.517500", "100703.977500", "100704.437500", "100704.897500", "100705.357500", "100705.817500", "100706.277500", "100706.737500", "100707.197500", "100707.657500", "100708.117500", "100708.577500", "100709.037500", "100709.497500", "100709.957500", "100710.417500", "100710.877500", "100711.337500", "100711.797500", "100712.257500", "100712.717500", "100713.177500", "100713.637500", "100714.097500", "100714.557500", "100715.017500", "100715.477500", "100715.937500", "100716.397500", "100716.857500", "100717.317500", "100717.777500", "100718.237500", "100718.697500", "100719.157500", "100719.617500", "100720.077500", "100720.537500", "100720.997500", "100721.457500", "100721.917500", "100722.377500", "100722.837500", "100723.297500", "100723.757500", "100724.217500", "100724.677500", "100725.137500", "100725.597500", "100726.057500", "100726.517500", "100726.977500", "100727.437500", "100727.897500", "100728.357500", "100728.817500", "100729.277500", "100729.737500", "100730.197500", "100730.657500", "100731.117500", "100731.577500", "100732.037500", "100732.497500", "100732.957500", "100733.417500", "100733.877500", "100734.337500", "100734.797500", "100735.257500", "100735.717500", "100736.177500", "100736.637500", "100737.097500", "100737.557500", "100738.017500", "100738.477500", "100738.937500", "100739.397500", "100739.857500", "100740.317500", "100740.777500", "100741.237500", "100741.697500", "100742.157500", "100742.617500", "100743.077500", "100743.537500", "100743.997500", "100744.457500", "100744.917500", "100745.377500", "100745.837500", "100746.297500", "100746.757500", "100747.217500", "100747.677500", "100748.137500", "100748.597500", "100749.057500", "100749.517500", "100749.977500", "100750.437500", "100750.897500", "100751.357500", "100751.817500", "100752.277500", "100752.737500", "100753.197500", "100753.657500", "100754.117500", "100754.577500", "100755.037500", "100755.497500", "100755.957500", "100756.417500", "100756.877500"],
