{
  "AcquisitionMatrixPE": 82,
  "AcquisitionNumber": 1,
  "AcquisitionTime": "15:13:20.680000",
  "BandwidthPerPixelPhaseEncode": 24.888,
  "BaseResolution": 82,
  "BodyPartExamined": "BRAIN",
  "ConsistencyInfo": "N4_VE11E_LATEST_20181129",
  "ConversionSoftware": "dcm2niix",
  "ConversionSoftwareVersion": "v1.0.20201102",
  "DerivedVendorReportedEchoSpacing": 0.00049,
  "DeviceSerialNumber": "66112",
  "DwellTime": 2e-06,
  "EchoTime": 0.0272,
  "EchoTrainLength": 82,
  "EffectiveEchoSpacing": 0.00049,
  "FlipAngle": 44,
  "ImageComments": "Unaliased MB8/PE3",
  "ImageOrientationPatientDICOM": [0.995118, 0.0249944, 0.0954771, -0.040142, 0.986269, 0.160194],
  "ImageType": [
    "ORIGINAL",
    "PRIMARY",
    "M",
    "MB",
    "ND",
    "NORM",
    "MOSAIC"
],
  "ImagingFrequency": 123.252,
  "InPlanePhaseEncodingDirectionDICOM": "COL",
  "InstitutionAddress": "Maynard 3,Hanover,NH,US,03755",
  "InstitutionName": "Dartmouth College - PBS",
  "InstitutionalDepartmentName": "Department",
  "MRAcquisitionType": "2D",
  "MagneticFieldStrength": 3,
  "Manufacturer": "Siemens",
  "ManufacturersModelName": "Prisma",
  "Modality": "MR",
  "MultibandAccelerationFactor": 8,
  "PartialFourier": 1,
  "PatientPosition": "HFS",
  "PercentPhaseFOV": 100,
  "PercentSampling": 100,
  "PhaseEncodingDirection": "j-",
  "PhaseEncodingSteps": 82,
  "PhaseResolution": 1,
  "PixelBandwidth": 3050,
  "ProcedureStepDescription": "Wager_Wager^1076_spacetop",
  "ProtocolName": "func_run-01_task-faces_acq-ap-mb8",
  "PulseSequenceDetails": "%CustomerSeq%\\cmrr_mbep2d_bold",
  "ReceiveCoilActiveElements": "HEA;HEP",
  "ReceiveCoilName": "Head_32",
  "ReconMatrixPE": 82,
  "RepetitionTime": 0.46,
  "SAR": 0.105722,
  "ScanOptions": "FS",
  "ScanningSequence": "EP",
  "SequenceName": "epfid2d1_82",
  "SequenceVariant": "SK\\SS",
  "SeriesDescription": "func_run-01_task-faces_acq-ap-mb8",
  "SeriesNumber": 16,
  "ShimSetting": [4142, -7786, -7236, 606, -78, -320, 65, 51],
  "SliceThickness": 2.7,
  "SliceTiming": [0, 0.2525, 0.0625, 0.315, 0.125, 0.3775, 0.19, 0, 0.2525, 0.0625, 0.315, 0.125, 0.3775, 0.19, 0, 0.2525, 0.0625, 0.315, 0.125, 0.3775, 0.19, 0, 0.2525, 0.0625, 0.315, 0.125, 0.3775, 0.19, 0, 0.2525, 0.0625, 0.315, 0.125, 0.3775, 0.19, 0, 0.2525, 0.0625, 0.315, 0.125, 0.3775, 0.19, 0, 0.2525, 0.0625, 0.315, 0.125, 0.3775, 0.19, 0, 0.2525, 0.0625, 0.315, 0.125, 0.3775, 0.19],
  "SoftwareVersions": "syngo MR E11",
  "SpacingBetweenSlices": 2.7,
  "StationName": "AWP66112",
  "TaskName": "faces",
  "TotalReadoutTime": 0.03969,
  "TxRefAmp": 231.968,
  "WipMemBlock": "cc869130-7f74-48da-a532-1e6a9dde8493||Sequence: R016 ve11e/master r/434b28f1; Aug  7 2019 18:53:46 by eja",
  "dcmmeta_affine": [
    [-2.669828176498413, -0.10769816488027573, 0.24343769252300262, 115.50228881835938],
    [-0.06705807894468307, 2.646087408065796, 0.44076117873191833, -100.68376159667969],
    [0.2561579942703247, -0.4297896921634674, 2.6526341438293457, -50.71902084350586],
    [0.0, 0.0, 0.0, 1.0]
],
  "dcmmeta_reorient_transform": [
    [0.0, -1.0, 0.0, 81.0],
    [1.0, 0.0, 0.0, 0.0],
    [0.0, 0.0, 1.0, 0.0],
    [0.0, 0.0, 0.0, 1.0]
],
  "dcmmeta_shape": [82, 82, 56, 914],
  "dcmmeta_slice_dim": 2,
  "dcmmeta_version": 0.6,
  "global": {
    "const": {
      "AccessionNumber": "A004237",
      "AcquisitionMatrix": [82, 0, 0, 82],
      "AngioFlag": "N",
      "BitsAllocated": 16,
      "BitsStored": 16,
      "BodyPartExamined": "BRAIN",
      "Columns": 656,
      "EchoNumbers": 1,
      "EchoTime": 27.2,
      "EchoTrainLength": 82,
      "FlipAngle": 44.0,
      "HighBit": 15,
      "ImageOrientationPatient": [0.99511778721798, 0.02499437471115, 0.09547706947318, -0.0401420427314, 0.98626892446641, 0.16019433522199],
      "ImagePositionPatient": [-842.1100797273, -892.32207863083, -282.3989721417],
      "ImageType": [
        "ORIGINAL",
        "PRIMARY",
        "M",
        "MB",
        "ND",
        "NORM",
        "MOSAIC"
],
      "ImagedNucleus": "1H",
      "ImagingFrequency": 123.252181,
      "InPlanePhaseEncodingDirection": "COL",
      "MRAcquisitionType": "2D",
      "MagneticFieldStrength": 3.0,
      "Manufacturer": "SIEMENS",
      "ManufacturerModelName": "Prisma",
      "Modality": "MR",
      "NumberOfAverages": 1.0,
      "NumberOfPhaseEncodingSteps": 82,
      "PercentPhaseFieldOfView": 100.0,
      "PercentSampling": 100.0,
      "PerformedProcedureStepStartTime": "142309.089000",
      "PhotometricInterpretation": "MONOCHROME2",
      "PixelBandwidth": 3050.0,
      "PixelRepresentation": 0,
      "PixelSpacing": [2.6829268932343, 2.6829268932343],
      "ProtocolName": "func_run-01_task-faces_acq-ap-mb8",
      "RepetitionTime": 460.0,
      "Rows": 656,
      "SAR": 0.10572203130088,
      "SamplesPerPixel": 1,
      "ScanOptions": "FS",
      "ScanningSequence": "EP",
      "SequenceName": "epfid2d1_82",
      "SequenceVariant": [
        "SK",
        "SS"
],
      "SeriesDescription": "func_run-01_task-faces_acq-ap-mb8",
      "SeriesNumber": 16,
      "SeriesTime": "151350.615000",
      "SliceLocation": -55.851439063531,
      "SliceThickness": 2.7000000476837,
      "SmallestImagePixelValue": 0,
      "SoftwareVersions": "syngo MR E11",
      "SpacingBetweenSlices": 2.7000000490717,
      "SpecificCharacterSet": "ISO_IR 100",
      "StudyID": "2",
      "StudyTime": "142309.037000",
      "TransmitCoilName": "Body",
      "VariableFlipAngleFlag": "N",
      "WindowCenterWidthExplanation": "Algo1"
    },
    "slices": {}
  },
  "time": {
    "samples": {
      "AcquisitionNumber": [1, 2, 3, 4, 5, 6, 7, 8, 9, 10, 11, 12, 13, 14, 15, 16, 17, 18, 19, 20, 21, 22, 23, 24, 25, 26, 27, 28, 29, 30, 31, 32, 33, 34, 35, 36, 37, 38, 39, 40, 41, 42, 43, 44, 45, 46, 47, 48, 49, 50, 51, 52, 53, 54, 55, 56, 57, 58, 59, 60, 61, 62, 63, 64, 65, 66, 67, 68, 69, 70, 71, 72, 73, 74, 75, 76, 77, 78, 79, 80, 81, 82, 83, 84, 85, 86, 87, 88, 89, 90, 91, 92, 93, 94, 95, 96, 97, 98, 99, 100, 101, 102, 103, 104, 105, 106, 107, 108, 109, 110, 111, 112, 113, 114, 115, 116, 117, 118, 119, 120, 121, 122, 123, 124, 125, 126, 127, 128, 129, 130, 131, 132, 133, 134, 135, 136, 137, 138, 139, 140, 141, 142, 143, 144, 145, 146, 147, 148, 149, 150, 151, 152, 153, 154, 155, 156, 157, 158, 159, 160, 161, 162, 163, 164, 165, 166, 167, 168, 169, 170, 171, 172, 173, 174, 175, 176, 177, 178, 179, 180, 181, 182, 183, 184, 185, 186, 187, 188, 189, 190, 191, 192, 193, 194, 195, 196, 197, 198, 199, 200, 201, 202, 203, 204, 205, 206, 207, 208, 209, 210, 211, 212, 213, 214, 215, 216, 217, 218, 219, 220, 221, 222, 223, 224, 225, 226, 227, 228, 229, 230, 231, 232, 233, 234, 235, 236, 237, 238, 239, 240, 241, 242, 243, 244, 245, 246, 247, 248, 249, 250, 251, 252, 253, 254, 255, 256, 257, 258, 259, 260, 261, 262, 263, 264, 265, 266, 267, 268, 269, 270, 271, 272, 273, 274, 275, 276, 277, 278, 279, 280, 281, 282, 283, 284, 285, 286, 287, 288, 289, 290, 291, 292, 293, 294, 295, 296, 297, 298, 299, 300, 301, 302, 303, 304, 305, 306, 307, 308, 309, 310, 311, 312, 313, 314, 315, 316, 317, 318, 319, 320, 321, 322, 323, 324, 325, 326, 327, 328, 329, 330, 331, 332, 333, 334, 335, 336, 337, 338, 339, 340, 341, 342, 343, 344, 345, 346, 347, 348, 349, 350, 351, 352, 353, 354, 355, 356, 357, 358, 359, 360, 361, 362, 363, 364, 365, 366, 367, 368, 369, 370, 371, 372, 373, 374, 375, 376, 377, 378, 379, 380, 381, 382, 383, 384, 385, 386, 387, 388, 389, 390, 391, 392, 393, 394, 395, 396, 397, 398, 399, 400, 401, 402, 403, 404, 405, 406, 407, 408, 409, 410, 411, 412, 413, 414, 415, 416, 417, 418, 419, 420, 421, 422, 423, 424, 425, 426, 427, 428, 429, 430, 431, 432, 433, 434, 435, 436, 437, 438, 439, 440, 441, 442, 443, 444, 445, 446, 447, 448, 449, 450, 451, 452, 453, 454, 455, 456, 457, 458, 459, 460, 461, 462, 463, 464, 465, 466, 467, 468, 469, 470, 471, 472, 473, 474, 475, 476, 477, 478, 479, 480, 481, 482, 483, 484, 485, 486, 487, 488, 489, 490, 491, 492, 493, 494, 495, 496, 497, 498, 499, 500, 501, 502, 503, 504, 505, 506, 507, 508, 509, 510, 511, 512, 513, 514, 515, 516, 517, 518, 519, 520, 521, 522, 523, 524, 525, 526, 527, 528, 529, 530, 531, 532, 533, 534, 535, 536, 537, 538, 539, 540, 541, 542, 543, 544, 545, 546, 547, 548, 549, 550, 551, 552, 553, 554, 555, 556, 557, 558, 559, 560, 561, 562, 563, 564, 565, 566, 567, 568, 569, 570, 571, 572, 573, 574, 575, 576, 577, 578, 579, 580, 581, 582, 583, 584, 585, 586, 587, 588, 589, 590, 591, 592, 593, 594, 595, 596, 597, 598, 599, 600, 601, 602, 603, 604, 605, 606, 607, 608, 609, 610, 611, 612, 613, 614, 615, 616, 617, 618, 619, 620, 621, 622, 623, 624, 625, 626, 627, 628, 629, 630, 631, 632, 633, 634, 635, 636, 637, 638, 639, 640, 641, 642, 643, 644, 645, 646, 647, 648, 649, 650, 651, 652, 653, 654, 655, 656, 657, 658, 659, 660, 661, 662, 663, 664, 665, 666, 667, 668, 669, 670, 671, 672, 673, 674, 675, 676, 677, 678, 679, 680, 681, 682, 683, 684, 685, 686, 687, 688, 689, 690, 691, 692, 693, 694, 695, 696, 697, 698, 699, 700, 701, 702, 703, 704, 705, 706, 707, 708, 709, 710, 711, 712, 713, 714, 715, 716, 717, 718, 719, 720, 721, 722, 723, 724, 725, 726, 727, 728, 729, 730, 731, 732, 733, 734, 735, 736, 737, 738, 739, 740, 741, 742, 743, 744, 745, 746, 747, 748, 749, 750, 751, 752, 753, 754, 755, 756, 757, 758, 759, 760, 761, 762, 763, 764, 765, 766, 767, 768, 769, 770, 771, 772, 773, 774, 775, 776, 777, 778, 779, 780, 781, 782, 783, 784, 785, 786, 787, 788, 789, 790, 791, 792, 793, 794, 795, 796, 797, 798, 799, 800, 801, 802, 803, 804, 805, 806, 807, 808, 809, 810, 811, 812, 813, 814, 815, 816, 817, 818, 819, 820, 821, 822, 823, 824, 825, 826, 827, 828, 829, 830, 831, 832, 833, 834, 835, 836, 837, 838, 839, 840, 841, 842, 843, 844, 845, 846, 847, 848, 849, 850, 851, 852, 853, 854, 855, 856, 857, 858, 859, 860, 861, 862, 863, 864, 865, 866, 867, 868, 869, 870, 871, 872, 873, 874, 875, 876, 877, 878, 879, 880, 881, 882, 883, 884, 885, 886, 887, 888, 889, 890, 891, 892, 893, 894, 895, 896, 897, 898, 899, 900, 901, 902, 903, 904, 905, 906, 907, 908, 909, 910, 911, 912, 913, 914],
      "AcquisitionTime": ["151320.680000", "151321.140000", "151321.600000", "151322.060000", "151322.520000", "151322.980000", "151323.440000", "151323.900000", "151324.360000", "151324.820000", "151325.280000", "151325.740000", "151326.200000", "151326.660000", "151327.120000", "151327.580000", "151328.040000", "151328.500000", "151328.960000", "151329.420000", "151329.880000", "151330.340000", "151330.800000", "151331.260000", "151331.720000", "151332.180000", "151332.640000", "151333.100000", "151333.560000", "151334.020000", "151334.480000", "151334.940000", "151335.400000", "151335.860000", "151336.320000", "151336.780000", "151337.240000", "151337.700000", "151338.160000", "151338.620000", "151339.080000", "151339.540000", "151340.000000", "151340.460000", "151340.920000", "151341.380000", "151341.840000", "151342.300000", "151342.760000", "151343.220000", "151343.680000", "151344.140000", "151344.600000", "151345.060000", "151345.520000", "151345.980000", "151346.440000", "151346.900000", "151347.360000", "151347.820000", "151348.280000", "151348.740000", "151349.200000", "151349.660000", "151350.120000", "151350.580000", "151351.040000", "151351.500000", "151351.960000", "151352.420000", "151352.880000", "151353.340000", "151353.800000", "151354.260000", "151354.720000", "151355.180000", "151355.640000", "151356.100000", "151356.560000", "151357.020000", "151357.480000", "151357.940000", "151358.400000", "151358.860000", "151359.320000", "151359.780000", "151400.240000", "151400.700000", "151401.160000", "151401.620000", "151402.080000", "151402.540000", "151403.000000", "151403.460000", "151403.920000", "151404.380000", "151404.840000", "151405.300000", "151405.760000", "151406.220000", "151406.680000", "151407.140000", "151407.600000", "151408.060000", "151408.520000", "151408.980000", "151409.440000", "151409.900000", "151410.360000", "151410.820000", "151411.280000", "151411.740000", "151412.200000", "151412.660000", "151413.120000", "151413.580000", "151414.040000", "151414.500000", "151414.960000", "151415.420000", "151415.880000", "151416.340000", "151416.800000", "151417.260000", "151417.720000", "151418.180000", "151418.640000", "151419.100000", "151419.560000", "151420.020000", "151420.480000", "151420.940000", "151421.400000", "151421.860000", "151422.320000", "151422.780000", "151423.240000", "151423.700000", "151424.160000", "151424.620000", "151425.080000", "151425.540000", "151426.000000", "151426.460000", "151426.920000", "151427.380000", "151427.840000", "151428.300000", "151428.760000", "151429.220000", "151429.680000", "151430.140000", "151430.600000", "151431.060000", "151431.520000", "151431.980000", "151432.440000", "151432.900000", "151433.360000", "151433.820000", "151434.280000", "151434.740000", "151435.200000", "151435.660000", "151436.120000", "151436.580000", "151437.040000", "151437.500000", "151437.960000", "151438.420000", "151438.880000", "151439.340000", "151439.800000", "151440.260000", "151440.720000", "151441.180000", "151441.640000", "151442.100000", "151442.560000", "151443.020000", "151443.480000", "151443.940000", "151444.400000", "151444.860000", "151445.320000", "151445.780000", "151446.240000", "151446.700000", "151447.160000", "151447.620000", "151448.080000", "151448.540000", "151449.000000", "151449.460000", "151449.920000", "151450.380000", "151450.840000", "151451.300000", "151451.760000", "151452.220000", "151452.680000", "151453.140000", "151453.600000", "151454.060000", "151454.520000", "151454.980000", "151455.440000", "151455.900000", "151456.360000", "151456.820000", "151457.280000", "151457.740000", "151458.200000", "151458.660000", "151459.120000", "151459.580000", "151500.040000", "151500.500000", "151500.960000", "151501.420000", "151501.880000", "151502.340000", "151502.800000", "151503.260000", "151503.720000", "151504.180000", "151504.640000", "151505.100000", "151505.560000", "151506.020000", "151506.480000", "151506.940000", "151507.400000", "151507.860000", "151508.320000", "151508.780000", "151509.240000", "151509.700000", "151510.160000", "151510.620000", "151511.080000", "151511.540000", "151512.000000", "151512.460000", "151512.920000", "151513.380000", "151513.840000", "151514.300000", "151514.760000", "151515.220000", "151515.680000", "151516.140000", "151516.600000", "151517.060000", "151517.520000", "151517.980000", "151518.440000", "151518.900000", "151519.360000", "151519.820000", "151520.280000", "151520.740000", "151521.200000", "151521.660000", "151522.120000", "151522.580000", "151523.040000", "151523.500000", "151523.960000", "151524.420000", "151524.880000", "151525.340000", "151525.800000", "151526.260000", "151526.720000", "151527.180000", "151527.640000", "151528.100000", "151528.560000", "151529.020000", "151529.480000", "151529.940000", "151530.400000", "151530.860000", "151531.320000", "151531.780000", "151532.240000", "151532.700000", "151533.160000", "151533.620000", "151534.080000", "151534.540000", "151535.000000", "151535.460000", "151535.920000", "151536.380000", "151536.840000", "151537.300000", "151537.760000", "151538.220000", "151538.680000", "151539.140000", "151539.600000", "151540.060000", "151540.520000", "151540.980000", "151541.440000", "151541.900000", "151542.360000", "151542.820000", "151543.280000", "151543.740000", "151544.200000", "151544.660000", "151545.120000", "151545.580000", "151546.040000", "151546.500000", "151546.960000", "151547.420000", "151547.880000", "151548.340000", "151548.800000", "151549.260000", "151549.720000", "151550.180000", "151550.640000", "151551.100000", "151551.560000", "151552.020000", "151552.480000", "151552.940000", "151553.400000", "151553.860000", "151554.320000", "151554.780000", "151555.240000", "151555.700000", "151556.160000", "151556.620000", "151557.080000", "151557.540000", "151558.000000", "151558.460000", "151558.920000", "151559.380000", "151559.840000", "151600.300000", "151600.760000", "151601.220000", "151601.680000", "151602.140000", "151602.600000", "151603.060000", "151603.520000", "151603.980000", "151604.440000", "151604.900000", "151605.360000", "151605.820000", "151606.280000", "151606.740000", "151607.200000", "151607.660000", "151608.120000", "151608.580000", "151609.040000", "151609.500000", "151609.960000", "151610.420000", "151610.880000", "151611.340000", "151611.800000", "151612.260000", "151612.720000", "151613.180000", "151613.640000", "151614.100000", "151614.560000", "151615.020000", "151615.480000", "151615.940000", "151616.400000", "151616.860000", "151617.320000", "151617.780000", "151618.240000", "151618.700000", "151619.160000", "151619.620000", "151620.080000", "151620.540000", "151621.000000", "151621.460000", "151621.920000", "151622.380000", "151622.840000", "151623.300000", "151623.760000", "151624.220000", "151624.680000", "151625.140000", "151625.600000", "151626.060000", "151626.520000", "151626.980000", "151627.440000", "151627.900000", "151628.360000", "151628.820000", "151629.280000", "151629.740000", "151630.200000", "151630.660000", "151631.120000", "151631.580000", "151632.040000", "151632.500000", "151632.960000", "151633.420000", "151633.880000", "151634.340000", "151634.800000", "151635.260000", "151635.720000", "151636.180000", "151636.640000", "151637.100000", "151637.560000", "151638.020000", "151638.480000", "151638.940000", "151639.400000", "151639.860000", "151640.320000", "151640.780000", "151641.240000", "151641.700000", "151642.160000", "151642.620000", "151643.080000", "151643.540000", "151644.000000", "151644.460000", "151644.920000", "151645.380000", "151645.840000", "151646.300000", "151646.760000", "151647.220000", "151647.680000", "151648.140000", "151648.600000", "151649.060000", "151649.520000", "151649.980000", "151650.440000", "151650.900000", "151651.360000", "151651.820000", "151652.280000", "151652.740000", "151653.200000", "151653.660000", "151654.120000", "151654.580000", "151655.040000", "151655.500000", "151655.960000", "151656.420000", "151656.880000", "151657.340000", "151657.800000", "151658.260000", "151658.720000", "151659.180000", "151659.640000", "151700.100000", "151700.560000", "151701.020000", "151701.480000", "151701.940000", "151702.400000", "151702.860000", "151703.320000", "151703.780000", "151704.240000", "151704.700000", "151705.160000", "151705.620000", "151706.080000", "151706.540000", "151707.000000", "151707.460000", "151707.920000", "151708.380000", "151708.840000", "151709.300000", "151709.760000", "151710.220000", "151710.680000", "151711.140000", "151711.600000", "151712.060000", "151712.520000", "151712.980000", "151713.440000", "151713.900000", "151714.360000", "151714.820000", "151715.280000", "151715.740000", "151716.200000", "151716.660000", "151717.120000", "151717.580000", "151718.040000", "151718.500000", "151718.960000", "151719.420000", "151719.880000", "151720.340000", "151720.800000", "151721.260000", "151721.720000", "151722.180000", "151722.640000", "151723.100000", "151723.560000", "151724.020000", "151724.480000", "151724.940000", "151725.400000", "151725.860000", "151726.320000", "151726.780000", "151727.240000", "151727.700000", "151728.160000", "151728.620000", "151729.080000", "151729.540000", "151730.000000", "151730.460000", "151730.920000", "151731.380000", "151731.840000", "151732.300000", "151732.760000", "151733.220000", "151733.680000", "151734.140000", "151734.600000", "151735.060000", "151735.520000", "151735.980000", "151736.440000", "151736.900000", "151737.360000", "151737.820000", "151738.280000", "151738.740000", "151739.200000", "151739.660000", "151740.120000", "151740.580000", "151741.040000", "151741.500000", "151741.960000", "151742.420000", "151742.880000", "151743.340000", "151743.800000", "151744.260000", "151744.720000", "151745.180000", "151745.640000", "151746.100000", "151746.560000", "151747.020000", "151747.480000", "151747.940000", "151748.400000", "151748.860000", "151749.320000", "151749.780000", "151750.240000", "151750.700000", "151751.160000", "151751.620000", "151752.080000", "151752.540000", "151753.000000", "151753.460000", "151753.920000", "151754.380000", "151754.840000", "151755.300000", "151755.760000", "151756.220000", "151756.680000", "151757.140000", "151757.600000", "151758.060000", "151758.520000", "151758.980000", "151759.440000", "151759.900000", "151800.360000", "151800.820000", "151801.280000", "151801.740000", "151802.200000", "151802.660000", "151803.120000", "151803.580000", "151804.040000", "151804.500000", "151804.960000", "151805.420000", "151805.880000", "151806.340000", "151806.800000", "151807.260000", "151807.720000", "151808.180000", "151808.640000", "151809.100000", "151809.560000", "151810.020000", "151810.480000", "151810.940000", "151811.400000", "151811.860000", "151812.320000", "151812.780000", "151813.240000", "151813.700000", "151814.160000", "151814.620000", "151815.080000", "151815.540000", "151816.000000", "151816.460000", "151816.920000", "151817.380000", "151817.840000", "151818.300000", "151818.760000", "151819.220000", "151819.680000", "151820.140000", "151820.600000", "151821.060000", "151821.520000", "151821.980000", "151822.440000", "151822.900000", "151823.360000", "151823.820000", "151824.280000", "151824.740000", "151825.200000", "151825.660000", "151826.120000", "151826.580000", "151827.040000", "151827.500000", "151827.960000", "151828.420000", "151828.880000", "151829.340000", "151829.800000", "151830.260000", "151830.720000", "151831.180000", "151831.640000", "151832.100000", "151832.560000", "151833.020000", "151833.480000", "151833.940000", "151834.400000", "151834.860000", "151835.320000", "151835.780000", "151836.240000", "151836.700000", "151837.160000", "151837.620000", "151838.080000", "151838.540000", "151839.000000", "151839.460000", "151839.920000", "151840.380000", "151840.840000", "151841.300000", "151841.760000", "151842.220000", "151842.680000", "151843.140000", "151843.600000", "151844.060000", "151844.520000", "151844.980000", "151845.440000", "151845.900000", "151846.360000", "151846.820000", "151847.280000", "151847.740000", "151848.200000", "151848.660000", "151849.120000", "151849.580000", "151850.040000", "151850.500000", "151850.960000", "151851.420000", "151851.880000", "151852.340000", "151852.800000", "151853.260000", "151853.720000", "151854.180000", "151854.640000", "151855.100000", "151855.560000", "151856.020000", "151856.480000", "151856.940000", "151857.400000", "151857.860000", "151858.320000", "151858.780000", "151859.240000", "151859.700000", "151900.160000", "151900.620000", "151901.080000", "151901.540000", "151902.000000", "151902.460000", "151902.920000", "151903.380000", "151903.840000", "151904.300000", "151904.760000", "151905.220000", "151905.680000", "151906.140000", "151906.600000", "151907.060000", "151907.520000", "151907.980000", "151908.440000", "151908.900000", "151909.360000", "151909.820000", "151910.280000", "151910.740000", "151911.200000", "151911.660000", "151912.120000", "151912.580000", "151913.040000", "151913.500000", "151913.960000", "151914.420000", "151914.880000", "151915.340000", "151915.800000", "151916.260000", "151916.720000", "151917.180000", "151917.640000", "151918.100000", "151918.560000", "151919.020000", "151919.480000", "151919.940000", "151920.400000", "151920.860000", "151921.320000", "151921.780000", "151922.240000", "151922.700000", "151923.160000", "151923.620000", "151924.080000", "151924.540000", "151925.000000", "151925.460000", "151925.920000", "151926.380000", "151926.840000", "151927.300000", "151927.760000", "151928.220000", "151928.680000", "151929.140000", "151929.600000", "151930.060000", "151930.520000", "151930.980000", "151931.440000", "151931.900000", "151932.360000", "151932.820000", "151933.280000", "151933.740000", "151934.200000", "151934.660000", "151935.120000", "151935.580000", "151936.040000", "151936.500000", "151936.960000", "151937.420000", "151937.880000", "151938.340000", "151938.800000", "151939.260000", "151939.720000", "151940.180000", "151940.640000", "151941.100000", "151941.560000", "151942.020000", "151942.480000", "151942.940000", "151943.400000", "151943.860000", "151944.320000", "151944.780000", "151945.240000", "151945.700000", "151946.160000", "151946.620000", "151947.080000", "151947.540000", "151948.000000", "151948.460000", "151948.920000", "151949.380000", "151949.840000", "151950.300000", "151950.760000", "151951.220000", "151951.680000", "151952.140000", "151952.600000", "151953.060000", "151953.520000", "151953.980000", "151954.440000", "151954.900000", "151955.360000", "151955.820000", "151956.280000", "151956.740000", "151957.200000", "151957.660000", "151958.120000", "151958.580000", "151959.040000", "151959.500000", "151959.960000", "152000.420000", "152000.880000", "152001.340000", "152001.800000", "152002.260000", "152002.720000", "152003.180000", "152003.640000", "152004.100000", "152004.560000", "152005.020000", "152005.480000", "152005.940000", "152006.400000", "152006.860000", "152007.320000", "152007.780000", "152008.240000", "152008.700000", "152009.160000", "152009.620000", "152010.080000", "152010.540000", "152011.000000", "152011.460000", "152011.920000", "152012.380000", "152012.840000", "152013.300000", "152013.760000", "152014.220000", "152014.680000", "152015.140000", "152015.600000", "152016.060000", "152016.520000", "152016.980000", "152017.440000", "152017.900000", "152018.360000", "152018.820000", "152019.280000", "152019.740000", "152020.200000", "152020.660000"],
