{
  "AcquisitionMatrixPE": 82,
  "AcquisitionNumber": 1,
  "AcquisitionTime": "14:44:4.600000",
  "BandwidthPerPixelPhaseEncode": 24.888,
  "BaseResolution": 82,
  "BodyPartExamined": "BRAIN",
  "ConsistencyInfo": "N4_VE11E_LATEST_20181129",
  "ConversionSoftware": "dcm2niix",
  "ConversionSoftwareVersion": "v1.0.20201102",
  "DerivedVendorReportedEchoSpacing": 0.00049,
  "DeviceSerialNumber": "66112",
  "DwellTime": 2e-06,
  "EchoTime": 0.0272,
  "EchoTrainLength": 82,
  "EffectiveEchoSpacing": 0.00049,
  "FlipAngle": 44,
  "ImageComments": "Unaliased MB8/PE3",
  "ImageOrientationPatientDICOM": [0.995118, 0.0249944, 0.0954771, -0.040142, 0.986269, 0.160194],
  "ImageType": [
    "ORIGINAL",
    "PRIMARY",
    "M",
    "MB",
    "ND",
    "NORM",
    "MOSAIC"
],
  "ImagingFrequency": 123.252,
  "InPlanePhaseEncodingDirectionDICOM": "COL",
  "InstitutionAddress": "Maynard 3,Hanover,NH,US,03755",
  "InstitutionName": "Dartmouth College - PBS",
  "InstitutionalDepartmentName": "Department",
  "MRAcquisitionType": "2D",
  "MagneticFieldStrength": 3,
  "Manufacturer": "Siemens",
  "ManufacturersModelName": "Prisma",
  "Modality": "MR",
  "MultibandAccelerationFactor": 8,
  "PartialFourier": 1,
  "PatientPosition": "HFS",
  "PercentPhaseFOV": 100,
  "PercentSampling": 100,
  "PhaseEncodingDirection": "j-",
  "PhaseEncodingSteps": 82,
  "PhaseResolution": 1,
  "PixelBandwidth": 3050,
  "ProcedureStepDescription": "Wager_Wager^1076_spacetop",
  "ProtocolName": "func_run-02_task-narratives_acq-ap-mb8",
  "PulseSequenceDetails": "%CustomerSeq%\\cmrr_mbep2d_bold",
  "ReceiveCoilActiveElements": "HEA;HEP",
  "ReceiveCoilName": "Head_32",
  "ReconMatrixPE": 82,
  "RepetitionTime": 0.46,
  "SAR": 0.105827,
  "ScanOptions": "FS",
  "ScanningSequence": "EP",
  "SequenceName": "epfid2d1_82",
  "SequenceVariant": "SK\\SS",
  "SeriesDescription": "func_run-02_task-narratives_acq-ap-mb8",
  "SeriesNumber": 10,
  "ShimSetting": [4142, -7786, -7236, 606, -78, -320, 65, 51],
  "SliceThickness": 2.7,
  "SliceTiming": [0, 0.25, 0.0625, 0.3125, 0.125, 0.375, 0.1875, 0, 0.25, 0.0625, 0.3125, 0.125, 0.375, 0.1875, 0, 0.25, 0.0625, 0.3125, 0.125, 0.375, 0.1875, 0, 0.25, 0.0625, 0.3125, 0.125, 0.375, 0.1875, 0, 0.25, 0.0625, 0.3125, 0.125, 0.375, 0.1875, 0, 0.25, 0.0625, 0.3125, 0.125, 0.375, 0.1875, 0, 0.25, 0.0625, 0.3125, 0.125, 0.375, 0.1875, 0, 0.25, 0.0625, 0.3125, 0.125, 0.375, 0.1875],
  "SoftwareVersions": "syngo MR E11",
  "SpacingBetweenSlices": 2.7,
  "StationName": "AWP66112",
  "TaskName": "narratives",
  "TotalReadoutTime": 0.03969,
  "TxRefAmp": 231.968,
  "WipMemBlock": "a478fcf2-00a8-452a-b8e8-67a07a63b2c1||Sequence: R016 ve11e/master r/434b28f1; Aug  7 2019 18:53:46 by eja",
  "dcmmeta_affine": [
    [-2.669828176498413, -0.10769816488027573, 0.24343769252300262, 115.50228881835938],
    [-0.06705807894468307, 2.646087408065796, 0.44076117873191833, -100.68376159667969],
    [0.2561579942703247, -0.4297896921634674, 2.6526341438293457, -50.71902084350586],
    [0.0, 0.0, 0.0, 1.0]
],
  "dcmmeta_reorient_transform": [
    [0.0, -1.0, 0.0, 81.0],
    [1.0, 0.0, 0.0, 0.0],
    [0.0, 0.0, 1.0, 0.0],
    [0.0, 0.0, 0.0, 1.0]
],
  "dcmmeta_shape": [82, 82, 56, 1098],
  "dcmmeta_slice_dim": 2,
  "dcmmeta_version": 0.6,
  "global": {
    "const": {
      "AccessionNumber": "A004237",
      "AcquisitionMatrix": [82, 0, 0, 82],
      "AngioFlag": "N",
      "BitsAllocated": 16,
      "BitsStored": 16,
      "BodyPartExamined": "BRAIN",
      "Columns": 656,
      "EchoNumbers": 1,
      "EchoTime": 27.2,
      "EchoTrainLength": 82,
      "FlipAngle": 44.0,
      "HighBit": 15,
      "ImageOrientationPatient": [0.99511778721798, 0.02499437471115, 0.09547706947318, -0.0401420427314, 0.98626892446641, 0.16019433522199],
      "ImagePositionPatient": [-842.1100797273, -892.32207863083, -282.3989721417],
      "ImageType": [
        "ORIGINAL",
        "PRIMARY",
        "M",
        "MB",
        "ND",
        "NORM",
        "MOSAIC"
],
      "ImagedNucleus": "1H",
      "ImagingFrequency": 123.252172,
      "InPlanePhaseEncodingDirection": "COL",
      "MRAcquisitionType": "2D",
      "MagneticFieldStrength": 3.0,
      "Manufacturer": "SIEMENS",
      "ManufacturerModelName": "Prisma",
      "Modality": "MR",
      "NumberOfAverages": 1.0,
      "NumberOfPhaseEncodingSteps": 82,
      "PercentPhaseFieldOfView": 100.0,
      "PercentSampling": 100.0,
      "PerformedProcedureStepStartTime": "142309.089000",
      "PhotometricInterpretation": "MONOCHROME2",
      "PixelBandwidth": 3050.0,
      "PixelRepresentation": 0,
      "PixelSpacing": [2.6829268932343, 2.6829268932343],
      "ProtocolName": "func_run-02_task-narratives_acq-ap-mb8",
      "RepetitionTime": 460.0,
      "Rows": 656,
      "SAR": 0.10582734336216,
      "SamplesPerPixel": 1,
      "ScanOptions": "FS",
      "ScanningSequence": "EP",
      "SequenceName": "epfid2d1_82",
      "SequenceVariant": [
        "SK",
        "SS"
],
      "SeriesDescription": "func_run-02_task-narratives_acq-ap-mb8",
      "SeriesNumber": 10,
      "SeriesTime": "144430.612000",
      "SliceLocation": -55.851439063531,
      "SliceThickness": 2.7000000476837,
      "SmallestImagePixelValue": 0,
      "SoftwareVersions": "syngo MR E11",
      "SpacingBetweenSlices": 2.7000000490717,
      "SpecificCharacterSet": "ISO_IR 100",
      "StudyID": "2",
      "StudyTime": "142309.037000",
      "TransmitCoilName": "Body",
      "VariableFlipAngleFlag": "N",
      "WindowCenterWidthExplanation": "Algo1"
    },
    "slices": {}
  },
  "time": {
    "samples": {
      "AcquisitionNumber": [1, 2, 3, 4, 5, 6, 7, 8, 9, 10, 11, 12, 13, 14, 15, 16, 17, 18, 19, 20, 21, 22, 23, 24, 25, 26, 27, 28, 29, 30, 31, 32, 33, 34, 35, 36, 37, 38, 39, 40, 41, 42, 43, 44, 45, 46, 47, 48, 49, 50, 51, 52, 53, 54, 55, 56, 57, 58, 59, 60, 61, 62, 63, 64, 65, 66, 67, 68, 69, 70, 71, 72, 73, 74, 75, 76, 77, 78, 79, 80, 81, 82, 83, 84, 85, 86, 87, 88, 89, 90, 91, 92, 93, 94, 95, 96, 97, 98, 99, 100, 101, 102, 103, 104, 105, 106, 107, 108, 109, 110, 111, 112, 113, 114, 115, 116, 117, 118, 119, 120, 121, 122, 123, 124, 125, 126, 127, 128, 129, 130, 131, 132, 133, 134, 135, 136, 137, 138, 139, 140, 141, 142, 143, 144, 145, 146, 147, 148, 149, 150, 151, 152, 153, 154, 155, 156, 157, 158, 159, 160, 161, 162, 163, 164, 165, 166, 167, 168, 169, 170, 171, 172, 173, 174, 175, 176, 177, 178, 179, 180, 181, 182, 183, 184, 185, 186, 187, 188, 189, 190, 191, 192, 193, 194, 195, 196, 197, 198, 199, 200, 201, 202, 203, 204, 205, 206, 207, 208, 209, 210, 211, 212, 213, 214, 215, 216, 217, 218, 219, 220, 221, 222, 223, 224, 225, 226, 227, 228, 229, 230, 231, 232, 233, 234, 235, 236, 237, 238, 239, 240, 241, 242, 243, 244, 245, 246, 247, 248, 249, 250, 251, 252, 253, 254, 255, 256, 257, 258, 259, 260, 261, 262, 263, 264, 265, 266, 267, 268, 269, 270, 271, 272, 273, 274, 275, 276, 277, 278, 279, 280, 281, 282, 283, 284, 285, 286, 287, 288, 289, 290, 291, 292, 293, 294, 295, 296, 297, 298, 299, 300, 301, 302, 303, 304, 305, 306, 307, 308, 309, 310, 311, 312, 313, 314, 315, 316, 317, 318, 319, 320, 321, 322, 323, 324, 325, 326, 327, 328, 329, 330, 331, 332, 333, 334, 335, 336, 337, 338, 339, 340, 341, 342, 343, 344, 345, 346, 347, 348, 349, 350, 351, 352, 353, 354, 355, 356, 357, 358, 359, 360, 361, 362, 363, 364, 365, 366, 367, 368, 369, 370, 371, 372, 373, 374, 375, 376, 377, 378, 379, 380, 381, 382, 383, 384, 385, 386, 387, 388, 389, 390, 391, 392, 393, 394, 395, 396, 397, 398, 399, 400, 401, 402, 403, 404, 405, 406, 407, 408, 409, 410, 411, 412, 413, 414, 415, 416, 417, 418, 419, 420, 421, 422, 423, 424, 425, 426, 427, 428, 429, 430, 431, 432, 433, 434, 435, 436, 437, 438, 439, 440, 441, 442, 443, 444, 445, 446, 447, 448, 449, 450, 451, 452, 453, 454, 455, 456, 457, 458, 459, 460, 461, 462, 463, 464, 465, 466, 467, 468, 469, 470, 471, 472, 473, 474, 475, 476, 477, 478, 479, 480, 481, 482, 483, 484, 485, 486, 487, 488, 489, 490, 491, 492, 493, 494, 495, 496, 497, 498, 499, 500, 501, 502, 503, 504, 505, 506, 507, 508, 509, 510, 511, 512, 513, 514, 515, 516, 517, 518, 519, 520, 521, 522, 523, 524, 525, 526, 527, 528, 529, 530, 531, 532, 533, 534, 535, 536, 537, 538, 539, 540, 541, 542, 543, 544, 545, 546, 547, 548, 549, 550, 551, 552, 553, 554, 555, 556, 557, 558, 559, 560, 561, 562, 563, 564, 565, 566, 567, 568, 569, 570, 571, 572, 573, 574, 575, 576, 577, 578, 579, 580, 581, 582, 583, 584, 585, 586, 587, 588, 589, 590, 591, 592, 593, 594, 595, 596, 597, 598, 599, 600, 601, 602, 603, 604, 605, 606, 607, 608, 609, 610, 611, 612, 613, 614, 615, 616, 617, 618, 619, 620, 621, 622, 623, 624, 625, 626, 627, 628, 629, 630, 631, 632, 633, 634, 635, 636, 637, 638, 639, 640, 641, 642, 643, 644, 645, 646, 647, 648, 649, 650, 651, 652, 653, 654, 655, 656, 657, 658, 659, 660, 661, 662, 663, 664, 665, 666, 667, 668, 669, 670, 671, 672, 673, 674, 675, 676, 677, 678, 679, 680, 681, 682, 683, 684, 685, 686, 687, 688, 689, 690, 691, 692, 693, 694, 695, 696, 697, 698, 699, 700, 701, 702, 703, 704, 705, 706, 707, 708, 709, 710, 711, 712, 713, 714, 715, 716, 717, 718, 719, 720, 721, 722, 723, 724, 725, 726, 727, 728, 729, 730, 731, 732, 733, 734, 735, 736, 737, 738, 739, 740, 741, 742, 743, 744, 745, 746, 747, 748, 749, 750, 751, 752, 753, 754, 755, 756, 757, 758, 759, 760, 761, 762, 763, 764, 765, 766, 767, 768, 769, 770, 771, 772, 773, 774, 775, 776, 777, 778, 779, 780, 781, 782, 783, 784, 785, 786, 787, 788, 789, 790, 791, 792, 793, 794, 795, 796, 797, 798, 799, 800, 801, 802, 803, 804, 805, 806, 807, 808, 809, 810, 811, 812, 813, 814, 815, 816, 817, 818, 819, 820, 821, 822, 823, 824, 825, 826, 827, 828, 829, 830, 831, 832, 833, 834, 835, 836, 837, 838, 839, 840, 841, 842, 843, 844, 845, 846, 847, 848, 849, 850, 851, 852, 853, 854, 855, 856, 857, 858, 859, 860, 861, 862, 863, 864, 865, 866, 867, 868, 869, 870, 871, 872, 873, 874, 875, 876, 877, 878, 879, 880, 881, 882, 883, 884, 885, 886, 887, 888, 889, 890, 891, 892, 893, 894, 895, 896, 897, 898, 899, 900, 901, 902, 903, 904, 905, 906, 907, 908, 909, 910, 911, 912, 913, 914, 915, 916, 917, 918, 919, 920, 921, 922, 923, 924, 925, 926, 927, 928, 929, 930, 931, 932, 933, 934, 935, 936, 937, 938, 939, 940, 941, 942, 943, 944, 945, 946, 947, 948, 949, 950, 951, 952, 953, 954, 955, 956, 957, 958, 959, 960, 961, 962, 963, 964, 965, 966, 967, 968, 969, 970, 971, 972, 973, 974, 975, 976, 977, 978, 979, 980, 981, 982, 983, 984, 985, 986, 987, 988, 989, 990, 991, 992, 993, 994, 995, 996, 997, 998, 999, 1000, 1001, 1002, 1003, 1004, 1005, 1006, 1007, 1008, 1009, 1010, 1011, 1012, 1013, 1014, 1015, 1016, 1017, 1018, 1019, 1020, 1021, 1022, 1023, 1024, 1025, 1026, 1027, 1028, 1029, 1030, 1031, 1032, 1033, 1034, 1035, 1036, 1037, 1038, 1039, 1040, 1041, 1042, 1043, 1044, 1045, 1046, 1047, 1048, 1049, 1050, 1051, 1052, 1053, 1054, 1055, 1056, 1057, 1058, 1059, 1060, 1061, 1062, 1063, 1064, 1065, 1066, 1067, 1068, 1069, 1070, 1071, 1072, 1073, 1074, 1075, 1076, 1077, 1078, 1079, 1080, 1081, 1082, 1083, 1084, 1085, 1086, 1087, 1088, 1089, 1090, 1091, 1092, 1093, 1094, 1095, 1096, 1097, 1098],
      "AcquisitionTime": ["144404.600000", "144405.060000", "144405.520000", "144405.980000", "144406.440000", "144406.900000", "144407.360000", "144407.820000", "144408.280000", "144408.740000", "144409.200000", "144409.660000", "144410.120000", "144410.580000", "144411.040000", "144411.500000", "144411.960000", "144412.420000", "144412.880000", "144413.340000", "144413.800000", "144414.260000", "144414.720000", "144415.180000", "144415.640000", "144416.100000", "144416.560000", "144417.020000", "144417.480000", "144417.940000", "144418.400000", "144418.860000", "144419.320000", "144419.780000", "144420.240000", "144420.700000", "144421.160000", "144421.620000", "144422.080000", "144422.540000", "144423.000000", "144423.460000", "144423.920000", "144424.380000", "144424.840000", "144425.300000", "144425.760000", "144426.220000", "144426.680000", "144427.140000", "144427.600000", "144428.060000", "144428.520000", "144428.980000", "144429.440000", "144429.900000", "144430.360000", "144430.820000", "144431.280000", "144431.740000", "144432.200000", "144432.660000", "144433.120000", "144433.580000", "144434.040000", "144434.500000", "144434.960000", "144435.420000", "144435.880000", "144436.340000", "144436.800000", "144437.260000", "144437.720000", "144438.180000", "144438.640000", "144439.100000", "144439.560000", "144440.020000", "144440.480000", "144440.940000", "144441.400000", "144441.860000", "144442.320000", "144442.780000", "144443.240000", "144443.700000", "144444.160000", "144444.620000", "144445.080000", "144445.540000", "144446.000000", "144446.460000", "144446.920000", "144447.380000", "144447.840000", "144448.300000", "144448.760000", "144449.220000", "144449.680000", "144450.140000", "144450.600000", "144451.060000", "144451.520000", "144451.980000", "144452.440000", "144452.900000", "144453.360000", "144453.820000", "144454.280000", "144454.740000", "144455.200000", "144455.660000", "144456.120000", "144456.580000", "144457.040000", "144457.500000", "144457.960000", "144458.420000", "144458.880000", "144459.340000", "144459.800000", "144500.260000", "144500.720000", "144501.180000", "144501.640000", "144502.100000", "144502.560000", "144503.020000", "144503.480000", "144503.940000", "144504.400000", "144504.860000", "144505.320000", "144505.780000", "144506.240000", "144506.700000", "144507.160000", "144507.620000", "144508.080000", "144508.540000", "144509.000000", "144509.460000", "144509.920000", "144510.380000", "144510.840000", "144511.300000", "144511.760000", "144512.220000", "144512.680000", "144513.140000", "144513.600000", "144514.060000", "144514.520000", "144514.980000", "144515.440000", "144515.900000", "144516.360000", "144516.820000", "144517.280000", "144517.740000", "144518.200000", "144518.660000", "144519.120000", "144519.580000", "144520.040000", "144520.500000", "144520.960000", "144521.420000", "144521.880000", "144522.340000", "144522.800000", "144523.260000", "144523.720000", "144524.180000", "144524.640000", "144525.100000", "144525.560000", "144526.020000", "144526.480000", "144526.940000", "144527.400000", "144527.860000", "144528.320000", "144528.780000", "144529.240000", "144529.700000", "144530.160000", "144530.620000", "144531.080000", "144531.540000", "144532.000000", "144532.460000", "144532.920000", "144533.380000", "144533.840000", "144534.300000", "144534.760000", "144535.220000", "144535.680000", "144536.140000", "144536.600000", "144537.060000", "144537.520000", "144537.980000", "144538.440000", "144538.900000", "144539.360000", "144539.820000", "144540.280000", "144540.740000", "144541.200000", "144541.660000", "144542.120000", "144542.580000", "144543.040000", "144543.500000", "144543.960000", "144544.420000", "144544.880000", "144545.340000", "144545.800000", "144546.260000", "144546.720000", "144547.180000", "144547.640000", "144548.100000", "144548.560000", "144549.020000", "144549.480000", "144549.940000", "144550.400000", "144550.860000", "144551.320000", "144551.780000", "144552.240000", "144552.700000", "144553.160000", "144553.620000", "144554.080000", "144554.540000", "144555.000000", "144555.460000", "144555.920000", "144556.380000", "144556.840000", "144557.300000", "144557.760000", "144558.220000", "144558.680000", "144559.140000", "144559.600000", "144600.060000", "144600.520000", "144600.980000", "144601.440000", "144601.900000", "144602.360000", "144602.820000", "144603.280000", "144603.740000", "144604.200000", "144604.660000", "144605.120000", "144605.580000", "144606.040000", "144606.500000", "144606.960000", "144607.420000", "144607.880000", "144608.340000", "144608.800000", "144609.260000", "144609.720000", "144610.180000", "144610.640000", "144611.100000", "144611.560000", "144612.020000", "144612.480000", "144612.940000", "144613.400000", "144613.860000", "144614.320000", "144614.780000", "144615.240000", "144615.700000", "144616.160000", "144616.620000", "144617.080000", "144617.540000", "144618.000000", "144618.460000", "144618.920000", "144619.380000", "144619.840000", "144620.300000", "144620.760000", "144621.220000", "144621.680000", "144622.140000", "144622.600000", "144623.060000", "144623.520000", "144623.980000", "144624.440000", "144624.900000", "144625.360000", "144625.820000", "144626.280000", "144626.740000", "144627.200000", "144627.660000", "144628.120000", "144628.580000", "144629.040000", "144629.500000", "144629.960000", "144630.420000", "144630.880000", "144631.340000", "144631.800000", "144632.260000", "144632.720000", "144633.180000", "144633.640000", "144634.100000", "144634.560000", "144635.020000", "144635.480000", "144635.940000", "144636.400000", "144636.860000", "144637.320000", "144637.780000", "144638.240000", "144638.700000", "144639.160000", "144639.620000", "144640.080000", "144640.540000", "144641.000000", "144641.460000", "144641.920000", "144642.380000", "144642.840000", "144643.300000", "144643.760000", "144644.220000", "144644.680000", "144645.140000", "144645.600000", "144646.060000", "144646.520000", "144646.980000", "144647.440000", "144647.900000", "144648.360000", "144648.820000", "144649.280000", "144649.740000", "144650.200000", "144650.660000", "144651.120000", "144651.580000", "144652.040000", "144652.500000", "144652.960000", "144653.420000", "144653.880000", "144654.340000", "144654.800000", "144655.260000", "144655.720000", "144656.180000", "144656.640000", "144657.100000", "144657.560000", "144658.020000", "144658.480000", "144658.940000", "144659.400000", "144659.860000", "144700.320000", "144700.780000", "144701.240000", "144701.700000", "144702.160000", "144702.620000", "144703.080000", "144703.540000", "144704.000000", "144704.460000", "144704.920000", "144705.380000", "144705.840000", "144706.300000", "144706.760000", "144707.220000", "144707.680000", "144708.140000", "144708.600000", "144709.060000", "144709.520000", "144709.980000", "144710.440000", "144710.900000", "144711.360000", "144711.820000", "144712.280000", "144712.740000", "144713.200000", "144713.660000", "144714.120000", "144714.580000", "144715.040000", "144715.500000", "144715.960000", "144716.420000", "144716.880000", "144717.340000", "144717.800000", "144718.260000", "144718.720000", "144719.180000", "144719.640000", "144720.100000", "144720.560000", "144721.020000", "144721.480000", "144721.940000", "144722.400000", "144722.860000", "144723.320000", "144723.780000", "144724.240000", "144724.700000", "144725.160000", "144725.620000", "144726.080000", "144726.540000", "144727.000000", "144727.460000", "144727.920000", "144728.380000", "144728.840000", "144729.300000", "144729.760000", "144730.220000", "144730.680000", "144731.140000", "144731.600000", "144732.060000", "144732.520000", "144732.980000", "144733.440000", "144733.900000", "144734.360000", "144734.820000", "144735.280000", "144735.740000", "144736.200000", "144736.660000", "144737.120000", "144737.580000", "144738.040000", "144738.500000", "144738.960000", "144739.420000", "144739.880000", "144740.340000", "144740.800000", "144741.260000", "144741.720000", "144742.180000", "144742.640000", "144743.100000", "144743.560000", "144744.020000", "144744.480000", "144744.940000", "144745.400000", "144745.860000", "144746.320000", "144746.780000", "144747.240000", "144747.700000", "144748.160000", "144748.620000", "144749.080000", "144749.540000", "144750.000000", "144750.460000", "144750.920000", "144751.380000", "144751.840000", "144752.300000", "144752.760000", "144753.220000", "144753.680000", "144754.140000", "144754.600000", "144755.060000", "144755.520000", "144755.980000", "144756.440000", "144756.900000", "144757.360000", "144757.820000", "144758.280000", "144758.740000", "144759.200000", "144759.660000", "144800.120000", "144800.580000", "144801.040000", "144801.500000", "144801.960000", "144802.420000", "144802.880000", "144803.340000", "144803.800000", "144804.260000", "144804.720000", "144805.180000", "144805.640000", "144806.100000", "144806.560000", "144807.020000", "144807.480000", "144807.940000", "144808.400000", "144808.860000", "144809.320000", "144809.780000", "144810.240000", "144810.700000", "144811.160000", "144811.620000", "144812.080000", "144812.540000", "144813.000000", "144813.460000", "144813.920000", "144814.380000", "144814.840000", "144815.300000", "144815.760000", "144816.220000", "144816.680000", "144817.140000", "144817.600000", "144818.060000", "144818.520000", "144818.980000", "144819.440000", "144819.900000", "144820.360000", "144820.820000", "144821.280000", "144821.740000", "144822.200000", "144822.660000", "144823.120000", "144823.580000", "144824.040000", "144824.500000", "144824.960000", "144825.420000", "144825.880000", "144826.340000", "144826.800000", "144827.260000", "144827.720000", "144828.180000", "144828.640000", "144829.100000", "144829.560000", "144830.020000", "144830.480000", "144830.940000", "144831.400000", "144831.860000", "144832.320000", "144832.780000", "144833.240000", "144833.700000", "144834.160000", "144834.620000", "144835.080000", "144835.540000", "144836.000000", "144836.460000", "144836.920000", "144837.380000", "144837.840000", "144838.300000", "144838.760000", "144839.220000", "144839.680000", "144840.140000", "144840.600000", "144841.060000", "144841.520000", "144841.980000", "144842.440000", "144842.900000", "144843.360000", "144843.820000", "144844.280000", "144844.740000", "144845.200000", "144845.660000", "144846.120000", "144846.580000", "144847.040000", "144847.500000", "144847.960000", "144848.420000", "144848.880000", "144849.340000", "144849.800000", "144850.260000", "144850.720000", "144851.180000", "144851.640000", "144852.100000", "144852.560000", "144853.020000", "144853.480000", "144853.940000", "144854.400000", "144854.860000", "144855.320000", "144855.780000", "144856.240000", "144856.700000", "144857.160000", "144857.620000", "144858.080000", "144858.540000", "144859.000000", "144859.460000", "144859.920000", "144900.380000", "144900.840000", "144901.300000", "144901.760000", "144902.220000", "144902.680000", "144903.140000", "144903.600000", "144904.060000", "144904.520000", "144904.980000", "144905.440000", "144905.900000", "144906.360000", "144906.820000", "144907.280000", "144907.740000", "144908.200000", "144908.660000", "144909.120000", "144909.580000", "144910.040000", "144910.500000", "144910.960000", "144911.420000", "144911.880000", "144912.340000", "144912.800000", "144913.260000", "144913.720000", "144914.180000", "144914.640000", "144915.100000", "144915.560000", "144916.020000", "144916.480000", "144916.940000", "144917.400000", "144917.860000", "144918.320000", "144918.780000", "144919.240000", "144919.700000", "144920.160000", "144920.620000", "144921.080000", "144921.540000", "144922.000000", "144922.460000", "144922.920000", "144923.380000", "144923.840000", "144924.300000", "144924.760000", "144925.220000", "144925.680000", "144926.140000", "144926.600000", "144927.060000", "144927.520000", "144927.980000", "144928.440000", "144928.900000", "144929.360000", "144929.820000", "144930.280000", "144930.740000", "144931.200000", "144931.660000", "144932.120000", "144932.580000", "144933.040000", "144933.500000", "144933.960000", "144934.420000", "144934.880000", "144935.340000", "144935.800000", "144936.260000", "144936.720000", "144937.180000", "144937.640000", "144938.100000", "144938.560000", "144939.020000", "144939.480000", "144939.940000", "144940.400000", "144940.860000", "144941.320000", "144941.780000", "144942.240000", "144942.700000", "144943.160000", "144943.620000", "144944.080000", "144944.540000", "144945.000000", "144945.460000", "144945.920000", "144946.380000", "144946.840000", "144947.300000", "144947.760000", "144948.220000", "144948.680000", "144949.140000", "144949.600000", "144950.060000", "144950.520000", "144950.980000", "144951.440000", "144951.900000", "144952.360000", "144952.820000", "144953.280000", "144953.740000", "144954.200000", "144954.660000", "144955.120000", "144955.580000", "144956.040000", "144956.500000", "144956.960000", "144957.420000", "144957.880000", "144958.340000", "144958.800000", "144959.260000", "144959.720000", "145000.180000", "145000.640000", "145001.100000", "145001.560000", "145002.020000", "145002.480000", "145002.940000", "145003.400000", "145003.860000", "145004.320000", "145004.780000", "145005.240000", "145005.700000", "145006.160000", "145006.620000", "145007.080000", "145007.540000", "145008.000000", "145008.460000", "145008.920000", "145009.380000", "145009.840000", "145010.300000", "145010.760000", "145011.220000", "145011.680000", "145012.140000", "145012.600000", "145013.060000", "145013.520000", "145013.980000", "145014.440000", "145014.900000", "145015.360000", "145015.820000", "145016.280000", "145016.740000", "145017.200000", "145017.660000", "145018.120000", "145018.580000", "145019.040000", "145019.500000", "145019.960000", "145020.420000", "145020.880000", "145021.340000", "145021.800000", "145022.260000", "145022.720000", "145023.180000", "145023.640000", "145024.100000", "145024.560000", "145025.020000", "145025.480000", "145025.940000", "145026.400000", "145026.860000", "145027.320000", "145027.780000", "145028.240000", "145028.700000", "145029.160000", "145029.620000", "145030.080000", "145030.540000", "145031.000000", "145031.460000", "145031.920000", "145032.380000", "145032.840000", "145033.300000", "145033.760000", "145034.220000", "145034.680000", "145035.140000", "145035.600000", "145036.060000", "145036.520000", "145036.980000", "145037.440000", "145037.900000", "145038.360000", "145038.820000", "145039.280000", "145039.740000", "145040.200000", "145040.660000", "145041.120000", "145041.580000", "145042.040000", "145042.500000", "145042.960000", "145043.420000", "145043.880000", "145044.340000", "145044.800000", "145045.260000", "145045.720000", "145046.180000", "145046.640000", "145047.100000", "145047.560000", "145048.020000", "145048.480000", "145048.940000", "145049.400000", "145049.860000", "145050.320000", "145050.780000", "145051.240000", "145051.700000", "145052.160000", "145052.620000", "145053.080000", "145053.540000", "145054.000000", "145054.460000", "145054.920000", "145055.380000", "145055.840000", "145056.300000", "145056.760000", "145057.220000", "145057.680000", "145058.140000", "145058.600000", "145059.060000", "145059.520000", "145059.980000", "145100.440000", "145100.900000", "145101.360000", "145101.820000", "145102.280000", "145102.740000", "145103.200000", "145103.660000", "145104.120000", "145104.580000", "145105.040000", "145105.500000", "145105.960000", "145106.420000", "145106.880000", "145107.340000", "145107.800000", "145108.260000", "145108.720000", "145109.180000", "145109.640000", "145110.100000", "145110.560000", "145111.020000", "145111.480000", "145111.940000", "145112.400000", "145112.860000", "145113.320000", "145113.780000", "145114.240000", "145114.700000", "145115.160000", "145115.620000", "145116.080000", "145116.540000", "145117.000000", "145117.460000", "145117.920000", "145118.380000", "145118.840000", "145119.300000", "145119.760000", "145120.220000", "145120.680000", "145121.140000", "145121.600000", "145122.060000", "145122.520000", "145122.980000", "145123.440000", "145123.900000", "145124.360000", "145124.820000", "145125.280000", "145125.740000", "145126.200000", "145126.660000", "145127.120000", "145127.580000", "145128.040000", "145128.500000", "145128.960000", "145129.420000", "145129.880000", "145130.340000", "145130.800000", "145131.260000", "145131.720000", "145132.180000", "145132.640000", "145133.100000", "145133.560000", "145134.020000", "145134.480000", "145134.940000", "145135.400000", "145135.860000", "145136.320000", "145136.780000", "145137.240000", "145137.700000", "145138.160000", "145138.620000", "145139.080000", "145139.540000", "145140.000000", "145140.460000", "145140.920000", "145141.380000", "145141.840000", "145142.300000", "145142.760000", "145143.220000", "145143.680000", "145144.140000", "145144.600000", "145145.060000", "145145.520000", "145145.980000", "145146.440000", "145146.900000", "145147.360000", "145147.820000", "145148.280000", "145148.740000", "145149.200000", "145149.660000", "145150.120000", "145150.580000", "145151.040000", "145151.500000", "145151.960000", "145152.420000", "145152.880000", "145153.340000", "145153.800000", "145154.260000", "145154.720000", "145155.180000", "145155.640000", "145156.100000", "145156.560000", "145157.020000", "145157.480000", "145157.940000", "145158.400000", "145158.860000", "145159.320000", "145159.780000", "145200.240000", "145200.700000", "145201.160000", "145201.620000", "145202.080000", "145202.540000", "145203.000000", "145203.460000", "145203.920000", "145204.380000", "145204.840000", "145205.300000", "145205.760000", "145206.220000", "145206.680000", "145207.140000", "145207.600000", "145208.060000", "145208.520000", "145208.980000", "145209.440000", "145209.900000", "145210.360000", "145210.820000", "145211.280000", "145211.740000", "145212.200000", "145212.660000", "145213.120000", "145213.580000", "145214.040000", "145214.500000", "145214.960000", "145215.420000", "145215.880000", "145216.340000", "145216.800000", "145217.260000", "145217.720000", "145218.180000", "145218.640000", "145219.100000", "145219.560000", "145220.020000", "145220.480000", "145220.940000", "145221.400000", "145221.860000", "145222.320000", "145222.780000", "145223.240000", "145223.700000", "145224.160000", "145224.620000", "145225.080000", "145225.540000", "145226.000000", "145226.460000", "145226.920000", "145227.380000", "145227.840000", "145228.300000", "145228.760000", "145229.220000"],
