{
  "AcquisitionMatrixPE": 82,
  "AcquisitionNumber": 1,
  "AcquisitionTime": "13:41:10.540000",
  "BandwidthPerPixelPhaseEncode": 24.888,
  "BaseResolution": 82,
  "BodyPartExamined": "BRAIN",
  "ConsistencyInfo": "N4_VE11E_LATEST_20181129",
  "ConversionSoftware": "dcm2niix",
  "ConversionSoftwareVersion": "v1.0.20201102",
  "DerivedVendorReportedEchoSpacing": 0.00049,
  "DeviceSerialNumber": "66112",
  "DwellTime": 2e-06,
  "EchoTime": 0.0272,
  "EchoTrainLength": 82,
  "EffectiveEchoSpacing": 0.00049,
  "FlipAngle": 44,
  "ImageComments": "Unaliased MB8/PE3",
  "ImageOrientationPatientDICOM": [0.999265, 0.0139733, 0.0356885, -0.021455, 0.975539, 0.218776],
  "ImageType": [
    "ORIGINAL",
    "PRIMARY",
    "M",
    "MB",
    "ND",
    "NORM",
    "MOSAIC"
],
  "ImagingFrequency": 123.252,
  "InPlanePhaseEncodingDirectionDICOM": "COL",
  "InstitutionAddress": "Maynard 3,Hanover,NH,US,03755",
  "InstitutionName": "Dartmouth College - PBS",
  "InstitutionalDepartmentName": "Department",
  "MRAcquisitionType": "2D",
  "MagneticFieldStrength": 3,
  "Manufacturer": "Siemens",
  "ManufacturersModelName": "Prisma",
  "Modality": "MR",
  "MultibandAccelerationFactor": 8,
  "PartialFourier": 1,
  "PatientPosition": "HFS",
  "PercentPhaseFOV": 100,
  "PercentSampling": 100,
  "PhaseEncodingDirection": "j-",
  "PhaseEncodingSteps": 82,
  "PhaseResolution": 1,
  "PixelBandwidth": 3050,
  "ProcedureStepDescription": "Wager_Wager^1076_spacetop",
  "ProtocolName": "func_run-03_task-alignvideo_acq-ap-mb8",
  "PulseSequenceDetails": "%CustomerSeq%\\cmrr_mbep2d_bold",
  "ReceiveCoilActiveElements": "HEA;HEP",
  "ReceiveCoilName": "Head_32",
  "ReconMatrixPE": 82,
  "RepetitionTime": 0.46,
  "SAR": 0.122794,
  "ScanOptions": "FS",
  "ScanningSequence": "EP",
  "SequenceName": "epfid2d1_82",
  "SequenceVariant": "SK\\SS",
  "SeriesDescription": "func_run-03_task-alignvideo_acq-ap-mb8",
  "SeriesNumber": 32,
  "ShimSetting": [4172, -7766, -7229, 478, -19, -9, 67, 55],
  "SliceThickness": 2.7,
  "SliceTiming": [0, 0.25, 0.0625, 0.3125, 0.125, 0.375, 0.1875, 0, 0.25, 0.0625, 0.3125, 0.125, 0.375, 0.1875, 0, 0.25, 0.0625, 0.3125, 0.125, 0.375, 0.1875, 0, 0.25, 0.0625, 0.3125, 0.125, 0.375, 0.1875, 0, 0.25, 0.0625, 0.3125, 0.125, 0.375, 0.1875, 0, 0.25, 0.0625, 0.3125, 0.125, 0.375, 0.1875, 0, 0.25, 0.0625, 0.3125, 0.125, 0.375, 0.1875, 0, 0.25, 0.0625, 0.3125, 0.125, 0.375, 0.1875],
  "SoftwareVersions": "syngo MR E11",
  "SpacingBetweenSlices": 2.7,
  "StationName": "AWP66112",
  "TaskName": "alignvideo",
  "TotalReadoutTime": 0.03969,
  "TxRefAmp": 278.703,
  "WipMemBlock": "8adb0a89-1293-4c33-a95d-eb6bf9902e39||Sequence: R016 ve11e/master r/434b28f1; Aug  7 2019 18:53:46 by eja",
  "dcmmeta_affine": [
    [-2.680955648422241, -0.05756232514977455, 0.08574800193309784, 114.13251495361328],
    [-0.03748929873108864, 2.617300271987915, 0.5923293232917786, -103.63671875],
    [0.09574966877698898, -0.5869607925415039, 2.6328299045562744, -18.868040084838867],
    [0.0, 0.0, 0.0, 1.0]
],
  "dcmmeta_reorient_transform": [
    [0.0, -1.0, 0.0, 81.0],
    [1.0, 0.0, 0.0, 0.0],
    [0.0, 0.0, 1.0, 0.0],
    [0.0, 0.0, 0.0, 1.0]
],
  "dcmmeta_shape": [82, 82, 56, 1065],
  "dcmmeta_slice_dim": 2,
  "dcmmeta_version": 0.6,
  "global": {
    "const": {
      "AccessionNumber": "A004185",
      "AcquisitionMatrix": [82, 0, 0, 82],
      "AngioFlag": "N",
      "BitsAllocated": 16,
      "BitsStored": 16,
      "BodyPartExamined": "BRAIN",
      "Columns": 656,
      "EchoNumbers": 1,
      "EchoTime": 27.2,
      "EchoTrainLength": 82,
      "FlipAngle": 44.0,
      "HighBit": 15,
      "ImageOrientationPatient": [0.9992652687724, 0.01397328310204, 0.03568851334224, -0.0214550484809, 0.97553914354165, 0.21877627913624],
      "ImagePositionPatient": [-862.38385607525, -870.28918253276, -262.34975712546],
      "ImageType": [
        "ORIGINAL",
        "PRIMARY",
        "M",
        "MB",
        "ND",
        "NORM",
        "MOSAIC"
],
      "ImagedNucleus": "1H",
      "ImagingFrequency": 123.25216,
      "InPlanePhaseEncodingDirection": "COL",
      "MRAcquisitionType": "2D",
      "MagneticFieldStrength": 3.0,
      "Manufacturer": "SIEMENS",
      "ManufacturerModelName": "Prisma",
      "Modality": "MR",
      "NumberOfAverages": 1.0,
      "NumberOfPhaseEncodingSteps": 82,
      "PercentPhaseFieldOfView": 100.0,
      "PercentSampling": 100.0,
      "PerformedProcedureStepStartTime": "121248.621000",
      "PhotometricInterpretation": "MONOCHROME2",
      "PixelBandwidth": 3050.0,
      "PixelRepresentation": 0,
      "PixelSpacing": [2.6829268932343, 2.6829268932343],
      "ProtocolName": "func_run-03_task-alignvideo_acq-ap-mb8",
      "RepetitionTime": 460.0,
      "Rows": 656,
      "SAR": 0.12279417745148,
      "SamplesPerPixel": 1,
      "ScanOptions": "FS",
      "ScanningSequence": "EP",
      "SequenceName": "epfid2d1_82",
      "SequenceVariant": [
        "SK",
        "SS"
],
      "SeriesDescription": "func_run-03_task-alignvideo_acq-ap-mb8",
      "SeriesNumber": 32,
      "SeriesTime": "134127.624000",
      "SliceLocation": -37.509916967062,
      "SliceThickness": 2.7000000476837,
      "SmallestImagePixelValue": 0,
      "SoftwareVersions": "syngo MR E11",
      "SpacingBetweenSlices": 2.7000000178003,
      "SpecificCharacterSet": "ISO_IR 100",
      "StudyID": "2",
      "StudyTime": "121248.570000",
      "TransmitCoilName": "Body",
      "VariableFlipAngleFlag": "N",
      "WindowCenterWidthExplanation": "Algo1"
    },
    "slices": {}
  },
  "time": {
    "samples": {
      "AcquisitionNumber": [1, 2, 3, 4, 5, 6, 7, 8, 9, 10, 11, 12, 13, 14, 15, 16, 17, 18, 19, 20, 21, 22, 23, 24, 25, 26, 27, 28, 29, 30, 31, 32, 33, 34, 35, 36, 37, 38, 39, 40, 41, 42, 43, 44, 45, 46, 47, 48, 49, 50, 51, 52, 53, 54, 55, 56, 57, 58, 59, 60, 61, 62, 63, 64, 65, 66, 67, 68, 69, 70, 71, 72, 73, 74, 75, 76, 77, 78, 79, 80, 81, 82, 83, 84, 85, 86, 87, 88, 89, 90, 91, 92, 93, 94, 95, 96, 97, 98, 99, 100, 101, 102, 103, 104, 105, 106, 107, 108, 109, 110, 111, 112, 113, 114, 115, 116, 117, 118, 119, 120, 121, 122, 123, 124, 125, 126, 127, 128, 129, 130, 131, 132, 133, 134, 135, 136, 137, 138, 139, 140, 141, 142, 143, 144, 145, 146, 147, 148, 149, 150, 151, 152, 153, 154, 155, 156, 157, 158, 159, 160, 161, 162, 163, 164, 165, 166, 167, 168, 169, 170, 171, 172, 173, 174, 175, 176, 177, 178, 179, 180, 181, 182, 183, 184, 185, 186, 187, 188, 189, 190, 191, 192, 193, 194, 195, 196, 197, 198, 199, 200, 201, 202, 203, 204, 205, 206, 207, 208, 209, 210, 211, 212, 213, 214, 215, 216, 217, 218, 219, 220, 221, 222, 223, 224, 225, 226, 227, 228, 229, 230, 231, 232, 233, 234, 235, 236, 237, 238, 239, 240, 241, 242, 243, 244, 245, 246, 247, 248, 249, 250, 251, 252, 253, 254, 255, 256, 257, 258, 259, 260, 261, 262, 263, 264, 265, 266, 267, 268, 269, 270, 271, 272, 273, 274, 275, 276, 277, 278, 279, 280, 281, 282, 283, 284, 285, 286, 287, 288, 289, 290, 291, 292, 293, 294, 295, 296, 297, 298, 299, 300, 301, 302, 303, 304, 305, 306, 307, 308, 309, 310, 311, 312, 313, 314, 315, 316, 317, 318, 319, 320, 321, 322, 323, 324, 325, 326, 327, 328, 329, 330, 331, 332, 333, 334, 335, 336, 337, 338, 339, 340, 341, 342, 343, 344, 345, 346, 347, 348, 349, 350, 351, 352, 353, 354, 355, 356, 357, 358, 359, 360, 361, 362, 363, 364, 365, 366, 367, 368, 369, 370, 371, 372, 373, 374, 375, 376, 377, 378, 379, 380, 381, 382, 383, 384, 385, 386, 387, 388, 389, 390, 391, 392, 393, 394, 395, 396, 397, 398, 399, 400, 401, 402, 403, 404, 405, 406, 407, 408, 409, 410, 411, 412, 413, 414, 415, 416, 417, 418, 419, 420, 421, 422, 423, 424, 425, 426, 427, 428, 429, 430, 431, 432, 433, 434, 435, 436, 437, 438, 439, 440, 441, 442, 443, 444, 445, 446, 447, 448, 449, 450, 451, 452, 453, 454, 455, 456, 457, 458, 459, 460, 461, 462, 463, 464, 465, 466, 467, 468, 469, 470, 471, 472, 473, 474, 475, 476, 477, 478, 479, 480, 481, 482, 483, 484, 485, 486, 487, 488, 489, 490, 491, 492, 493, 494, 495, 496, 497, 498, 499, 500, 501, 502, 503, 504, 505, 506, 507, 508, 509, 510, 511, 512, 513, 514, 515, 516, 517, 518, 519, 520, 521, 522, 523, 524, 525, 526, 527, 528, 529, 530, 531, 532, 533, 534, 535, 536, 537, 538, 539, 540, 541, 542, 543, 544, 545, 546, 547, 548, 549, 550, 551, 552, 553, 554, 555, 556, 557, 558, 559, 560, 561, 562, 563, 564, 565, 566, 567, 568, 569, 570, 571, 572, 573, 574, 575, 576, 577, 578, 579, 580, 581, 582, 583, 584, 585, 586, 587, 588, 589, 590, 591, 592, 593, 594, 595, 596, 597, 598, 599, 600, 601, 602, 603, 604, 605, 606, 607, 608, 609, 610, 611, 612, 613, 614, 615, 616, 617, 618, 619, 620, 621, 622, 623, 624, 625, 626, 627, 628, 629, 630, 631, 632, 633, 634, 635, 636, 637, 638, 639, 640, 641, 642, 643, 644, 645, 646, 647, 648, 649, 650, 651, 652, 653, 654, 655, 656, 657, 658, 659, 660, 661, 662, 663, 664, 665, 666, 667, 668, 669, 670, 671, 672, 673, 674, 675, 676, 677, 678, 679, 680, 681, 682, 683, 684, 685, 686, 687, 688, 689, 690, 691, 692, 693, 694, 695, 696, 697, 698, 699, 700, 701, 702, 703, 704, 705, 706, 707, 708, 709, 710, 711, 712, 713, 714, 715, 716, 717, 718, 719, 720, 721, 722, 723, 724, 725, 726, 727, 728, 729, 730, 731, 732, 733, 734, 735, 736, 737, 738, 739, 740, 741, 742, 743, 744, 745, 746, 747, 748, 749, 750, 751, 752, 753, 754, 755, 756, 757, 758, 759, 760, 761, 762, 763, 764, 765, 766, 767, 768, 769, 770, 771, 772, 773, 774, 775, 776, 777, 778, 779, 780, 781, 782, 783, 784, 785, 786, 787, 788, 789, 790, 791, 792, 793, 794, 795, 796, 797, 798, 799, 800, 801, 802, 803, 804, 805, 806, 807, 808, 809, 810, 811, 812, 813, 814, 815, 816, 817, 818, 819, 820, 821, 822, 823, 824, 825, 826, 827, 828, 829, 830, 831, 832, 833, 834, 835, 836, 837, 838, 839, 840, 841, 842, 843, 844, 845, 846, 847, 848, 849, 850, 851, 852, 853, 854, 855, 856, 857, 858, 859, 860, 861, 862, 863, 864, 865, 866, 867, 868, 869, 870, 871, 872, 873, 874, 875, 876, 877, 878, 879, 880, 881, 882, 883, 884, 885, 886, 887, 888, 889, 890, 891, 892, 893, 894, 895, 896, 897, 898, 899, 900, 901, 902, 903, 904, 905, 906, 907, 908, 909, 910, 911, 912, 913, 914, 915, 916, 917, 918, 919, 920, 921, 922, 923, 924, 925, 926, 927, 928, 929, 930, 931, 932, 933, 934, 935, 936, 937, 938, 939, 940, 941, 942, 943, 944, 945, 946, 947, 948, 949, 950, 951, 952, 953, 954, 955, 956, 957, 958, 959, 960, 961, 962, 963, 964, 965, 966, 967, 968, 969, 970, 971, 972, 973, 974, 975, 976, 977, 978, 979, 980, 981, 982, 983, 984, 985, 986, 987, 988, 989, 990, 991, 992, 993, 994, 995, 996, 997, 998, 999, 1000, 1001, 1002, 1003, 1004, 1005, 1006, 1007, 1008, 1009, 1010, 1011, 1012, 1013, 1014, 1015, 1016, 1017, 1018, 1019, 1020, 1021, 1022, 1023, 1024, 1025, 1026, 1027, 1028, 1029, 1030, 1031, 1032, 1033, 1034, 1035, 1036, 1037, 1038, 1039, 1040, 1041, 1042, 1043, 1044, 1045, 1046, 1047, 1048, 1049, 1050, 1051, 1052, 1053, 1054, 1055, 1056, 1057, 1058, 1059, 1060, 1061, 1062, 1063, 1064, 1065],
      "AcquisitionTime": ["134110.540000", "134111.000000", "134111.460000", "134111.920000", "134112.380000", "134112.840000", "134113.300000", "134113.760000", "134114.220000", "134114.680000", "134115.140000", "134115.600000", "134116.060000", "134116.520000", "134116.980000", "134117.440000", "134117.900000", "134118.360000", "134118.820000", "134119.280000", "134119.740000", "134120.200000", "134120.660000", "134121.120000", "134121.580000", "134122.040000", "134122.500000", "134122.960000", "134123.420000", "134123.880000", "134124.340000", "134124.800000", "134125.260000", "134125.720000", "134126.180000", "134126.640000", "134127.100000", "134127.560000", "134128.020000", "134128.480000", "134128.940000", "134129.400000", "134129.860000", "134130.320000", "134130.780000", "134131.240000", "134131.700000", "134132.160000", "134132.620000", "134133.080000", "134133.540000", "134134.000000", "134134.460000", "134134.920000", "134135.380000", "134135.840000", "134136.300000", "134136.760000", "134137.220000", "134137.680000", "134138.140000", "134138.600000", "134139.060000", "134139.520000", "134139.980000", "134140.440000", "134140.900000", "134141.360000", "134141.820000", "134142.280000", "134142.740000", "134143.200000", "134143.660000", "134144.120000", "134144.580000", "134145.040000", "134145.500000", "134145.960000", "134146.420000", "134146.880000", "134147.340000", "134147.800000", "134148.260000", "134148.720000", "134149.180000", "134149.640000", "134150.100000", "134150.560000", "134151.020000", "134151.480000", "134151.940000", "134152.400000", "134152.860000", "134153.320000", "134153.780000", "134154.240000", "134154.700000", "134155.160000", "134155.620000", "134156.080000", "134156.540000", "134157.000000", "134157.460000", "134157.920000", "134158.380000", "134158.840000", "134159.300000", "134159.760000", "134200.220000", "134200.680000", "134201.140000", "134201.600000", "134202.060000", "134202.520000", "134202.980000", "134203.440000", "134203.900000", "134204.360000", "134204.820000", "134205.280000", "134205.740000", "134206.200000", "134206.660000", "134207.120000", "134207.580000", "134208.040000", "134208.500000", "134208.960000", "134209.420000", "134209.880000", "134210.340000", "134210.800000", "134211.260000", "134211.720000", "134212.180000", "134212.640000", "134213.100000", "134213.560000", "134214.020000", "134214.480000", "134214.940000", "134215.400000", "134215.860000", "134216.320000", "134216.780000", "134217.240000", "134217.700000", "134218.160000", "134218.620000", "134219.080000", "134219.540000", "134220.000000", "134220.460000", "134220.920000", "134221.380000", "134221.840000", "134222.300000", "134222.760000", "134223.220000", "134223.680000", "134224.140000", "134224.600000", "134225.060000", "134225.520000", "134225.980000", "134226.440000", "134226.900000", "134227.360000", "134227.820000", "134228.280000", "134228.740000", "134229.200000", "134229.660000", "134230.120000", "134230.580000", "134231.040000", "134231.500000", "134231.960000", "134232.420000", "134232.880000", "134233.340000", "134233.800000", "134234.260000", "134234.720000", "134235.180000", "134235.640000", "134236.100000", "134236.560000", "134237.020000", "134237.480000", "134237.940000", "134238.400000", "134238.860000", "134239.320000", "134239.780000", "134240.240000", "134240.700000", "134241.160000", "134241.620000", "134242.080000", "134242.540000", "134243.000000", "134243.460000", "134243.920000", "134244.380000", "134244.840000", "134245.300000", "134245.760000", "134246.220000", "134246.680000", "134247.140000", "134247.600000", "134248.060000", "134248.520000", "134248.980000", "134249.440000", "134249.900000", "134250.360000", "134250.820000", "134251.280000", "134251.740000", "134252.200000", "134252.660000", "134253.120000", "134253.580000", "134254.040000", "134254.500000", "134254.960000", "134255.420000", "134255.880000", "134256.340000", "134256.800000", "134257.260000", "134257.720000", "134258.180000", "134258.640000", "134259.100000", "134259.560000", "134300.020000", "134300.480000", "134300.940000", "134301.400000", "134301.860000", "134302.320000", "134302.780000", "134303.240000", "134303.700000", "134304.160000", "134304.620000", "134305.080000", "134305.540000", "134306.000000", "134306.460000", "134306.920000", "134307.380000", "134307.840000", "134308.300000", "134308.760000", "134309.220000", "134309.680000", "134310.140000", "134310.600000", "134311.060000", "134311.520000", "134311.980000", "134312.440000", "134312.900000", "134313.360000", "134313.820000", "134314.280000", "134314.740000", "134315.200000", "134315.660000", "134316.120000", "134316.580000", "134317.040000", "134317.500000", "134317.960000", "134318.420000", "134318.880000", "134319.340000", "134319.800000", "134320.260000", "134320.720000", "134321.180000", "134321.640000", "134322.100000", "134322.560000", "134323.020000", "134323.480000", "134323.940000", "134324.400000", "134324.860000", "134325.320000", "134325.780000", "134326.240000", "134326.700000", "134327.160000", "134327.620000", "134328.080000", "134328.540000", "134329.000000", "134329.460000", "134329.920000", "134330.380000", "134330.840000", "134331.300000", "134331.760000", "134332.220000", "134332.680000", "134333.140000", "134333.600000", "134334.060000", "134334.520000", "134334.980000", "134335.440000", "134335.900000", "134336.360000", "134336.820000", "134337.280000", "134337.740000", "134338.200000", "134338.660000", "134339.120000", "134339.580000", "134340.040000", "134340.500000", "134340.960000", "134341.420000", "134341.880000", "134342.340000", "134342.800000", "134343.260000", "134343.720000", "134344.180000", "134344.640000", "134345.100000", "134345.560000", "134346.020000", "134346.480000", "134346.940000", "134347.400000", "134347.860000", "134348.320000", "134348.780000", "134349.240000", "134349.700000", "134350.160000", "134350.620000", "134351.080000", "134351.540000", "134352.000000", "134352.460000", "134352.920000", "134353.380000", "134353.840000", "134354.300000", "134354.760000", "134355.220000", "134355.680000", "134356.140000", "134356.600000", "134357.060000", "134357.520000", "134357.980000", "134358.440000", "134358.900000", "134359.360000", "134359.820000", "134400.280000", "134400.740000", "134401.200000", "134401.660000", "134402.120000", "134402.580000", "134403.040000", "134403.500000", "134403.960000", "134404.420000", "134404.880000", "134405.340000", "134405.800000", "134406.260000", "134406.720000", "134407.180000", "134407.640000", "134408.100000", "134408.560000", "134409.020000", "134409.480000", "134409.940000", "134410.400000", "134410.860000", "134411.320000", "134411.780000", "134412.240000", "134412.700000", "134413.160000", "134413.620000", "134414.080000", "134414.540000", "134415.000000", "134415.460000", "134415.920000", "134416.380000", "134416.840000", "134417.300000", "134417.760000", "134418.220000", "134418.680000", "134419.140000", "134419.600000", "134420.060000", "134420.520000", "134420.980000", "134421.440000", "134421.900000", "134422.360000", "134422.820000", "134423.280000", "134423.740000", "134424.200000", "134424.660000", "134425.120000", "134425.580000", "134426.040000", "134426.500000", "134426.960000", "134427.420000", "134427.880000", "134428.340000", "134428.800000", "134429.260000", "134429.720000", "134430.180000", "134430.640000", "134431.100000", "134431.560000", "134432.020000", "134432.480000", "134432.940000", "134433.400000", "134433.860000", "134434.320000", "134434.780000", "134435.240000", "134435.700000", "134436.160000", "134436.620000", "134437.080000", "134437.540000", "134438.000000", "134438.460000", "134438.920000", "134439.380000", "134439.840000", "134440.300000", "134440.760000", "134441.220000", "134441.680000", "134442.140000", "134442.600000", "134443.060000", "134443.520000", "134443.980000", "134444.440000", "134444.900000", "134445.360000", "134445.820000", "134446.280000", "134446.740000", "134447.200000", "134447.660000", "134448.120000", "134448.580000", "134449.040000", "134449.500000", "134449.960000", "134450.420000", "134450.880000", "134451.340000", "134451.800000", "134452.260000", "134452.720000", "134453.180000", "134453.640000", "134454.100000", "134454.560000", "134455.020000", "134455.480000", "134455.940000", "134456.400000", "134456.860000", "134457.320000", "134457.780000", "134458.240000", "134458.700000", "134459.160000", "134459.620000", "134500.080000", "134500.540000", "134501.000000", "134501.460000", "134501.920000", "134502.380000", "134502.840000", "134503.300000", "134503.760000", "134504.220000", "134504.680000", "134505.140000", "134505.600000", "134506.060000", "134506.520000", "134506.980000", "134507.440000", "134507.900000", "134508.360000", "134508.820000", "134509.280000", "134509.740000", "134510.200000", "134510.660000", "134511.120000", "134511.580000", "134512.040000", "134512.500000", "134512.960000", "134513.420000", "134513.880000", "134514.340000", "134514.800000", "134515.260000", "134515.720000", "134516.180000", "134516.640000", "134517.100000", "134517.560000", "134518.020000", "134518.480000", "134518.940000", "134519.400000", "134519.860000", "134520.320000", "134520.780000", "134521.240000", "134521.700000", "134522.160000", "134522.620000", "134523.080000", "134523.540000", "134524.000000", "134524.460000", "134524.920000", "134525.380000", "134525.840000", "134526.300000", "134526.760000", "134527.220000", "134527.680000", "134528.140000", "134528.600000", "134529.060000", "134529.520000", "134529.980000", "134530.440000", "134530.900000", "134531.360000", "134531.820000", "134532.280000", "134532.740000", "134533.200000", "134533.660000", "134534.120000", "134534.580000", "134535.040000", "134535.500000", "134535.960000", "134536.420000", "134536.880000", "134537.340000", "134537.800000", "134538.260000", "134538.720000", "134539.180000", "134539.640000", "134540.100000", "134540.560000", "134541.020000", "134541.480000", "134541.940000", "134542.400000", "134542.860000", "134543.320000", "134543.780000", "134544.240000", "134544.700000", "134545.160000", "134545.620000", "134546.080000", "134546.540000", "134547.000000", "134547.460000", "134547.920000", "134548.380000", "134548.840000", "134549.300000", "134549.760000", "134550.220000", "134550.680000", "134551.140000", "134551.600000", "134552.060000", "134552.520000", "134552.980000", "134553.440000", "134553.900000", "134554.360000", "134554.820000", "134555.280000", "134555.740000", "134556.200000", "134556.660000", "134557.120000", "134557.580000", "134558.040000", "134558.500000", "134558.960000", "134559.420000", "134559.880000", "134600.340000", "134600.800000", "134601.260000", "134601.720000", "134602.180000", "134602.640000", "134603.100000", "134603.560000", "134604.020000", "134604.480000", "134604.940000", "134605.400000", "134605.860000", "134606.320000", "134606.780000", "134607.240000", "134607.700000", "134608.160000", "134608.620000", "134609.080000", "134609.540000", "134610.000000", "134610.460000", "134610.920000", "134611.380000", "134611.840000", "134612.300000", "134612.760000", "134613.220000", "134613.680000", "134614.140000", "134614.600000", "134615.060000", "134615.520000", "134615.980000", "134616.440000", "134616.900000", "134617.360000", "134617.820000", "134618.280000", "134618.740000", "134619.200000", "134619.660000", "134620.120000", "134620.580000", "134621.040000", "134621.500000", "134621.960000", "134622.420000", "134622.880000", "134623.340000", "134623.800000", "134624.260000", "134624.720000", "134625.180000", "134625.640000", "134626.100000", "134626.560000", "134627.020000", "134627.480000", "134627.940000", "134628.400000", "134628.860000", "134629.320000", "134629.780000", "134630.240000", "134630.700000", "134631.160000", "134631.620000", "134632.080000", "134632.540000", "134633.000000", "134633.460000", "134633.920000", "134634.380000", "134634.840000", "134635.300000", "134635.760000", "134636.220000", "134636.680000", "134637.140000", "134637.600000", "134638.060000", "134638.520000", "134638.980000", "134639.440000", "134639.900000", "134640.360000", "134640.820000", "134641.280000", "134641.740000", "134642.200000", "134642.660000", "134643.120000", "134643.580000", "134644.040000", "134644.500000", "134644.960000", "134645.420000", "134645.880000", "134646.340000", "134646.800000", "134647.260000", "134647.720000", "134648.180000", "134648.640000", "134649.100000", "134649.560000", "134650.020000", "134650.480000", "134650.940000", "134651.400000", "134651.860000", "134652.320000", "134652.780000", "134653.240000", "134653.700000", "134654.160000", "134654.620000", "134655.080000", "134655.540000", "134656.000000", "134656.460000", "134656.920000", "134657.380000", "134657.840000", "134658.300000", "134658.760000", "134659.220000", "134659.680000", "134700.140000", "134700.600000", "134701.060000", "134701.520000", "134701.980000", "134702.440000", "134702.900000", "134703.360000", "134703.820000", "134704.280000", "134704.740000", "134705.200000", "134705.660000", "134706.120000", "134706.580000", "134707.040000", "134707.500000", "134707.960000", "134708.420000", "134708.880000", "134709.340000", "134709.800000", "134710.260000", "134710.720000", "134711.180000", "134711.640000", "134712.100000", "134712.560000", "134713.020000", "134713.480000", "134713.940000", "134714.400000", "134714.860000", "134715.320000", "134715.780000", "134716.240000", "134716.700000", "134717.160000", "134717.620000", "134718.080000", "134718.540000", "134719.000000", "134719.460000", "134719.920000", "134720.380000", "134720.840000", "134721.300000", "134721.760000", "134722.220000", "134722.680000", "134723.140000", "134723.600000", "134724.060000", "134724.520000", "134724.980000", "134725.440000", "134725.900000", "134726.360000", "134726.820000", "134727.280000", "134727.740000", "134728.200000", "134728.660000", "134729.120000", "134729.580000", "134730.040000", "134730.500000", "134730.960000", "134731.420000", "134731.880000", "134732.340000", "134732.800000", "134733.260000", "134733.720000", "134734.180000", "134734.640000", "134735.100000", "134735.560000", "134736.020000", "134736.480000", "134736.940000", "134737.400000", "134737.860000", "134738.320000", "134738.780000", "134739.240000", "134739.700000", "134740.160000", "134740.620000", "134741.080000", "134741.540000", "134742.000000", "134742.460000", "134742.920000", "134743.380000", "134743.840000", "134744.300000", "134744.760000", "134745.220000", "134745.680000", "134746.140000", "134746.600000", "134747.060000", "134747.520000", "134747.980000", "134748.440000", "134748.900000", "134749.360000", "134749.820000", "134750.280000", "134750.740000", "134751.200000", "134751.660000", "134752.120000", "134752.580000", "134753.040000", "134753.500000", "134753.960000", "134754.420000", "134754.880000", "134755.340000", "134755.800000", "134756.260000", "134756.720000", "134757.180000", "134757.640000", "134758.100000", "134758.560000", "134759.020000", "134759.480000", "134759.940000", "134800.400000", "134800.860000", "134801.320000", "134801.780000", "134802.240000", "134802.700000", "134803.160000", "134803.620000", "134804.080000", "134804.540000", "134805.000000", "134805.460000", "134805.920000", "134806.380000", "134806.840000", "134807.300000", "134807.760000", "134808.220000", "134808.680000", "134809.140000", "134809.600000", "134810.060000", "134810.520000", "134810.980000", "134811.440000", "134811.900000", "134812.360000", "134812.820000", "134813.280000", "134813.740000", "134814.200000", "134814.660000", "134815.120000", "134815.580000", "134816.040000", "134816.500000", "134816.960000", "134817.420000", "134817.880000", "134818.340000", "134818.800000", "134819.260000", "134819.720000", "134820.180000", "134820.640000", "134821.100000", "134821.560000", "134822.020000", "134822.480000", "134822.940000", "134823.400000", "134823.860000", "134824.320000", "134824.780000", "134825.240000", "134825.700000", "134826.160000", "134826.620000", "134827.080000", "134827.540000", "134828.000000", "134828.460000", "134828.920000", "134829.380000", "134829.840000", "134830.300000", "134830.760000", "134831.220000", "134831.680000", "134832.140000", "134832.600000", "134833.060000", "134833.520000", "134833.980000", "134834.440000", "134834.900000", "134835.360000", "134835.820000", "134836.280000", "134836.740000", "134837.200000", "134837.660000", "134838.120000", "134838.580000", "134839.040000", "134839.500000", "134839.960000", "134840.420000", "134840.880000", "134841.340000", "134841.800000", "134842.260000", "134842.720000", "134843.180000", "134843.640000", "134844.100000", "134844.560000", "134845.020000", "134845.480000", "134845.940000", "134846.400000", "134846.860000", "134847.320000", "134847.780000", "134848.240000", "134848.700000", "134849.160000", "134849.620000", "134850.080000", "134850.540000", "134851.000000", "134851.460000", "134851.920000", "134852.380000", "134852.840000", "134853.300000", "134853.760000", "134854.220000", "134854.680000", "134855.140000", "134855.600000", "134856.060000", "134856.520000", "134856.980000", "134857.440000", "134857.900000", "134858.360000", "134858.820000", "134859.280000", "134859.740000", "134900.200000", "134900.660000", "134901.120000", "134901.580000", "134902.040000", "134902.500000", "134902.960000", "134903.420000", "134903.880000", "134904.340000", "134904.800000", "134905.260000", "134905.720000", "134906.180000", "134906.640000", "134907.100000", "134907.560000", "134908.020000", "134908.480000", "134908.940000", "134909.400000", "134909.860000", "134910.320000", "134910.780000", "134911.240000", "134911.700000", "134912.160000", "134912.620000", "134913.080000", "134913.540000", "134914.000000", "134914.460000", "134914.920000", "134915.380000", "134915.840000", "134916.300000", "134916.760000", "134917.220000", "134917.680000", "134918.140000", "134918.600000", "134919.060000", "134919.520000", "134919.980000"],
