{
  "AcquisitionMatrixPE": 82,
  "AcquisitionNumber": 1,
  "AcquisitionTime": "12:42:7.137500",
  "BandwidthPerPixelPhaseEncode": 24.888,
  "BaseResolution": 82,
  "BodyPartExamined": "BRAIN",
  "ConsistencyInfo": "N4_VE11E_LATEST_20181129",
  "ConversionSoftware": "dcm2niix",
  "ConversionSoftwareVersion": "v1.0.20201102",
  "DerivedVendorReportedEchoSpacing": 0.00049,
  "DeviceSerialNumber": "66112",
  "DwellTime": 2e-06,
  "EchoTime": 0.0272,
  "EchoTrainLength": 82,
  "EffectiveEchoSpacing": 0.00049,
  "FlipAngle": 44,
  "ImageComments": "Unaliased MB8/PE3",
  "ImageOrientationPatientDICOM": [0.999511, -0.0102699, 0.0295187, 0.00593134, 0.989637, 0.14347],
  "ImageType": [
    "ORIGINAL",
    "PRIMARY",
    "M",
    "MB",
    "ND",
    "NORM",
    "MOSAIC"
],
  "ImagingFrequency": 123.252,
  "InPlanePhaseEncodingDirectionDICOM": "COL",
  "InstitutionAddress": "Maynard 3,Hanover,NH,US,03755",
  "InstitutionName": "Dartmouth College - PBS",
  "InstitutionalDepartmentName": "Department",
  "MRAcquisitionType": "2D",
  "MagneticFieldStrength": 3,
  "Manufacturer": "Siemens",
  "ManufacturersModelName": "Prisma",
  "Modality": "MR",
  "MultibandAccelerationFactor": 8,
  "PartialFourier": 1,
  "PatientPosition": "HFS",
  "PercentPhaseFOV": 100,
  "PercentSampling": 100,
  "PhaseEncodingDirection": "j-",
  "PhaseEncodingSteps": 82,
  "PhaseResolution": 1,
  "PixelBandwidth": 3050,
  "ProcedureStepDescription": "Wager_Wager^1076_spacetop",
  "ProtocolName": "func_run-04_task-social_acq-ap-mb8",
  "PulseSequenceDetails": "%CustomerSeq%\\cmrr_mbep2d_bold",
  "ReceiveCoilActiveElements": "HEA;HEP",
  "ReceiveCoilName": "Head_32",
  "ReconMatrixPE": 82,
  "RepetitionTime": 0.46,
  "SAR": 0.122656,
  "ScanOptions": "FS",
  "ScanningSequence": "EP",
  "SequenceName": "epfid2d1_82",
  "SequenceVariant": "SK\\SS",
  "SeriesDescription": "func_run-04_task-social_acq-ap-mb8",
  "SeriesNumber": 14,
  "ShimSetting": [4172, -7773, -7219, 515, -17, -44, 50, 55],
  "SliceThickness": 2.7,
  "SliceTiming": [0, 0.2525, 0.065, 0.315, 0.1275, 0.3775, 0.19, 0, 0.2525, 0.065, 0.315, 0.1275, 0.3775, 0.19, 0, 0.2525, 0.065, 0.315, 0.1275, 0.3775, 0.19, 0, 0.2525, 0.065, 0.315, 0.1275, 0.3775, 0.19, 0, 0.2525, 0.065, 0.315, 0.1275, 0.3775, 0.19, 0, 0.2525, 0.065, 0.315, 0.1275, 0.3775, 0.19, 0, 0.2525, 0.065, 0.315, 0.1275, 0.3775, 0.19, 0, 0.2525, 0.065, 0.315, 0.1275, 0.3775, 0.19],
  "SoftwareVersions": "syngo MR E11",
  "SpacingBetweenSlices": 2.7,
  "StationName": "AWP66112",
  "TaskName": "social",
  "TotalReadoutTime": 0.03969,
  "TxRefAmp": 278.703,
  "WipMemBlock": "cdf087da-f63f-4d03-8d0d-81476cf8c3be||Sequence: R016 ve11e/master r/434b28f1; Aug  7 2019 18:53:46 by eja",
  "dcmmeta_affine": [
    [-2.6816163063049316, 0.0159133393317461, 0.08285287767648697, 110.96694946289062],
    [0.027553437277674675, 2.655123472213745, 0.3867069184780121, -102.455810546875],
    [0.07919660210609436, -0.3849194049835205, 2.6708786487579346, -31.893966674804688],
    [0.0, 0.0, 0.0, 1.0]
],
  "dcmmeta_reorient_transform": [
    [0.0, -1.0, 0.0, 81.0],
    [1.0, 0.0, 0.0, 0.0],
    [0.0, 0.0, 1.0, 0.0],
    [0.0, 0.0, 0.0, 1.0]
],
  "dcmmeta_shape": [82, 82, 56, 872],
  "dcmmeta_slice_dim": 2,
  "dcmmeta_version": 0.6,
  "global": {
    "const": {
      "AccessionNumber": "A004185",
      "AcquisitionMatrix": [82, 0, 0, 82],
      "AngioFlag": "N",
      "BitsAllocated": 16,
      "BitsStored": 16,
      "BodyPartExamined": "BRAIN",
      "Columns": 656,
      "EchoNumbers": 1,
      "EchoTime": 27.2,
      "EchoTrainLength": 82,
      "FlipAngle": 44.0,
      "HighBit": 15,
      "ImageOrientationPatient": [0.99951146730726, -0.0102699171274, 0.02951873173907, 0.00593133530576, 0.9896368979217, 0.14346996038689],
      "ImagePositionPatient": [-886.44690692364, -866.72177882106, -196.27373479868],
      "ImageType": [
        "ORIGINAL",
        "PRIMARY",
        "M",
        "MB",
        "ND",
        "NORM",
        "MOSAIC"
],
      "ImagedNucleus": "1H",
      "ImagingFrequency": 123.252151,
      "InPlanePhaseEncodingDirection": "COL",
      "MRAcquisitionType": "2D",
      "MagneticFieldStrength": 3.0,
      "Manufacturer": "SIEMENS",
      "ManufacturerModelName": "Prisma",
      "Modality": "MR",
      "NumberOfAverages": 1.0,
      "NumberOfPhaseEncodingSteps": 82,
      "PercentPhaseFieldOfView": 100.0,
      "PercentSampling": 100.0,
      "PerformedProcedureStepStartTime": "121248.621000",
      "PhotometricInterpretation": "MONOCHROME2",
      "PixelBandwidth": 3050.0,
      "PixelRepresentation": 0,
      "PixelSpacing": [2.6829268932343, 2.6829268932343],
      "ProtocolName": "func_run-04_task-social_acq-ap-mb8",
      "RepetitionTime": 460.0,
      "Rows": 656,
      "SAR": 0.12265581016076,
      "SamplesPerPixel": 1,
      "ScanOptions": "FS",
      "ScanningSequence": "EP",
      "SequenceName": "epfid2d1_82",
      "SequenceVariant": [
        "SK",
        "SS"
],
      "SeriesDescription": "func_run-04_task-social_acq-ap-mb8",
      "SeriesNumber": 14,
      "SeriesTime": "124227.572000",
      "SliceLocation": -42.819020908961,
      "SliceThickness": 2.7000000476837,
      "SmallestImagePixelValue": 0,
      "SoftwareVersions": "syngo MR E11",
      "SpacingBetweenSlices": 2.6999999459242,
      "SpecificCharacterSet": "ISO_IR 100",
      "StudyID": "2",
      "StudyTime": "121248.570000",
      "TransmitCoilName": "Body",
      "VariableFlipAngleFlag": "N",
      "WindowCenterWidthExplanation": "Algo1"
    },
    "slices": {}
  },
  "time": {
    "samples": {
      "AcquisitionNumber": [1, 2, 3, 4, 5, 6, 7, 8, 9, 10, 11, 12, 13, 14, 15, 16, 17, 18, 19, 20, 21, 22, 23, 24, 25, 26, 27, 28, 29, 30, 31, 32, 33, 34, 35, 36, 37, 38, 39, 40, 41, 42, 43, 44, 45, 46, 47, 48, 49, 50, 51, 52, 53, 54, 55, 56, 57, 58, 59, 60, 61, 62, 63, 64, 65, 66, 67, 68, 69, 70, 71, 72, 73, 74, 75, 76, 77, 78, 79, 80, 81, 82, 83, 84, 85, 86, 87, 88, 89, 90, 91, 92, 93, 94, 95, 96, 97, 98, 99, 100, 101, 102, 103, 104, 105, 106, 107, 108, 109, 110, 111, 112, 113, 114, 115, 116, 117, 118, 119, 120, 121, 122, 123, 124, 125, 126, 127, 128, 129, 130, 131, 132, 133, 134, 135, 136, 137, 138, 139, 140, 141, 142, 143, 144, 145, 146, 147, 148, 149, 150, 151, 152, 153, 154, 155, 156, 157, 158, 159, 160, 161, 162, 163, 164, 165, 166, 167, 168, 169, 170, 171, 172, 173, 174, 175, 176, 177, 178, 179, 180, 181, 182, 183, 184, 185, 186, 187, 188, 189, 190, 191, 192, 193, 194, 195, 196, 197, 198, 199, 200, 201, 202, 203, 204, 205, 206, 207, 208, 209, 210, 211, 212, 213, 214, 215, 216, 217, 218, 219, 220, 221, 222, 223, 224, 225, 226, 227, 228, 229, 230, 231, 232, 233, 234, 235, 236, 237, 238, 239, 240, 241, 242, 243, 244, 245, 246, 247, 248, 249, 250, 251, 252, 253, 254, 255, 256, 257, 258, 259, 260, 261, 262, 263, 264, 265, 266, 267, 268, 269, 270, 271, 272, 273, 274, 275, 276, 277, 278, 279, 280, 281, 282, 283, 284, 285, 286, 287, 288, 289, 290, 291, 292, 293, 294, 295, 296, 297, 298, 299, 300, 301, 302, 303, 304, 305, 306, 307, 308, 309, 310, 311, 312, 313, 314, 315, 316, 317, 318, 319, 320, 321, 322, 323, 324, 325, 326, 327, 328, 329, 330, 331, 332, 333, 334, 335, 336, 337, 338, 339, 340, 341, 342, 343, 344, 345, 346, 347, 348, 349, 350, 351, 352, 353, 354, 355, 356, 357, 358, 359, 360, 361, 362, 363, 364, 365, 366, 367, 368, 369, 370, 371, 372, 373, 374, 375, 376, 377, 378, 379, 380, 381, 382, 383, 384, 385, 386, 387, 388, 389, 390, 391, 392, 393, 394, 395, 396, 397, 398, 399, 400, 401, 402, 403, 404, 405, 406, 407, 408, 409, 410, 411, 412, 413, 414, 415, 416, 417, 418, 419, 420, 421, 422, 423, 424, 425, 426, 427, 428, 429, 430, 431, 432, 433, 434, 435, 436, 437, 438, 439, 440, 441, 442, 443, 444, 445, 446, 447, 448, 449, 450, 451, 452, 453, 454, 455, 456, 457, 458, 459, 460, 461, 462, 463, 464, 465, 466, 467, 468, 469, 470, 471, 472, 473, 474, 475, 476, 477, 478, 479, 480, 481, 482, 483, 484, 485, 486, 487, 488, 489, 490, 491, 492, 493, 494, 495, 496, 497, 498, 499, 500, 501, 502, 503, 504, 505, 506, 507, 508, 509, 510, 511, 512, 513, 514, 515, 516, 517, 518, 519, 520, 521, 522, 523, 524, 525, 526, 527, 528, 529, 530, 531, 532, 533, 534, 535, 536, 537, 538, 539, 540, 541, 542, 543, 544, 545, 546, 547, 548, 549, 550, 551, 552, 553, 554, 555, 556, 557, 558, 559, 560, 561, 562, 563, 564, 565, 566, 567, 568, 569, 570, 571, 572, 573, 574, 575, 576, 577, 578, 579, 580, 581, 582, 583, 584, 585, 586, 587, 588, 589, 590, 591, 592, 593, 594, 595, 596, 597, 598, 599, 600, 601, 602, 603, 604, 605, 606, 607, 608, 609, 610, 611, 612, 613, 614, 615, 616, 617, 618, 619, 620, 621, 622, 623, 624, 625, 626, 627, 628, 629, 630, 631, 632, 633, 634, 635, 636, 637, 638, 639, 640, 641, 642, 643, 644, 645, 646, 647, 648, 649, 650, 651, 652, 653, 654, 655, 656, 657, 658, 659, 660, 661, 662, 663, 664, 665, 666, 667, 668, 669, 670, 671, 672, 673, 674, 675, 676, 677, 678, 679, 680, 681, 682, 683, 684, 685, 686, 687, 688, 689, 690, 691, 692, 693, 694, 695, 696, 697, 698, 699, 700, 701, 702, 703, 704, 705, 706, 707, 708, 709, 710, 711, 712, 713, 714, 715, 716, 717, 718, 719, 720, 721, 722, 723, 724, 725, 726, 727, 728, 729, 730, 731, 732, 733, 734, 735, 736, 737, 738, 739, 740, 741, 742, 743, 744, 745, 746, 747, 748, 749, 750, 751, 752, 753, 754, 755, 756, 757, 758, 759, 760, 761, 762, 763, 764, 765, 766, 767, 768, 769, 770, 771, 772, 773, 774, 775, 776, 777, 778, 779, 780, 781, 782, 783, 784, 785, 786, 787, 788, 789, 790, 791, 792, 793, 794, 795, 796, 797, 798, 799, 800, 801, 802, 803, 804, 805, 806, 807, 808, 809, 810, 811, 812, 813, 814, 815, 816, 817, 818, 819, 820, 821, 822, 823, 824, 825, 826, 827, 828, 829, 830, 831, 832, 833, 834, 835, 836, 837, 838, 839, 840, 841, 842, 843, 844, 845, 846, 847, 848, 849, 850, 851, 852, 853, 854, 855, 856, 857, 858, 859, 860, 861, 862, 863, 864, 865, 866, 867, 868, 869, 870, 871, 872],
      "AcquisitionTime": ["124207.137500", "124207.597500", "124208.057500", "124208.517500", "124208.977500", "124209.437500", "124209.897500", "124210.357500", "124210.817500", "124211.277500", "124211.737500", "124212.197500", "124212.657500", "124213.117500", "124213.577500", "124214.037500", "124214.497500", "124214.957500", "124215.417500", "124215.877500", "124216.337500", "124216.797500", "124217.257500", "124217.717500", "124218.177500", "124218.637500", "124219.097500", "124219.557500", "124220.017500", "124220.477500", "124220.937500", "124221.397500", "124221.857500", "124222.317500", "124222.777500", "124223.237500", "124223.697500", "124224.157500", "124224.617500", "124225.077500", "124225.537500", "124225.997500", "124226.457500", "124226.917500", "124227.377500", "124227.837500", "124228.297500", "124228.757500", "124229.217500", "124229.677500", "124230.137500", "124230.597500", "124231.057500", "124231.517500", "124231.977500", "124232.437500", "124232.897500", "124233.357500", "124233.817500", "124234.277500", "124234.737500", "124235.197500", "124235.657500", "124236.117500", "124236.577500", "124237.037500", "124237.497500", "124237.957500", "124238.417500", "124238.877500", "124239.337500", "124239.797500", "124240.257500", "124240.717500", "124241.177500", "124241.637500", "124242.097500", "124242.557500", "124243.017500", "124243.477500", "124243.937500", "124244.397500", "124244.857500", "124245.317500", "124245.777500", "124246.237500", "124246.697500", "124247.157500", "124247.617500", "124248.077500", "124248.537500", "124248.997500", "124249.457500", "124249.917500", "124250.377500", "124250.837500", "124251.297500", "124251.757500", "124252.217500", "124252.677500", "124253.137500", "124253.597500", "124254.057500", "124254.517500", "124254.977500", "124255.437500", "124255.897500", "124256.357500", "124256.817500", "124257.277500", "124257.737500", "124258.197500", "124258.657500", "124259.117500", "124259.577500", "124300.037500", "124300.497500", "124300.957500", "124301.417500", "124301.877500", "124302.337500", "124302.797500", "124303.257500", "124303.717500", "124304.177500", "124304.637500", "124305.097500", "124305.557500", "124306.017500", "124306.477500", "124306.937500", "124307.397500", "124307.857500", "124308.317500", "124308.777500", "124309.237500", "124309.697500", "124310.157500", "124310.617500", "124311.077500", "124311.537500", "124311.997500", "124312.457500", "124312.917500", "124313.377500", "124313.837500", "124314.297500", "124314.757500", "124315.217500", "124315.677500", "124316.137500", "124316.597500", "124317.057500", "124317.517500", "124317.977500", "124318.437500", "124318.897500", "124319.357500", "124319.817500", "124320.277500", "124320.737500", "124321.197500", "124321.657500", "124322.117500", "124322.577500", "124323.037500", "124323.497500", "124323.957500", "124324.417500", "124324.877500", "124325.337500", "124325.797500", "124326.257500", "124326.717500", "124327.177500", "124327.637500", "124328.097500", "124328.557500", "124329.017500", "124329.477500", "124329.937500", "124330.397500", "124330.857500", "124331.317500", "124331.777500", "124332.237500", "124332.697500", "124333.157500", "124333.617500", "124334.077500", "124334.537500", "124334.997500", "124335.457500", "124335.917500", "124336.377500", "124336.837500", "124337.297500", "124337.757500", "124338.217500", "124338.677500", "124339.137500", "124339.597500", "124340.057500", "124340.517500", "124340.977500", "124341.437500", "124341.897500", "124342.357500", "124342.817500", "124343.277500", "124343.737500", "124344.197500", "124344.657500", "124345.117500", "124345.577500", "124346.037500", "124346.497500", "124346.957500", "124347.417500", "124347.877500", "124348.337500", "124348.797500", "124349.257500", "124349.717500", "124350.177500", "124350.637500", "124351.097500", "124351.557500", "124352.017500", "124352.477500", "124352.937500", "124353.397500", "124353.857500", "124354.317500", "124354.777500", "124355.237500", "124355.697500", "124356.157500", "124356.617500", "124357.077500", "124357.537500", "124357.997500", "124358.457500", "124358.917500", "124359.377500", "124359.837500", "124400.297500", "124400.757500", "124401.217500", "124401.677500", "124402.137500", "124402.597500", "124403.057500", "124403.517500", "124403.977500", "124404.437500", "124404.897500", "124405.357500", "124405.817500", "124406.277500", "124406.737500", "124407.197500", "124407.657500", "124408.117500", "124408.577500", "124409.037500", "124409.497500", "124409.957500", "124410.417500", "124410.877500", "124411.337500", "124411.797500", "124412.257500", "124412.717500", "124413.177500", "124413.637500", "124414.097500", "124414.557500", "124415.017500", "124415.477500", "124415.937500", "124416.397500", "124416.857500", "124417.317500", "124417.777500", "124418.237500", "124418.697500", "124419.157500", "124419.617500", "124420.077500", "124420.537500", "124420.997500", "124421.457500", "124421.917500", "124422.377500", "124422.837500", "124423.297500", "124423.757500", "124424.217500", "124424.677500", "124425.137500", "124425.597500", "124426.057500", "124426.517500", "124426.977500", "124427.437500", "124427.897500", "124428.357500", "124428.817500", "124429.277500", "124429.737500", "124430.197500", "124430.657500", "124431.117500", "124431.577500", "124432.037500", "124432.497500", "124432.957500", "124433.417500", "124433.877500", "124434.337500", "124434.797500", "124435.257500", "124435.717500", "124436.177500", "124436.637500", "124437.097500", "124437.557500", "124438.017500", "124438.477500", "124438.937500", "124439.397500", "124439.857500", "124440.317500", "124440.777500", "124441.237500", "124441.697500", "124442.157500", "124442.617500", "124443.077500", "124443.537500", "124443.997500", "124444.457500", "124444.917500", "124445.377500", "124445.837500", "124446.297500", "124446.757500", "124447.217500", "124447.677500", "124448.137500", "124448.597500", "124449.057500", "124449.517500", "124449.977500", "124450.437500", "124450.897500", "124451.357500", "124451.817500", "124452.277500", "124452.737500", "124453.197500", "124453.657500", "124454.117500", "124454.577500", "124455.037500", "124455.497500", "124455.957500", "124456.417500", "124456.877500", "124457.337500", "124457.797500", "124458.257500", "124458.717500", "124459.177500", "124459.637500", "124500.097500", "124500.557500", "124501.017500", "124501.477500", "124501.937500", "124502.397500", "124502.857500", "124503.317500", "124503.777500", "124504.237500", "124504.697500", "124505.157500", "124505.617500", "124506.077500", "124506.537500", "124506.997500", "124507.457500", "124507.917500", "124508.377500", "124508.837500", "124509.297500", "124509.757500", "124510.217500", "124510.677500", "124511.137500", "124511.597500", "124512.057500", "124512.517500", "124512.977500", "124513.437500", "124513.897500", "124514.357500", "124514.817500", "124515.277500", "124515.737500", "124516.197500", "124516.657500", "124517.117500", "124517.577500", "124518.037500", "124518.497500", "124518.957500", "124519.417500", "124519.877500", "124520.337500", "124520.797500", "124521.257500", "124521.717500", "124522.177500", "124522.637500", "124523.097500", "124523.557500", "124524.017500", "124524.477500", "124524.937500", "124525.397500", "124525.857500", "124526.317500", "124526.777500", "124527.237500", "124527.697500", "124528.157500", "124528.617500", "124529.077500", "124529.537500", "124529.997500", "124530.457500", "124530.917500", "124531.377500", "124531.837500", "124532.297500", "124532.757500", "124533.217500", "124533.677500", "124534.137500", "124534.597500", "124535.057500", "124535.517500", "124535.977500", "124536.437500", "124536.897500", "124537.357500", "124537.817500", "124538.277500", "124538.737500", "124539.197500", "124539.657500", "124540.117500", "124540.577500", "124541.037500", "124541.497500", "124541.957500", "124542.417500", "124542.877500", "124543.337500", "124543.797500", "124544.257500", "124544.717500", "124545.177500", "124545.637500", "124546.097500", "124546.557500", "124547.017500", "124547.477500", "124547.937500", "124548.397500", "124548.857500", "124549.317500", "124549.777500", "124550.237500", "124550.697500", "124551.157500", "124551.617500", "124552.077500", "124552.537500", "124552.997500", "124553.457500", "124553.917500", "124554.377500", "124554.837500", "124555.297500", "124555.757500", "124556.217500", "124556.677500", "124557.137500", "124557.597500", "124558.057500", "124558.517500", "124558.977500", "124559.437500", "124559.897500", "124600.357500", "124600.817500", "124601.277500", "124601.737500", "124602.197500", "124602.657500", "124603.117500", "124603.577500", "124604.037500", "124604.497500", "124604.957500", "124605.417500", "124605.877500", "124606.337500", "124606.797500", "124607.257500", "124607.717500", "124608.177500", "124608.637500", "124609.097500", "124609.557500", "124610.017500", "124610.477500", "124610.937500", "124611.397500", "124611.857500", "124612.317500", "124612.777500", "124613.237500", "124613.697500", "124614.157500", "124614.617500", "124615.077500", "124615.537500", "124615.997500", "124616.457500", "124616.917500", "124617.377500", "124617.837500", "124618.297500", "124618.757500", "124619.217500", "124619.677500", "124620.137500", "124620.597500", "124621.057500", "124621.517500", "124621.977500", "124622.437500", "124622.897500", "124623.357500", "124623.817500", "124624.277500", "124624.737500", "124625.197500", "124625.657500", "124626.117500", "124626.577500", "124627.037500", "124627.497500", "124627.957500", "124628.417500", "124628.877500", "124629.337500", "124629.797500", "124630.257500", "124630.717500", "124631.177500", "124631.637500", "124632.097500", "124632.557500", "124633.017500", "124633.477500", "124633.937500", "124634.397500", "124634.857500", "124635.317500", "124635.777500", "124636.237500", "124636.697500", "124637.157500", "124637.617500", "124638.077500", "124638.537500", "124638.997500", "124639.457500", "124639.917500", "124640.377500", "124640.837500", "124641.297500", "124641.757500", "124642.217500", "124642.677500", "124643.137500", "124643.597500", "124644.057500", "124644.517500", "124644.977500", "124645.437500", "124645.897500", "124646.357500", "124646.817500", "124647.277500", "124647.737500", "124648.197500", "124648.657500", "124649.117500", "124649.577500", "124650.037500", "124650.497500", "124650.957500", "124651.417500", "124651.877500", "124652.337500", "124652.797500", "124653.257500", "124653.717500", "124654.177500", "124654.637500", "124655.097500", "124655.557500", "124656.017500", "124656.477500", "124656.937500", "124657.397500", "124657.857500", "124658.317500", "124658.777500", "124659.237500", "124659.697500", "124700.157500", "124700.617500", "124701.077500", "124701.537500", "124701.997500", "124702.457500", "124702.917500", "124703.377500", "124703.837500", "124704.297500", "124704.757500", "124705.217500", "124705.677500", "124706.137500", "124706.597500", "124707.057500", "124707.517500", "124707.977500", "124708.437500", "124708.897500", "124709.357500", "124709.817500", "124710.277500", "124710.737500", "124711.197500", "124711.657500", "124712.117500", "124712.577500", "124713.037500", "124713.497500", "124713.957500", "124714.417500", "124714.877500", "124715.337500", "124715.797500", "124716.257500", "124716.717500", "124717.177500", "124717.637500", "124718.097500", "124718.557500", "124719.017500", "124719.477500", "124719.937500", "124720.397500", "124720.857500", "124721.317500", "124721.777500", "124722.237500", "124722.697500", "124723.157500", "124723.617500", "124724.077500", "124724.537500", "124724.997500", "124725.457500", "124725.917500", "124726.377500", "124726.837500", "124727.297500", "124727.757500", "124728.217500", "124728.677500", "124729.137500", "124729.597500", "124730.057500", "124730.517500", "124730.977500", "124731.437500", "124731.897500", "124732.357500", "124732.817500", "124733.277500", "124733.737500", "124734.197500", "124734.657500", "124735.117500", "124735.577500", "124736.037500", "124736.497500", "124736.957500", "124737.417500", "124737.877500", "124738.337500", "124738.797500", "124739.257500", "124739.717500", "124740.177500", "124740.637500", "124741.097500", "124741.557500", "124742.017500", "124742.477500", "124742.937500", "124743.397500", "124743.857500", "124744.317500", "124744.777500", "124745.237500", "124745.697500", "124746.157500", "124746.617500", "124747.077500", "124747.537500", "124747.997500", "124748.457500", "124748.917500", "124749.377500", "124749.837500", "124750.297500", "124750.757500", "124751.217500", "124751.677500", "124752.137500", "124752.597500", "124753.057500", "124753.517500", "124753.977500", "124754.437500", "124754.897500", "124755.357500", "124755.817500", "124756.277500", "124756.737500", "124757.197500", "124757.657500", "124758.117500", "124758.577500", "124759.037500", "124759.497500", "124759.957500", "124800.417500", "124800.877500", "124801.337500", "124801.797500", "124802.257500", "124802.717500", "124803.177500", "124803.637500", "124804.097500", "124804.557500", "124805.017500", "124805.477500", "124805.937500", "124806.397500", "124806.857500", "124807.317500", "124807.777500", "124808.237500", "124808.697500", "124809.157500", "124809.617500", "124810.077500", "124810.537500", "124810.997500", "124811.457500", "124811.917500", "124812.377500", "124812.837500", "124813.297500", "124813.757500", "124814.217500", "124814.677500", "124815.137500", "124815.597500", "124816.057500", "124816.517500", "124816.977500", "124817.437500", "124817.897500", "124818.357500", "124818.817500", "124819.277500", "124819.737500", "124820.197500", "124820.657500", "124821.117500", "124821.577500", "124822.037500", "124822.497500", "124822.957500", "124823.417500", "124823.877500", "124824.337500", "124824.797500", "124825.257500", "124825.717500", "124826.177500", "124826.637500", "124827.097500", "124827.557500", "124828.017500", "124828.477500", "124828.937500", "124829.397500", "124829.857500", "124830.317500", "124830.777500", "124831.237500", "124831.697500", "124832.157500", "124832.617500", "124833.077500", "124833.537500", "124833.997500", "124834.457500", "124834.917500", "124835.377500", "124835.837500", "124836.297500", "124836.757500", "124837.217500", "124837.677500", "124838.137500", "124838.597500", "124839.057500", "124839.517500", "124839.977500", "124840.437500", "124840.897500", "124841.357500", "124841.817500", "124842.277500", "124842.737500", "124843.197500", "124843.657500", "124844.117500", "124844.577500", "124845.037500", "124845.497500", "124845.957500", "124846.417500", "124846.877500", "124847.337500", "124847.797500"],
