{
  "AcquisitionMatrixPE": 82,
  "AcquisitionNumber": 1,
  "AcquisitionTime": "12:18:52.255000",
  "BandwidthPerPixelPhaseEncode": 24.888,
  "BaseResolution": 82,
  "BodyPartExamined": "BRAIN",
  "ConsistencyInfo": "N4_VE11E_LATEST_20181129",
  "ConversionSoftware": "dcm2niix",
  "ConversionSoftwareVersion": "v1.0.20201102",
  "DerivedVendorReportedEchoSpacing": 0.00049,
  "DeviceSerialNumber": "66112",
  "DwellTime": 2e-06,
  "EchoTime": 0.0272,
  "EchoTrainLength": 82,
  "EffectiveEchoSpacing": 0.00049,
  "FlipAngle": 44,
  "ImageComments": "Unaliased MB8/PE3",
  "ImageOrientationPatientDICOM": [0.999511, -0.0102699, 0.0295187, 0.00593134, 0.989637, 0.14347],
  "ImageType": [
    "ORIGINAL",
    "PRIMARY",
    "M",
    "MB",
    "ND",
    "NORM",
    "MOSAIC"
],
  "ImagingFrequency": 123.252,
  "InPlanePhaseEncodingDirectionDICOM": "COL",
  "InstitutionAddress": "Maynard 3,Hanover,NH,US,03755",
  "InstitutionName": "Dartmouth College - PBS",
  "InstitutionalDepartmentName": "Department",
  "MRAcquisitionType": "2D",
  "MagneticFieldStrength": 3,
  "Manufacturer": "Siemens",
  "ManufacturersModelName": "Prisma",
  "Modality": "MR",
  "MultibandAccelerationFactor": 8,
  "PartialFourier": 1,
  "PatientPosition": "HFS",
  "PercentPhaseFOV": 100,
  "PercentSampling": 100,
  "PhaseEncodingDirection": "j-",
  "PhaseEncodingSteps": 82,
  "PhaseResolution": 1,
  "PixelBandwidth": 3050,
  "ProcedureStepDescription": "Wager_Wager^1076_spacetop",
  "ProtocolName": "func_run-01_task-social_acq-ap-mb8",
  "PulseSequenceDetails": "%CustomerSeq%\\cmrr_mbep2d_bold",
  "ReceiveCoilActiveElements": "HEA;HEP",
  "ReceiveCoilName": "Head_32",
  "ReconMatrixPE": 82,
  "RepetitionTime": 0.46,
  "SAR": 0.122656,
  "ScanOptions": "FS",
  "ScanningSequence": "EP",
  "SequenceName": "epfid2d1_82",
  "SequenceVariant": "SK\\SS",
  "SeriesDescription": "func_run-01_task-social_acq-ap-mb8",
  "SeriesNumber": 8,
  "ShimSetting": [4172, -7773, -7219, 515, -17, -44, 50, 55],
  "SliceThickness": 2.7,
  "SliceTiming": [0, 0.25, 0.0625, 0.3125, 0.125, 0.375, 0.1875, 0, 0.25, 0.0625, 0.3125, 0.125, 0.375, 0.1875, 0, 0.25, 0.0625, 0.3125, 0.125, 0.375, 0.1875, 0, 0.25, 0.0625, 0.3125, 0.125, 0.375, 0.1875, 0, 0.25, 0.0625, 0.3125, 0.125, 0.375, 0.1875, 0, 0.25, 0.0625, 0.3125, 0.125, 0.375, 0.1875, 0, 0.25, 0.0625, 0.3125, 0.125, 0.375, 0.1875, 0, 0.25, 0.0625, 0.3125, 0.125, 0.375, 0.1875],
  "SoftwareVersions": "syngo MR E11",
  "SpacingBetweenSlices": 2.7,
  "StationName": "AWP66112",
  "TaskName": "social",
  "TotalReadoutTime": 0.03969,
  "TxRefAmp": 278.703,
  "WipMemBlock": "ab0b023e-66c6-4103-83a1-cdf6e83d8df3||Sequence: R016 ve11e/master r/434b28f1; Aug  7 2019 18:53:46 by eja",
  "dcmmeta_affine": [
    [-2.6816163063049316, 0.0159133393317461, 0.08285287767648697, 110.96694946289062],
    [0.027553437277674675, 2.655123472213745, 0.3867069184780121, -102.455810546875],
    [0.07919660210609436, -0.3849194049835205, 2.6708786487579346, -31.893966674804688],
    [0.0, 0.0, 0.0, 1.0]
],
  "dcmmeta_reorient_transform": [
    [0.0, -1.0, 0.0, 81.0],
    [1.0, 0.0, 0.0, 0.0],
    [0.0, 0.0, 1.0, 0.0],
    [0.0, 0.0, 0.0, 1.0]
],
  "dcmmeta_shape": [82, 82, 56, 872],
  "dcmmeta_slice_dim": 2,
  "dcmmeta_version": 0.6,
  "global": {
    "const": {
      "AccessionNumber": "A004185",
      "AcquisitionMatrix": [82, 0, 0, 82],
      "AngioFlag": "N",
      "BitsAllocated": 16,
      "BitsStored": 16,
      "BodyPartExamined": "BRAIN",
      "Columns": 656,
      "EchoNumbers": 1,
      "EchoTime": 27.2,
      "EchoTrainLength": 82,
      "FlipAngle": 44.0,
      "HighBit": 15,
      "ImageOrientationPatient": [0.99951146730726, -0.0102699171274, 0.02951873173907, 0.00593133530576, 0.9896368979217, 0.14346996038689],
      "ImagePositionPatient": [-886.44690692364, -866.72177882106, -196.27373479868],
      "ImageType": [
        "ORIGINAL",
        "PRIMARY",
        "M",
        "MB",
        "ND",
        "NORM",
        "MOSAIC"
],
      "ImagedNucleus": "1H",
      "ImagingFrequency": 123.252144,
      "InPlanePhaseEncodingDirection": "COL",
      "MRAcquisitionType": "2D",
      "MagneticFieldStrength": 3.0,
      "Manufacturer": "SIEMENS",
      "ManufacturerModelName": "Prisma",
      "Modality": "MR",
      "NumberOfAverages": 1.0,
      "NumberOfPhaseEncodingSteps": 82,
      "PercentPhaseFieldOfView": 100.0,
      "PercentSampling": 100.0,
      "PerformedProcedureStepStartTime": "121248.621000",
      "PhotometricInterpretation": "MONOCHROME2",
      "PixelBandwidth": 3050.0,
      "PixelRepresentation": 0,
      "PixelSpacing": [2.6829268932343, 2.6829268932343],
      "ProtocolName": "func_run-01_task-social_acq-ap-mb8",
      "RepetitionTime": 460.0,
      "Rows": 656,
      "SAR": 0.12265581016076,
      "SamplesPerPixel": 1,
      "ScanOptions": "FS",
      "ScanningSequence": "EP",
      "SequenceName": "epfid2d1_82",
      "SequenceVariant": [
        "SK",
        "SS"
],
      "SeriesDescription": "func_run-01_task-social_acq-ap-mb8",
      "SeriesNumber": 8,
      "SeriesTime": "121907.573000",
      "SliceLocation": -42.819020908961,
      "SliceThickness": 2.7000000476837,
      "SmallestImagePixelValue": 0,
      "SoftwareVersions": "syngo MR E11",
      "SpacingBetweenSlices": 2.6999999459242,
      "SpecificCharacterSet": "ISO_IR 100",
      "StudyID": "2",
      "StudyTime": "121248.570000",
      "TransmitCoilName": "Body",
      "VariableFlipAngleFlag": "N",
      "WindowCenterWidthExplanation": "Algo1"
    },
    "slices": {}
  },
  "time": {
    "samples": {
      "AcquisitionNumber": [1, 2, 3, 4, 5, 6, 7, 8, 9, 10, 11, 12, 13, 14, 15, 16, 17, 18, 19, 20, 21, 22, 23, 24, 25, 26, 27, 28, 29, 30, 31, 32, 33, 34, 35, 36, 37, 38, 39, 40, 41, 42, 43, 44, 45, 46, 47, 48, 49, 50, 51, 52, 53, 54, 55, 56, 57, 58, 59, 60, 61, 62, 63, 64, 65, 66, 67, 68, 69, 70, 71, 72, 73, 74, 75, 76, 77, 78, 79, 80, 81, 82, 83, 84, 85, 86, 87, 88, 89, 90, 91, 92, 93, 94, 95, 96, 97, 98, 99, 100, 101, 102, 103, 104, 105, 106, 107, 108, 109, 110, 111, 112, 113, 114, 115, 116, 117, 118, 119, 120, 121, 122, 123, 124, 125, 126, 127, 128, 129, 130, 131, 132, 133, 134, 135, 136, 137, 138, 139, 140, 141, 142, 143, 144, 145, 146, 147, 148, 149, 150, 151, 152, 153, 154, 155, 156, 157, 158, 159, 160, 161, 162, 163, 164, 165, 166, 167, 168, 169, 170, 171, 172, 173, 174, 175, 176, 177, 178, 179, 180, 181, 182, 183, 184, 185, 186, 187, 188, 189, 190, 191, 192, 193, 194, 195, 196, 197, 198, 199, 200, 201, 202, 203, 204, 205, 206, 207, 208, 209, 210, 211, 212, 213, 214, 215, 216, 217, 218, 219, 220, 221, 222, 223, 224, 225, 226, 227, 228, 229, 230, 231, 232, 233, 234, 235, 236, 237, 238, 239, 240, 241, 242, 243, 244, 245, 246, 247, 248, 249, 250, 251, 252, 253, 254, 255, 256, 257, 258, 259, 260, 261, 262, 263, 264, 265, 266, 267, 268, 269, 270, 271, 272, 273, 274, 275, 276, 277, 278, 279, 280, 281, 282, 283, 284, 285, 286, 287, 288, 289, 290, 291, 292, 293, 294, 295, 296, 297, 298, 299, 300, 301, 302, 303, 304, 305, 306, 307, 308, 309, 310, 311, 312, 313, 314, 315, 316, 317, 318, 319, 320, 321, 322, 323, 324, 325, 326, 327, 328, 329, 330, 331, 332, 333, 334, 335, 336, 337, 338, 339, 340, 341, 342, 343, 344, 345, 346, 347, 348, 349, 350, 351, 352, 353, 354, 355, 356, 357, 358, 359, 360, 361, 362, 363, 364, 365, 366, 367, 368, 369, 370, 371, 372, 373, 374, 375, 376, 377, 378, 379, 380, 381, 382, 383, 384, 385, 386, 387, 388, 389, 390, 391, 392, 393, 394, 395, 396, 397, 398, 399, 400, 401, 402, 403, 404, 405, 406, 407, 408, 409, 410, 411, 412, 413, 414, 415, 416, 417, 418, 419, 420, 421, 422, 423, 424, 425, 426, 427, 428, 429, 430, 431, 432, 433, 434, 435, 436, 437, 438, 439, 440, 441, 442, 443, 444, 445, 446, 447, 448, 449, 450, 451, 452, 453, 454, 455, 456, 457, 458, 459, 460, 461, 462, 463, 464, 465, 466, 467, 468, 469, 470, 471, 472, 473, 474, 475, 476, 477, 478, 479, 480, 481, 482, 483, 484, 485, 486, 487, 488, 489, 490, 491, 492, 493, 494, 495, 496, 497, 498, 499, 500, 501, 502, 503, 504, 505, 506, 507, 508, 509, 510, 511, 512, 513, 514, 515, 516, 517, 518, 519, 520, 521, 522, 523, 524, 525, 526, 527, 528, 529, 530, 531, 532, 533, 534, 535, 536, 537, 538, 539, 540, 541, 542, 543, 544, 545, 546, 547, 548, 549, 550, 551, 552, 553, 554, 555, 556, 557, 558, 559, 560, 561, 562, 563, 564, 565, 566, 567, 568, 569, 570, 571, 572, 573, 574, 575, 576, 577, 578, 579, 580, 581, 582, 583, 584, 585, 586, 587, 588, 589, 590, 591, 592, 593, 594, 595, 596, 597, 598, 599, 600, 601, 602, 603, 604, 605, 606, 607, 608, 609, 610, 611, 612, 613, 614, 615, 616, 617, 618, 619, 620, 621, 622, 623, 624, 625, 626, 627, 628, 629, 630, 631, 632, 633, 634, 635, 636, 637, 638, 639, 640, 641, 642, 643, 644, 645, 646, 647, 648, 649, 650, 651, 652, 653, 654, 655, 656, 657, 658, 659, 660, 661, 662, 663, 664, 665, 666, 667, 668, 669, 670, 671, 672, 673, 674, 675, 676, 677, 678, 679, 680, 681, 682, 683, 684, 685, 686, 687, 688, 689, 690, 691, 692, 693, 694, 695, 696, 697, 698, 699, 700, 701, 702, 703, 704, 705, 706, 707, 708, 709, 710, 711, 712, 713, 714, 715, 716, 717, 718, 719, 720, 721, 722, 723, 724, 725, 726, 727, 728, 729, 730, 731, 732, 733, 734, 735, 736, 737, 738, 739, 740, 741, 742, 743, 744, 745, 746, 747, 748, 749, 750, 751, 752, 753, 754, 755, 756, 757, 758, 759, 760, 761, 762, 763, 764, 765, 766, 767, 768, 769, 770, 771, 772, 773, 774, 775, 776, 777, 778, 779, 780, 781, 782, 783, 784, 785, 786, 787, 788, 789, 790, 791, 792, 793, 794, 795, 796, 797, 798, 799, 800, 801, 802, 803, 804, 805, 806, 807, 808, 809, 810, 811, 812, 813, 814, 815, 816, 817, 818, 819, 820, 821, 822, 823, 824, 825, 826, 827, 828, 829, 830, 831, 832, 833, 834, 835, 836, 837, 838, 839, 840, 841, 842, 843, 844, 845, 846, 847, 848, 849, 850, 851, 852, 853, 854, 855, 856, 857, 858, 859, 860, 861, 862, 863, 864, 865, 866, 867, 868, 869, 870, 871, 872],
      "AcquisitionTime": ["121852.255000", "121852.715000", "121853.175000", "121853.635000", "121854.095000", "121854.555000", "121855.015000", "121855.475000", "121855.935000", "121856.395000", "121856.855000", "121857.315000", "121857.775000", "121858.235000", "121858.695000", "121859.155000", "121859.615000", "121900.075000", "121900.535000", "121900.995000", "121901.455000", "121901.915000", "121902.375000", "121902.835000", "121903.295000", "121903.755000", "121904.215000", "121904.675000", "121905.135000", "121905.595000", "121906.055000", "121906.515000", "121906.975000", "121907.435000", "121907.895000", "121908.355000", "121908.815000", "121909.275000", "121909.735000", "121910.195000", "121910.655000", "121911.115000", "121911.575000", "121912.035000", "121912.495000", "121912.955000", "121913.415000", "121913.875000", "121914.335000", "121914.795000", "121915.255000", "121915.715000", "121916.175000", "121916.635000", "121917.095000", "121917.555000", "121918.015000", "121918.475000", "121918.935000", "121919.395000", "121919.855000", "121920.315000", "121920.775000", "121921.235000", "121921.695000", "121922.155000", "121922.615000", "121923.075000", "121923.535000", "121923.995000", "121924.455000", "121924.915000", "121925.375000", "121925.835000", "121926.295000", "121926.755000", "121927.215000", "121927.675000", "121928.135000", "121928.595000", "121929.055000", "121929.515000", "121929.975000", "121930.435000", "121930.895000", "121931.355000", "121931.815000", "121932.275000", "121932.735000", "121933.195000", "121933.655000", "121934.115000", "121934.575000", "121935.035000", "121935.495000", "121935.955000", "121936.415000", "121936.875000", "121937.335000", "121937.795000", "121938.255000", "121938.715000", "121939.175000", "121939.635000", "121940.095000", "121940.555000", "121941.015000", "121941.475000", "121941.935000", "121942.395000", "121942.855000", "121943.315000", "121943.775000", "121944.235000", "121944.695000", "121945.155000", "121945.615000", "121946.075000", "121946.535000", "121946.995000", "121947.455000", "121947.915000", "121948.375000", "121948.835000", "121949.295000", "121949.755000", "121950.215000", "121950.675000", "121951.135000", "121951.595000", "121952.055000", "121952.515000", "121952.975000", "121953.435000", "121953.895000", "121954.355000", "121954.815000", "121955.275000", "121955.735000", "121956.195000", "121956.655000", "121957.115000", "121957.575000", "121958.035000", "121958.495000", "121958.955000", "121959.415000", "121959.875000", "122000.335000", "122000.795000", "122001.255000", "122001.715000", "122002.175000", "122002.635000", "122003.095000", "122003.555000", "122004.015000", "122004.475000", "122004.935000", "122005.395000", "122005.855000", "122006.315000", "122006.775000", "122007.235000", "122007.695000", "122008.155000", "122008.615000", "122009.075000", "122009.535000", "122009.995000", "122010.455000", "122010.915000", "122011.375000", "122011.835000", "122012.295000", "122012.755000", "122013.215000", "122013.675000", "122014.135000", "122014.595000", "122015.055000", "122015.515000", "122015.975000", "122016.435000", "122016.895000", "122017.355000", "122017.815000", "122018.275000", "122018.735000", "122019.195000", "122019.655000", "122020.115000", "122020.575000", "122021.035000", "122021.495000", "122021.955000", "122022.415000", "122022.875000", "122023.335000", "122023.795000", "122024.255000", "122024.715000", "122025.175000", "122025.635000", "122026.095000", "122026.555000", "122027.015000", "122027.475000", "122027.935000", "122028.395000", "122028.855000", "122029.315000", "122029.775000", "122030.235000", "122030.695000", "122031.155000", "122031.615000", "122032.075000", "122032.535000", "122032.995000", "122033.455000", "122033.915000", "122034.375000", "122034.835000", "122035.295000", "122035.755000", "122036.215000", "122036.675000", "122037.135000", "122037.595000", "122038.055000", "122038.515000", "122038.975000", "122039.435000", "122039.895000", "122040.355000", "122040.815000", "122041.275000", "122041.735000", "122042.195000", "122042.655000", "122043.115000", "122043.575000", "122044.035000", "122044.495000", "122044.955000", "122045.415000", "122045.875000", "122046.335000", "122046.795000", "122047.255000", "122047.715000", "122048.175000", "122048.635000", "122049.095000", "122049.555000", "122050.015000", "122050.475000", "122050.935000", "122051.395000", "122051.855000", "122052.315000", "122052.775000", "122053.235000", "122053.695000", "122054.155000", "122054.615000", "122055.075000", "122055.535000", "122055.995000", "122056.455000", "122056.915000", "122057.375000", "122057.835000", "122058.295000", "122058.755000", "122059.215000", "122059.675000", "122100.135000", "122100.595000", "122101.055000", "122101.515000", "122101.975000", "122102.435000", "122102.895000", "122103.355000", "122103.815000", "122104.275000", "122104.735000", "122105.195000", "122105.655000", "122106.115000", "122106.575000", "122107.035000", "122107.495000", "122107.955000", "122108.415000", "122108.875000", "122109.335000", "122109.795000", "122110.255000", "122110.715000", "122111.175000", "122111.635000", "122112.095000", "122112.555000", "122113.015000", "122113.475000", "122113.935000", "122114.395000", "122114.855000", "122115.315000", "122115.775000", "122116.235000", "122116.695000", "122117.155000", "122117.615000", "122118.075000", "122118.535000", "122118.995000", "122119.455000", "122119.915000", "122120.375000", "122120.835000", "122121.295000", "122121.755000", "122122.215000", "122122.675000", "122123.135000", "122123.595000", "122124.055000", "122124.515000", "122124.975000", "122125.435000", "122125.895000", "122126.355000", "122126.815000", "122127.275000", "122127.735000", "122128.195000", "122128.655000", "122129.115000", "122129.575000", "122130.035000", "122130.495000", "122130.955000", "122131.415000", "122131.875000", "122132.335000", "122132.795000", "122133.255000", "122133.715000", "122134.175000", "122134.635000", "122135.095000", "122135.555000", "122136.015000", "122136.475000", "122136.935000", "122137.395000", "122137.855000", "122138.315000", "122138.775000", "122139.235000", "122139.695000", "122140.155000", "122140.615000", "122141.075000", "122141.535000", "122141.995000", "122142.455000", "122142.915000", "122143.375000", "122143.835000", "122144.295000", "122144.755000", "122145.215000", "122145.675000", "122146.135000", "122146.595000", "122147.055000", "122147.515000", "122147.975000", "122148.435000", "122148.895000", "122149.355000", "122149.815000", "122150.275000", "122150.735000", "122151.195000", "122151.655000", "122152.115000", "122152.575000", "122153.035000", "122153.495000", "122153.955000", "122154.415000", "122154.875000", "122155.335000", "122155.795000", "122156.255000", "122156.715000", "122157.175000", "122157.635000", "122158.095000", "122158.555000", "122159.015000", "122159.475000", "122159.935000", "122200.395000", "122200.855000", "122201.315000", "122201.775000", "122202.235000", "122202.695000", "122203.155000", "122203.615000", "122204.075000", "122204.535000", "122204.995000", "122205.455000", "122205.915000", "122206.375000", "122206.835000", "122207.295000", "122207.755000", "122208.215000", "122208.675000", "122209.135000", "122209.595000", "122210.055000", "122210.515000", "122210.975000", "122211.435000", "122211.895000", "122212.355000", "122212.815000", "122213.275000", "122213.735000", "122214.195000", "122214.655000", "122215.115000", "122215.575000", "122216.035000", "122216.495000", "122216.955000", "122217.415000", "122217.875000", "122218.335000", "122218.795000", "122219.255000", "122219.715000", "122220.175000", "122220.635000", "122221.095000", "122221.555000", "122222.015000", "122222.475000", "122222.935000", "122223.395000", "122223.855000", "122224.315000", "122224.775000", "122225.235000", "122225.695000", "122226.155000", "122226.615000", "122227.075000", "122227.535000", "122227.995000", "122228.455000", "122228.915000", "122229.375000", "122229.835000", "122230.295000", "122230.755000", "122231.215000", "122231.675000", "122232.135000", "122232.595000", "122233.055000", "122233.515000", "122233.975000", "122234.435000", "122234.895000", "122235.355000", "122235.815000", "122236.275000", "122236.735000", "122237.195000", "122237.655000", "122238.115000", "122238.575000", "122239.035000", "122239.495000", "122239.955000", "122240.415000", "122240.875000", "122241.335000", "122241.795000", "122242.255000", "122242.715000", "122243.175000", "122243.635000", "122244.095000", "122244.555000", "122245.015000", "122245.475000", "122245.935000", "122246.395000", "122246.855000", "122247.315000", "122247.775000", "122248.235000", "122248.695000", "122249.155000", "122249.615000", "122250.075000", "122250.535000", "122250.995000", "122251.455000", "122251.915000", "122252.375000", "122252.835000", "122253.295000", "122253.755000", "122254.215000", "122254.675000", "122255.135000", "122255.595000", "122256.055000", "122256.515000", "122256.975000", "122257.435000", "122257.895000", "122258.355000", "122258.815000", "122259.275000", "122259.735000", "122300.195000", "122300.655000", "122301.115000", "122301.575000", "122302.035000", "122302.495000", "122302.955000", "122303.415000", "122303.875000", "122304.335000", "122304.795000", "122305.255000", "122305.715000", "122306.175000", "122306.635000", "122307.095000", "122307.555000", "122308.015000", "122308.475000", "122308.935000", "122309.395000", "122309.855000", "122310.315000", "122310.775000", "122311.235000", "122311.695000", "122312.155000", "122312.615000", "122313.075000", "122313.535000", "122313.995000", "122314.455000", "122314.915000", "122315.375000", "122315.835000", "122316.295000", "122316.755000", "122317.215000", "122317.675000", "122318.135000", "122318.595000", "122319.055000", "122319.515000", "122319.975000", "122320.435000", "122320.895000", "122321.355000", "122321.815000", "122322.275000", "122322.735000", "122323.195000", "122323.655000", "122324.115000", "122324.575000", "122325.035000", "122325.495000", "122325.955000", "122326.415000", "122326.875000", "122327.335000", "122327.795000", "122328.255000", "122328.715000", "122329.175000", "122329.635000", "122330.095000", "122330.555000", "122331.015000", "122331.475000", "122331.935000", "122332.395000", "122332.855000", "122333.315000", "122333.775000", "122334.235000", "122334.695000", "122335.155000", "122335.615000", "122336.075000", "122336.535000", "122336.995000", "122337.455000", "122337.915000", "122338.375000", "122338.835000", "122339.295000", "122339.755000", "122340.215000", "122340.675000", "122341.135000", "122341.595000", "122342.055000", "122342.515000", "122342.975000", "122343.435000", "122343.895000", "122344.355000", "122344.815000", "122345.275000", "122345.735000", "122346.195000", "122346.655000", "122347.115000", "122347.575000", "122348.035000", "122348.495000", "122348.955000", "122349.415000", "122349.875000", "122350.335000", "122350.795000", "122351.255000", "122351.715000", "122352.175000", "122352.635000", "122353.095000", "122353.555000", "122354.015000", "122354.475000", "122354.935000", "122355.395000", "122355.855000", "122356.315000", "122356.775000", "122357.235000", "122357.695000", "122358.155000", "122358.615000", "122359.075000", "122359.535000", "122359.995000", "122400.455000", "122400.915000", "122401.375000", "122401.835000", "122402.295000", "122402.755000", "122403.215000", "122403.675000", "122404.135000", "122404.595000", "122405.055000", "122405.515000", "122405.975000", "122406.435000", "122406.895000", "122407.355000", "122407.815000", "122408.275000", "122408.735000", "122409.195000", "122409.655000", "122410.115000", "122410.575000", "122411.035000", "122411.495000", "122411.955000", "122412.415000", "122412.875000", "122413.335000", "122413.795000", "122414.255000", "122414.715000", "122415.175000", "122415.635000", "122416.095000", "122416.555000", "122417.015000", "122417.475000", "122417.935000", "122418.395000", "122418.855000", "122419.315000", "122419.775000", "122420.235000", "122420.695000", "122421.155000", "122421.615000", "122422.075000", "122422.535000", "122422.995000", "122423.455000", "122423.915000", "122424.375000", "122424.835000", "122425.295000", "122425.755000", "122426.215000", "122426.675000", "122427.135000", "122427.595000", "122428.055000", "122428.515000", "122428.975000", "122429.435000", "122429.895000", "122430.355000", "122430.815000", "122431.275000", "122431.735000", "122432.195000", "122432.655000", "122433.115000", "122433.575000", "122434.035000", "122434.495000", "122434.955000", "122435.415000", "122435.875000", "122436.335000", "122436.795000", "122437.255000", "122437.715000", "122438.175000", "122438.635000", "122439.095000", "122439.555000", "122440.015000", "122440.475000", "122440.935000", "122441.395000", "122441.855000", "122442.315000", "122442.775000", "122443.235000", "122443.695000", "122444.155000", "122444.615000", "122445.075000", "122445.535000", "122445.995000", "122446.455000", "122446.915000", "122447.375000", "122447.835000", "122448.295000", "122448.755000", "122449.215000", "122449.675000", "122450.135000", "122450.595000", "122451.055000", "122451.515000", "122451.975000", "122452.435000", "122452.895000", "122453.355000", "122453.815000", "122454.275000", "122454.735000", "122455.195000", "122455.655000", "122456.115000", "122456.575000", "122457.035000", "122457.495000", "122457.955000", "122458.415000", "122458.875000", "122459.335000", "122459.795000", "122500.255000", "122500.715000", "122501.175000", "122501.635000", "122502.095000", "122502.555000", "122503.015000", "122503.475000", "122503.935000", "122504.395000", "122504.855000", "122505.315000", "122505.775000", "122506.235000", "122506.695000", "122507.155000", "122507.615000", "122508.075000", "122508.535000", "122508.995000", "122509.455000", "122509.915000", "122510.375000", "122510.835000", "122511.295000", "122511.755000", "122512.215000", "122512.675000", "122513.135000", "122513.595000", "122514.055000", "122514.515000", "122514.975000", "122515.435000", "122515.895000", "122516.355000", "122516.815000", "122517.275000", "122517.735000", "122518.195000", "122518.655000", "122519.115000", "122519.575000", "122520.035000", "122520.495000", "122520.955000", "122521.415000", "122521.875000", "122522.335000", "122522.795000", "122523.255000", "122523.715000", "122524.175000", "122524.635000", "122525.095000", "122525.555000", "122526.015000", "122526.475000", "122526.935000", "122527.395000", "122527.855000", "122528.315000", "122528.775000", "122529.235000", "122529.695000", "122530.155000", "122530.615000", "122531.075000", "122531.535000", "122531.995000", "122532.455000", "122532.915000"],
