{
  "AcquisitionMatrixPE": 82,
  "AcquisitionNumber": 1,
  "AcquisitionTime": "21:09:48.145000",
  "BandwidthPerPixelPhaseEncode": 24.888,
  "BaseResolution": 82,
  "BodyPartExamined": "BRAIN",
  "ConsistencyInfo": "N4_VE11E_LATEST_20181129",
  "ConversionSoftware": "dcm2niix",
  "ConversionSoftwareVersion": "v1.0.20201102",
  "DerivedVendorReportedEchoSpacing": 0.00049,
  "DeviceSerialNumber": "66112",
  "DwellTime": 2e-06,
  "EchoTime": 0.0272,
  "EchoTrainLength": 82,
  "EffectiveEchoSpacing": 0.00049,
  "FlipAngle": 44,
  "ImageComments": "Unaliased MB8/PE3",
  "ImageOrientationPatientDICOM": [0.999796, 0.0162727, -0.011966, -0.017277, 0.995858, -0.0892672],
  "ImageType": [
    "ORIGINAL",
    "PRIMARY",
    "M",
    "MB",
    "ND",
    "NORM",
    "MOSAIC"
],
  "ImagingFrequency": 123.259,
  "InPlanePhaseEncodingDirectionDICOM": "COL",
  "InstitutionAddress": "Maynard 3,Hanover,NH,US,03755",
  "InstitutionName": "Dartmouth College - PBS",
  "InstitutionalDepartmentName": "Department",
  "MRAcquisitionType": "2D",
  "MagneticFieldStrength": 3,
  "Manufacturer": "Siemens",
  "ManufacturersModelName": "Prisma",
  "Modality": "MR",
  "MultibandAccelerationFactor": 8,
  "PartialFourier": 1,
  "PatientPosition": "HFS",
  "PercentPhaseFOV": 100,
  "PercentSampling": 100,
  "PhaseEncodingDirection": "j-",
  "PhaseEncodingSteps": 82,
  "PhaseResolution": 1,
  "PixelBandwidth": 3050,
  "ProcedureStepDescription": "Wager_Wager^1076_spacetop",
  "ProtocolName": "func_run-03_task-faces_acq-ap-mb8",
  "PulseSequenceDetails": "%CustomerSeq%\\cmrr_mbep2d_bold",
  "ReceiveCoilActiveElements": "HEA;HEP",
  "ReceiveCoilName": "Head_32",
  "ReconMatrixPE": 82,
  "RepetitionTime": 0.46,
  "SAR": 0.0980151,
  "ScanOptions": "FS",
  "ScanningSequence": "EP",
  "SequenceName": "epfid2d1_82",
  "SequenceVariant": "SK\\SS",
  "SeriesDescription": "func_run-03_task-faces_acq-ap-mb8",
  "SeriesNumber": 24,
  "ShimSetting": [4222, -7760, -7253, 117, -143, -142, -138, 61],
  "SliceThickness": 2.7,
  "SliceTiming": [0, 0.25, 0.0625, 0.3125, 0.125, 0.3775, 0.1875, 0, 0.25, 0.0625, 0.3125, 0.125, 0.3775, 0.1875, 0, 0.25, 0.0625, 0.3125, 0.125, 0.3775, 0.1875, 0, 0.25, 0.0625, 0.3125, 0.125, 0.3775, 0.1875, 0, 0.25, 0.0625, 0.3125, 0.125, 0.3775, 0.1875, 0, 0.25, 0.0625, 0.3125, 0.125, 0.3775, 0.1875, 0, 0.25, 0.0625, 0.3125, 0.125, 0.3775, 0.1875, 0, 0.25, 0.0625, 0.3125, 0.125, 0.3775, 0.1875],
  "SoftwareVersions": "syngo MR E11",
  "SpacingBetweenSlices": 2.7,
  "StationName": "AWP66112",
  "TaskName": "faces",
  "TotalReadoutTime": 0.03969,
  "TxRefAmp": 294.696,
  "WipMemBlock": "1997adfd-660f-47f3-83d8-aec78d256844||Sequence: R016 ve11e/master r/434b28f1; Aug  7 2019 18:53:46 by eja",
  "dcmmeta_affine": [
    [-2.6823794841766357, -0.04635284096002579, -0.028252320364117622, 112.27888488769531],
    [-0.04365839809179306, 2.671813726425171, -0.24153044819831848, -85.49154663085938],
    [-0.03210391104221344, 0.2394973635673523, 2.6890265941619873, -108.26502990722656],
    [0.0, 0.0, 0.0, 1.0]
],
  "dcmmeta_reorient_transform": [
    [0.0, -1.0, 0.0, 81.0],
    [1.0, 0.0, 0.0, 0.0],
    [0.0, 0.0, 1.0, 0.0],
    [0.0, 0.0, 0.0, 1.0]
],
  "dcmmeta_shape": [82, 82, 56, 914],
  "dcmmeta_slice_dim": 2,
  "dcmmeta_version": 0.6,
  "global": {
    "const": {
      "AccessionNumber": "A004803",
      "AcquisitionMatrix": [82, 0, 0, 82],
      "AngioFlag": "N",
      "BitsAllocated": 16,
      "BitsStored": 16,
      "BodyPartExamined": "BRAIN",
      "Columns": 656,
      "EchoNumbers": 1,
      "EchoTime": 27.2,
      "EchoTrainLength": 82,
      "FlipAngle": 44.0,
      "HighBit": 15,
      "ImageOrientationPatient": [0.99979598659292, 0.01627267501415, -0.0119660035339, -0.0172769676424, 0.99585785807087, -0.0892671995057],
      "ImagePositionPatient": [-865.06396652949, -910.26589949017, -10.916175380469],
      "ImageType": [
        "ORIGINAL",
        "PRIMARY",
        "M",
        "MB",
        "ND",
        "NORM",
        "MOSAIC"
],
      "ImagedNucleus": "1H",
      "ImagingFrequency": 123.259097,
      "InPlanePhaseEncodingDirection": "COL",
      "MRAcquisitionType": "2D",
      "MagneticFieldStrength": 3.0,
      "Manufacturer": "SIEMENS",
      "ManufacturerModelName": "Prisma",
      "Modality": "MR",
      "NumberOfAverages": 1.0,
      "NumberOfPhaseEncodingSteps": 82,
      "PercentPhaseFieldOfView": 100.0,
      "PercentSampling": 100.0,
      "PerformedProcedureStepStartTime": "194143.364000",
      "PhotometricInterpretation": "MONOCHROME2",
      "PixelBandwidth": 3050.0,
      "PixelRepresentation": 0,
      "PixelSpacing": [2.6829268932343, 2.6829268932343],
      "ProtocolName": "func_run-03_task-faces_acq-ap-mb8",
      "RepetitionTime": 460.0,
      "Rows": 656,
      "SAR": 0.09801513775153,
      "SamplesPerPixel": 1,
      "ScanOptions": "FS",
      "ScanningSequence": "EP",
      "SequenceName": "epfid2d1_82",
      "SequenceVariant": [
        "SK",
        "SS"
],
      "SeriesDescription": "func_run-03_task-faces_acq-ap-mb8",
      "SeriesNumber": 24,
      "SeriesTime": "211014.429000",
      "SliceLocation": -101.3521811502,
      "SliceThickness": 2.7000000476837,
      "SmallestImagePixelValue": 0,
      "SoftwareVersions": "syngo MR E11",
      "SpacingBetweenSlices": 2.699999965884,
      "SpecificCharacterSet": "ISO_IR 100",
      "StudyID": "1",
      "StudyTime": "194143.304000",
      "TransmitCoilName": "Body",
      "VariableFlipAngleFlag": "N",
      "WindowCenterWidthExplanation": "Algo1"
    },
    "slices": {}
  },
  "time": {
    "samples": {
      "AcquisitionNumber": [1, 2, 3, 4, 5, 6, 7, 8, 9, 10, 11, 12, 13, 14, 15, 16, 17, 18, 19, 20, 21, 22, 23, 24, 25, 26, 27, 28, 29, 30, 31, 32, 33, 34, 35, 36, 37, 38, 39, 40, 41, 42, 43, 44, 45, 46, 47, 48, 49, 50, 51, 52, 53, 54, 55, 56, 57, 58, 59, 60, 61, 62, 63, 64, 65, 66, 67, 68, 69, 70, 71, 72, 73, 74, 75, 76, 77, 78, 79, 80, 81, 82, 83, 84, 85, 86, 87, 88, 89, 90, 91, 92, 93, 94, 95, 96, 97, 98, 99, 100, 101, 102, 103, 104, 105, 106, 107, 108, 109, 110, 111, 112, 113, 114, 115, 116, 117, 118, 119, 120, 121, 122, 123, 124, 125, 126, 127, 128, 129, 130, 131, 132, 133, 134, 135, 136, 137, 138, 139, 140, 141, 142, 143, 144, 145, 146, 147, 148, 149, 150, 151, 152, 153, 154, 155, 156, 157, 158, 159, 160, 161, 162, 163, 164, 165, 166, 167, 168, 169, 170, 171, 172, 173, 174, 175, 176, 177, 178, 179, 180, 181, 182, 183, 184, 185, 186, 187, 188, 189, 190, 191, 192, 193, 194, 195, 196, 197, 198, 199, 200, 201, 202, 203, 204, 205, 206, 207, 208, 209, 210, 211, 212, 213, 214, 215, 216, 217, 218, 219, 220, 221, 222, 223, 224, 225, 226, 227, 228, 229, 230, 231, 232, 233, 234, 235, 236, 237, 238, 239, 240, 241, 242, 243, 244, 245, 246, 247, 248, 249, 250, 251, 252, 253, 254, 255, 256, 257, 258, 259, 260, 261, 262, 263, 264, 265, 266, 267, 268, 269, 270, 271, 272, 273, 274, 275, 276, 277, 278, 279, 280, 281, 282, 283, 284, 285, 286, 287, 288, 289, 290, 291, 292, 293, 294, 295, 296, 297, 298, 299, 300, 301, 302, 303, 304, 305, 306, 307, 308, 309, 310, 311, 312, 313, 314, 315, 316, 317, 318, 319, 320, 321, 322, 323, 324, 325, 326, 327, 328, 329, 330, 331, 332, 333, 334, 335, 336, 337, 338, 339, 340, 341, 342, 343, 344, 345, 346, 347, 348, 349, 350, 351, 352, 353, 354, 355, 356, 357, 358, 359, 360, 361, 362, 363, 364, 365, 366, 367, 368, 369, 370, 371, 372, 373, 374, 375, 376, 377, 378, 379, 380, 381, 382, 383, 384, 385, 386, 387, 388, 389, 390, 391, 392, 393, 394, 395, 396, 397, 398, 399, 400, 401, 402, 403, 404, 405, 406, 407, 408, 409, 410, 411, 412, 413, 414, 415, 416, 417, 418, 419, 420, 421, 422, 423, 424, 425, 426, 427, 428, 429, 430, 431, 432, 433, 434, 435, 436, 437, 438, 439, 440, 441, 442, 443, 444, 445, 446, 447, 448, 449, 450, 451, 452, 453, 454, 455, 456, 457, 458, 459, 460, 461, 462, 463, 464, 465, 466, 467, 468, 469, 470, 471, 472, 473, 474, 475, 476, 477, 478, 479, 480, 481, 482, 483, 484, 485, 486, 487, 488, 489, 490, 491, 492, 493, 494, 495, 496, 497, 498, 499, 500, 501, 502, 503, 504, 505, 506, 507, 508, 509, 510, 511, 512, 513, 514, 515, 516, 517, 518, 519, 520, 521, 522, 523, 524, 525, 526, 527, 528, 529, 530, 531, 532, 533, 534, 535, 536, 537, 538, 539, 540, 541, 542, 543, 544, 545, 546, 547, 548, 549, 550, 551, 552, 553, 554, 555, 556, 557, 558, 559, 560, 561, 562, 563, 564, 565, 566, 567, 568, 569, 570, 571, 572, 573, 574, 575, 576, 577, 578, 579, 580, 581, 582, 583, 584, 585, 586, 587, 588, 589, 590, 591, 592, 593, 594, 595, 596, 597, 598, 599, 600, 601, 602, 603, 604, 605, 606, 607, 608, 609, 610, 611, 612, 613, 614, 615, 616, 617, 618, 619, 620, 621, 622, 623, 624, 625, 626, 627, 628, 629, 630, 631, 632, 633, 634, 635, 636, 637, 638, 639, 640, 641, 642, 643, 644, 645, 646, 647, 648, 649, 650, 651, 652, 653, 654, 655, 656, 657, 658, 659, 660, 661, 662, 663, 664, 665, 666, 667, 668, 669, 670, 671, 672, 673, 674, 675, 676, 677, 678, 679, 680, 681, 682, 683, 684, 685, 686, 687, 688, 689, 690, 691, 692, 693, 694, 695, 696, 697, 698, 699, 700, 701, 702, 703, 704, 705, 706, 707, 708, 709, 710, 711, 712, 713, 714, 715, 716, 717, 718, 719, 720, 721, 722, 723, 724, 725, 726, 727, 728, 729, 730, 731, 732, 733, 734, 735, 736, 737, 738, 739, 740, 741, 742, 743, 744, 745, 746, 747, 748, 749, 750, 751, 752, 753, 754, 755, 756, 757, 758, 759, 760, 761, 762, 763, 764, 765, 766, 767, 768, 769, 770, 771, 772, 773, 774, 775, 776, 777, 778, 779, 780, 781, 782, 783, 784, 785, 786, 787, 788, 789, 790, 791, 792, 793, 794, 795, 796, 797, 798, 799, 800, 801, 802, 803, 804, 805, 806, 807, 808, 809, 810, 811, 812, 813, 814, 815, 816, 817, 818, 819, 820, 821, 822, 823, 824, 825, 826, 827, 828, 829, 830, 831, 832, 833, 834, 835, 836, 837, 838, 839, 840, 841, 842, 843, 844, 845, 846, 847, 848, 849, 850, 851, 852, 853, 854, 855, 856, 857, 858, 859, 860, 861, 862, 863, 864, 865, 866, 867, 868, 869, 870, 871, 872, 873, 874, 875, 876, 877, 878, 879, 880, 881, 882, 883, 884, 885, 886, 887, 888, 889, 890, 891, 892, 893, 894, 895, 896, 897, 898, 899, 900, 901, 902, 903, 904, 905, 906, 907, 908, 909, 910, 911, 912, 913, 914],
      "AcquisitionTime": ["210948.145000", "210948.605000", "210949.065000", "210949.525000", "210949.985000", "210950.445000", "210950.905000", "210951.365000", "210951.825000", "210952.285000", "210952.745000", "210953.205000", "210953.665000", "210954.125000", "210954.585000", "210955.045000", "210955.505000", "210955.965000", "210956.425000", "210956.885000", "210957.345000", "210957.805000", "210958.265000", "210958.725000", "210959.185000", "210959.645000", "211000.105000", "211000.565000", "211001.025000", "211001.485000", "211001.945000", "211002.405000", "211002.865000", "211003.325000", "211003.785000", "211004.245000", "211004.705000", "211005.165000", "211005.625000", "211006.085000", "211006.545000", "211007.005000", "211007.465000", "211007.925000", "211008.385000", "211008.845000", "211009.305000", "211009.765000", "211010.225000", "211010.685000", "211011.145000", "211011.605000", "211012.065000", "211012.525000", "211012.985000", "211013.445000", "211013.905000", "211014.365000", "211014.825000", "211015.285000", "211015.745000", "211016.205000", "211016.665000", "211017.125000", "211017.585000", "211018.045000", "211018.505000", "211018.965000", "211019.425000", "211019.885000", "211020.345000", "211020.805000", "211021.265000", "211021.725000", "211022.185000", "211022.645000", "211023.105000", "211023.565000", "211024.025000", "211024.485000", "211024.945000", "211025.405000", "211025.865000", "211026.325000", "211026.785000", "211027.245000", "211027.705000", "211028.165000", "211028.625000", "211029.085000", "211029.545000", "211030.005000", "211030.465000", "211030.925000", "211031.385000", "211031.845000", "211032.305000", "211032.765000", "211033.225000", "211033.685000", "211034.145000", "211034.605000", "211035.065000", "211035.525000", "211035.985000", "211036.445000", "211036.905000", "211037.365000", "211037.825000", "211038.285000", "211038.745000", "211039.205000", "211039.665000", "211040.125000", "211040.585000", "211041.045000", "211041.505000", "211041.965000", "211042.425000", "211042.885000", "211043.345000", "211043.805000", "211044.265000", "211044.725000", "211045.185000", "211045.645000", "211046.105000", "211046.565000", "211047.025000", "211047.485000", "211047.945000", "211048.405000", "211048.865000", "211049.325000", "211049.785000", "211050.245000", "211050.705000", "211051.165000", "211051.625000", "211052.085000", "211052.545000", "211053.005000", "211053.465000", "211053.925000", "211054.385000", "211054.845000", "211055.305000", "211055.765000", "211056.225000", "211056.685000", "211057.145000", "211057.605000", "211058.065000", "211058.525000", "211058.985000", "211059.445000", "211059.905000", "211100.365000", "211100.825000", "211101.285000", "211101.745000", "211102.205000", "211102.665000", "211103.125000", "211103.585000", "211104.045000", "211104.505000", "211104.965000", "211105.425000", "211105.885000", "211106.345000", "211106.805000", "211107.265000", "211107.725000", "211108.185000", "211108.645000", "211109.105000", "211109.565000", "211110.025000", "211110.485000", "211110.945000", "211111.405000", "211111.865000", "211112.325000", "211112.785000", "211113.245000", "211113.705000", "211114.165000", "211114.625000", "211115.085000", "211115.545000", "211116.005000", "211116.465000", "211116.925000", "211117.385000", "211117.845000", "211118.305000", "211118.765000", "211119.225000", "211119.685000", "211120.145000", "211120.605000", "211121.065000", "211121.525000", "211121.985000", "211122.445000", "211122.905000", "211123.365000", "211123.825000", "211124.285000", "211124.745000", "211125.205000", "211125.665000", "211126.125000", "211126.585000", "211127.045000", "211127.505000", "211127.965000", "211128.425000", "211128.885000", "211129.345000", "211129.805000", "211130.265000", "211130.725000", "211131.185000", "211131.645000", "211132.105000", "211132.565000", "211133.025000", "211133.485000", "211133.945000", "211134.405000", "211134.865000", "211135.325000", "211135.785000", "211136.245000", "211136.705000", "211137.165000", "211137.625000", "211138.085000", "211138.545000", "211139.005000", "211139.465000", "211139.925000", "211140.385000", "211140.845000", "211141.305000", "211141.765000", "211142.225000", "211142.685000", "211143.145000", "211143.605000", "211144.065000", "211144.525000", "211144.985000", "211145.445000", "211145.905000", "211146.365000", "211146.825000", "211147.285000", "211147.745000", "211148.205000", "211148.665000", "211149.125000", "211149.585000", "211150.045000", "211150.505000", "211150.965000", "211151.425000", "211151.885000", "211152.345000", "211152.805000", "211153.265000", "211153.725000", "211154.185000", "211154.645000", "211155.105000", "211155.565000", "211156.025000", "211156.485000", "211156.945000", "211157.405000", "211157.865000", "211158.325000", "211158.785000", "211159.245000", "211159.705000", "211200.165000", "211200.625000", "211201.085000", "211201.545000", "211202.005000", "211202.465000", "211202.925000", "211203.385000", "211203.845000", "211204.305000", "211204.765000", "211205.225000", "211205.685000", "211206.145000", "211206.605000", "211207.065000", "211207.525000", "211207.985000", "211208.445000", "211208.905000", "211209.365000", "211209.825000", "211210.285000", "211210.745000", "211211.205000", "211211.665000", "211212.125000", "211212.585000", "211213.045000", "211213.505000", "211213.965000", "211214.425000", "211214.885000", "211215.345000", "211215.805000", "211216.265000", "211216.725000", "211217.185000", "211217.645000", "211218.105000", "211218.565000", "211219.025000", "211219.485000", "211219.945000", "211220.405000", "211220.865000", "211221.325000", "211221.785000", "211222.245000", "211222.705000", "211223.165000", "211223.625000", "211224.085000", "211224.545000", "211225.005000", "211225.465000", "211225.925000", "211226.385000", "211226.845000", "211227.305000", "211227.765000", "211228.225000", "211228.685000", "211229.145000", "211229.605000", "211230.065000", "211230.525000", "211230.985000", "211231.445000", "211231.905000", "211232.365000", "211232.825000", "211233.285000", "211233.745000", "211234.205000", "211234.665000", "211235.125000", "211235.585000", "211236.045000", "211236.505000", "211236.965000", "211237.425000", "211237.885000", "211238.345000", "211238.805000", "211239.265000", "211239.725000", "211240.185000", "211240.645000", "211241.105000", "211241.565000", "211242.025000", "211242.485000", "211242.945000", "211243.405000", "211243.865000", "211244.325000", "211244.785000", "211245.245000", "211245.705000", "211246.165000", "211246.625000", "211247.085000", "211247.545000", "211248.005000", "211248.465000", "211248.925000", "211249.385000", "211249.845000", "211250.305000", "211250.765000", "211251.225000", "211251.685000", "211252.145000", "211252.605000", "211253.065000", "211253.525000", "211253.985000", "211254.445000", "211254.905000", "211255.365000", "211255.825000", "211256.285000", "211256.745000", "211257.205000", "211257.665000", "211258.125000", "211258.585000", "211259.045000", "211259.505000", "211259.965000", "211300.425000", "211300.885000", "211301.345000", "211301.805000", "211302.265000", "211302.725000", "211303.185000", "211303.645000", "211304.105000", "211304.565000", "211305.025000", "211305.485000", "211305.945000", "211306.405000", "211306.865000", "211307.325000", "211307.785000", "211308.245000", "211308.705000", "211309.165000", "211309.625000", "211310.085000", "211310.545000", "211311.005000", "211311.465000", "211311.925000", "211312.385000", "211312.845000", "211313.305000", "211313.765000", "211314.225000", "211314.685000", "211315.145000", "211315.605000", "211316.065000", "211316.525000", "211316.985000", "211317.445000", "211317.905000", "211318.365000", "211318.825000", "211319.285000", "211319.745000", "211320.205000", "211320.665000", "211321.125000", "211321.585000", "211322.045000", "211322.505000", "211322.965000", "211323.425000", "211323.885000", "211324.345000", "211324.805000", "211325.265000", "211325.725000", "211326.185000", "211326.645000", "211327.105000", "211327.565000", "211328.025000", "211328.485000", "211328.945000", "211329.405000", "211329.865000", "211330.325000", "211330.785000", "211331.245000", "211331.705000", "211332.165000", "211332.625000", "211333.085000", "211333.545000", "211334.005000", "211334.465000", "211334.925000", "211335.385000", "211335.845000", "211336.305000", "211336.765000", "211337.225000", "211337.685000", "211338.145000", "211338.605000", "211339.065000", "211339.525000", "211339.985000", "211340.445000", "211340.905000", "211341.365000", "211341.825000", "211342.285000", "211342.745000", "211343.205000", "211343.665000", "211344.125000", "211344.585000", "211345.045000", "211345.505000", "211345.965000", "211346.425000", "211346.885000", "211347.345000", "211347.805000", "211348.265000", "211348.725000", "211349.185000", "211349.645000", "211350.105000", "211350.565000", "211351.025000", "211351.485000", "211351.945000", "211352.405000", "211352.865000", "211353.325000", "211353.785000", "211354.245000", "211354.705000", "211355.165000", "211355.625000", "211356.085000", "211356.545000", "211357.005000", "211357.465000", "211357.925000", "211358.385000", "211358.845000", "211359.305000", "211359.765000", "211400.225000", "211400.685000", "211401.145000", "211401.605000", "211402.065000", "211402.525000", "211402.985000", "211403.445000", "211403.905000", "211404.365000", "211404.825000", "211405.285000", "211405.745000", "211406.205000", "211406.665000", "211407.125000", "211407.585000", "211408.045000", "211408.505000", "211408.965000", "211409.425000", "211409.885000", "211410.345000", "211410.805000", "211411.265000", "211411.725000", "211412.185000", "211412.645000", "211413.105000", "211413.565000", "211414.025000", "211414.485000", "211414.945000", "211415.405000", "211415.865000", "211416.325000", "211416.785000", "211417.245000", "211417.705000", "211418.165000", "211418.625000", "211419.085000", "211419.545000", "211420.005000", "211420.465000", "211420.925000", "211421.385000", "211421.845000", "211422.305000", "211422.765000", "211423.225000", "211423.685000", "211424.145000", "211424.605000", "211425.065000", "211425.525000", "211425.985000", "211426.445000", "211426.905000", "211427.365000", "211427.825000", "211428.285000", "211428.745000", "211429.205000", "211429.665000", "211430.125000", "211430.585000", "211431.045000", "211431.505000", "211431.965000", "211432.425000", "211432.885000", "211433.345000", "211433.805000", "211434.265000", "211434.725000", "211435.185000", "211435.645000", "211436.105000", "211436.565000", "211437.025000", "211437.485000", "211437.945000", "211438.405000", "211438.865000", "211439.325000", "211439.785000", "211440.245000", "211440.705000", "211441.165000", "211441.625000", "211442.085000", "211442.545000", "211443.005000", "211443.465000", "211443.925000", "211444.385000", "211444.845000", "211445.305000", "211445.765000", "211446.225000", "211446.685000", "211447.145000", "211447.605000", "211448.065000", "211448.525000", "211448.985000", "211449.445000", "211449.905000", "211450.365000", "211450.825000", "211451.285000", "211451.745000", "211452.205000", "211452.665000", "211453.125000", "211453.585000", "211454.045000", "211454.505000", "211454.965000", "211455.425000", "211455.885000", "211456.345000", "211456.805000", "211457.265000", "211457.725000", "211458.185000", "211458.645000", "211459.105000", "211459.565000", "211500.025000", "211500.485000", "211500.945000", "211501.405000", "211501.865000", "211502.325000", "211502.785000", "211503.245000", "211503.705000", "211504.165000", "211504.625000", "211505.085000", "211505.545000", "211506.005000", "211506.465000", "211506.925000", "211507.385000", "211507.845000", "211508.305000", "211508.765000", "211509.225000", "211509.685000", "211510.145000", "211510.605000", "211511.065000", "211511.525000", "211511.985000", "211512.445000", "211512.905000", "211513.365000", "211513.825000", "211514.285000", "211514.745000", "211515.205000", "211515.665000", "211516.125000", "211516.585000", "211517.045000", "211517.505000", "211517.965000", "211518.425000", "211518.885000", "211519.345000", "211519.805000", "211520.265000", "211520.725000", "211521.185000", "211521.645000", "211522.105000", "211522.565000", "211523.025000", "211523.485000", "211523.945000", "211524.405000", "211524.865000", "211525.325000", "211525.785000", "211526.245000", "211526.705000", "211527.165000", "211527.625000", "211528.085000", "211528.545000", "211529.005000", "211529.465000", "211529.925000", "211530.385000", "211530.845000", "211531.305000", "211531.765000", "211532.225000", "211532.685000", "211533.145000", "211533.605000", "211534.065000", "211534.525000", "211534.985000", "211535.445000", "211535.905000", "211536.365000", "211536.825000", "211537.285000", "211537.745000", "211538.205000", "211538.665000", "211539.125000", "211539.585000", "211540.045000", "211540.505000", "211540.965000", "211541.425000", "211541.885000", "211542.345000", "211542.805000", "211543.265000", "211543.725000", "211544.185000", "211544.645000", "211545.105000", "211545.565000", "211546.025000", "211546.485000", "211546.945000", "211547.405000", "211547.865000", "211548.325000", "211548.785000", "211549.245000", "211549.705000", "211550.165000", "211550.625000", "211551.085000", "211551.545000", "211552.005000", "211552.465000", "211552.925000", "211553.385000", "211553.845000", "211554.305000", "211554.765000", "211555.225000", "211555.685000", "211556.145000", "211556.605000", "211557.065000", "211557.525000", "211557.985000", "211558.445000", "211558.905000", "211559.365000", "211559.825000", "211600.285000", "211600.745000", "211601.205000", "211601.665000", "211602.125000", "211602.585000", "211603.045000", "211603.505000", "211603.965000", "211604.425000", "211604.885000", "211605.345000", "211605.805000", "211606.265000", "211606.725000", "211607.185000", "211607.645000", "211608.105000", "211608.565000", "211609.025000", "211609.485000", "211609.945000", "211610.405000", "211610.865000", "211611.325000", "211611.785000", "211612.245000", "211612.705000", "211613.165000", "211613.625000", "211614.085000", "211614.545000", "211615.005000", "211615.465000", "211615.925000", "211616.385000", "211616.845000", "211617.305000", "211617.765000", "211618.225000", "211618.685000", "211619.145000", "211619.605000", "211620.065000", "211620.525000", "211620.985000", "211621.445000", "211621.905000", "211622.365000", "211622.825000", "211623.285000", "211623.745000", "211624.205000", "211624.665000", "211625.125000", "211625.585000", "211626.045000", "211626.505000", "211626.965000", "211627.425000", "211627.885000", "211628.345000", "211628.805000", "211629.265000", "211629.725000", "211630.185000", "211630.645000", "211631.105000", "211631.565000", "211632.025000", "211632.485000", "211632.945000", "211633.405000", "211633.865000", "211634.325000", "211634.785000", "211635.245000", "211635.705000", "211636.165000", "211636.625000", "211637.085000", "211637.545000", "211638.005000", "211638.465000", "211638.925000", "211639.385000", "211639.845000", "211640.305000", "211640.765000", "211641.225000", "211641.685000", "211642.145000", "211642.605000", "211643.065000", "211643.525000", "211643.985000", "211644.445000", "211644.905000", "211645.365000", "211645.825000", "211646.285000", "211646.745000", "211647.205000", "211647.665000", "211648.125000"],
