{
  "AcquisitionMatrixPE": 82,
  "AcquisitionNumber": 1,
  "AcquisitionTime": "20:23:19.210000",
  "BandwidthPerPixelPhaseEncode": 24.888,
  "BaseResolution": 82,
  "BodyPartExamined": "BRAIN",
  "ConsistencyInfo": "N4_VE11E_LATEST_20181129",
  "ConversionSoftware": "dcm2niix",
  "ConversionSoftwareVersion": "v1.0.20201102",
  "DerivedVendorReportedEchoSpacing": 0.00049,
  "DeviceSerialNumber": "66112",
  "DwellTime": 2e-06,
  "EchoTime": 0.0272,
  "EchoTrainLength": 82,
  "EffectiveEchoSpacing": 0.00049,
  "FlipAngle": 44,
  "ImageComments": "Unaliased MB8/PE3",
  "ImageOrientationPatientDICOM": [0.999796, 0.0162727, -0.011966, -0.017277, 0.995858, -0.0892672],
  "ImageType": [
    "ORIGINAL",
    "PRIMARY",
    "M",
    "MB",
    "ND",
    "NORM",
    "MOSAIC"
],
  "ImagingFrequency": 123.259,
  "InPlanePhaseEncodingDirectionDICOM": "COL",
  "InstitutionAddress": "Maynard 3,Hanover,NH,US,03755",
  "InstitutionName": "Dartmouth College - PBS",
  "InstitutionalDepartmentName": "Department",
  "MRAcquisitionType": "2D",
  "MagneticFieldStrength": 3,
  "Manufacturer": "Siemens",
  "ManufacturersModelName": "Prisma",
  "Modality": "MR",
  "MultibandAccelerationFactor": 8,
  "PartialFourier": 1,
  "PatientPosition": "HFS",
  "PercentPhaseFOV": 100,
  "PercentSampling": 100,
  "PhaseEncodingDirection": "j-",
  "PhaseEncodingSteps": 82,
  "PhaseResolution": 1,
  "PixelBandwidth": 3050,
  "ProcedureStepDescription": "Wager_Wager^1076_spacetop",
  "ProtocolName": "func_run-02_task-narratives_acq-ap-mb8",
  "PulseSequenceDetails": "%CustomerSeq%\\cmrr_mbep2d_bold",
  "ReceiveCoilActiveElements": "HEA;HEP",
  "ReceiveCoilName": "Head_32",
  "ReconMatrixPE": 82,
  "RepetitionTime": 0.46,
  "SAR": 0.0981128,
  "ScanOptions": "FS",
  "ScanningSequence": "EP",
  "SequenceName": "epfid2d1_82",
  "SequenceVariant": "SK\\SS",
  "SeriesDescription": "func_run-02_task-narratives_acq-ap-mb8",
  "SeriesNumber": 12,
  "ShimSetting": [4222, -7760, -7253, 117, -143, -142, -138, 61],
  "SliceThickness": 2.7,
  "SliceTiming": [0, 0.2525, 0.0625, 0.315, 0.1275, 0.3775, 0.19, 0, 0.2525, 0.0625, 0.315, 0.1275, 0.3775, 0.19, 0, 0.2525, 0.0625, 0.315, 0.1275, 0.3775, 0.19, 0, 0.2525, 0.0625, 0.315, 0.1275, 0.3775, 0.19, 0, 0.2525, 0.0625, 0.315, 0.1275, 0.3775, 0.19, 0, 0.2525, 0.0625, 0.315, 0.1275, 0.3775, 0.19, 0, 0.2525, 0.0625, 0.315, 0.1275, 0.3775, 0.19, 0, 0.2525, 0.0625, 0.315, 0.1275, 0.3775, 0.19],
  "SoftwareVersions": "syngo MR E11",
  "SpacingBetweenSlices": 2.7,
  "StationName": "AWP66112",
  "TaskName": "narratives",
  "TotalReadoutTime": 0.03969,
  "TxRefAmp": 294.696,
  "WipMemBlock": "22c70034-e12c-48f7-a48d-48540e75800f||Sequence: R016 ve11e/master r/434b28f1; Aug  7 2019 18:53:46 by eja",
  "dcmmeta_affine": [
    [-2.6823794841766357, -0.04635284096002579, -0.028252320364117622, 112.27888488769531],
    [-0.04365839809179306, 2.671813726425171, -0.24153044819831848, -85.49154663085938],
    [-0.03210391104221344, 0.2394973635673523, 2.6890265941619873, -108.26502990722656],
    [0.0, 0.0, 0.0, 1.0]
],
  "dcmmeta_reorient_transform": [
    [0.0, -1.0, 0.0, 81.0],
    [1.0, 0.0, 0.0, 0.0],
    [0.0, 0.0, 1.0, 0.0],
    [0.0, 0.0, 0.0, 1.0]
],
  "dcmmeta_shape": [82, 82, 56, 1098],
  "dcmmeta_slice_dim": 2,
  "dcmmeta_version": 0.6,
  "global": {
    "const": {
      "AccessionNumber": "A004803",
      "AcquisitionMatrix": [82, 0, 0, 82],
      "AngioFlag": "N",
      "BitsAllocated": 16,
      "BitsStored": 16,
      "BodyPartExamined": "BRAIN",
      "Columns": 656,
      "EchoNumbers": 1,
      "EchoTime": 27.2,
      "EchoTrainLength": 82,
      "FlipAngle": 44.0,
      "HighBit": 15,
      "ImageOrientationPatient": [0.99979598659292, 0.01627267501415, -0.0119660035339, -0.0172769676424, 0.99585785807087, -0.0892671995057],
      "ImagePositionPatient": [-865.06396652949, -910.26589949017, -10.916175380469],
      "ImageType": [
        "ORIGINAL",
        "PRIMARY",
        "M",
        "MB",
        "ND",
        "NORM",
        "MOSAIC"
],
      "ImagedNucleus": "1H",
      "ImagingFrequency": 123.259066,
      "InPlanePhaseEncodingDirection": "COL",
      "MRAcquisitionType": "2D",
      "MagneticFieldStrength": 3.0,
      "Manufacturer": "SIEMENS",
      "ManufacturerModelName": "Prisma",
      "Modality": "MR",
      "NumberOfAverages": 1.0,
      "NumberOfPhaseEncodingSteps": 82,
      "PercentPhaseFieldOfView": 100.0,
      "PercentSampling": 100.0,
      "PerformedProcedureStepStartTime": "194143.364000",
      "PhotometricInterpretation": "MONOCHROME2",
      "PixelBandwidth": 3050.0,
      "PixelRepresentation": 0,
      "PixelSpacing": [2.6829268932343, 2.6829268932343],
      "ProtocolName": "func_run-02_task-narratives_acq-ap-mb8",
      "RepetitionTime": 460.0,
      "Rows": 656,
      "SAR": 0.09811277560919,
      "SamplesPerPixel": 1,
      "ScanOptions": "FS",
      "ScanningSequence": "EP",
      "SequenceName": "epfid2d1_82",
      "SequenceVariant": [
        "SK",
        "SS"
],
      "SeriesDescription": "func_run-02_task-narratives_acq-ap-mb8",
      "SeriesNumber": 12,
      "SeriesTime": "202334.433000",
      "SliceLocation": -101.3521811502,
      "SliceThickness": 2.7000000476837,
      "SmallestImagePixelValue": 0,
      "SoftwareVersions": "syngo MR E11",
      "SpacingBetweenSlices": 2.699999965884,
      "SpecificCharacterSet": "ISO_IR 100",
      "StudyID": "1",
      "StudyTime": "194143.304000",
      "TransmitCoilName": "Body",
      "VariableFlipAngleFlag": "N",
      "WindowCenterWidthExplanation": "Algo1"
    },
    "slices": {}
  },
  "time": {
    "samples": {
      "AcquisitionNumber": [1, 2, 3, 4, 5, 6, 7, 8, 9, 10, 11, 12, 13, 14, 15, 16, 17, 18, 19, 20, 21, 22, 23, 24, 25, 26, 27, 28, 29, 30, 31, 32, 33, 34, 35, 36, 37, 38, 39, 40, 41, 42, 43, 44, 45, 46, 47, 48, 49, 50, 51, 52, 53, 54, 55, 56, 57, 58, 59, 60, 61, 62, 63, 64, 65, 66, 67, 68, 69, 70, 71, 72, 73, 74, 75, 76, 77, 78, 79, 80, 81, 82, 83, 84, 85, 86, 87, 88, 89, 90, 91, 92, 93, 94, 95, 96, 97, 98, 99, 100, 101, 102, 103, 104, 105, 106, 107, 108, 109, 110, 111, 112, 113, 114, 115, 116, 117, 118, 119, 120, 121, 122, 123, 124, 125, 126, 127, 128, 129, 130, 131, 132, 133, 134, 135, 136, 137, 138, 139, 140, 141, 142, 143, 144, 145, 146, 147, 148, 149, 150, 151, 152, 153, 154, 155, 156, 157, 158, 159, 160, 161, 162, 163, 164, 165, 166, 167, 168, 169, 170, 171, 172, 173, 174, 175, 176, 177, 178, 179, 180, 181, 182, 183, 184, 185, 186, 187, 188, 189, 190, 191, 192, 193, 194, 195, 196, 197, 198, 199, 200, 201, 202, 203, 204, 205, 206, 207, 208, 209, 210, 211, 212, 213, 214, 215, 216, 217, 218, 219, 220, 221, 222, 223, 224, 225, 226, 227, 228, 229, 230, 231, 232, 233, 234, 235, 236, 237, 238, 239, 240, 241, 242, 243, 244, 245, 246, 247, 248, 249, 250, 251, 252, 253, 254, 255, 256, 257, 258, 259, 260, 261, 262, 263, 264, 265, 266, 267, 268, 269, 270, 271, 272, 273, 274, 275, 276, 277, 278, 279, 280, 281, 282, 283, 284, 285, 286, 287, 288, 289, 290, 291, 292, 293, 294, 295, 296, 297, 298, 299, 300, 301, 302, 303, 304, 305, 306, 307, 308, 309, 310, 311, 312, 313, 314, 315, 316, 317, 318, 319, 320, 321, 322, 323, 324, 325, 326, 327, 328, 329, 330, 331, 332, 333, 334, 335, 336, 337, 338, 339, 340, 341, 342, 343, 344, 345, 346, 347, 348, 349, 350, 351, 352, 353, 354, 355, 356, 357, 358, 359, 360, 361, 362, 363, 364, 365, 366, 367, 368, 369, 370, 371, 372, 373, 374, 375, 376, 377, 378, 379, 380, 381, 382, 383, 384, 385, 386, 387, 388, 389, 390, 391, 392, 393, 394, 395, 396, 397, 398, 399, 400, 401, 402, 403, 404, 405, 406, 407, 408, 409, 410, 411, 412, 413, 414, 415, 416, 417, 418, 419, 420, 421, 422, 423, 424, 425, 426, 427, 428, 429, 430, 431, 432, 433, 434, 435, 436, 437, 438, 439, 440, 441, 442, 443, 444, 445, 446, 447, 448, 449, 450, 451, 452, 453, 454, 455, 456, 457, 458, 459, 460, 461, 462, 463, 464, 465, 466, 467, 468, 469, 470, 471, 472, 473, 474, 475, 476, 477, 478, 479, 480, 481, 482, 483, 484, 485, 486, 487, 488, 489, 490, 491, 492, 493, 494, 495, 496, 497, 498, 499, 500, 501, 502, 503, 504, 505, 506, 507, 508, 509, 510, 511, 512, 513, 514, 515, 516, 517, 518, 519, 520, 521, 522, 523, 524, 525, 526, 527, 528, 529, 530, 531, 532, 533, 534, 535, 536, 537, 538, 539, 540, 541, 542, 543, 544, 545, 546, 547, 548, 549, 550, 551, 552, 553, 554, 555, 556, 557, 558, 559, 560, 561, 562, 563, 564, 565, 566, 567, 568, 569, 570, 571, 572, 573, 574, 575, 576, 577, 578, 579, 580, 581, 582, 583, 584, 585, 586, 587, 588, 589, 590, 591, 592, 593, 594, 595, 596, 597, 598, 599, 600, 601, 602, 603, 604, 605, 606, 607, 608, 609, 610, 611, 612, 613, 614, 615, 616, 617, 618, 619, 620, 621, 622, 623, 624, 625, 626, 627, 628, 629, 630, 631, 632, 633, 634, 635, 636, 637, 638, 639, 640, 641, 642, 643, 644, 645, 646, 647, 648, 649, 650, 651, 652, 653, 654, 655, 656, 657, 658, 659, 660, 661, 662, 663, 664, 665, 666, 667, 668, 669, 670, 671, 672, 673, 674, 675, 676, 677, 678, 679, 680, 681, 682, 683, 684, 685, 686, 687, 688, 689, 690, 691, 692, 693, 694, 695, 696, 697, 698, 699, 700, 701, 702, 703, 704, 705, 706, 707, 708, 709, 710, 711, 712, 713, 714, 715, 716, 717, 718, 719, 720, 721, 722, 723, 724, 725, 726, 727, 728, 729, 730, 731, 732, 733, 734, 735, 736, 737, 738, 739, 740, 741, 742, 743, 744, 745, 746, 747, 748, 749, 750, 751, 752, 753, 754, 755, 756, 757, 758, 759, 760, 761, 762, 763, 764, 765, 766, 767, 768, 769, 770, 771, 772, 773, 774, 775, 776, 777, 778, 779, 780, 781, 782, 783, 784, 785, 786, 787, 788, 789, 790, 791, 792, 793, 794, 795, 796, 797, 798, 799, 800, 801, 802, 803, 804, 805, 806, 807, 808, 809, 810, 811, 812, 813, 814, 815, 816, 817, 818, 819, 820, 821, 822, 823, 824, 825, 826, 827, 828, 829, 830, 831, 832, 833, 834, 835, 836, 837, 838, 839, 840, 841, 842, 843, 844, 845, 846, 847, 848, 849, 850, 851, 852, 853, 854, 855, 856, 857, 858, 859, 860, 861, 862, 863, 864, 865, 866, 867, 868, 869, 870, 871, 872, 873, 874, 875, 876, 877, 878, 879, 880, 881, 882, 883, 884, 885, 886, 887, 888, 889, 890, 891, 892, 893, 894, 895, 896, 897, 898, 899, 900, 901, 902, 903, 904, 905, 906, 907, 908, 909, 910, 911, 912, 913, 914, 915, 916, 917, 918, 919, 920, 921, 922, 923, 924, 925, 926, 927, 928, 929, 930, 931, 932, 933, 934, 935, 936, 937, 938, 939, 940, 941, 942, 943, 944, 945, 946, 947, 948, 949, 950, 951, 952, 953, 954, 955, 956, 957, 958, 959, 960, 961, 962, 963, 964, 965, 966, 967, 968, 969, 970, 971, 972, 973, 974, 975, 976, 977, 978, 979, 980, 981, 982, 983, 984, 985, 986, 987, 988, 989, 990, 991, 992, 993, 994, 995, 996, 997, 998, 999, 1000, 1001, 1002, 1003, 1004, 1005, 1006, 1007, 1008, 1009, 1010, 1011, 1012, 1013, 1014, 1015, 1016, 1017, 1018, 1019, 1020, 1021, 1022, 1023, 1024, 1025, 1026, 1027, 1028, 1029, 1030, 1031, 1032, 1033, 1034, 1035, 1036, 1037, 1038, 1039, 1040, 1041, 1042, 1043, 1044, 1045, 1046, 1047, 1048, 1049, 1050, 1051, 1052, 1053, 1054, 1055, 1056, 1057, 1058, 1059, 1060, 1061, 1062, 1063, 1064, 1065, 1066, 1067, 1068, 1069, 1070, 1071, 1072, 1073, 1074, 1075, 1076, 1077, 1078, 1079, 1080, 1081, 1082, 1083, 1084, 1085, 1086, 1087, 1088, 1089, 1090, 1091, 1092, 1093, 1094, 1095, 1096, 1097, 1098],
      "AcquisitionTime": ["202319.210000", "202319.670000", "202320.130000", "202320.590000", "202321.050000", "202321.510000", "202321.970000", "202322.430000", "202322.890000", "202323.350000", "202323.810000", "202324.270000", "202324.730000", "202325.190000", "202325.650000", "202326.110000", "202326.570000", "202327.030000", "202327.490000", "202327.950000", "202328.410000", "202328.870000", "202329.330000", "202329.790000", "202330.250000", "202330.710000", "202331.170000", "202331.630000", "202332.090000", "202332.550000", "202333.010000", "202333.470000", "202333.930000", "202334.390000", "202334.850000", "202335.310000", "202335.770000", "202336.230000", "202336.690000", "202337.150000", "202337.610000", "202338.070000", "202338.530000", "202338.990000", "202339.450000", "202339.910000", "202340.370000", "202340.830000", "202341.290000", "202341.750000", "202342.210000", "202342.670000", "202343.130000", "202343.590000", "202344.050000", "202344.510000", "202344.970000", "202345.430000", "202345.890000", "202346.350000", "202346.810000", "202347.270000", "202347.730000", "202348.190000", "202348.650000", "202349.110000", "202349.570000", "202350.030000", "202350.490000", "202350.950000", "202351.410000", "202351.870000", "202352.330000", "202352.790000", "202353.250000", "202353.710000", "202354.170000", "202354.630000", "202355.090000", "202355.550000", "202356.010000", "202356.470000", "202356.930000", "202357.390000", "202357.850000", "202358.310000", "202358.770000", "202359.230000", "202359.690000", "202400.150000", "202400.610000", "202401.070000", "202401.530000", "202401.990000", "202402.450000", "202402.910000", "202403.370000", "202403.830000", "202404.290000", "202404.750000", "202405.210000", "202405.670000", "202406.130000", "202406.590000", "202407.050000", "202407.510000", "202407.970000", "202408.430000", "202408.890000", "202409.350000", "202409.810000", "202410.270000", "202410.730000", "202411.190000", "202411.650000", "202412.110000", "202412.570000", "202413.030000", "202413.490000", "202413.950000", "202414.410000", "202414.870000", "202415.330000", "202415.790000", "202416.250000", "202416.710000", "202417.170000", "202417.630000", "202418.090000", "202418.550000", "202419.010000", "202419.470000", "202419.930000", "202420.390000", "202420.850000", "202421.310000", "202421.770000", "202422.230000", "202422.690000", "202423.150000", "202423.610000", "202424.070000", "202424.530000", "202424.990000", "202425.450000", "202425.910000", "202426.370000", "202426.830000", "202427.290000", "202427.750000", "202428.210000", "202428.670000", "202429.130000", "202429.590000", "202430.050000", "202430.510000", "202430.970000", "202431.430000", "202431.890000", "202432.350000", "202432.810000", "202433.270000", "202433.730000", "202434.190000", "202434.650000", "202435.110000", "202435.570000", "202436.030000", "202436.490000", "202436.950000", "202437.410000", "202437.870000", "202438.330000", "202438.790000", "202439.250000", "202439.710000", "202440.170000", "202440.630000", "202441.090000", "202441.550000", "202442.010000", "202442.470000", "202442.930000", "202443.390000", "202443.850000", "202444.310000", "202444.770000", "202445.230000", "202445.690000", "202446.150000", "202446.610000", "202447.070000", "202447.530000", "202447.990000", "202448.450000", "202448.910000", "202449.370000", "202449.830000", "202450.290000", "202450.750000", "202451.210000", "202451.670000", "202452.130000", "202452.590000", "202453.050000", "202453.510000", "202453.970000", "202454.430000", "202454.890000", "202455.350000", "202455.810000", "202456.270000", "202456.730000", "202457.190000", "202457.650000", "202458.110000", "202458.570000", "202459.030000", "202459.490000", "202459.950000", "202500.410000", "202500.870000", "202501.330000", "202501.790000", "202502.250000", "202502.710000", "202503.170000", "202503.630000", "202504.090000", "202504.550000", "202505.010000", "202505.470000", "202505.930000", "202506.390000", "202506.850000", "202507.310000", "202507.770000", "202508.230000", "202508.690000", "202509.150000", "202509.610000", "202510.070000", "202510.530000", "202510.990000", "202511.450000", "202511.910000", "202512.370000", "202512.830000", "202513.290000", "202513.750000", "202514.210000", "202514.670000", "202515.130000", "202515.590000", "202516.050000", "202516.510000", "202516.970000", "202517.430000", "202517.890000", "202518.350000", "202518.810000", "202519.270000", "202519.730000", "202520.190000", "202520.650000", "202521.110000", "202521.570000", "202522.030000", "202522.490000", "202522.950000", "202523.410000", "202523.870000", "202524.330000", "202524.790000", "202525.250000", "202525.710000", "202526.170000", "202526.630000", "202527.090000", "202527.550000", "202528.010000", "202528.470000", "202528.930000", "202529.390000", "202529.850000", "202530.310000", "202530.770000", "202531.230000", "202531.690000", "202532.150000", "202532.610000", "202533.070000", "202533.530000", "202533.990000", "202534.450000", "202534.910000", "202535.370000", "202535.830000", "202536.290000", "202536.750000", "202537.210000", "202537.670000", "202538.130000", "202538.590000", "202539.050000", "202539.510000", "202539.970000", "202540.430000", "202540.890000", "202541.350000", "202541.810000", "202542.270000", "202542.730000", "202543.190000", "202543.650000", "202544.110000", "202544.570000", "202545.030000", "202545.490000", "202545.950000", "202546.410000", "202546.870000", "202547.330000", "202547.790000", "202548.250000", "202548.710000", "202549.170000", "202549.630000", "202550.090000", "202550.550000", "202551.010000", "202551.470000", "202551.930000", "202552.390000", "202552.850000", "202553.310000", "202553.770000", "202554.230000", "202554.690000", "202555.150000", "202555.610000", "202556.070000", "202556.530000", "202556.990000", "202557.450000", "202557.910000", "202558.370000", "202558.830000", "202559.290000", "202559.750000", "202600.210000", "202600.670000", "202601.130000", "202601.590000", "202602.050000", "202602.510000", "202602.970000", "202603.430000", "202603.890000", "202604.350000", "202604.810000", "202605.270000", "202605.730000", "202606.190000", "202606.650000", "202607.110000", "202607.570000", "202608.030000", "202608.490000", "202608.950000", "202609.410000", "202609.870000", "202610.330000", "202610.790000", "202611.250000", "202611.710000", "202612.170000", "202612.630000", "202613.090000", "202613.550000", "202614.010000", "202614.470000", "202614.930000", "202615.390000", "202615.850000", "202616.310000", "202616.770000", "202617.230000", "202617.690000", "202618.150000", "202618.610000", "202619.070000", "202619.530000", "202619.990000", "202620.450000", "202620.910000", "202621.370000", "202621.830000", "202622.290000", "202622.750000", "202623.210000", "202623.670000", "202624.130000", "202624.590000", "202625.050000", "202625.510000", "202625.970000", "202626.430000", "202626.890000", "202627.350000", "202627.810000", "202628.270000", "202628.730000", "202629.190000", "202629.650000", "202630.110000", "202630.570000", "202631.030000", "202631.490000", "202631.950000", "202632.410000", "202632.870000", "202633.330000", "202633.790000", "202634.250000", "202634.710000", "202635.170000", "202635.630000", "202636.090000", "202636.550000", "202637.010000", "202637.470000", "202637.930000", "202638.390000", "202638.850000", "202639.310000", "202639.770000", "202640.230000", "202640.690000", "202641.150000", "202641.610000", "202642.070000", "202642.530000", "202642.990000", "202643.450000", "202643.910000", "202644.370000", "202644.830000", "202645.290000", "202645.750000", "202646.210000", "202646.670000", "202647.130000", "202647.590000", "202648.050000", "202648.510000", "202648.970000", "202649.430000", "202649.890000", "202650.350000", "202650.810000", "202651.270000", "202651.730000", "202652.190000", "202652.650000", "202653.110000", "202653.570000", "202654.030000", "202654.490000", "202654.950000", "202655.410000", "202655.870000", "202656.330000", "202656.790000", "202657.250000", "202657.710000", "202658.170000", "202658.630000", "202659.090000", "202659.550000", "202700.010000", "202700.470000", "202700.930000", "202701.390000", "202701.850000", "202702.310000", "202702.770000", "202703.230000", "202703.690000", "202704.150000", "202704.610000", "202705.070000", "202705.530000", "202705.990000", "202706.450000", "202706.910000", "202707.370000", "202707.830000", "202708.290000", "202708.750000", "202709.210000", "202709.670000", "202710.130000", "202710.590000", "202711.050000", "202711.510000", "202711.970000", "202712.430000", "202712.890000", "202713.350000", "202713.810000", "202714.270000", "202714.730000", "202715.190000", "202715.650000", "202716.110000", "202716.570000", "202717.030000", "202717.490000", "202717.950000", "202718.410000", "202718.870000", "202719.330000", "202719.790000", "202720.250000", "202720.710000", "202721.170000", "202721.630000", "202722.090000", "202722.550000", "202723.010000", "202723.470000", "202723.930000", "202724.390000", "202724.850000", "202725.310000", "202725.770000", "202726.230000", "202726.690000", "202727.150000", "202727.610000", "202728.070000", "202728.530000", "202728.990000", "202729.450000", "202729.910000", "202730.370000", "202730.830000", "202731.290000", "202731.750000", "202732.210000", "202732.670000", "202733.130000", "202733.590000", "202734.050000", "202734.510000", "202734.970000", "202735.430000", "202735.890000", "202736.350000", "202736.810000", "202737.270000", "202737.730000", "202738.190000", "202738.650000", "202739.110000", "202739.570000", "202740.030000", "202740.490000", "202740.950000", "202741.410000", "202741.870000", "202742.330000", "202742.790000", "202743.250000", "202743.710000", "202744.170000", "202744.630000", "202745.090000", "202745.550000", "202746.010000", "202746.470000", "202746.930000", "202747.390000", "202747.850000", "202748.310000", "202748.770000", "202749.230000", "202749.690000", "202750.150000", "202750.610000", "202751.070000", "202751.530000", "202751.990000", "202752.450000", "202752.910000", "202753.370000", "202753.830000", "202754.290000", "202754.750000", "202755.210000", "202755.670000", "202756.130000", "202756.590000", "202757.050000", "202757.510000", "202757.970000", "202758.430000", "202758.890000", "202759.350000", "202759.810000", "202800.270000", "202800.730000", "202801.190000", "202801.650000", "202802.110000", "202802.570000", "202803.030000", "202803.490000", "202803.950000", "202804.410000", "202804.870000", "202805.330000", "202805.790000", "202806.250000", "202806.710000", "202807.170000", "202807.630000", "202808.090000", "202808.550000", "202809.010000", "202809.470000", "202809.930000", "202810.390000", "202810.850000", "202811.310000", "202811.770000", "202812.230000", "202812.690000", "202813.150000", "202813.610000", "202814.070000", "202814.530000", "202814.990000", "202815.450000", "202815.910000", "202816.370000", "202816.830000", "202817.290000", "202817.750000", "202818.210000", "202818.670000", "202819.130000", "202819.590000", "202820.050000", "202820.510000", "202820.970000", "202821.430000", "202821.890000", "202822.350000", "202822.810000", "202823.270000", "202823.730000", "202824.190000", "202824.650000", "202825.110000", "202825.570000", "202826.030000", "202826.490000", "202826.950000", "202827.410000", "202827.870000", "202828.330000", "202828.790000", "202829.250000", "202829.710000", "202830.170000", "202830.630000", "202831.090000", "202831.550000", "202832.010000", "202832.470000", "202832.930000", "202833.390000", "202833.850000", "202834.310000", "202834.770000", "202835.230000", "202835.690000", "202836.150000", "202836.610000", "202837.070000", "202837.530000", "202837.990000", "202838.450000", "202838.910000", "202839.370000", "202839.830000", "202840.290000", "202840.750000", "202841.210000", "202841.670000", "202842.130000", "202842.590000", "202843.050000", "202843.510000", "202843.970000", "202844.430000", "202844.890000", "202845.350000", "202845.810000", "202846.270000", "202846.730000", "202847.190000", "202847.650000", "202848.110000", "202848.570000", "202849.030000", "202849.490000", "202849.950000", "202850.410000", "202850.870000", "202851.330000", "202851.790000", "202852.250000", "202852.710000", "202853.170000", "202853.630000", "202854.090000", "202854.550000", "202855.010000", "202855.470000", "202855.930000", "202856.390000", "202856.850000", "202857.310000", "202857.770000", "202858.230000", "202858.690000", "202859.150000", "202859.610000", "202900.070000", "202900.530000", "202900.990000", "202901.450000", "202901.910000", "202902.370000", "202902.830000", "202903.290000", "202903.750000", "202904.210000", "202904.670000", "202905.130000", "202905.590000", "202906.050000", "202906.510000", "202906.970000", "202907.430000", "202907.890000", "202908.350000", "202908.810000", "202909.270000", "202909.730000", "202910.190000", "202910.650000", "202911.110000", "202911.570000", "202912.030000", "202912.490000", "202912.950000", "202913.410000", "202913.870000", "202914.330000", "202914.790000", "202915.250000", "202915.710000", "202916.170000", "202916.630000", "202917.090000", "202917.550000", "202918.010000", "202918.470000", "202918.930000", "202919.390000", "202919.850000", "202920.310000", "202920.770000", "202921.230000", "202921.690000", "202922.150000", "202922.610000", "202923.070000", "202923.530000", "202923.990000", "202924.450000", "202924.910000", "202925.370000", "202925.830000", "202926.290000", "202926.750000", "202927.210000", "202927.670000", "202928.130000", "202928.590000", "202929.050000", "202929.510000", "202929.970000", "202930.430000", "202930.890000", "202931.350000", "202931.810000", "202932.270000", "202932.730000", "202933.190000", "202933.650000", "202934.110000", "202934.570000", "202935.030000", "202935.490000", "202935.950000", "202936.410000", "202936.870000", "202937.330000", "202937.790000", "202938.250000", "202938.710000", "202939.170000", "202939.630000", "202940.090000", "202940.550000", "202941.010000", "202941.470000", "202941.930000", "202942.390000", "202942.850000", "202943.310000", "202943.770000", "202944.230000", "202944.690000", "202945.150000", "202945.610000", "202946.070000", "202946.530000", "202946.990000", "202947.450000", "202947.910000", "202948.370000", "202948.830000", "202949.290000", "202949.750000", "202950.210000", "202950.670000", "202951.130000", "202951.590000", "202952.050000", "202952.510000", "202952.970000", "202953.430000", "202953.890000", "202954.350000", "202954.810000", "202955.270000", "202955.730000", "202956.190000", "202956.650000", "202957.110000", "202957.570000", "202958.030000", "202958.490000", "202958.950000", "202959.410000", "202959.870000", "203000.330000", "203000.790000", "203001.250000", "203001.710000", "203002.170000", "203002.630000", "203003.090000", "203003.550000", "203004.010000", "203004.470000", "203004.930000", "203005.390000", "203005.850000", "203006.310000", "203006.770000", "203007.230000", "203007.690000", "203008.150000", "203008.610000", "203009.070000", "203009.530000", "203009.990000", "203010.450000", "203010.910000", "203011.370000", "203011.830000", "203012.290000", "203012.750000", "203013.210000", "203013.670000", "203014.130000", "203014.590000", "203015.050000", "203015.510000", "203015.970000", "203016.430000", "203016.890000", "203017.350000", "203017.810000", "203018.270000", "203018.730000", "203019.190000", "203019.650000", "203020.110000", "203020.570000", "203021.030000", "203021.490000", "203021.950000", "203022.410000", "203022.870000", "203023.330000", "203023.790000", "203024.250000", "203024.710000", "203025.170000", "203025.630000", "203026.090000", "203026.550000", "203027.010000", "203027.470000", "203027.930000", "203028.390000", "203028.850000", "203029.310000", "203029.770000", "203030.230000", "203030.690000", "203031.150000", "203031.610000", "203032.070000", "203032.530000", "203032.990000", "203033.450000", "203033.910000", "203034.370000", "203034.830000", "203035.290000", "203035.750000", "203036.210000", "203036.670000", "203037.130000", "203037.590000", "203038.050000", "203038.510000", "203038.970000", "203039.430000", "203039.890000", "203040.350000", "203040.810000", "203041.270000", "203041.730000", "203042.190000", "203042.650000", "203043.110000", "203043.570000", "203044.030000", "203044.490000", "203044.950000", "203045.410000", "203045.870000", "203046.330000", "203046.790000", "203047.250000", "203047.710000", "203048.170000", "203048.630000", "203049.090000", "203049.550000", "203050.010000", "203050.470000", "203050.930000", "203051.390000", "203051.850000", "203052.310000", "203052.770000", "203053.230000", "203053.690000", "203054.150000", "203054.610000", "203055.070000", "203055.530000", "203055.990000", "203056.450000", "203056.910000", "203057.370000", "203057.830000", "203058.290000", "203058.750000", "203059.210000", "203059.670000", "203100.130000", "203100.590000", "203101.050000", "203101.510000", "203101.970000", "203102.430000", "203102.890000", "203103.350000", "203103.810000", "203104.270000", "203104.730000", "203105.190000", "203105.650000", "203106.110000", "203106.570000", "203107.030000", "203107.490000", "203107.950000", "203108.410000", "203108.870000", "203109.330000", "203109.790000", "203110.250000", "203110.710000", "203111.170000", "203111.630000", "203112.090000", "203112.550000", "203113.010000", "203113.470000", "203113.930000", "203114.390000", "203114.850000", "203115.310000", "203115.770000", "203116.230000", "203116.690000", "203117.150000", "203117.610000", "203118.070000", "203118.530000", "203118.990000", "203119.450000", "203119.910000", "203120.370000", "203120.830000", "203121.290000", "203121.750000", "203122.210000", "203122.670000", "203123.130000", "203123.590000", "203124.050000", "203124.510000", "203124.970000", "203125.430000", "203125.890000", "203126.350000", "203126.810000", "203127.270000", "203127.730000", "203128.190000", "203128.650000", "203129.110000", "203129.570000", "203130.030000", "203130.490000", "203130.950000", "203131.410000", "203131.870000", "203132.330000", "203132.790000", "203133.250000", "203133.710000", "203134.170000", "203134.630000", "203135.090000", "203135.550000", "203136.010000", "203136.470000", "203136.930000", "203137.390000", "203137.850000", "203138.310000", "203138.770000", "203139.230000", "203139.690000", "203140.150000", "203140.610000", "203141.070000", "203141.530000", "203141.990000", "203142.450000", "203142.910000", "203143.370000", "203143.830000"],
