{
  "AcquisitionMatrixPE": 82,
  "AcquisitionNumber": 1,
  "AcquisitionTime": "21:19:55.252500",
  "BandwidthPerPixelPhaseEncode": 24.888,
  "BaseResolution": 82,
  "BodyPartExamined": "BRAIN",
  "ConsistencyInfo": "N4_VE11E_LATEST_20181129",
  "ConversionSoftware": "dcm2niix",
  "ConversionSoftwareVersion": "v1.0.20201102",
  "DerivedVendorReportedEchoSpacing": 0.00049,
  "DeviceSerialNumber": "66112",
  "DwellTime": 2e-06,
  "EchoTime": 0.0272,
  "EchoTrainLength": 82,
  "EffectiveEchoSpacing": 0.00049,
  "FlipAngle": 44,
  "ImageComments": "Unaliased MB8/PE3",
  "ImageOrientationPatientDICOM": [0.999241, 0.0244847, -0.0303095, -0.0263405, 0.997702, -0.0624274],
  "ImageType": [
    "ORIGINAL",
    "PRIMARY",
    "M",
    "MB",
    "ND",
    "NORM",
    "MOSAIC"
],
  "ImagingFrequency": 123.259,
  "InPlanePhaseEncodingDirectionDICOM": "COL",
  "InstitutionAddress": "Maynard 3,Hanover,NH,US,03755",
  "InstitutionName": "Dartmouth College - PBS",
  "InstitutionalDepartmentName": "Department",
  "MRAcquisitionType": "2D",
  "MagneticFieldStrength": 3,
  "Manufacturer": "Siemens",
  "ManufacturersModelName": "Prisma",
  "Modality": "MR",
  "MultibandAccelerationFactor": 8,
  "PartialFourier": 1,
  "PatientPosition": "HFS",
  "PercentPhaseFOV": 100,
  "PercentSampling": 100,
  "PhaseEncodingDirection": "j-",
  "PhaseEncodingSteps": 82,
  "PhaseResolution": 1,
  "PixelBandwidth": 3050,
  "ProcedureStepDescription": "Wager_Wager^1076_spacetop",
  "ProtocolName": "func_run-01_task-alignvideo_acq-ap-mb8",
  "PulseSequenceDetails": "%CustomerSeq%\\cmrr_mbep2d_bold",
  "ReceiveCoilActiveElements": "HEA;HEP",
  "ReceiveCoilName": "Head_32",
  "ReconMatrixPE": 82,
  "RepetitionTime": 0.46,
  "SAR": 0.0979633,
  "ScanOptions": "FS",
  "ScanningSequence": "EP",
  "SequenceName": "epfid2d1_82",
  "SequenceVariant": "SK\\SS",
  "SeriesDescription": "func_run-01_task-alignvideo_acq-ap-mb8",
  "SeriesNumber": 32,
  "ShimSetting": [4223, -7761, -7250, 95, -146, -149, -132, 60],
  "SliceThickness": 2.7,
  "SliceTiming": [0, 0.2525, 0.0625, 0.315, 0.125, 0.3775, 0.19, 0, 0.2525, 0.0625, 0.315, 0.125, 0.3775, 0.19, 0, 0.2525, 0.0625, 0.315, 0.125, 0.3775, 0.19, 0, 0.2525, 0.0625, 0.315, 0.125, 0.3775, 0.19, 0, 0.2525, 0.0625, 0.315, 0.125, 0.3775, 0.19, 0, 0.2525, 0.0625, 0.315, 0.125, 0.3775, 0.19, 0, 0.2525, 0.0625, 0.315, 0.125, 0.3775, 0.19, 0, 0.2525, 0.0625, 0.315, 0.125, 0.3775, 0.19],
  "SoftwareVersions": "syngo MR E11",
  "SpacingBetweenSlices": 2.7,
  "StationName": "AWP66112",
  "TaskName": "alignvideo",
  "TotalReadoutTime": 0.03969,
  "TxRefAmp": 294.696,
  "WipMemBlock": "2fa16b44-b1bf-480a-9fe1-e12046e55404||Sequence: R016 ve11e/master r/434b28f1; Aug  7 2019 18:53:46 by eja",
  "dcmmeta_affine": [
    [-2.68088960647583, -0.07066969573497772, -0.0775204747915268, 114.82727813720703],
    [-0.0656905248761177, 2.6767611503601074, -0.17058148980140686, -89.91136169433594],
    [-0.08131805062294006, 0.16748806834220886, 2.693490743637085, -106.24281311035156],
    [0.0, 0.0, 0.0, 1.0]
],
  "dcmmeta_reorient_transform": [
    [0.0, -1.0, 0.0, 81.0],
    [1.0, 0.0, 0.0, 0.0],
    [0.0, 0.0, 1.0, 0.0],
    [0.0, 0.0, 0.0, 1.0]
],
  "dcmmeta_shape": [82, 82, 56, 839],
  "dcmmeta_slice_dim": 2,
  "dcmmeta_version": 0.6,
  "global": {
    "const": {
      "AccessionNumber": "A004803",
      "AcquisitionMatrix": [82, 0, 0, 82],
      "AngioFlag": "N",
      "BitsAllocated": 16,
      "BitsStored": 16,
      "BodyPartExamined": "BRAIN",
      "Columns": 656,
      "EchoNumbers": 1,
      "EchoTime": 27.2,
      "EchoTrainLength": 82,
      "FlipAngle": 44.0,
      "HighBit": 15,
      "ImageOrientationPatient": [0.999240631102, 0.02448465045549, -0.0303094547453, -0.026340523022, 0.9977018594031, -0.0624273705239],
      "ImagePositionPatient": [-858.23613685255, -913.98992370434, -21.268918782712],
      "ImageType": [
        "ORIGINAL",
        "PRIMARY",
        "M",
        "MB",
        "ND",
        "NORM",
        "MOSAIC"
],
      "ImagedNucleus": "1H",
      "ImagingFrequency": 123.259094,
      "InPlanePhaseEncodingDirection": "COL",
      "MRAcquisitionType": "2D",
      "MagneticFieldStrength": 3.0,
      "Manufacturer": "SIEMENS",
      "ManufacturerModelName": "Prisma",
      "Modality": "MR",
      "NumberOfAverages": 1.0,
      "NumberOfPhaseEncodingSteps": 82,
      "PercentPhaseFieldOfView": 100.0,
      "PercentSampling": 100.0,
      "PerformedProcedureStepStartTime": "194143.364000",
      "PhotometricInterpretation": "MONOCHROME2",
      "PixelBandwidth": 3050.0,
      "PixelRepresentation": 0,
      "PixelSpacing": [2.6829268932343, 2.6829268932343],
      "ProtocolName": "func_run-01_task-alignvideo_acq-ap-mb8",
      "RepetitionTime": 460.0,
      "Rows": 656,
      "SAR": 0.09796328038245,
      "SamplesPerPixel": 1,
      "ScanOptions": "FS",
      "ScanningSequence": "EP",
      "SequenceName": "epfid2d1_82",
      "SequenceVariant": [
        "SK",
        "SS"
],
      "SeriesDescription": "func_run-01_task-alignvideo_acq-ap-mb8",
      "SeriesNumber": 32,
      "SeriesTime": "212014.232000",
      "SliceLocation": -103.60306602586,
      "SliceThickness": 2.7000000476837,
      "SmallestImagePixelValue": 0,
      "SoftwareVersions": "syngo MR E11",
      "SpacingBetweenSlices": 2.6999999690872,
      "SpecificCharacterSet": "ISO_IR 100",
      "StudyID": "1",
      "StudyTime": "194143.304000",
      "TransmitCoilName": "Body",
      "VariableFlipAngleFlag": "N",
      "WindowCenterWidthExplanation": "Algo1"
    },
    "slices": {}
  },
  "time": {
    "samples": {
      "AcquisitionNumber": [1, 2, 3, 4, 5, 6, 7, 8, 9, 10, 11, 12, 13, 14, 15, 16, 17, 18, 19, 20, 21, 22, 23, 24, 25, 26, 27, 28, 29, 30, 31, 32, 33, 34, 35, 36, 37, 38, 39, 40, 41, 42, 43, 44, 45, 46, 47, 48, 49, 50, 51, 52, 53, 54, 55, 56, 57, 58, 59, 60, 61, 62, 63, 64, 65, 66, 67, 68, 69, 70, 71, 72, 73, 74, 75, 76, 77, 78, 79, 80, 81, 82, 83, 84, 85, 86, 87, 88, 89, 90, 91, 92, 93, 94, 95, 96, 97, 98, 99, 100, 101, 102, 103, 104, 105, 106, 107, 108, 109, 110, 111, 112, 113, 114, 115, 116, 117, 118, 119, 120, 121, 122, 123, 124, 125, 126, 127, 128, 129, 130, 131, 132, 133, 134, 135, 136, 137, 138, 139, 140, 141, 142, 143, 144, 145, 146, 147, 148, 149, 150, 151, 152, 153, 154, 155, 156, 157, 158, 159, 160, 161, 162, 163, 164, 165, 166, 167, 168, 169, 170, 171, 172, 173, 174, 175, 176, 177, 178, 179, 180, 181, 182, 183, 184, 185, 186, 187, 188, 189, 190, 191, 192, 193, 194, 195, 196, 197, 198, 199, 200, 201, 202, 203, 204, 205, 206, 207, 208, 209, 210, 211, 212, 213, 214, 215, 216, 217, 218, 219, 220, 221, 222, 223, 224, 225, 226, 227, 228, 229, 230, 231, 232, 233, 234, 235, 236, 237, 238, 239, 240, 241, 242, 243, 244, 245, 246, 247, 248, 249, 250, 251, 252, 253, 254, 255, 256, 257, 258, 259, 260, 261, 262, 263, 264, 265, 266, 267, 268, 269, 270, 271, 272, 273, 274, 275, 276, 277, 278, 279, 280, 281, 282, 283, 284, 285, 286, 287, 288, 289, 290, 291, 292, 293, 294, 295, 296, 297, 298, 299, 300, 301, 302, 303, 304, 305, 306, 307, 308, 309, 310, 311, 312, 313, 314, 315, 316, 317, 318, 319, 320, 321, 322, 323, 324, 325, 326, 327, 328, 329, 330, 331, 332, 333, 334, 335, 336, 337, 338, 339, 340, 341, 342, 343, 344, 345, 346, 347, 348, 349, 350, 351, 352, 353, 354, 355, 356, 357, 358, 359, 360, 361, 362, 363, 364, 365, 366, 367, 368, 369, 370, 371, 372, 373, 374, 375, 376, 377, 378, 379, 380, 381, 382, 383, 384, 385, 386, 387, 388, 389, 390, 391, 392, 393, 394, 395, 396, 397, 398, 399, 400, 401, 402, 403, 404, 405, 406, 407, 408, 409, 410, 411, 412, 413, 414, 415, 416, 417, 418, 419, 420, 421, 422, 423, 424, 425, 426, 427, 428, 429, 430, 431, 432, 433, 434, 435, 436, 437, 438, 439, 440, 441, 442, 443, 444, 445, 446, 447, 448, 449, 450, 451, 452, 453, 454, 455, 456, 457, 458, 459, 460, 461, 462, 463, 464, 465, 466, 467, 468, 469, 470, 471, 472, 473, 474, 475, 476, 477, 478, 479, 480, 481, 482, 483, 484, 485, 486, 487, 488, 489, 490, 491, 492, 493, 494, 495, 496, 497, 498, 499, 500, 501, 502, 503, 504, 505, 506, 507, 508, 509, 510, 511, 512, 513, 514, 515, 516, 517, 518, 519, 520, 521, 522, 523, 524, 525, 526, 527, 528, 529, 530, 531, 532, 533, 534, 535, 536, 537, 538, 539, 540, 541, 542, 543, 544, 545, 546, 547, 548, 549, 550, 551, 552, 553, 554, 555, 556, 557, 558, 559, 560, 561, 562, 563, 564, 565, 566, 567, 568, 569, 570, 571, 572, 573, 574, 575, 576, 577, 578, 579, 580, 581, 582, 583, 584, 585, 586, 587, 588, 589, 590, 591, 592, 593, 594, 595, 596, 597, 598, 599, 600, 601, 602, 603, 604, 605, 606, 607, 608, 609, 610, 611, 612, 613, 614, 615, 616, 617, 618, 619, 620, 621, 622, 623, 624, 625, 626, 627, 628, 629, 630, 631, 632, 633, 634, 635, 636, 637, 638, 639, 640, 641, 642, 643, 644, 645, 646, 647, 648, 649, 650, 651, 652, 653, 654, 655, 656, 657, 658, 659, 660, 661, 662, 663, 664, 665, 666, 667, 668, 669, 670, 671, 672, 673, 674, 675, 676, 677, 678, 679, 680, 681, 682, 683, 684, 685, 686, 687, 688, 689, 690, 691, 692, 693, 694, 695, 696, 697, 698, 699, 700, 701, 702, 703, 704, 705, 706, 707, 708, 709, 710, 711, 712, 713, 714, 715, 716, 717, 718, 719, 720, 721, 722, 723, 724, 725, 726, 727, 728, 729, 730, 731, 732, 733, 734, 735, 736, 737, 738, 739, 740, 741, 742, 743, 744, 745, 746, 747, 748, 749, 750, 751, 752, 753, 754, 755, 756, 757, 758, 759, 760, 761, 762, 763, 764, 765, 766, 767, 768, 769, 770, 771, 772, 773, 774, 775, 776, 777, 778, 779, 780, 781, 782, 783, 784, 785, 786, 787, 788, 789, 790, 791, 792, 793, 794, 795, 796, 797, 798, 799, 800, 801, 802, 803, 804, 805, 806, 807, 808, 809, 810, 811, 812, 813, 814, 815, 816, 817, 818, 819, 820, 821, 822, 823, 824, 825, 826, 827, 828, 829, 830, 831, 832, 833, 834, 835, 836, 837, 838, 839],
      "AcquisitionTime": ["211955.252500", "211955.712500", "211956.172500", "211956.632500", "211957.092500", "211957.552500", "211958.012500", "211958.472500", "211958.932500", "211959.392500", "211959.852500", "212000.312500", "212000.772500", "212001.232500", "212001.692500", "212002.152500", "212002.612500", "212003.072500", "212003.532500", "212003.992500", "212004.452500", "212004.912500", "212005.372500", "212005.832500", "212006.292500", "212006.752500", "212007.212500", "212007.672500", "212008.132500", "212008.592500", "212009.052500", "212009.512500", "212009.972500", "212010.432500", "212010.892500", "212011.352500", "212011.812500", "212012.272500", "212012.732500", "212013.192500", "212013.652500", "212014.112500", "212014.572500", "212015.032500", "212015.492500", "212015.952500", "212016.412500", "212016.872500", "212017.332500", "212017.792500", "212018.252500", "212018.712500", "212019.172500", "212019.632500", "212020.092500", "212020.552500", "212021.012500", "212021.472500", "212021.932500", "212022.392500", "212022.852500", "212023.312500", "212023.772500", "212024.232500", "212024.692500", "212025.152500", "212025.612500", "212026.072500", "212026.532500", "212026.992500", "212027.452500", "212027.912500", "212028.372500", "212028.832500", "212029.292500", "212029.752500", "212030.212500", "212030.672500", "212031.132500", "212031.592500", "212032.052500", "212032.512500", "212032.972500", "212033.432500", "212033.892500", "212034.352500", "212034.812500", "212035.272500", "212035.732500", "212036.192500", "212036.652500", "212037.112500", "212037.572500", "212038.032500", "212038.492500", "212038.952500", "212039.412500", "212039.872500", "212040.332500", "212040.792500", "212041.252500", "212041.712500", "212042.172500", "212042.632500", "212043.092500", "212043.552500", "212044.012500", "212044.472500", "212044.932500", "212045.392500", "212045.852500", "212046.312500", "212046.772500", "212047.232500", "212047.692500", "212048.152500", "212048.612500", "212049.072500", "212049.532500", "212049.992500", "212050.452500", "212050.912500", "212051.372500", "212051.832500", "212052.292500", "212052.752500", "212053.212500", "212053.672500", "212054.132500", "212054.592500", "212055.052500", "212055.512500", "212055.972500", "212056.432500", "212056.892500", "212057.352500", "212057.812500", "212058.272500", "212058.732500", "212059.192500", "212059.652500", "212100.112500", "212100.572500", "212101.032500", "212101.492500", "212101.952500", "212102.412500", "212102.872500", "212103.332500", "212103.792500", "212104.252500", "212104.712500", "212105.172500", "212105.632500", "212106.092500", "212106.552500", "212107.012500", "212107.472500", "212107.932500", "212108.392500", "212108.852500", "212109.312500", "212109.772500", "212110.232500", "212110.692500", "212111.152500", "212111.612500", "212112.072500", "212112.532500", "212112.992500", "212113.452500", "212113.912500", "212114.372500", "212114.832500", "212115.292500", "212115.752500", "212116.212500", "212116.672500", "212117.132500", "212117.592500", "212118.052500", "212118.512500", "212118.972500", "212119.432500", "212119.892500", "212120.352500", "212120.812500", "212121.272500", "212121.732500", "212122.192500", "212122.652500", "212123.112500", "212123.572500", "212124.032500", "212124.492500", "212124.952500", "212125.412500", "212125.872500", "212126.332500", "212126.792500", "212127.252500", "212127.712500", "212128.172500", "212128.632500", "212129.092500", "212129.552500", "212130.012500", "212130.472500", "212130.932500", "212131.392500", "212131.852500", "212132.312500", "212132.772500", "212133.232500", "212133.692500", "212134.152500", "212134.612500", "212135.072500", "212135.532500", "212135.992500", "212136.452500", "212136.912500", "212137.372500", "212137.832500", "212138.292500", "212138.752500", "212139.212500", "212139.672500", "212140.132500", "212140.592500", "212141.052500", "212141.512500", "212141.972500", "212142.432500", "212142.892500", "212143.352500", "212143.812500", "212144.272500", "212144.732500", "212145.192500", "212145.652500", "212146.112500", "212146.572500", "212147.032500", "212147.492500", "212147.952500", "212148.412500", "212148.872500", "212149.332500", "212149.792500", "212150.252500", "212150.712500", "212151.172500", "212151.632500", "212152.092500", "212152.552500", "212153.012500", "212153.472500", "212153.932500", "212154.392500", "212154.852500", "212155.312500", "212155.772500", "212156.232500", "212156.692500", "212157.152500", "212157.612500", "212158.072500", "212158.532500", "212158.992500", "212159.452500", "212159.912500", "212200.372500", "212200.832500", "212201.292500", "212201.752500", "212202.212500", "212202.672500", "212203.132500", "212203.592500", "212204.052500", "212204.512500", "212204.972500", "212205.432500", "212205.892500", "212206.352500", "212206.812500", "212207.272500", "212207.732500", "212208.192500", "212208.652500", "212209.112500", "212209.572500", "212210.032500", "212210.492500", "212210.952500", "212211.412500", "212211.872500", "212212.332500", "212212.792500", "212213.252500", "212213.712500", "212214.172500", "212214.632500", "212215.092500", "212215.552500", "212216.012500", "212216.472500", "212216.932500", "212217.392500", "212217.852500", "212218.312500", "212218.772500", "212219.232500", "212219.692500", "212220.152500", "212220.612500", "212221.072500", "212221.532500", "212221.992500", "212222.452500", "212222.912500", "212223.372500", "212223.832500", "212224.292500", "212224.752500", "212225.212500", "212225.672500", "212226.132500", "212226.592500", "212227.052500", "212227.512500", "212227.972500", "212228.432500", "212228.892500", "212229.352500", "212229.812500", "212230.272500", "212230.732500", "212231.192500", "212231.652500", "212232.112500", "212232.572500", "212233.032500", "212233.492500", "212233.952500", "212234.412500", "212234.872500", "212235.332500", "212235.792500", "212236.252500", "212236.712500", "212237.172500", "212237.632500", "212238.092500", "212238.552500", "212239.012500", "212239.472500", "212239.932500", "212240.392500", "212240.852500", "212241.312500", "212241.772500", "212242.232500", "212242.692500", "212243.152500", "212243.612500", "212244.072500", "212244.532500", "212244.992500", "212245.452500", "212245.912500", "212246.372500", "212246.832500", "212247.292500", "212247.752500", "212248.212500", "212248.672500", "212249.132500", "212249.592500", "212250.052500", "212250.512500", "212250.972500", "212251.432500", "212251.892500", "212252.352500", "212252.812500", "212253.272500", "212253.732500", "212254.192500", "212254.652500", "212255.112500", "212255.572500", "212256.032500", "212256.492500", "212256.952500", "212257.412500", "212257.872500", "212258.332500", "212258.792500", "212259.252500", "212259.712500", "212300.172500", "212300.632500", "212301.092500", "212301.552500", "212302.012500", "212302.472500", "212302.932500", "212303.392500", "212303.852500", "212304.312500", "212304.772500", "212305.232500", "212305.692500", "212306.152500", "212306.612500", "212307.072500", "212307.532500", "212307.992500", "212308.452500", "212308.912500", "212309.372500", "212309.832500", "212310.292500", "212310.752500", "212311.212500", "212311.672500", "212312.132500", "212312.592500", "212313.052500", "212313.512500", "212313.972500", "212314.432500", "212314.892500", "212315.352500", "212315.812500", "212316.272500", "212316.732500", "212317.192500", "212317.652500", "212318.112500", "212318.572500", "212319.032500", "212319.492500", "212319.952500", "212320.412500", "212320.872500", "212321.332500", "212321.792500", "212322.252500", "212322.712500", "212323.172500", "212323.632500", "212324.092500", "212324.552500", "212325.012500", "212325.472500", "212325.932500", "212326.392500", "212326.852500", "212327.312500", "212327.772500", "212328.232500", "212328.692500", "212329.152500", "212329.612500", "212330.072500", "212330.532500", "212330.992500", "212331.452500", "212331.912500", "212332.372500", "212332.832500", "212333.292500", "212333.752500", "212334.212500", "212334.672500", "212335.132500", "212335.592500", "212336.052500", "212336.512500", "212336.972500", "212337.432500", "212337.892500", "212338.352500", "212338.812500", "212339.272500", "212339.732500", "212340.192500", "212340.652500", "212341.112500", "212341.572500", "212342.032500", "212342.492500", "212342.952500", "212343.412500", "212343.872500", "212344.332500", "212344.792500", "212345.252500", "212345.712500", "212346.172500", "212346.632500", "212347.092500", "212347.552500", "212348.012500", "212348.472500", "212348.932500", "212349.392500", "212349.852500", "212350.312500", "212350.772500", "212351.232500", "212351.692500", "212352.152500", "212352.612500", "212353.072500", "212353.532500", "212353.992500", "212354.452500", "212354.912500", "212355.372500", "212355.832500", "212356.292500", "212356.752500", "212357.212500", "212357.672500", "212358.132500", "212358.592500", "212359.052500", "212359.512500", "212359.972500", "212400.432500", "212400.892500", "212401.352500", "212401.812500", "212402.272500", "212402.732500", "212403.192500", "212403.652500", "212404.112500", "212404.572500", "212405.032500", "212405.492500", "212405.952500", "212406.412500", "212406.872500", "212407.332500", "212407.792500", "212408.252500", "212408.712500", "212409.172500", "212409.632500", "212410.092500", "212410.552500", "212411.012500", "212411.472500", "212411.932500", "212412.392500", "212412.852500", "212413.312500", "212413.772500", "212414.232500", "212414.692500", "212415.152500", "212415.612500", "212416.072500", "212416.532500", "212416.992500", "212417.452500", "212417.912500", "212418.372500", "212418.832500", "212419.292500", "212419.752500", "212420.212500", "212420.672500", "212421.132500", "212421.592500", "212422.052500", "212422.512500", "212422.972500", "212423.432500", "212423.892500", "212424.352500", "212424.812500", "212425.272500", "212425.732500", "212426.192500", "212426.652500", "212427.112500", "212427.572500", "212428.032500", "212428.492500", "212428.952500", "212429.412500", "212429.872500", "212430.332500", "212430.792500", "212431.252500", "212431.712500", "212432.172500", "212432.632500", "212433.092500", "212433.552500", "212434.012500", "212434.472500", "212434.932500", "212435.392500", "212435.852500", "212436.312500", "212436.772500", "212437.232500", "212437.692500", "212438.152500", "212438.612500", "212439.072500", "212439.532500", "212439.992500", "212440.452500", "212440.912500", "212441.372500", "212441.832500", "212442.292500", "212442.752500", "212443.212500", "212443.672500", "212444.132500", "212444.592500", "212445.052500", "212445.512500", "212445.972500", "212446.432500", "212446.892500", "212447.352500", "212447.812500", "212448.272500", "212448.732500", "212449.192500", "212449.652500", "212450.112500", "212450.572500", "212451.032500", "212451.492500", "212451.952500", "212452.412500", "212452.872500", "212453.332500", "212453.792500", "212454.252500", "212454.712500", "212455.172500", "212455.632500", "212456.092500", "212456.552500", "212457.012500", "212457.472500", "212457.932500", "212458.392500", "212458.852500", "212459.312500", "212459.772500", "212500.232500", "212500.692500", "212501.152500", "212501.612500", "212502.072500", "212502.532500", "212502.992500", "212503.452500", "212503.912500", "212504.372500", "212504.832500", "212505.292500", "212505.752500", "212506.212500", "212506.672500", "212507.132500", "212507.592500", "212508.052500", "212508.512500", "212508.972500", "212509.432500", "212509.892500", "212510.352500", "212510.812500", "212511.272500", "212511.732500", "212512.192500", "212512.652500", "212513.112500", "212513.572500", "212514.032500", "212514.492500", "212514.952500", "212515.412500", "212515.872500", "212516.332500", "212516.792500", "212517.252500", "212517.712500", "212518.172500", "212518.632500", "212519.092500", "212519.552500", "212520.012500", "212520.472500", "212520.932500", "212521.392500", "212521.852500", "212522.312500", "212522.772500", "212523.232500", "212523.692500", "212524.152500", "212524.612500", "212525.072500", "212525.532500", "212525.992500", "212526.452500", "212526.912500", "212527.372500", "212527.832500", "212528.292500", "212528.752500", "212529.212500", "212529.672500", "212530.132500", "212530.592500", "212531.052500", "212531.512500", "212531.972500", "212532.432500", "212532.892500", "212533.352500", "212533.812500", "212534.272500", "212534.732500", "212535.192500", "212535.652500", "212536.112500", "212536.572500", "212537.032500", "212537.492500", "212537.952500", "212538.412500", "212538.872500", "212539.332500", "212539.792500", "212540.252500", "212540.712500", "212541.172500", "212541.632500", "212542.092500", "212542.552500", "212543.012500", "212543.472500", "212543.932500", "212544.392500", "212544.852500", "212545.312500", "212545.772500", "212546.232500", "212546.692500", "212547.152500", "212547.612500", "212548.072500", "212548.532500", "212548.992500", "212549.452500", "212549.912500", "212550.372500", "212550.832500", "212551.292500", "212551.752500", "212552.212500", "212552.672500", "212553.132500", "212553.592500", "212554.052500", "212554.512500", "212554.972500", "212555.432500", "212555.892500", "212556.352500", "212556.812500", "212557.272500", "212557.732500", "212558.192500", "212558.652500", "212559.112500", "212559.572500", "212600.032500", "212600.492500", "212600.952500", "212601.412500", "212601.872500", "212602.332500", "212602.792500", "212603.252500", "212603.712500", "212604.172500", "212604.632500", "212605.092500", "212605.552500", "212606.012500", "212606.472500", "212606.932500", "212607.392500", "212607.852500", "212608.312500", "212608.772500", "212609.232500", "212609.692500", "212610.152500", "212610.612500", "212611.072500", "212611.532500", "212611.992500", "212612.452500", "212612.912500", "212613.372500", "212613.832500", "212614.292500", "212614.752500", "212615.212500", "212615.672500", "212616.132500", "212616.592500", "212617.052500", "212617.512500", "212617.972500", "212618.432500", "212618.892500", "212619.352500", "212619.812500", "212620.272500", "212620.732500"],
