{
  "AcquisitionMatrixPE": 82,
  "AcquisitionNumber": 1,
  "AcquisitionTime": "10:32:52.442500",
  "BandwidthPerPixelPhaseEncode": 24.888,
  "BaseResolution": 82,
  "BodyPartExamined": "BRAIN",
  "ConsistencyInfo": "N4_VE11C_LATEST_20160120",
  "ConversionSoftware": "dcm2niix",
  "ConversionSoftwareVersion": "v1.0.20201102",
  "DerivedVendorReportedEchoSpacing": 0.00049,
  "DeviceSerialNumber": "66112",
  "DwellTime": 2e-06,
  "EchoTime": 0.0272,
  "EchoTrainLength": 82,
  "EffectiveEchoSpacing": 0.00049,
  "FlipAngle": 44,
  "ImageComments": "Unaliased MB8/PE3",
  "ImageOrientationPatientDICOM": [0.998887, 0.0362754, -0.0301594, -0.0310423, 0.986821, 0.15881],
  "ImageType": [
    "ORIGINAL",
    "PRIMARY",
    "M",
    "MB",
    "ND",
    "NORM",
    "MOSAIC"
],
  "ImagingFrequency": 123.252,
  "InPlanePhaseEncodingDirectionDICOM": "COL",
  "InstitutionAddress": "Maynard 3,Hanover,NH,US,03755",
  "InstitutionName": "Dartmouth College - PBS",
  "InstitutionalDepartmentName": "Department",
  "MRAcquisitionType": "2D",
  "MagneticFieldStrength": 3,
  "Manufacturer": "Siemens",
  "ManufacturersModelName": "Prisma",
  "Modality": "MR",
  "MultibandAccelerationFactor": 8,
  "PartialFourier": 1,
  "PatientPosition": "HFS",
  "PercentPhaseFOV": 100,
  "PercentSampling": 100,
  "PhaseEncodingDirection": "j-",
  "PhaseEncodingSteps": 82,
  "PhaseResolution": 1,
  "PixelBandwidth": 3050,
  "ProcedureStepDescription": "Wager_Wager^1076_spacetop",
  "ProtocolName": "func_run-01_task-narratives_acq-ap-mb8",
  "PulseSequenceDetails": "%CustomerSeq%\\cmrr_mbep2d_bold",
  "ReceiveCoilActiveElements": "HEA;HEP",
  "ReceiveCoilName": "Head_32",
  "ReconMatrixPE": 82,
  "RepetitionTime": 0.46,
  "SAR": 0.109303,
  "ScanOptions": "FS",
  "ScanningSequence": "EP",
  "SequenceName": "epfid2d1_82",
  "SequenceVariant": "SK\\SS",
  "SeriesDescription": "func_run-01_task-narratives_acq-ap-mb8",
  "SeriesNumber": 44,
  "ShimSetting": [4140, -7783, -7221, 520, -59, -231, 62, 80],
  "SliceThickness": 2.7,
  "SliceTiming": [0, 0.2525, 0.0625, 0.315, 0.1275, 0.3775, 0.19, 0, 0.2525, 0.0625, 0.315, 0.1275, 0.3775, 0.19, 0, 0.2525, 0.0625, 0.315, 0.1275, 0.3775, 0.19, 0, 0.2525, 0.0625, 0.315, 0.1275, 0.3775, 0.19, 0, 0.2525, 0.0625, 0.315, 0.1275, 0.3775, 0.19, 0, 0.2525, 0.0625, 0.315, 0.1275, 0.3775, 0.19, 0, 0.2525, 0.0625, 0.315, 0.1275, 0.3775, 0.19, 0, 0.2525, 0.0625, 0.315, 0.1275, 0.3775, 0.19],
  "SoftwareVersions": "syngo MR E11",
  "SpacingBetweenSlices": 2.7,
  "StationName": "AWP66112",
  "TaskName": "narratives",
  "TotalReadoutTime": 0.03969,
  "TxRefAmp": 237.188,
  "WipMemBlock": "e7a41af2-1389-4331-8982-7f90f42467ff||Sequence: R016 ve11c/master r/e634e98; Dec 19 2017 11:00:25 by eja",
  "dcmmeta_affine": [
    [-2.6799397468566895, -0.08328410983085632, -0.09591151028871536, 119.82284545898438],
    [-0.0973241850733757, 2.647568702697754, 0.42578184604644775, -94.81038665771484],
    [-0.08091535419225693, -0.42607566714286804, 2.6644906997680664, -11.855283737182617],
    [0.0, 0.0, 0.0, 1.0]
],
  "dcmmeta_reorient_transform": [
    [0.0, -1.0, 0.0, 81.0],
    [1.0, 0.0, 0.0, 0.0],
    [0.0, 0.0, 1.0, 0.0],
    [0.0, 0.0, 0.0, 1.0]
],
  "dcmmeta_shape": [82, 82, 56, 967],
  "dcmmeta_slice_dim": 2,
  "dcmmeta_version": 0.6,
  "global": {
    "const": {
      "AccessionNumber": "A003455",
      "AcquisitionMatrix": [82, 0, 0, 82],
      "AngioFlag": "N",
      "BitsAllocated": 16,
      "BitsStored": 16,
      "BodyPartExamined": "BRAIN",
      "Columns": 656,
      "EchoNumbers": 1,
      "EchoTime": 27.2,
      "EchoTrainLength": 82,
      "FlipAngle": 44.0,
      "HighBit": 15,
      "ImageOrientationPatient": [0.99888663523667, 0.036275377778, -0.0301593586242, -0.0310422590782, 0.986821036244, 0.15881001409747],
      "ImagePositionPatient": [-858.31701871716, -907.42693661319, -145.42841890167],
      "ImageType": [
        "ORIGINAL",
        "PRIMARY",
        "M",
        "MB",
        "ND",
        "NORM",
        "MOSAIC"
],
      "ImagedNucleus": "1H",
      "ImagingFrequency": 123.252122,
      "InPlanePhaseEncodingDirection": "COL",
      "MRAcquisitionType": "2D",
      "MagneticFieldStrength": 3.0,
      "Manufacturer": "SIEMENS",
      "ManufacturerModelName": "Prisma",
      "Modality": "MR",
      "NumberOfAverages": 1.0,
      "NumberOfPhaseEncodingSteps": 82,
      "PercentPhaseFieldOfView": 100.0,
      "PercentSampling": 100.0,
      "PerformedProcedureStepStartTime": "081555.761000",
      "PhotometricInterpretation": "MONOCHROME2",
      "PixelBandwidth": 3050.0,
      "PixelRepresentation": 0,
      "PixelSpacing": [2.6829268932343, 2.6829268932343],
      "ProtocolName": "func_run-01_task-narratives_acq-ap-mb8",
      "RepetitionTime": 460.0,
      "Rows": 656,
      "SAR": 0.10930305942287,
      "SamplesPerPixel": 1,
      "ScanOptions": "FS",
      "ScanningSequence": "EP",
      "SequenceName": "epfid2d1_82",
      "SequenceVariant": [
        "SK",
        "SS"
],
      "SeriesDescription": "func_run-01_task-narratives_acq-ap-mb8",
      "SeriesNumber": 44,
      "SeriesTime": "103307.905000",
      "SliceLocation": -30.907120664267,
      "SliceThickness": 2.7000000476837,
      "SmallestImagePixelValue": 0,
      "SoftwareVersions": "syngo MR E11",
      "SpacingBetweenSlices": 2.6999999300241,
      "SpecificCharacterSet": "ISO_IR 100",
      "StudyID": "1",
      "StudyTime": "081555.637000",
      "TransmitCoilName": "Body",
      "VariableFlipAngleFlag": "N",
      "WindowCenterWidthExplanation": "Algo1",
      "dBdt": 0.0},
    "slices": {}
  },
  "time": {
    "samples": {
      "AcquisitionNumber": [1, 2, 3, 4, 5, 6, 7, 8, 9, 10, 11, 12, 13, 14, 15, 16, 17, 18, 19, 20, 21, 22, 23, 24, 25, 26, 27, 28, 29, 30, 31, 32, 33, 34, 35, 36, 37, 38, 39, 40, 41, 42, 43, 44, 45, 46, 47, 48, 49, 50, 51, 52, 53, 54, 55, 56, 57, 58, 59, 60, 61, 62, 63, 64, 65, 66, 67, 68, 69, 70, 71, 72, 73, 74, 75, 76, 77, 78, 79, 80, 81, 82, 83, 84, 85, 86, 87, 88, 89, 90, 91, 92, 93, 94, 95, 96, 97, 98, 99, 100, 101, 102, 103, 104, 105, 106, 107, 108, 109, 110, 111, 112, 113, 114, 115, 116, 117, 118, 119, 120, 121, 122, 123, 124, 125, 126, 127, 128, 129, 130, 131, 132, 133, 134, 135, 136, 137, 138, 139, 140, 141, 142, 143, 144, 145, 146, 147, 148, 149, 150, 151, 152, 153, 154, 155, 156, 157, 158, 159, 160, 161, 162, 163, 164, 165, 166, 167, 168, 169, 170, 171, 172, 173, 174, 175, 176, 177, 178, 179, 180, 181, 182, 183, 184, 185, 186, 187, 188, 189, 190, 191, 192, 193, 194, 195, 196, 197, 198, 199, 200, 201, 202, 203, 204, 205, 206, 207, 208, 209, 210, 211, 212, 213, 214, 215, 216, 217, 218, 219, 220, 221, 222, 223, 224, 225, 226, 227, 228, 229, 230, 231, 232, 233, 234, 235, 236, 237, 238, 239, 240, 241, 242, 243, 244, 245, 246, 247, 248, 249, 250, 251, 252, 253, 254, 255, 256, 257, 258, 259, 260, 261, 262, 263, 264, 265, 266, 267, 268, 269, 270, 271, 272, 273, 274, 275, 276, 277, 278, 279, 280, 281, 282, 283, 284, 285, 286, 287, 288, 289, 290, 291, 292, 293, 294, 295, 296, 297, 298, 299, 300, 301, 302, 303, 304, 305, 306, 307, 308, 309, 310, 311, 312, 313, 314, 315, 316, 317, 318, 319, 320, 321, 322, 323, 324, 325, 326, 327, 328, 329, 330, 331, 332, 333, 334, 335, 336, 337, 338, 339, 340, 341, 342, 343, 344, 345, 346, 347, 348, 349, 350, 351, 352, 353, 354, 355, 356, 357, 358, 359, 360, 361, 362, 363, 364, 365, 366, 367, 368, 369, 370, 371, 372, 373, 374, 375, 376, 377, 378, 379, 380, 381, 382, 383, 384, 385, 386, 387, 388, 389, 390, 391, 392, 393, 394, 395, 396, 397, 398, 399, 400, 401, 402, 403, 404, 405, 406, 407, 408, 409, 410, 411, 412, 413, 414, 415, 416, 417, 418, 419, 420, 421, 422, 423, 424, 425, 426, 427, 428, 429, 430, 431, 432, 433, 434, 435, 436, 437, 438, 439, 440, 441, 442, 443, 444, 445, 446, 447, 448, 449, 450, 451, 452, 453, 454, 455, 456, 457, 458, 459, 460, 461, 462, 463, 464, 465, 466, 467, 468, 469, 470, 471, 472, 473, 474, 475, 476, 477, 478, 479, 480, 481, 482, 483, 484, 485, 486, 487, 488, 489, 490, 491, 492, 493, 494, 495, 496, 497, 498, 499, 500, 501, 502, 503, 504, 505, 506, 507, 508, 509, 510, 511, 512, 513, 514, 515, 516, 517, 518, 519, 520, 521, 522, 523, 524, 525, 526, 527, 528, 529, 530, 531, 532, 533, 534, 535, 536, 537, 538, 539, 540, 541, 542, 543, 544, 545, 546, 547, 548, 549, 550, 551, 552, 553, 554, 555, 556, 557, 558, 559, 560, 561, 562, 563, 564, 565, 566, 567, 568, 569, 570, 571, 572, 573, 574, 575, 576, 577, 578, 579, 580, 581, 582, 583, 584, 585, 586, 587, 588, 589, 590, 591, 592, 593, 594, 595, 596, 597, 598, 599, 600, 601, 602, 603, 604, 605, 606, 607, 608, 609, 610, 611, 612, 613, 614, 615, 616, 617, 618, 619, 620, 621, 622, 623, 624, 625, 626, 627, 628, 629, 630, 631, 632, 633, 634, 635, 636, 637, 638, 639, 640, 641, 642, 643, 644, 645, 646, 647, 648, 649, 650, 651, 652, 653, 654, 655, 656, 657, 658, 659, 660, 661, 662, 663, 664, 665, 666, 667, 668, 669, 670, 671, 672, 673, 674, 675, 676, 677, 678, 679, 680, 681, 682, 683, 684, 685, 686, 687, 688, 689, 690, 691, 692, 693, 694, 695, 696, 697, 698, 699, 700, 701, 702, 703, 704, 705, 706, 707, 708, 709, 710, 711, 712, 713, 714, 715, 716, 717, 718, 719, 720, 721, 722, 723, 724, 725, 726, 727, 728, 729, 730, 731, 732, 733, 734, 735, 736, 737, 738, 739, 740, 741, 742, 743, 744, 745, 746, 747, 748, 749, 750, 751, 752, 753, 754, 755, 756, 757, 758, 759, 760, 761, 762, 763, 764, 765, 766, 767, 768, 769, 770, 771, 772, 773, 774, 775, 776, 777, 778, 779, 780, 781, 782, 783, 784, 785, 786, 787, 788, 789, 790, 791, 792, 793, 794, 795, 796, 797, 798, 799, 800, 801, 802, 803, 804, 805, 806, 807, 808, 809, 810, 811, 812, 813, 814, 815, 816, 817, 818, 819, 820, 821, 822, 823, 824, 825, 826, 827, 828, 829, 830, 831, 832, 833, 834, 835, 836, 837, 838, 839, 840, 841, 842, 843, 844, 845, 846, 847, 848, 849, 850, 851, 852, 853, 854, 855, 856, 857, 858, 859, 860, 861, 862, 863, 864, 865, 866, 867, 868, 869, 870, 871, 872, 873, 874, 875, 876, 877, 878, 879, 880, 881, 882, 883, 884, 885, 886, 887, 888, 889, 890, 891, 892, 893, 894, 895, 896, 897, 898, 899, 900, 901, 902, 903, 904, 905, 906, 907, 908, 909, 910, 911, 912, 913, 914, 915, 916, 917, 918, 919, 920, 921, 922, 923, 924, 925, 926, 927, 928, 929, 930, 931, 932, 933, 934, 935, 936, 937, 938, 939, 940, 941, 942, 943, 944, 945, 946, 947, 948, 949, 950, 951, 952, 953, 954, 955, 956, 957, 958, 959, 960, 961, 962, 963, 964, 965, 966, 967],
      "AcquisitionTime": ["103252.442500", "103252.902500", "103253.362500", "103253.822500", "103254.282500", "103254.742500", "103255.202500", "103255.662500", "103256.122500", "103256.582500", "103257.042500", "103257.502500", "103257.962500", "103258.422500", "103258.882500", "103259.342500", "103259.802500", "103300.262500", "103300.722500", "103301.182500", "103301.642500", "103302.102500", "103302.562500", "103303.022500", "103303.482500", "103303.942500", "103304.402500", "103304.862500", "103305.322500", "103305.782500", "103306.242500", "103306.702500", "103307.162500", "103307.622500", "103308.082500", "103308.542500", "103309.002500", "103309.462500", "103309.922500", "103310.382500", "103310.842500", "103311.302500", "103311.762500", "103312.222500", "103312.682500", "103313.142500", "103313.602500", "103314.062500", "103314.522500", "103314.982500", "103315.442500", "103315.902500", "103316.362500", "103316.822500", "103317.282500", "103317.742500", "103318.202500", "103318.662500", "103319.122500", "103319.582500", "103320.042500", "103320.502500", "103320.962500", "103321.422500", "103321.882500", "103322.342500", "103322.802500", "103323.262500", "103323.722500", "103324.182500", "103324.642500", "103325.102500", "103325.562500", "103326.022500", "103326.482500", "103326.942500", "103327.402500", "103327.862500", "103328.322500", "103328.782500", "103329.242500", "103329.702500", "103330.162500", "103330.622500", "103331.082500", "103331.542500", "103332.002500", "103332.462500", "103332.922500", "103333.382500", "103333.842500", "103334.302500", "103334.762500", "103335.222500", "103335.682500", "103336.142500", "103336.602500", "103337.062500", "103337.522500", "103337.982500", "103338.442500", "103338.902500", "103339.362500", "103339.822500", "103340.282500", "103340.742500", "103341.202500", "103341.662500", "103342.122500", "103342.582500", "103343.042500", "103343.502500", "103343.962500", "103344.422500", "103344.882500", "103345.342500", "103345.802500", "103346.262500", "103346.722500", "103347.182500", "103347.642500", "103348.102500", "103348.562500", "103349.022500", "103349.482500", "103349.942500", "103350.402500", "103350.862500", "103351.322500", "103351.782500", "103352.242500", "103352.702500", "103353.162500", "103353.622500", "103354.082500", "103354.542500", "103355.002500", "103355.462500", "103355.922500", "103356.382500", "103356.842500", "103357.302500", "103357.762500", "103358.222500", "103358.682500", "103359.142500", "103359.602500", "103400.062500", "103400.522500", "103400.982500", "103401.442500", "103401.902500", "103402.362500", "103402.822500", "103403.282500", "103403.742500", "103404.202500", "103404.662500", "103405.122500", "103405.582500", "103406.042500", "103406.502500", "103406.962500", "103407.422500", "103407.882500", "103408.342500", "103408.802500", "103409.262500", "103409.722500", "103410.182500", "103410.642500", "103411.102500", "103411.562500", "103412.022500", "103412.482500", "103412.942500", "103413.402500", "103413.862500", "103414.322500", "103414.782500", "103415.242500", "103415.702500", "103416.162500", "103416.622500", "103417.082500", "103417.542500", "103418.002500", "103418.462500", "103418.922500", "103419.382500", "103419.842500", "103420.302500", "103420.762500", "103421.222500", "103421.682500", "103422.142500", "103422.602500", "103423.062500", "103423.522500", "103423.982500", "103424.442500", "103424.902500", "103425.362500", "103425.822500", "103426.282500", "103426.742500", "103427.202500", "103427.662500", "103428.122500", "103428.582500", "103429.042500", "103429.502500", "103429.962500", "103430.422500", "103430.882500", "103431.342500", "103431.802500", "103432.262500", "103432.722500", "103433.182500", "103433.642500", "103434.102500", "103434.562500", "103435.022500", "103435.482500", "103435.942500", "103436.402500", "103436.862500", "103437.322500", "103437.782500", "103438.242500", "103438.702500", "103439.162500", "103439.622500", "103440.082500", "103440.542500", "103441.002500", "103441.462500", "103441.922500", "103442.382500", "103442.842500", "103443.302500", "103443.762500", "103444.222500", "103444.682500", "103445.142500", "103445.602500", "103446.062500", "103446.522500", "103446.982500", "103447.442500", "103447.902500", "103448.362500", "103448.822500", "103449.282500", "103449.742500", "103450.202500", "103450.662500", "103451.122500", "103451.582500", "103452.042500", "103452.502500", "103452.962500", "103453.422500", "103453.882500", "103454.342500", "103454.802500", "103455.262500", "103455.722500", "103456.182500", "103456.642500", "103457.102500", "103457.562500", "103458.022500", "103458.482500", "103458.942500", "103459.402500", "103459.862500", "103500.322500", "103500.782500", "103501.242500", "103501.702500", "103502.162500", "103502.622500", "103503.082500", "103503.542500", "103504.002500", "103504.462500", "103504.922500", "103505.382500", "103505.842500", "103506.302500", "103506.762500", "103507.222500", "103507.682500", "103508.142500", "103508.602500", "103509.062500", "103509.522500", "103509.982500", "103510.442500", "103510.902500", "103511.362500", "103511.822500", "103512.282500", "103512.742500", "103513.202500", "103513.662500", "103514.122500", "103514.582500", "103515.042500", "103515.502500", "103515.962500", "103516.422500", "103516.882500", "103517.342500", "103517.802500", "103518.262500", "103518.722500", "103519.182500", "103519.642500", "103520.102500", "103520.562500", "103521.022500", "103521.482500", "103521.942500", "103522.402500", "103522.862500", "103523.322500", "103523.782500", "103524.242500", "103524.702500", "103525.162500", "103525.622500", "103526.082500", "103526.542500", "103527.002500", "103527.462500", "103527.922500", "103528.382500", "103528.842500", "103529.302500", "103529.762500", "103530.222500", "103530.682500", "103531.142500", "103531.602500", "103532.062500", "103532.522500", "103532.982500", "103533.442500", "103533.902500", "103534.362500", "103534.822500", "103535.282500", "103535.742500", "103536.202500", "103536.662500", "103537.122500", "103537.582500", "103538.042500", "103538.502500", "103538.962500", "103539.422500", "103539.882500", "103540.342500", "103540.802500", "103541.262500", "103541.722500", "103542.182500", "103542.642500", "103543.102500", "103543.562500", "103544.022500", "103544.482500", "103544.942500", "103545.402500", "103545.862500", "103546.322500", "103546.782500", "103547.242500", "103547.702500", "103548.162500", "103548.622500", "103549.082500", "103549.542500", "103550.002500", "103550.462500", "103550.922500", "103551.382500", "103551.842500", "103552.302500", "103552.762500", "103553.222500", "103553.682500", "103554.142500", "103554.602500", "103555.062500", "103555.522500", "103555.982500", "103556.442500", "103556.902500", "103557.362500", "103557.822500", "103558.282500", "103558.742500", "103559.202500", "103559.662500", "103600.122500", "103600.582500", "103601.042500", "103601.502500", "103601.962500", "103602.422500", "103602.882500", "103603.342500", "103603.802500", "103604.262500", "103604.722500", "103605.182500", "103605.642500", "103606.102500", "103606.562500", "103607.022500", "103607.482500", "103607.942500", "103608.402500", "103608.862500", "103609.322500", "103609.782500", "103610.242500", "103610.702500", "103611.162500", "103611.622500", "103612.082500", "103612.542500", "103613.002500", "103613.462500", "103613.922500", "103614.382500", "103614.842500", "103615.302500", "103615.762500", "103616.222500", "103616.682500", "103617.142500", "103617.602500", "103618.062500", "103618.522500", "103618.982500", "103619.442500", "103619.902500", "103620.362500", "103620.822500", "103621.282500", "103621.742500", "103622.202500", "103622.662500", "103623.122500", "103623.582500", "103624.042500", "103624.502500", "103624.962500", "103625.422500", "103625.882500", "103626.342500", "103626.802500", "103627.262500", "103627.722500", "103628.182500", "103628.642500", "103629.102500", "103629.562500", "103630.022500", "103630.482500", "103630.942500", "103631.402500", "103631.862500", "103632.322500", "103632.782500", "103633.242500", "103633.702500", "103634.162500", "103634.622500", "103635.082500", "103635.542500", "103636.002500", "103636.462500", "103636.922500", "103637.382500", "103637.842500", "103638.302500", "103638.762500", "103639.222500", "103639.682500", "103640.142500", "103640.602500", "103641.062500", "103641.522500", "103641.982500", "103642.442500", "103642.902500", "103643.362500", "103643.822500", "103644.282500", "103644.742500", "103645.202500", "103645.662500", "103646.122500", "103646.582500", "103647.042500", "103647.502500", "103647.962500", "103648.422500", "103648.882500", "103649.342500", "103649.802500", "103650.262500", "103650.722500", "103651.182500", "103651.642500", "103652.102500", "103652.562500", "103653.022500", "103653.482500", "103653.942500", "103654.402500", "103654.862500", "103655.322500", "103655.782500", "103656.242500", "103656.702500", "103657.162500", "103657.622500", "103658.082500", "103658.542500", "103659.002500", "103659.462500", "103659.922500", "103700.382500", "103700.842500", "103701.302500", "103701.762500", "103702.222500", "103702.682500", "103703.142500", "103703.602500", "103704.062500", "103704.522500", "103704.982500", "103705.442500", "103705.902500", "103706.362500", "103706.822500", "103707.282500", "103707.742500", "103708.202500", "103708.662500", "103709.122500", "103709.582500", "103710.042500", "103710.502500", "103710.962500", "103711.422500", "103711.882500", "103712.342500", "103712.802500", "103713.262500", "103713.722500", "103714.182500", "103714.642500", "103715.102500", "103715.562500", "103716.022500", "103716.482500", "103716.942500", "103717.402500", "103717.862500", "103718.322500", "103718.782500", "103719.242500", "103719.702500", "103720.162500", "103720.622500", "103721.082500", "103721.542500", "103722.002500", "103722.462500", "103722.922500", "103723.382500", "103723.842500", "103724.302500", "103724.762500", "103725.222500", "103725.682500", "103726.142500", "103726.602500", "103727.062500", "103727.522500", "103727.982500", "103728.442500", "103728.902500", "103729.362500", "103729.822500", "103730.282500", "103730.742500", "103731.202500", "103731.662500", "103732.122500", "103732.582500", "103733.042500", "103733.502500", "103733.962500", "103734.422500", "103734.882500", "103735.342500", "103735.802500", "103736.262500", "103736.722500", "103737.182500", "103737.642500", "103738.102500", "103738.562500", "103739.022500", "103739.482500", "103739.942500", "103740.402500", "103740.862500", "103741.322500", "103741.782500", "103742.242500", "103742.702500", "103743.162500", "103743.622500", "103744.082500", "103744.542500", "103745.002500", "103745.462500", "103745.922500", "103746.382500", "103746.842500", "103747.302500", "103747.762500", "103748.222500", "103748.682500", "103749.142500", "103749.602500", "103750.062500", "103750.522500", "103750.982500", "103751.442500", "103751.902500", "103752.362500", "103752.822500", "103753.282500", "103753.742500", "103754.202500", "103754.662500", "103755.122500", "103755.582500", "103756.042500", "103756.502500", "103756.962500", "103757.422500", "103757.882500", "103758.342500", "103758.802500", "103759.262500", "103759.722500", "103800.182500", "103800.642500", "103801.102500", "103801.562500", "103802.022500", "103802.482500", "103802.942500", "103803.402500", "103803.862500", "103804.322500", "103804.782500", "103805.242500", "103805.702500", "103806.162500", "103806.622500", "103807.082500", "103807.542500", "103808.002500", "103808.462500", "103808.922500", "103809.382500", "103809.842500", "103810.302500", "103810.762500", "103811.222500", "103811.682500", "103812.142500", "103812.602500", "103813.062500", "103813.522500", "103813.982500", "103814.442500", "103814.902500", "103815.362500", "103815.822500", "103816.282500", "103816.742500", "103817.202500", "103817.662500", "103818.122500", "103818.582500", "103819.042500", "103819.502500", "103819.962500", "103820.422500", "103820.882500", "103821.342500", "103821.802500", "103822.262500", "103822.722500", "103823.182500", "103823.642500", "103824.102500", "103824.562500", "103825.022500", "103825.482500", "103825.942500", "103826.402500", "103826.862500", "103827.322500", "103827.782500", "103828.242500", "103828.702500", "103829.162500", "103829.622500", "103830.082500", "103830.542500", "103831.002500", "103831.462500", "103831.922500", "103832.382500", "103832.842500", "103833.302500", "103833.762500", "103834.222500", "103834.682500", "103835.142500", "103835.602500", "103836.062500", "103836.522500", "103836.982500", "103837.442500", "103837.902500", "103838.362500", "103838.822500", "103839.282500", "103839.742500", "103840.202500", "103840.662500", "103841.122500", "103841.582500", "103842.042500", "103842.502500", "103842.962500", "103843.422500", "103843.882500", "103844.342500", "103844.802500", "103845.262500", "103845.722500", "103846.182500", "103846.642500", "103847.102500", "103847.562500", "103848.022500", "103848.482500", "103848.942500", "103849.402500", "103849.862500", "103850.322500", "103850.782500", "103851.242500", "103851.702500", "103852.162500", "103852.622500", "103853.082500", "103853.542500", "103854.002500", "103854.462500", "103854.922500", "103855.382500", "103855.842500", "103856.302500", "103856.762500", "103857.222500", "103857.682500", "103858.142500", "103858.602500", "103859.062500", "103859.522500", "103859.982500", "103900.442500", "103900.902500", "103901.362500", "103901.822500", "103902.282500", "103902.742500", "103903.202500", "103903.662500", "103904.122500", "103904.582500", "103905.042500", "103905.502500", "103905.962500", "103906.422500", "103906.882500", "103907.342500", "103907.802500", "103908.262500", "103908.722500", "103909.182500", "103909.642500", "103910.102500", "103910.562500", "103911.022500", "103911.482500", "103911.942500", "103912.402500", "103912.862500", "103913.322500", "103913.782500", "103914.242500", "103914.702500", "103915.162500", "103915.622500", "103916.082500", "103916.542500", "103917.002500", "103917.462500", "103917.922500", "103918.382500", "103918.842500", "103919.302500", "103919.762500", "103920.222500", "103920.682500", "103921.142500", "103921.602500", "103922.062500", "103922.522500", "103922.982500", "103923.442500", "103923.902500", "103924.362500", "103924.822500", "103925.282500", "103925.742500", "103926.202500", "103926.662500", "103927.122500", "103927.582500", "103928.042500", "103928.502500", "103928.962500", "103929.422500", "103929.882500", "103930.342500", "103930.802500", "103931.262500", "103931.722500", "103932.182500", "103932.642500", "103933.102500", "103933.562500", "103934.022500", "103934.482500", "103934.942500", "103935.402500", "103935.862500", "103936.322500", "103936.782500", "103937.242500", "103937.702500", "103938.162500", "103938.622500", "103939.082500", "103939.542500", "103940.002500", "103940.462500", "103940.922500", "103941.382500", "103941.842500", "103942.302500", "103942.762500", "103943.222500", "103943.682500", "103944.142500", "103944.602500", "103945.062500", "103945.522500", "103945.982500", "103946.442500", "103946.902500", "103947.362500", "103947.822500", "103948.282500", "103948.742500", "103949.202500", "103949.662500", "103950.122500", "103950.582500", "103951.042500", "103951.502500", "103951.962500", "103952.422500", "103952.882500", "103953.342500", "103953.802500", "103954.262500", "103954.722500", "103955.182500", "103955.642500", "103956.102500", "103956.562500", "103957.022500", "103957.482500", "103957.942500", "103958.402500", "103958.862500", "103959.322500", "103959.782500", "104000.242500", "104000.702500", "104001.162500", "104001.622500", "104002.082500", "104002.542500", "104003.002500", "104003.462500", "104003.922500", "104004.382500", "104004.842500", "104005.302500", "104005.762500", "104006.222500", "104006.682500", "104007.142500", "104007.602500", "104008.062500", "104008.522500", "104008.982500", "104009.442500", "104009.902500", "104010.362500", "104010.822500", "104011.282500", "104011.742500", "104012.202500", "104012.662500", "104013.122500", "104013.582500", "104014.042500", "104014.502500", "104014.962500", "104015.422500", "104015.882500", "104016.342500", "104016.802500"],
