{
  "AcquisitionMatrixPE": 82,
  "AcquisitionNumber": 1,
  "AcquisitionTime": "09:55:56.085000",
  "BandwidthPerPixelPhaseEncode": 24.888,
  "BaseResolution": 82,
  "BodyPartExamined": "BRAIN",
  "ConsistencyInfo": "N4_VE11C_LATEST_20160120",
  "ConversionSoftware": "dcm2niix",
  "ConversionSoftwareVersion": "v1.0.20201102",
  "DerivedVendorReportedEchoSpacing": 0.00049,
  "DeviceSerialNumber": "66112",
  "DwellTime": 2e-06,
  "EchoTime": 0.0272,
  "EchoTrainLength": 82,
  "EffectiveEchoSpacing": 0.00049,
  "FlipAngle": 44,
  "ImageComments": "Unaliased MB8/PE3",
  "ImageOrientationPatientDICOM": [0.999879, 0.00642847, -0.0141818, -0.00523537, 0.996568, 0.0826179],
  "ImageType": [
    "ORIGINAL",
    "PRIMARY",
    "M",
    "MB",
    "ND",
    "NORM",
    "MOSAIC"
],
  "ImagingFrequency": 123.252,
  "InPlanePhaseEncodingDirectionDICOM": "COL",
  "InstitutionAddress": "Maynard 3,Hanover,NH,US,03755",
  "InstitutionName": "Dartmouth College - PBS",
  "InstitutionalDepartmentName": "Department",
  "MRAcquisitionType": "2D",
  "MagneticFieldStrength": 3,
  "Manufacturer": "Siemens",
  "ManufacturersModelName": "Prisma",
  "Modality": "MR",
  "MultibandAccelerationFactor": 8,
  "PartialFourier": 1,
  "PatientPosition": "HFS",
  "PercentPhaseFOV": 100,
  "PercentSampling": 100,
  "PhaseEncodingDirection": "j-",
  "PhaseEncodingSteps": 82,
  "PhaseResolution": 1,
  "PixelBandwidth": 3050,
  "ProcedureStepDescription": "Wager_Wager^1076_spacetop",
  "ProtocolName": "func_run-01_task-faces_acq-ap-mb8",
  "PulseSequenceDetails": "%CustomerSeq%\\cmrr_mbep2d_bold",
  "ReceiveCoilActiveElements": "HEA;HEP",
  "ReceiveCoilName": "Head_32",
  "ReconMatrixPE": 82,
  "RepetitionTime": 0.46,
  "SAR": 0.0888487,
  "ScanOptions": "FS",
  "ScanningSequence": "EP",
  "SequenceName": "epfid2d1_82",
  "SequenceVariant": "SK\\SS",
  "SeriesDescription": "func_run-01_task-faces_acq-ap-mb8",
  "SeriesNumber": 8,
  "ShimSetting": [4140, -7751, -7257, 577, -91, -169, 40, 107],
  "SliceThickness": 2.7,
  "SliceTiming": [0, 0.2525, 0.065, 0.315, 0.1275, 0.3775, 0.19, 0, 0.2525, 0.065, 0.315, 0.1275, 0.3775, 0.19, 0, 0.2525, 0.065, 0.315, 0.1275, 0.3775, 0.19, 0, 0.2525, 0.065, 0.315, 0.1275, 0.3775, 0.19, 0, 0.2525, 0.065, 0.315, 0.1275, 0.3775, 0.19, 0, 0.2525, 0.065, 0.315, 0.1275, 0.3775, 0.19, 0, 0.2525, 0.065, 0.315, 0.1275, 0.3775, 0.19, 0, 0.2525, 0.065, 0.315, 0.1275, 0.3775, 0.19],
  "SoftwareVersions": "syngo MR E11",
  "SpacingBetweenSlices": 2.7,
  "StationName": "AWP66112",
  "TaskName": "faces",
  "TotalReadoutTime": 0.03969,
  "TxRefAmp": 222.625,
  "WipMemBlock": "ac41f919-e2f0-46c0-9e1b-fbc5070d4cab||Sequence: R016 ve11c/master r/e634e98; Dec 19 2017 11:00:25 by eja",
  "dcmmeta_affine": [
    [-2.6826016902923584, -0.014046115800738335, -0.03959352895617485, 111.67850494384766],
    [-0.01724712736904621, 2.673717975616455, 0.22284075617790222, -103.59622192382812],
    [-0.038048844784498215, -0.22165772318840027, 2.6904969215393066, -34.489105224609375],
    [0.0, 0.0, 0.0, 1.0]
],
  "dcmmeta_reorient_transform": [
    [0.0, -1.0, 0.0, 81.0],
    [1.0, 0.0, 0.0, 0.0],
    [0.0, 0.0, 1.0, 0.0],
    [0.0, 0.0, 0.0, 1.0]
],
  "dcmmeta_shape": [82, 82, 56, 914],
  "dcmmeta_slice_dim": 2,
  "dcmmeta_version": 0.6,
  "global": {
    "const": {
      "AccessionNumber": "A003447",
      "AcquisitionMatrix": [82, 0, 0, 82],
      "AngioFlag": "N",
      "BitsAllocated": 16,
      "BitsStored": 16,
      "BodyPartExamined": "BRAIN",
      "Columns": 656,
      "EchoNumbers": 1,
      "EchoTime": 27.2,
      "EchoTrainLength": 82,
      "FlipAngle": 44.0,
      "HighBit": 15,
      "ImageOrientationPatient": [0.99987876769277, 0.00642847459563, -0.0141818416139, -0.0052353702485, 0.99656754798132, 0.08261787463292],
      "ImagePositionPatient": [-876.41620226997, -885.28187875863, -105.13912721013],
      "ImageType": [
        "ORIGINAL",
        "PRIMARY",
        "M",
        "MB",
        "ND",
        "NORM",
        "MOSAIC"
],
      "ImagedNucleus": "1H",
      "ImagingFrequency": 123.252122,
      "InPlanePhaseEncodingDirection": "COL",
      "MRAcquisitionType": "2D",
      "MagneticFieldStrength": 3.0,
      "Manufacturer": "SIEMENS",
      "ManufacturerModelName": "Prisma",
      "Modality": "MR",
      "NumberOfAverages": 1.0,
      "NumberOfPhaseEncodingSteps": 82,
      "PercentPhaseFieldOfView": 100.0,
      "PercentSampling": 100.0,
      "PerformedProcedureStepStartTime": "094706.347000",
      "PhotometricInterpretation": "MONOCHROME2",
      "PixelBandwidth": 3050.0,
      "PixelRepresentation": 0,
      "PixelSpacing": [2.6829268932343, 2.6829268932343],
      "ProtocolName": "func_run-01_task-faces_acq-ap-mb8",
      "RepetitionTime": 460.0,
      "Rows": 656,
      "SAR": 0.08884874889651,
      "SamplesPerPixel": 1,
      "ScanOptions": "FS",
      "ScanningSequence": "EP",
      "SequenceName": "epfid2d1_82",
      "SequenceVariant": [
        "SK",
        "SS"
],
      "SeriesDescription": "func_run-01_task-faces_acq-ap-mb8",
      "SeriesNumber": 8,
      "SeriesTime": "095622.118000",
      "SliceLocation": -44.55557140975,
      "SliceThickness": 2.7000000476837,
      "SmallestImagePixelValue": 0,
      "SoftwareVersions": "syngo MR E11",
      "SpacingBetweenSlices": 2.6999999884375,
      "SpecificCharacterSet": "ISO_IR 100",
      "StudyID": "4",
      "StudyTime": "094706.221000",
      "TransmitCoilName": "Body",
      "VariableFlipAngleFlag": "N",
      "WindowCenterWidthExplanation": "Algo1",
      "dBdt": 0.0},
    "slices": {}
  },
  "time": {
    "samples": {
      "AcquisitionNumber": [1, 2, 3, 4, 5, 6, 7, 8, 9, 10, 11, 12, 13, 14, 15, 16, 17, 18, 19, 20, 21, 22, 23, 24, 25, 26, 27, 28, 29, 30, 31, 32, 33, 34, 35, 36, 37, 38, 39, 40, 41, 42, 43, 44, 45, 46, 47, 48, 49, 50, 51, 52, 53, 54, 55, 56, 57, 58, 59, 60, 61, 62, 63, 64, 65, 66, 67, 68, 69, 70, 71, 72, 73, 74, 75, 76, 77, 78, 79, 80, 81, 82, 83, 84, 85, 86, 87, 88, 89, 90, 91, 92, 93, 94, 95, 96, 97, 98, 99, 100, 101, 102, 103, 104, 105, 106, 107, 108, 109, 110, 111, 112, 113, 114, 115, 116, 117, 118, 119, 120, 121, 122, 123, 124, 125, 126, 127, 128, 129, 130, 131, 132, 133, 134, 135, 136, 137, 138, 139, 140, 141, 142, 143, 144, 145, 146, 147, 148, 149, 150, 151, 152, 153, 154, 155, 156, 157, 158, 159, 160, 161, 162, 163, 164, 165, 166, 167, 168, 169, 170, 171, 172, 173, 174, 175, 176, 177, 178, 179, 180, 181, 182, 183, 184, 185, 186, 187, 188, 189, 190, 191, 192, 193, 194, 195, 196, 197, 198, 199, 200, 201, 202, 203, 204, 205, 206, 207, 208, 209, 210, 211, 212, 213, 214, 215, 216, 217, 218, 219, 220, 221, 222, 223, 224, 225, 226, 227, 228, 229, 230, 231, 232, 233, 234, 235, 236, 237, 238, 239, 240, 241, 242, 243, 244, 245, 246, 247, 248, 249, 250, 251, 252, 253, 254, 255, 256, 257, 258, 259, 260, 261, 262, 263, 264, 265, 266, 267, 268, 269, 270, 271, 272, 273, 274, 275, 276, 277, 278, 279, 280, 281, 282, 283, 284, 285, 286, 287, 288, 289, 290, 291, 292, 293, 294, 295, 296, 297, 298, 299, 300, 301, 302, 303, 304, 305, 306, 307, 308, 309, 310, 311, 312, 313, 314, 315, 316, 317, 318, 319, 320, 321, 322, 323, 324, 325, 326, 327, 328, 329, 330, 331, 332, 333, 334, 335, 336, 337, 338, 339, 340, 341, 342, 343, 344, 345, 346, 347, 348, 349, 350, 351, 352, 353, 354, 355, 356, 357, 358, 359, 360, 361, 362, 363, 364, 365, 366, 367, 368, 369, 370, 371, 372, 373, 374, 375, 376, 377, 378, 379, 380, 381, 382, 383, 384, 385, 386, 387, 388, 389, 390, 391, 392, 393, 394, 395, 396, 397, 398, 399, 400, 401, 402, 403, 404, 405, 406, 407, 408, 409, 410, 411, 412, 413, 414, 415, 416, 417, 418, 419, 420, 421, 422, 423, 424, 425, 426, 427, 428, 429, 430, 431, 432, 433, 434, 435, 436, 437, 438, 439, 440, 441, 442, 443, 444, 445, 446, 447, 448, 449, 450, 451, 452, 453, 454, 455, 456, 457, 458, 459, 460, 461, 462, 463, 464, 465, 466, 467, 468, 469, 470, 471, 472, 473, 474, 475, 476, 477, 478, 479, 480, 481, 482, 483, 484, 485, 486, 487, 488, 489, 490, 491, 492, 493, 494, 495, 496, 497, 498, 499, 500, 501, 502, 503, 504, 505, 506, 507, 508, 509, 510, 511, 512, 513, 514, 515, 516, 517, 518, 519, 520, 521, 522, 523, 524, 525, 526, 527, 528, 529, 530, 531, 532, 533, 534, 535, 536, 537, 538, 539, 540, 541, 542, 543, 544, 545, 546, 547, 548, 549, 550, 551, 552, 553, 554, 555, 556, 557, 558, 559, 560, 561, 562, 563, 564, 565, 566, 567, 568, 569, 570, 571, 572, 573, 574, 575, 576, 577, 578, 579, 580, 581, 582, 583, 584, 585, 586, 587, 588, 589, 590, 591, 592, 593, 594, 595, 596, 597, 598, 599, 600, 601, 602, 603, 604, 605, 606, 607, 608, 609, 610, 611, 612, 613, 614, 615, 616, 617, 618, 619, 620, 621, 622, 623, 624, 625, 626, 627, 628, 629, 630, 631, 632, 633, 634, 635, 636, 637, 638, 639, 640, 641, 642, 643, 644, 645, 646, 647, 648, 649, 650, 651, 652, 653, 654, 655, 656, 657, 658, 659, 660, 661, 662, 663, 664, 665, 666, 667, 668, 669, 670, 671, 672, 673, 674, 675, 676, 677, 678, 679, 680, 681, 682, 683, 684, 685, 686, 687, 688, 689, 690, 691, 692, 693, 694, 695, 696, 697, 698, 699, 700, 701, 702, 703, 704, 705, 706, 707, 708, 709, 710, 711, 712, 713, 714, 715, 716, 717, 718, 719, 720, 721, 722, 723, 724, 725, 726, 727, 728, 729, 730, 731, 732, 733, 734, 735, 736, 737, 738, 739, 740, 741, 742, 743, 744, 745, 746, 747, 748, 749, 750, 751, 752, 753, 754, 755, 756, 757, 758, 759, 760, 761, 762, 763, 764, 765, 766, 767, 768, 769, 770, 771, 772, 773, 774, 775, 776, 777, 778, 779, 780, 781, 782, 783, 784, 785, 786, 787, 788, 789, 790, 791, 792, 793, 794, 795, 796, 797, 798, 799, 800, 801, 802, 803, 804, 805, 806, 807, 808, 809, 810, 811, 812, 813, 814, 815, 816, 817, 818, 819, 820, 821, 822, 823, 824, 825, 826, 827, 828, 829, 830, 831, 832, 833, 834, 835, 836, 837, 838, 839, 840, 841, 842, 843, 844, 845, 846, 847, 848, 849, 850, 851, 852, 853, 854, 855, 856, 857, 858, 859, 860, 861, 862, 863, 864, 865, 866, 867, 868, 869, 870, 871, 872, 873, 874, 875, 876, 877, 878, 879, 880, 881, 882, 883, 884, 885, 886, 887, 888, 889, 890, 891, 892, 893, 894, 895, 896, 897, 898, 899, 900, 901, 902, 903, 904, 905, 906, 907, 908, 909, 910, 911, 912, 913, 914],
      "AcquisitionTime": ["095556.085000", "095556.545000", "095557.005000", "095557.465000", "095557.925000", "095558.385000", "095558.845000", "095559.305000", "095559.765000", "095600.225000", "095600.685000", "095601.145000", "095601.605000", "095602.065000", "095602.525000", "095602.985000", "095603.445000", "095603.905000", "095604.365000", "095604.825000", "095605.285000", "095605.745000", "095606.205000", "095606.665000", "095607.125000", "095607.585000", "095608.045000", "095608.505000", "095608.965000", "095609.425000", "095609.885000", "095610.345000", "095610.805000", "095611.265000", "095611.725000", "095612.185000", "095612.645000", "095613.105000", "095613.565000", "095614.025000", "095614.485000", "095614.945000", "095615.405000", "095615.865000", "095616.325000", "095616.785000", "095617.245000", "095617.705000", "095618.165000", "095618.625000", "095619.085000", "095619.545000", "095620.005000", "095620.465000", "095620.925000", "095621.385000", "095621.845000", "095622.305000", "095622.765000", "095623.225000", "095623.685000", "095624.145000", "095624.605000", "095625.065000", "095625.525000", "095625.985000", "095626.445000", "095626.905000", "095627.365000", "095627.825000", "095628.285000", "095628.745000", "095629.205000", "095629.665000", "095630.125000", "095630.585000", "095631.045000", "095631.505000", "095631.965000", "095632.425000", "095632.885000", "095633.345000", "095633.805000", "095634.265000", "095634.725000", "095635.185000", "095635.645000", "095636.105000", "095636.565000", "095637.025000", "095637.485000", "095637.945000", "095638.405000", "095638.865000", "095639.325000", "095639.785000", "095640.245000", "095640.705000", "095641.165000", "095641.625000", "095642.085000", "095642.545000", "095643.005000", "095643.465000", "095643.925000", "095644.385000", "095644.845000", "095645.305000", "095645.765000", "095646.225000", "095646.685000", "095647.145000", "095647.605000", "095648.065000", "095648.525000", "095648.985000", "095649.445000", "095649.905000", "095650.365000", "095650.825000", "095651.285000", "095651.745000", "095652.205000", "095652.665000", "095653.125000", "095653.585000", "095654.045000", "095654.505000", "095654.965000", "095655.425000", "095655.885000", "095656.345000", "095656.805000", "095657.265000", "095657.725000", "095658.185000", "095658.645000", "095659.105000", "095659.565000", "095700.025000", "095700.485000", "095700.945000", "095701.405000", "095701.865000", "095702.325000", "095702.785000", "095703.245000", "095703.705000", "095704.165000", "095704.625000", "095705.085000", "095705.545000", "095706.005000", "095706.465000", "095706.925000", "095707.385000", "095707.845000", "095708.305000", "095708.765000", "095709.225000", "095709.685000", "095710.145000", "095710.605000", "095711.065000", "095711.525000", "095711.985000", "095712.445000", "095712.905000", "095713.365000", "095713.825000", "095714.285000", "095714.745000", "095715.205000", "095715.665000", "095716.125000", "095716.585000", "095717.045000", "095717.505000", "095717.965000", "095718.425000", "095718.885000", "095719.345000", "095719.805000", "095720.265000", "095720.725000", "095721.185000", "095721.645000", "095722.105000", "095722.565000", "095723.025000", "095723.485000", "095723.945000", "095724.405000", "095724.865000", "095725.325000", "095725.785000", "095726.245000", "095726.705000", "095727.165000", "095727.625000", "095728.085000", "095728.545000", "095729.005000", "095729.465000", "095729.925000", "095730.385000", "095730.845000", "095731.305000", "095731.765000", "095732.225000", "095732.685000", "095733.145000", "095733.605000", "095734.065000", "095734.525000", "095734.985000", "095735.445000", "095735.905000", "095736.365000", "095736.825000", "095737.285000", "095737.745000", "095738.205000", "095738.665000", "095739.125000", "095739.585000", "095740.045000", "095740.505000", "095740.965000", "095741.425000", "095741.885000", "095742.345000", "095742.805000", "095743.265000", "095743.725000", "095744.185000", "095744.645000", "095745.105000", "095745.565000", "095746.025000", "095746.485000", "095746.945000", "095747.405000", "095747.865000", "095748.325000", "095748.785000", "095749.245000", "095749.705000", "095750.165000", "095750.625000", "095751.085000", "095751.545000", "095752.005000", "095752.465000", "095752.925000", "095753.385000", "095753.845000", "095754.305000", "095754.765000", "095755.225000", "095755.685000", "095756.145000", "095756.605000", "095757.065000", "095757.525000", "095757.985000", "095758.445000", "095758.905000", "095759.365000", "095759.825000", "095800.285000", "095800.745000", "095801.205000", "095801.665000", "095802.125000", "095802.585000", "095803.045000", "095803.505000", "095803.965000", "095804.425000", "095804.885000", "095805.345000", "095805.805000", "095806.265000", "095806.725000", "095807.185000", "095807.645000", "095808.105000", "095808.565000", "095809.025000", "095809.485000", "095809.945000", "095810.405000", "095810.865000", "095811.325000", "095811.785000", "095812.245000", "095812.705000", "095813.165000", "095813.625000", "095814.085000", "095814.545000", "095815.005000", "095815.465000", "095815.925000", "095816.385000", "095816.845000", "095817.305000", "095817.765000", "095818.225000", "095818.685000", "095819.145000", "095819.605000", "095820.065000", "095820.525000", "095820.985000", "095821.445000", "095821.905000", "095822.365000", "095822.825000", "095823.285000", "095823.745000", "095824.205000", "095824.665000", "095825.125000", "095825.585000", "095826.045000", "095826.505000", "095826.965000", "095827.425000", "095827.885000", "095828.345000", "095828.805000", "095829.265000", "095829.725000", "095830.185000", "095830.645000", "095831.105000", "095831.565000", "095832.025000", "095832.485000", "095832.945000", "095833.405000", "095833.865000", "095834.325000", "095834.785000", "095835.245000", "095835.705000", "095836.165000", "095836.625000", "095837.085000", "095837.545000", "095838.005000", "095838.465000", "095838.925000", "095839.385000", "095839.845000", "095840.305000", "095840.765000", "095841.225000", "095841.685000", "095842.145000", "095842.605000", "095843.065000", "095843.525000", "095843.985000", "095844.445000", "095844.905000", "095845.365000", "095845.825000", "095846.285000", "095846.745000", "095847.205000", "095847.665000", "095848.125000", "095848.585000", "095849.045000", "095849.505000", "095849.965000", "095850.425000", "095850.885000", "095851.345000", "095851.805000", "095852.265000", "095852.725000", "095853.185000", "095853.645000", "095854.105000", "095854.565000", "095855.025000", "095855.485000", "095855.945000", "095856.405000", "095856.865000", "095857.325000", "095857.785000", "095858.245000", "095858.705000", "095859.165000", "095859.625000", "095900.085000", "095900.545000", "095901.005000", "095901.465000", "095901.925000", "095902.385000", "095902.845000", "095903.305000", "095903.765000", "095904.225000", "095904.685000", "095905.145000", "095905.605000", "095906.065000", "095906.525000", "095906.985000", "095907.445000", "095907.905000", "095908.365000", "095908.825000", "095909.285000", "095909.745000", "095910.205000", "095910.665000", "095911.125000", "095911.585000", "095912.045000", "095912.505000", "095912.965000", "095913.425000", "095913.885000", "095914.345000", "095914.805000", "095915.265000", "095915.725000", "095916.185000", "095916.645000", "095917.105000", "095917.565000", "095918.025000", "095918.485000", "095918.945000", "095919.405000", "095919.865000", "095920.325000", "095920.785000", "095921.245000", "095921.705000", "095922.165000", "095922.625000", "095923.085000", "095923.545000", "095924.005000", "095924.465000", "095924.925000", "095925.385000", "095925.845000", "095926.305000", "095926.765000", "095927.225000", "095927.685000", "095928.145000", "095928.605000", "095929.065000", "095929.525000", "095929.985000", "095930.445000", "095930.905000", "095931.365000", "095931.825000", "095932.285000", "095932.745000", "095933.205000", "095933.665000", "095934.125000", "095934.585000", "095935.045000", "095935.505000", "095935.965000", "095936.425000", "095936.885000", "095937.345000", "095937.805000", "095938.265000", "095938.725000", "095939.185000", "095939.645000", "095940.105000", "095940.565000", "095941.025000", "095941.485000", "095941.945000", "095942.405000", "095942.865000", "095943.325000", "095943.785000", "095944.245000", "095944.705000", "095945.165000", "095945.625000", "095946.085000", "095946.545000", "095947.005000", "095947.465000", "095947.925000", "095948.385000", "095948.845000", "095949.305000", "095949.765000", "095950.225000", "095950.685000", "095951.145000", "095951.605000", "095952.065000", "095952.525000", "095952.985000", "095953.445000", "095953.905000", "095954.365000", "095954.825000", "095955.285000", "095955.745000", "095956.205000", "095956.665000", "095957.125000", "095957.585000", "095958.045000", "095958.505000", "095958.965000", "095959.425000", "095959.885000", "100000.345000", "100000.805000", "100001.265000", "100001.725000", "100002.185000", "100002.645000", "100003.105000", "100003.565000", "100004.025000", "100004.485000", "100004.945000", "100005.405000", "100005.865000", "100006.325000", "100006.785000", "100007.245000", "100007.705000", "100008.165000", "100008.625000", "100009.085000", "100009.545000", "100010.005000", "100010.465000", "100010.925000", "100011.385000", "100011.845000", "100012.305000", "100012.765000", "100013.225000", "100013.685000", "100014.145000", "100014.605000", "100015.065000", "100015.525000", "100015.985000", "100016.445000", "100016.905000", "100017.365000", "100017.825000", "100018.285000", "100018.745000", "100019.205000", "100019.665000", "100020.125000", "100020.585000", "100021.045000", "100021.505000", "100021.965000", "100022.425000", "100022.885000", "100023.345000", "100023.805000", "100024.265000", "100024.725000", "100025.185000", "100025.645000", "100026.105000", "100026.565000", "100027.025000", "100027.485000", "100027.945000", "100028.405000", "100028.865000", "100029.325000", "100029.785000", "100030.245000", "100030.705000", "100031.165000", "100031.625000", "100032.085000", "100032.545000", "100033.005000", "100033.465000", "100033.925000", "100034.385000", "100034.845000", "100035.305000", "100035.765000", "100036.225000", "100036.685000", "100037.145000", "100037.605000", "100038.065000", "100038.525000", "100038.985000", "100039.445000", "100039.905000", "100040.365000", "100040.825000", "100041.285000", "100041.745000", "100042.205000", "100042.665000", "100043.125000", "100043.585000", "100044.045000", "100044.505000", "100044.965000", "100045.425000", "100045.885000", "100046.345000", "100046.805000", "100047.265000", "100047.725000", "100048.185000", "100048.645000", "100049.105000", "100049.565000", "100050.025000", "100050.485000", "100050.945000", "100051.405000", "100051.865000", "100052.325000", "100052.785000", "100053.245000", "100053.705000", "100054.165000", "100054.625000", "100055.085000", "100055.545000", "100056.005000", "100056.465000", "100056.925000", "100057.385000", "100057.845000", "100058.305000", "100058.765000", "100059.225000", "100059.685000", "100100.145000", "100100.605000", "100101.065000", "100101.525000", "100101.985000", "100102.445000", "100102.905000", "100103.365000", "100103.825000", "100104.285000", "100104.745000", "100105.205000", "100105.665000", "100106.125000", "100106.585000", "100107.045000", "100107.505000", "100107.965000", "100108.425000", "100108.885000", "100109.345000", "100109.805000", "100110.265000", "100110.725000", "100111.185000", "100111.645000", "100112.105000", "100112.565000", "100113.025000", "100113.485000", "100113.945000", "100114.405000", "100114.865000", "100115.325000", "100115.785000", "100116.245000", "100116.705000", "100117.165000", "100117.625000", "100118.085000", "100118.545000", "100119.005000", "100119.465000", "100119.925000", "100120.385000", "100120.845000", "100121.305000", "100121.765000", "100122.225000", "100122.685000", "100123.145000", "100123.605000", "100124.065000", "100124.525000", "100124.985000", "100125.445000", "100125.905000", "100126.365000", "100126.825000", "100127.285000", "100127.745000", "100128.205000", "100128.665000", "100129.125000", "100129.585000", "100130.045000", "100130.505000", "100130.965000", "100131.425000", "100131.885000", "100132.345000", "100132.805000", "100133.265000", "100133.725000", "100134.185000", "100134.645000", "100135.105000", "100135.565000", "100136.025000", "100136.485000", "100136.945000", "100137.405000", "100137.865000", "100138.325000", "100138.785000", "100139.245000", "100139.705000", "100140.165000", "100140.625000", "100141.085000", "100141.545000", "100142.005000", "100142.465000", "100142.925000", "100143.385000", "100143.845000", "100144.305000", "100144.765000", "100145.225000", "100145.685000", "100146.145000", "100146.605000", "100147.065000", "100147.525000", "100147.985000", "100148.445000", "100148.905000", "100149.365000", "100149.825000", "100150.285000", "100150.745000", "100151.205000", "100151.665000", "100152.125000", "100152.585000", "100153.045000", "100153.505000", "100153.965000", "100154.425000", "100154.885000", "100155.345000", "100155.805000", "100156.265000", "100156.725000", "100157.185000", "100157.645000", "100158.105000", "100158.565000", "100159.025000", "100159.485000", "100159.945000", "100200.405000", "100200.865000", "100201.325000", "100201.785000", "100202.245000", "100202.705000", "100203.165000", "100203.625000", "100204.085000", "100204.545000", "100205.005000", "100205.465000", "100205.925000", "100206.385000", "100206.845000", "100207.305000", "100207.765000", "100208.225000", "100208.685000", "100209.145000", "100209.605000", "100210.065000", "100210.525000", "100210.985000", "100211.445000", "100211.905000", "100212.365000", "100212.825000", "100213.285000", "100213.745000", "100214.205000", "100214.665000", "100215.125000", "100215.585000", "100216.045000", "100216.505000", "100216.965000", "100217.425000", "100217.885000", "100218.345000", "100218.805000", "100219.265000", "100219.725000", "100220.185000", "100220.645000", "100221.105000", "100221.565000", "100222.025000", "100222.485000", "100222.945000", "100223.405000", "100223.865000", "100224.325000", "100224.785000", "100225.245000", "100225.705000", "100226.165000", "100226.625000", "100227.085000", "100227.545000", "100228.005000", "100228.465000", "100228.925000", "100229.385000", "100229.845000", "100230.305000", "100230.765000", "100231.225000", "100231.685000", "100232.145000", "100232.605000", "100233.065000", "100233.525000", "100233.985000", "100234.445000", "100234.905000", "100235.365000", "100235.825000", "100236.285000", "100236.745000", "100237.205000", "100237.665000", "100238.125000", "100238.585000", "100239.045000", "100239.505000", "100239.965000", "100240.425000", "100240.885000", "100241.345000", "100241.805000", "100242.265000", "100242.725000", "100243.185000", "100243.645000", "100244.105000", "100244.565000", "100245.025000", "100245.485000", "100245.945000", "100246.405000", "100246.865000", "100247.325000", "100247.785000", "100248.245000", "100248.705000", "100249.165000", "100249.625000", "100250.085000", "100250.545000", "100251.005000", "100251.465000", "100251.925000", "100252.385000", "100252.845000", "100253.305000", "100253.765000", "100254.225000", "100254.685000", "100255.145000", "100255.605000", "100256.065000"],
