{
  "AcquisitionMatrixPE": 82,
  "AcquisitionNumber": 1,
  "AcquisitionTime": "10:03:55.655000",
  "BandwidthPerPixelPhaseEncode": 24.888,
  "BaseResolution": 82,
  "BodyPartExamined": "BRAIN",
  "ConsistencyInfo": "N4_VE11C_LATEST_20160120",
  "ConversionSoftware": "dcm2niix",
  "ConversionSoftwareVersion": "v1.0.20201102",
  "DerivedVendorReportedEchoSpacing": 0.00049,
  "DeviceSerialNumber": "66112",
  "DwellTime": 2e-06,
  "EchoTime": 0.0272,
  "EchoTrainLength": 82,
  "EffectiveEchoSpacing": 0.00049,
  "FlipAngle": 44,
  "ImageComments": "Unaliased MB8/PE3",
  "ImageOrientationPatientDICOM": [0.999879, 0.00642847, -0.0141818, -0.00523537, 0.996568, 0.0826179],
  "ImageType": [
    "ORIGINAL",
    "PRIMARY",
    "M",
    "MB",
    "ND",
    "NORM",
    "MOSAIC"
],
  "ImagingFrequency": 123.252,
  "InPlanePhaseEncodingDirectionDICOM": "COL",
  "InstitutionAddress": "Maynard 3,Hanover,NH,US,03755",
  "InstitutionName": "Dartmouth College - PBS",
  "InstitutionalDepartmentName": "Department",
  "MRAcquisitionType": "2D",
  "MagneticFieldStrength": 3,
  "Manufacturer": "Siemens",
  "ManufacturersModelName": "Prisma",
  "Modality": "MR",
  "MultibandAccelerationFactor": 8,
  "PartialFourier": 1,
  "PatientPosition": "HFS",
  "PercentPhaseFOV": 100,
  "PercentSampling": 100,
  "PhaseEncodingDirection": "j-",
  "PhaseEncodingSteps": 82,
  "PhaseResolution": 1,
  "PixelBandwidth": 3050,
  "ProcedureStepDescription": "Wager_Wager^1076_spacetop",
  "ProtocolName": "func_run-02_task-faces_acq-ap-mb8",
  "PulseSequenceDetails": "%CustomerSeq%\\cmrr_mbep2d_bold",
  "ReceiveCoilActiveElements": "HEA;HEP",
  "ReceiveCoilName": "Head_32",
  "ReconMatrixPE": 82,
  "RepetitionTime": 0.46,
  "SAR": 0.0888487,
  "ScanOptions": "FS",
  "ScanningSequence": "EP",
  "SequenceName": "epfid2d1_82",
  "SequenceVariant": "SK\\SS",
  "SeriesDescription": "func_run-02_task-faces_acq-ap-mb8",
  "SeriesNumber": 10,
  "ShimSetting": [4140, -7751, -7257, 577, -91, -169, 40, 107],
  "SliceThickness": 2.7,
  "SliceTiming": [0, 0.25, 0.0625, 0.315, 0.125, 0.3775, 0.1875, 0, 0.25, 0.0625, 0.315, 0.125, 0.3775, 0.1875, 0, 0.25, 0.0625, 0.315, 0.125, 0.3775, 0.1875, 0, 0.25, 0.0625, 0.315, 0.125, 0.3775, 0.1875, 0, 0.25, 0.0625, 0.315, 0.125, 0.3775, 0.1875, 0, 0.25, 0.0625, 0.315, 0.125, 0.3775, 0.1875, 0, 0.25, 0.0625, 0.315, 0.125, 0.3775, 0.1875, 0, 0.25, 0.0625, 0.315, 0.125, 0.3775, 0.1875],
  "SoftwareVersions": "syngo MR E11",
  "SpacingBetweenSlices": 2.7,
  "StationName": "AWP66112",
  "TaskName": "faces",
  "TotalReadoutTime": 0.03969,
  "TxRefAmp": 222.625,
  "WipMemBlock": "ccb314f9-1e65-4fd1-81f2-68f3dbe2b0bb||Sequence: R016 ve11c/master r/e634e98; Dec 19 2017 11:00:25 by eja",
  "dcmmeta_affine": [
    [-2.6826016902923584, -0.014046115800738335, -0.03959352895617485, 111.67850494384766],
    [-0.01724712736904621, 2.673717975616455, 0.22284075617790222, -103.59622192382812],
    [-0.038048844784498215, -0.22165772318840027, 2.6904969215393066, -34.489105224609375],
    [0.0, 0.0, 0.0, 1.0]
],
  "dcmmeta_reorient_transform": [
    [0.0, -1.0, 0.0, 81.0],
    [1.0, 0.0, 0.0, 0.0],
    [0.0, 0.0, 1.0, 0.0],
    [0.0, 0.0, 0.0, 1.0]
],
  "dcmmeta_shape": [82, 82, 56, 914],
  "dcmmeta_slice_dim": 2,
  "dcmmeta_version": 0.6,
  "global": {
    "const": {
      "AccessionNumber": "A003447",
      "AcquisitionMatrix": [82, 0, 0, 82],
      "AngioFlag": "N",
      "BitsAllocated": 16,
      "BitsStored": 16,
      "BodyPartExamined": "BRAIN",
      "Columns": 656,
      "EchoNumbers": 1,
      "EchoTime": 27.2,
      "EchoTrainLength": 82,
      "FlipAngle": 44.0,
      "HighBit": 15,
      "ImageOrientationPatient": [0.99987876769277, 0.00642847459563, -0.0141818416139, -0.0052353702485, 0.99656754798132, 0.08261787463292],
      "ImagePositionPatient": [-876.41620226997, -885.28187875863, -105.13912721013],
      "ImageType": [
        "ORIGINAL",
        "PRIMARY",
        "M",
        "MB",
        "ND",
        "NORM",
        "MOSAIC"
],
      "ImagedNucleus": "1H",
      "ImagingFrequency": 123.252129,
      "InPlanePhaseEncodingDirection": "COL",
      "MRAcquisitionType": "2D",
      "MagneticFieldStrength": 3.0,
      "Manufacturer": "SIEMENS",
      "ManufacturerModelName": "Prisma",
      "Modality": "MR",
      "NumberOfAverages": 1.0,
      "NumberOfPhaseEncodingSteps": 82,
      "PercentPhaseFieldOfView": 100.0,
      "PercentSampling": 100.0,
      "PerformedProcedureStepStartTime": "094706.347000",
      "PhotometricInterpretation": "MONOCHROME2",
      "PixelBandwidth": 3050.0,
      "PixelRepresentation": 0,
      "PixelSpacing": [2.6829268932343, 2.6829268932343],
      "ProtocolName": "func_run-02_task-faces_acq-ap-mb8",
      "RepetitionTime": 460.0,
      "Rows": 656,
      "SAR": 0.08884874889651,
      "SamplesPerPixel": 1,
      "ScanOptions": "FS",
      "ScanningSequence": "EP",
      "SequenceName": "epfid2d1_82",
      "SequenceVariant": [
        "SK",
        "SS"
],
      "SeriesDescription": "func_run-02_task-faces_acq-ap-mb8",
      "SeriesNumber": 10,
      "SeriesTime": "100402.193000",
      "SliceLocation": -44.55557140975,
      "SliceThickness": 2.7000000476837,
      "SmallestImagePixelValue": 0,
      "SoftwareVersions": "syngo MR E11",
      "SpacingBetweenSlices": 2.6999999884375,
      "SpecificCharacterSet": "ISO_IR 100",
      "StudyID": "4",
      "StudyTime": "094706.221000",
      "TransmitCoilName": "Body",
      "VariableFlipAngleFlag": "N",
      "WindowCenterWidthExplanation": "Algo1",
      "dBdt": 0.0},
    "slices": {}
  },
  "time": {
    "samples": {
      "AcquisitionNumber": [1, 2, 3, 4, 5, 6, 7, 8, 9, 10, 11, 12, 13, 14, 15, 16, 17, 18, 19, 20, 21, 22, 23, 24, 25, 26, 27, 28, 29, 30, 31, 32, 33, 34, 35, 36, 37, 38, 39, 40, 41, 42, 43, 44, 45, 46, 47, 48, 49, 50, 51, 52, 53, 54, 55, 56, 57, 58, 59, 60, 61, 62, 63, 64, 65, 66, 67, 68, 69, 70, 71, 72, 73, 74, 75, 76, 77, 78, 79, 80, 81, 82, 83, 84, 85, 86, 87, 88, 89, 90, 91, 92, 93, 94, 95, 96, 97, 98, 99, 100, 101, 102, 103, 104, 105, 106, 107, 108, 109, 110, 111, 112, 113, 114, 115, 116, 117, 118, 119, 120, 121, 122, 123, 124, 125, 126, 127, 128, 129, 130, 131, 132, 133, 134, 135, 136, 137, 138, 139, 140, 141, 142, 143, 144, 145, 146, 147, 148, 149, 150, 151, 152, 153, 154, 155, 156, 157, 158, 159, 160, 161, 162, 163, 164, 165, 166, 167, 168, 169, 170, 171, 172, 173, 174, 175, 176, 177, 178, 179, 180, 181, 182, 183, 184, 185, 186, 187, 188, 189, 190, 191, 192, 193, 194, 195, 196, 197, 198, 199, 200, 201, 202, 203, 204, 205, 206, 207, 208, 209, 210, 211, 212, 213, 214, 215, 216, 217, 218, 219, 220, 221, 222, 223, 224, 225, 226, 227, 228, 229, 230, 231, 232, 233, 234, 235, 236, 237, 238, 239, 240, 241, 242, 243, 244, 245, 246, 247, 248, 249, 250, 251, 252, 253, 254, 255, 256, 257, 258, 259, 260, 261, 262, 263, 264, 265, 266, 267, 268, 269, 270, 271, 272, 273, 274, 275, 276, 277, 278, 279, 280, 281, 282, 283, 284, 285, 286, 287, 288, 289, 290, 291, 292, 293, 294, 295, 296, 297, 298, 299, 300, 301, 302, 303, 304, 305, 306, 307, 308, 309, 310, 311, 312, 313, 314, 315, 316, 317, 318, 319, 320, 321, 322, 323, 324, 325, 326, 327, 328, 329, 330, 331, 332, 333, 334, 335, 336, 337, 338, 339, 340, 341, 342, 343, 344, 345, 346, 347, 348, 349, 350, 351, 352, 353, 354, 355, 356, 357, 358, 359, 360, 361, 362, 363, 364, 365, 366, 367, 368, 369, 370, 371, 372, 373, 374, 375, 376, 377, 378, 379, 380, 381, 382, 383, 384, 385, 386, 387, 388, 389, 390, 391, 392, 393, 394, 395, 396, 397, 398, 399, 400, 401, 402, 403, 404, 405, 406, 407, 408, 409, 410, 411, 412, 413, 414, 415, 416, 417, 418, 419, 420, 421, 422, 423, 424, 425, 426, 427, 428, 429, 430, 431, 432, 433, 434, 435, 436, 437, 438, 439, 440, 441, 442, 443, 444, 445, 446, 447, 448, 449, 450, 451, 452, 453, 454, 455, 456, 457, 458, 459, 460, 461, 462, 463, 464, 465, 466, 467, 468, 469, 470, 471, 472, 473, 474, 475, 476, 477, 478, 479, 480, 481, 482, 483, 484, 485, 486, 487, 488, 489, 490, 491, 492, 493, 494, 495, 496, 497, 498, 499, 500, 501, 502, 503, 504, 505, 506, 507, 508, 509, 510, 511, 512, 513, 514, 515, 516, 517, 518, 519, 520, 521, 522, 523, 524, 525, 526, 527, 528, 529, 530, 531, 532, 533, 534, 535, 536, 537, 538, 539, 540, 541, 542, 543, 544, 545, 546, 547, 548, 549, 550, 551, 552, 553, 554, 555, 556, 557, 558, 559, 560, 561, 562, 563, 564, 565, 566, 567, 568, 569, 570, 571, 572, 573, 574, 575, 576, 577, 578, 579, 580, 581, 582, 583, 584, 585, 586, 587, 588, 589, 590, 591, 592, 593, 594, 595, 596, 597, 598, 599, 600, 601, 602, 603, 604, 605, 606, 607, 608, 609, 610, 611, 612, 613, 614, 615, 616, 617, 618, 619, 620, 621, 622, 623, 624, 625, 626, 627, 628, 629, 630, 631, 632, 633, 634, 635, 636, 637, 638, 639, 640, 641, 642, 643, 644, 645, 646, 647, 648, 649, 650, 651, 652, 653, 654, 655, 656, 657, 658, 659, 660, 661, 662, 663, 664, 665, 666, 667, 668, 669, 670, 671, 672, 673, 674, 675, 676, 677, 678, 679, 680, 681, 682, 683, 684, 685, 686, 687, 688, 689, 690, 691, 692, 693, 694, 695, 696, 697, 698, 699, 700, 701, 702, 703, 704, 705, 706, 707, 708, 709, 710, 711, 712, 713, 714, 715, 716, 717, 718, 719, 720, 721, 722, 723, 724, 725, 726, 727, 728, 729, 730, 731, 732, 733, 734, 735, 736, 737, 738, 739, 740, 741, 742, 743, 744, 745, 746, 747, 748, 749, 750, 751, 752, 753, 754, 755, 756, 757, 758, 759, 760, 761, 762, 763, 764, 765, 766, 767, 768, 769, 770, 771, 772, 773, 774, 775, 776, 777, 778, 779, 780, 781, 782, 783, 784, 785, 786, 787, 788, 789, 790, 791, 792, 793, 794, 795, 796, 797, 798, 799, 800, 801, 802, 803, 804, 805, 806, 807, 808, 809, 810, 811, 812, 813, 814, 815, 816, 817, 818, 819, 820, 821, 822, 823, 824, 825, 826, 827, 828, 829, 830, 831, 832, 833, 834, 835, 836, 837, 838, 839, 840, 841, 842, 843, 844, 845, 846, 847, 848, 849, 850, 851, 852, 853, 854, 855, 856, 857, 858, 859, 860, 861, 862, 863, 864, 865, 866, 867, 868, 869, 870, 871, 872, 873, 874, 875, 876, 877, 878, 879, 880, 881, 882, 883, 884, 885, 886, 887, 888, 889, 890, 891, 892, 893, 894, 895, 896, 897, 898, 899, 900, 901, 902, 903, 904, 905, 906, 907, 908, 909, 910, 911, 912, 913, 914],
      "AcquisitionTime": ["100355.655000", "100356.115000", "100356.575000", "100357.035000", "100357.495000", "100357.955000", "100358.415000", "100358.875000", "100359.335000", "100359.795000", "100400.255000", "100400.715000", "100401.175000", "100401.635000", "100402.095000", "100402.555000", "100403.015000", "100403.475000", "100403.935000", "100404.395000", "100404.855000", "100405.315000", "100405.775000", "100406.235000", "100406.695000", "100407.155000", "100407.615000", "100408.075000", "100408.535000", "100408.995000", "100409.455000", "100409.915000", "100410.375000", "100410.835000", "100411.295000", "100411.755000", "100412.215000", "100412.675000", "100413.135000", "100413.595000", "100414.055000", "100414.515000", "100414.975000", "100415.435000", "100415.895000", "100416.355000", "100416.815000", "100417.275000", "100417.735000", "100418.195000", "100418.655000", "100419.115000", "100419.575000", "100420.035000", "100420.495000", "100420.955000", "100421.415000", "100421.875000", "100422.335000", "100422.795000", "100423.255000", "100423.715000", "100424.175000", "100424.635000", "100425.095000", "100425.555000", "100426.015000", "100426.475000", "100426.935000", "100427.395000", "100427.855000", "100428.315000", "100428.775000", "100429.235000", "100429.695000", "100430.155000", "100430.615000", "100431.075000", "100431.535000", "100431.995000", "100432.455000", "100432.915000", "100433.375000", "100433.835000", "100434.295000", "100434.755000", "100435.215000", "100435.675000", "100436.135000", "100436.595000", "100437.055000", "100437.515000", "100437.975000", "100438.435000", "100438.895000", "100439.355000", "100439.815000", "100440.275000", "100440.735000", "100441.195000", "100441.655000", "100442.115000", "100442.575000", "100443.035000", "100443.495000", "100443.955000", "100444.415000", "100444.875000", "100445.335000", "100445.795000", "100446.255000", "100446.715000", "100447.175000", "100447.635000", "100448.095000", "100448.555000", "100449.015000", "100449.475000", "100449.935000", "100450.395000", "100450.855000", "100451.315000", "100451.775000", "100452.235000", "100452.695000", "100453.155000", "100453.615000", "100454.075000", "100454.535000", "100454.995000", "100455.455000", "100455.915000", "100456.375000", "100456.835000", "100457.295000", "100457.755000", "100458.215000", "100458.675000", "100459.135000", "100459.595000", "100500.055000", "100500.515000", "100500.975000", "100501.435000", "100501.895000", "100502.355000", "100502.815000", "100503.275000", "100503.735000", "100504.195000", "100504.655000", "100505.115000", "100505.575000", "100506.035000", "100506.495000", "100506.955000", "100507.415000", "100507.875000", "100508.335000", "100508.795000", "100509.255000", "100509.715000", "100510.175000", "100510.635000", "100511.095000", "100511.555000", "100512.015000", "100512.475000", "100512.935000", "100513.395000", "100513.855000", "100514.315000", "100514.775000", "100515.235000", "100515.695000", "100516.155000", "100516.615000", "100517.075000", "100517.535000", "100517.995000", "100518.455000", "100518.915000", "100519.375000", "100519.835000", "100520.295000", "100520.755000", "100521.215000", "100521.675000", "100522.135000", "100522.595000", "100523.055000", "100523.515000", "100523.975000", "100524.435000", "100524.895000", "100525.355000", "100525.815000", "100526.275000", "100526.735000", "100527.195000", "100527.655000", "100528.115000", "100528.575000", "100529.035000", "100529.495000", "100529.955000", "100530.415000", "100530.875000", "100531.335000", "100531.795000", "100532.255000", "100532.715000", "100533.175000", "100533.635000", "100534.095000", "100534.555000", "100535.015000", "100535.475000", "100535.935000", "100536.395000", "100536.855000", "100537.315000", "100537.775000", "100538.235000", "100538.695000", "100539.155000", "100539.615000", "100540.075000", "100540.535000", "100540.995000", "100541.455000", "100541.915000", "100542.375000", "100542.835000", "100543.295000", "100543.755000", "100544.215000", "100544.675000", "100545.135000", "100545.595000", "100546.055000", "100546.515000", "100546.975000", "100547.435000", "100547.895000", "100548.355000", "100548.815000", "100549.275000", "100549.735000", "100550.195000", "100550.655000", "100551.115000", "100551.575000", "100552.035000", "100552.495000", "100552.955000", "100553.415000", "100553.875000", "100554.335000", "100554.795000", "100555.255000", "100555.715000", "100556.175000", "100556.635000", "100557.095000", "100557.555000", "100558.015000", "100558.475000", "100558.935000", "100559.395000", "100559.855000", "100600.315000", "100600.775000", "100601.235000", "100601.695000", "100602.155000", "100602.615000", "100603.075000", "100603.535000", "100603.995000", "100604.455000", "100604.915000", "100605.375000", "100605.835000", "100606.295000", "100606.755000", "100607.215000", "100607.675000", "100608.135000", "100608.595000", "100609.055000", "100609.515000", "100609.975000", "100610.435000", "100610.895000", "100611.355000", "100611.815000", "100612.275000", "100612.735000", "100613.195000", "100613.655000", "100614.115000", "100614.575000", "100615.035000", "100615.495000", "100615.955000", "100616.415000", "100616.875000", "100617.335000", "100617.795000", "100618.255000", "100618.715000", "100619.175000", "100619.635000", "100620.095000", "100620.555000", "100621.015000", "100621.475000", "100621.935000", "100622.395000", "100622.855000", "100623.315000", "100623.775000", "100624.235000", "100624.695000", "100625.155000", "100625.615000", "100626.075000", "100626.535000", "100626.995000", "100627.455000", "100627.915000", "100628.375000", "100628.835000", "100629.295000", "100629.755000", "100630.215000", "100630.675000", "100631.135000", "100631.595000", "100632.055000", "100632.515000", "100632.975000", "100633.435000", "100633.895000", "100634.355000", "100634.815000", "100635.275000", "100635.735000", "100636.195000", "100636.655000", "100637.115000", "100637.575000", "100638.035000", "100638.495000", "100638.955000", "100639.415000", "100639.875000", "100640.335000", "100640.795000", "100641.255000", "100641.715000", "100642.175000", "100642.635000", "100643.095000", "100643.555000", "100644.015000", "100644.475000", "100644.935000", "100645.395000", "100645.855000", "100646.315000", "100646.775000", "100647.235000", "100647.695000", "100648.155000", "100648.615000", "100649.075000", "100649.535000", "100649.995000", "100650.455000", "100650.915000", "100651.375000", "100651.835000", "100652.295000", "100652.755000", "100653.215000", "100653.675000", "100654.135000", "100654.595000", "100655.055000", "100655.515000", "100655.975000", "100656.435000", "100656.895000", "100657.355000", "100657.815000", "100658.275000", "100658.735000", "100659.195000", "100659.655000", "100700.115000", "100700.575000", "100701.035000", "100701.495000", "100701.955000", "100702.415000", "100702.875000", "100703.335000", "100703.795000", "100704.255000", "100704.715000", "100705.175000", "100705.635000", "100706.095000", "100706.555000", "100707.015000", "100707.475000", "100707.935000", "100708.395000", "100708.855000", "100709.315000", "100709.775000", "100710.235000", "100710.695000", "100711.155000", "100711.615000", "100712.075000", "100712.535000", "100712.995000", "100713.455000", "100713.915000", "100714.375000", "100714.835000", "100715.295000", "100715.755000", "100716.215000", "100716.675000", "100717.135000", "100717.595000", "100718.055000", "100718.515000", "100718.975000", "100719.435000", "100719.895000", "100720.355000", "100720.815000", "100721.275000", "100721.735000", "100722.195000", "100722.655000", "100723.115000", "100723.575000", "100724.035000", "100724.495000", "100724.955000", "100725.415000", "100725.875000", "100726.335000", "100726.795000", "100727.255000", "100727.715000", "100728.175000", "100728.635000", "100729.095000", "100729.555000", "100730.015000", "100730.475000", "100730.935000", "100731.395000", "100731.855000", "100732.315000", "100732.775000", "100733.235000", "100733.695000", "100734.155000", "100734.615000", "100735.075000", "100735.535000", "100735.995000", "100736.455000", "100736.915000", "100737.375000", "100737.835000", "100738.295000", "100738.755000", "100739.215000", "100739.675000", "100740.135000", "100740.595000", "100741.055000", "100741.515000", "100741.975000", "100742.435000", "100742.895000", "100743.355000", "100743.815000", "100744.275000", "100744.735000", "100745.195000", "100745.655000", "100746.115000", "100746.575000", "100747.035000", "100747.495000", "100747.955000", "100748.415000", "100748.875000", "100749.335000", "100749.795000", "100750.255000", "100750.715000", "100751.175000", "100751.635000", "100752.095000", "100752.555000", "100753.015000", "100753.475000", "100753.935000", "100754.395000", "100754.855000", "100755.315000", "100755.775000", "100756.235000", "100756.695000", "100757.155000", "100757.615000", "100758.075000", "100758.535000", "100758.995000", "100759.455000", "100759.915000", "100800.375000", "100800.835000", "100801.295000", "100801.755000", "100802.215000", "100802.675000", "100803.135000", "100803.595000", "100804.055000", "100804.515000", "100804.975000", "100805.435000", "100805.895000", "100806.355000", "100806.815000", "100807.275000", "100807.735000", "100808.195000", "100808.655000", "100809.115000", "100809.575000", "100810.035000", "100810.495000", "100810.955000", "100811.415000", "100811.875000", "100812.335000", "100812.795000", "100813.255000", "100813.715000", "100814.175000", "100814.635000", "100815.095000", "100815.555000", "100816.015000", "100816.475000", "100816.935000", "100817.395000", "100817.855000", "100818.315000", "100818.775000", "100819.235000", "100819.695000", "100820.155000", "100820.615000", "100821.075000", "100821.535000", "100821.995000", "100822.455000", "100822.915000", "100823.375000", "100823.835000", "100824.295000", "100824.755000", "100825.215000", "100825.675000", "100826.135000", "100826.595000", "100827.055000", "100827.515000", "100827.975000", "100828.435000", "100828.895000", "100829.355000", "100829.815000", "100830.275000", "100830.735000", "100831.195000", "100831.655000", "100832.115000", "100832.575000", "100833.035000", "100833.495000", "100833.955000", "100834.415000", "100834.875000", "100835.335000", "100835.795000", "100836.255000", "100836.715000", "100837.175000", "100837.635000", "100838.095000", "100838.555000", "100839.015000", "100839.475000", "100839.935000", "100840.395000", "100840.855000", "100841.315000", "100841.775000", "100842.235000", "100842.695000", "100843.155000", "100843.615000", "100844.075000", "100844.535000", "100844.995000", "100845.455000", "100845.915000", "100846.375000", "100846.835000", "100847.295000", "100847.755000", "100848.215000", "100848.675000", "100849.135000", "100849.595000", "100850.055000", "100850.515000", "100850.975000", "100851.435000", "100851.895000", "100852.355000", "100852.815000", "100853.275000", "100853.735000", "100854.195000", "100854.655000", "100855.115000", "100855.575000", "100856.035000", "100856.495000", "100856.955000", "100857.415000", "100857.875000", "100858.335000", "100858.795000", "100859.255000", "100859.715000", "100900.175000", "100900.635000", "100901.095000", "100901.555000", "100902.015000", "100902.475000", "100902.935000", "100903.395000", "100903.855000", "100904.315000", "100904.775000", "100905.235000", "100905.695000", "100906.155000", "100906.615000", "100907.075000", "100907.535000", "100907.995000", "100908.455000", "100908.915000", "100909.375000", "100909.835000", "100910.295000", "100910.755000", "100911.215000", "100911.675000", "100912.135000", "100912.595000", "100913.055000", "100913.515000", "100913.975000", "100914.435000", "100914.895000", "100915.355000", "100915.815000", "100916.275000", "100916.735000", "100917.195000", "100917.655000", "100918.115000", "100918.575000", "100919.035000", "100919.495000", "100919.955000", "100920.415000", "100920.875000", "100921.335000", "100921.795000", "100922.255000", "100922.715000", "100923.175000", "100923.635000", "100924.095000", "100924.555000", "100925.015000", "100925.475000", "100925.935000", "100926.395000", "100926.855000", "100927.315000", "100927.775000", "100928.235000", "100928.695000", "100929.155000", "100929.615000", "100930.075000", "100930.535000", "100930.995000", "100931.455000", "100931.915000", "100932.375000", "100932.835000", "100933.295000", "100933.755000", "100934.215000", "100934.675000", "100935.135000", "100935.595000", "100936.055000", "100936.515000", "100936.975000", "100937.435000", "100937.895000", "100938.355000", "100938.815000", "100939.275000", "100939.735000", "100940.195000", "100940.655000", "100941.115000", "100941.575000", "100942.035000", "100942.495000", "100942.955000", "100943.415000", "100943.875000", "100944.335000", "100944.795000", "100945.255000", "100945.715000", "100946.175000", "100946.635000", "100947.095000", "100947.555000", "100948.015000", "100948.475000", "100948.935000", "100949.395000", "100949.855000", "100950.315000", "100950.775000", "100951.235000", "100951.695000", "100952.155000", "100952.615000", "100953.075000", "100953.535000", "100953.995000", "100954.455000", "100954.915000", "100955.375000", "100955.835000", "100956.295000", "100956.755000", "100957.215000", "100957.675000", "100958.135000", "100958.595000", "100959.055000", "100959.515000", "100959.975000", "101000.435000", "101000.895000", "101001.355000", "101001.815000", "101002.275000", "101002.735000", "101003.195000", "101003.655000", "101004.115000", "101004.575000", "101005.035000", "101005.495000", "101005.955000", "101006.415000", "101006.875000", "101007.335000", "101007.795000", "101008.255000", "101008.715000", "101009.175000", "101009.635000", "101010.095000", "101010.555000", "101011.015000", "101011.475000", "101011.935000", "101012.395000", "101012.855000", "101013.315000", "101013.775000", "101014.235000", "101014.695000", "101015.155000", "101015.615000", "101016.075000", "101016.535000", "101016.995000", "101017.455000", "101017.915000", "101018.375000", "101018.835000", "101019.295000", "101019.755000", "101020.215000", "101020.675000", "101021.135000", "101021.595000", "101022.055000", "101022.515000", "101022.975000", "101023.435000", "101023.895000", "101024.355000", "101024.815000", "101025.275000", "101025.735000", "101026.195000", "101026.655000", "101027.115000", "101027.575000", "101028.035000", "101028.495000", "101028.955000", "101029.415000", "101029.875000", "101030.335000", "101030.795000", "101031.255000", "101031.715000", "101032.175000", "101032.635000", "101033.095000", "101033.555000", "101034.015000", "101034.475000", "101034.935000", "101035.395000", "101035.855000", "101036.315000", "101036.775000", "101037.235000", "101037.695000", "101038.155000", "101038.615000", "101039.075000", "101039.535000", "101039.995000", "101040.455000", "101040.915000", "101041.375000", "101041.835000", "101042.295000", "101042.755000", "101043.215000", "101043.675000", "101044.135000", "101044.595000", "101045.055000", "101045.515000", "101045.975000", "101046.435000", "101046.895000", "101047.355000", "101047.815000", "101048.275000", "101048.735000", "101049.195000", "101049.655000", "101050.115000", "101050.575000", "101051.035000", "101051.495000", "101051.955000", "101052.415000", "101052.875000", "101053.335000", "101053.795000", "101054.255000", "101054.715000", "101055.175000", "101055.635000"],
