{
  "AcquisitionMatrixPE": 82,
  "AcquisitionNumber": 1,
  "AcquisitionTime": "10:21:17.080000",
  "BandwidthPerPixelPhaseEncode": 24.888,
  "BaseResolution": 82,
  "BodyPartExamined": "BRAIN",
  "ConsistencyInfo": "N4_VE11C_LATEST_20160120",
  "ConversionSoftware": "dcm2niix",
  "ConversionSoftwareVersion": "v1.0.20201102",
  "DerivedVendorReportedEchoSpacing": 0.00049,
  "DeviceSerialNumber": "66112",
  "DwellTime": 2e-06,
  "EchoTime": 0.0272,
  "EchoTrainLength": 82,
  "EffectiveEchoSpacing": 0.00049,
  "FlipAngle": 44,
  "ImageComments": "Unaliased MB8/PE3",
  "ImageOrientationPatientDICOM": [0.99988, 0.00678569, -0.0139418, -0.00558445, 0.996411, 0.0844624],
  "ImageType": [
    "ORIGINAL",
    "PRIMARY",
    "M",
    "MB",
    "ND",
    "NORM",
    "MOSAIC"
],
  "ImagingFrequency": 123.252,
  "InPlanePhaseEncodingDirectionDICOM": "COL",
  "InstitutionAddress": "Maynard 3,Hanover,NH,US,03755",
  "InstitutionName": "Dartmouth College - PBS",
  "InstitutionalDepartmentName": "Department",
  "MRAcquisitionType": "2D",
  "MagneticFieldStrength": 3,
  "Manufacturer": "Siemens",
  "ManufacturersModelName": "Prisma",
  "Modality": "MR",
  "MultibandAccelerationFactor": 8,
  "PartialFourier": 1,
  "PatientPosition": "HFS",
  "PercentPhaseFOV": 100,
  "PercentSampling": 100,
  "PhaseEncodingDirection": "j-",
  "PhaseEncodingSteps": 82,
  "PhaseResolution": 1,
  "PixelBandwidth": 3050,
  "ProcedureStepDescription": "Wager_Wager^1076_spacetop",
  "ProtocolName": "func_run-01_task-alignvideo_acq-ap-mb8",
  "PulseSequenceDetails": "%CustomerSeq%\\cmrr_mbep2d_bold",
  "ReceiveCoilActiveElements": "HEA;HEP",
  "ReceiveCoilName": "Head_32",
  "ReconMatrixPE": 82,
  "RepetitionTime": 0.46,
  "SAR": 0.0888017,
  "ScanOptions": "FS",
  "ScanningSequence": "EP",
  "SequenceName": "epfid2d1_82",
  "SequenceVariant": "SK\\SS",
  "SeriesDescription": "func_run-01_task-alignvideo_acq-ap-mb8",
  "SeriesNumber": 20,
  "ShimSetting": [4140, -7748, -7256, 580, -93, -151, 46, 108],
  "SliceThickness": 2.7,
  "SliceTiming": [0, 0.25, 0.0625, 0.3125, 0.125, 0.3775, 0.1875, 0, 0.25, 0.0625, 0.3125, 0.125, 0.3775, 0.1875, 0, 0.25, 0.0625, 0.3125, 0.125, 0.3775, 0.1875, 0, 0.25, 0.0625, 0.3125, 0.125, 0.3775, 0.1875, 0, 0.25, 0.0625, 0.3125, 0.125, 0.3775, 0.1875, 0, 0.25, 0.0625, 0.3125, 0.125, 0.3775, 0.1875, 0, 0.25, 0.0625, 0.3125, 0.125, 0.3775, 0.1875, 0, 0.25, 0.0625, 0.3125, 0.125, 0.3775, 0.1875],
  "SoftwareVersions": "syngo MR E11",
  "SpacingBetweenSlices": 2.7,
  "StationName": "AWP66112",
  "TaskName": "alignvideo",
  "TotalReadoutTime": 0.03969,
  "TxRefAmp": 222.625,
  "WipMemBlock": "5d315a34-da14-469d-80f3-1c37e7cf3efd||Sequence: R016 ve11c/master r/e634e98; Dec 19 2017 11:00:25 by eja",
  "dcmmeta_affine": [
    [-2.6826043128967285, -0.014982668682932854, -0.039055146276950836, 111.86400604248047],
    [-0.01820550300180912, 2.673297882080078, 0.22781087458133698, -103.58810424804688],
    [-0.03740474954247475, -0.22660645842552185, 2.6900887489318848, -32.05398178100586],
    [0.0, 0.0, 0.0, 1.0]
],
  "dcmmeta_reorient_transform": [
    [0.0, -1.0, 0.0, 81.0],
    [1.0, 0.0, 0.0, 0.0],
    [0.0, 0.0, 1.0, 0.0],
    [0.0, 0.0, 0.0, 1.0]
],
  "dcmmeta_shape": [82, 82, 56, 839],
  "dcmmeta_slice_dim": 2,
  "dcmmeta_version": 0.6,
  "global": {
    "const": {
      "AccessionNumber": "A003447",
      "AcquisitionMatrix": [82, 0, 0, 82],
      "AngioFlag": "N",
      "BitsAllocated": 16,
      "BitsStored": 16,
      "BodyPartExamined": "BRAIN",
      "Columns": 656,
      "EchoNumbers": 1,
      "EchoTime": 27.2,
      "EchoTrainLength": 82,
      "FlipAngle": 44.0,
      "HighBit": 15,
      "ImageOrientationPatient": [0.99987978352998, 0.00678568702379, -0.0139417696028, -0.0055844492287, 0.99641101742535, 0.08446240749706],
      "ImagePositionPatient": [-876.25783266983, -885.41050875383, -104.7099992218],
      "ImageType": [
        "ORIGINAL",
        "PRIMARY",
        "M",
        "MB",
        "ND",
        "NORM",
        "MOSAIC"
],
      "ImagedNucleus": "1H",
      "ImagingFrequency": 123.252136,
      "InPlanePhaseEncodingDirection": "COL",
      "MRAcquisitionType": "2D",
      "MagneticFieldStrength": 3.0,
      "Manufacturer": "SIEMENS",
      "ManufacturerModelName": "Prisma",
      "Modality": "MR",
      "NumberOfAverages": 1.0,
      "NumberOfPhaseEncodingSteps": 82,
      "PercentPhaseFieldOfView": 100.0,
      "PercentSampling": 100.0,
      "PerformedProcedureStepStartTime": "094706.347000",
      "PhotometricInterpretation": "MONOCHROME2",
      "PixelBandwidth": 3050.0,
      "PixelRepresentation": 0,
      "PixelSpacing": [2.6829268932343, 2.6829268932343],
      "ProtocolName": "func_run-01_task-alignvideo_acq-ap-mb8",
      "RepetitionTime": 460.0,
      "Rows": 656,
      "SAR": 0.08880173271452,
      "SamplesPerPixel": 1,
      "ScanOptions": "FS",
      "ScanningSequence": "EP",
      "SequenceName": "epfid2d1_82",
      "SequenceVariant": [
        "SK",
        "SS"
],
      "SeriesDescription": "func_run-01_task-alignvideo_acq-ap-mb8",
      "SeriesNumber": 20,
      "SeriesTime": "102142.121000",
      "SliceLocation": -42.294598791821,
      "SliceThickness": 2.7000000476837,
      "SmallestImagePixelValue": 0,
      "SoftwareVersions": "syngo MR E11",
      "SpacingBetweenSlices": 2.7000000110842,
      "SpecificCharacterSet": "ISO_IR 100",
      "StudyID": "4",
      "StudyTime": "094706.221000",
      "TransmitCoilName": "Body",
      "VariableFlipAngleFlag": "N",
      "WindowCenterWidthExplanation": "Algo1",
      "dBdt": 0.0},
    "slices": {}
  },
  "time": {
    "samples": {
      "AcquisitionNumber": [1, 2, 3, 4, 5, 6, 7, 8, 9, 10, 11, 12, 13, 14, 15, 16, 17, 18, 19, 20, 21, 22, 23, 24, 25, 26, 27, 28, 29, 30, 31, 32, 33, 34, 35, 36, 37, 38, 39, 40, 41, 42, 43, 44, 45, 46, 47, 48, 49, 50, 51, 52, 53, 54, 55, 56, 57, 58, 59, 60, 61, 62, 63, 64, 65, 66, 67, 68, 69, 70, 71, 72, 73, 74, 75, 76, 77, 78, 79, 80, 81, 82, 83, 84, 85, 86, 87, 88, 89, 90, 91, 92, 93, 94, 95, 96, 97, 98, 99, 100, 101, 102, 103, 104, 105, 106, 107, 108, 109, 110, 111, 112, 113, 114, 115, 116, 117, 118, 119, 120, 121, 122, 123, 124, 125, 126, 127, 128, 129, 130, 131, 132, 133, 134, 135, 136, 137, 138, 139, 140, 141, 142, 143, 144, 145, 146, 147, 148, 149, 150, 151, 152, 153, 154, 155, 156, 157, 158, 159, 160, 161, 162, 163, 164, 165, 166, 167, 168, 169, 170, 171, 172, 173, 174, 175, 176, 177, 178, 179, 180, 181, 182, 183, 184, 185, 186, 187, 188, 189, 190, 191, 192, 193, 194, 195, 196, 197, 198, 199, 200, 201, 202, 203, 204, 205, 206, 207, 208, 209, 210, 211, 212, 213, 214, 215, 216, 217, 218, 219, 220, 221, 222, 223, 224, 225, 226, 227, 228, 229, 230, 231, 232, 233, 234, 235, 236, 237, 238, 239, 240, 241, 242, 243, 244, 245, 246, 247, 248, 249, 250, 251, 252, 253, 254, 255, 256, 257, 258, 259, 260, 261, 262, 263, 264, 265, 266, 267, 268, 269, 270, 271, 272, 273, 274, 275, 276, 277, 278, 279, 280, 281, 282, 283, 284, 285, 286, 287, 288, 289, 290, 291, 292, 293, 294, 295, 296, 297, 298, 299, 300, 301, 302, 303, 304, 305, 306, 307, 308, 309, 310, 311, 312, 313, 314, 315, 316, 317, 318, 319, 320, 321, 322, 323, 324, 325, 326, 327, 328, 329, 330, 331, 332, 333, 334, 335, 336, 337, 338, 339, 340, 341, 342, 343, 344, 345, 346, 347, 348, 349, 350, 351, 352, 353, 354, 355, 356, 357, 358, 359, 360, 361, 362, 363, 364, 365, 366, 367, 368, 369, 370, 371, 372, 373, 374, 375, 376, 377, 378, 379, 380, 381, 382, 383, 384, 385, 386, 387, 388, 389, 390, 391, 392, 393, 394, 395, 396, 397, 398, 399, 400, 401, 402, 403, 404, 405, 406, 407, 408, 409, 410, 411, 412, 413, 414, 415, 416, 417, 418, 419, 420, 421, 422, 423, 424, 425, 426, 427, 428, 429, 430, 431, 432, 433, 434, 435, 436, 437, 438, 439, 440, 441, 442, 443, 444, 445, 446, 447, 448, 449, 450, 451, 452, 453, 454, 455, 456, 457, 458, 459, 460, 461, 462, 463, 464, 465, 466, 467, 468, 469, 470, 471, 472, 473, 474, 475, 476, 477, 478, 479, 480, 481, 482, 483, 484, 485, 486, 487, 488, 489, 490, 491, 492, 493, 494, 495, 496, 497, 498, 499, 500, 501, 502, 503, 504, 505, 506, 507, 508, 509, 510, 511, 512, 513, 514, 515, 516, 517, 518, 519, 520, 521, 522, 523, 524, 525, 526, 527, 528, 529, 530, 531, 532, 533, 534, 535, 536, 537, 538, 539, 540, 541, 542, 543, 544, 545, 546, 547, 548, 549, 550, 551, 552, 553, 554, 555, 556, 557, 558, 559, 560, 561, 562, 563, 564, 565, 566, 567, 568, 569, 570, 571, 572, 573, 574, 575, 576, 577, 578, 579, 580, 581, 582, 583, 584, 585, 586, 587, 588, 589, 590, 591, 592, 593, 594, 595, 596, 597, 598, 599, 600, 601, 602, 603, 604, 605, 606, 607, 608, 609, 610, 611, 612, 613, 614, 615, 616, 617, 618, 619, 620, 621, 622, 623, 624, 625, 626, 627, 628, 629, 630, 631, 632, 633, 634, 635, 636, 637, 638, 639, 640, 641, 642, 643, 644, 645, 646, 647, 648, 649, 650, 651, 652, 653, 654, 655, 656, 657, 658, 659, 660, 661, 662, 663, 664, 665, 666, 667, 668, 669, 670, 671, 672, 673, 674, 675, 676, 677, 678, 679, 680, 681, 682, 683, 684, 685, 686, 687, 688, 689, 690, 691, 692, 693, 694, 695, 696, 697, 698, 699, 700, 701, 702, 703, 704, 705, 706, 707, 708, 709, 710, 711, 712, 713, 714, 715, 716, 717, 718, 719, 720, 721, 722, 723, 724, 725, 726, 727, 728, 729, 730, 731, 732, 733, 734, 735, 736, 737, 738, 739, 740, 741, 742, 743, 744, 745, 746, 747, 748, 749, 750, 751, 752, 753, 754, 755, 756, 757, 758, 759, 760, 761, 762, 763, 764, 765, 766, 767, 768, 769, 770, 771, 772, 773, 774, 775, 776, 777, 778, 779, 780, 781, 782, 783, 784, 785, 786, 787, 788, 789, 790, 791, 792, 793, 794, 795, 796, 797, 798, 799, 800, 801, 802, 803, 804, 805, 806, 807, 808, 809, 810, 811, 812, 813, 814, 815, 816, 817, 818, 819, 820, 821, 822, 823, 824, 825, 826, 827, 828, 829, 830, 831, 832, 833, 834, 835, 836, 837, 838, 839],
      "AcquisitionTime": ["102117.080000", "102117.540000", "102118.000000", "102118.460000", "102118.920000", "102119.380000", "102119.840000", "102120.300000", "102120.760000", "102121.220000", "102121.680000", "102122.140000", "102122.600000", "102123.060000", "102123.520000", "102123.980000", "102124.440000", "102124.900000", "102125.360000", "102125.820000", "102126.280000", "102126.740000", "102127.200000", "102127.660000", "102128.120000", "102128.580000", "102129.040000", "102129.500000", "102129.960000", "102130.420000", "102130.880000", "102131.340000", "102131.800000", "102132.260000", "102132.720000", "102133.180000", "102133.640000", "102134.100000", "102134.560000", "102135.020000", "102135.480000", "102135.940000", "102136.400000", "102136.860000", "102137.320000", "102137.780000", "102138.240000", "102138.700000", "102139.160000", "102139.620000", "102140.080000", "102140.540000", "102141.000000", "102141.460000", "102141.920000", "102142.380000", "102142.840000", "102143.300000", "102143.760000", "102144.220000", "102144.680000", "102145.140000", "102145.600000", "102146.060000", "102146.520000", "102146.980000", "102147.440000", "102147.900000", "102148.360000", "102148.820000", "102149.280000", "102149.740000", "102150.200000", "102150.660000", "102151.120000", "102151.580000", "102152.040000", "102152.500000", "102152.960000", "102153.420000", "102153.880000", "102154.340000", "102154.800000", "102155.260000", "102155.720000", "102156.180000", "102156.640000", "102157.100000", "102157.560000", "102158.020000", "102158.480000", "102158.940000", "102159.400000", "102159.860000", "102200.320000", "102200.780000", "102201.240000", "102201.700000", "102202.160000", "102202.620000", "102203.080000", "102203.540000", "102204.000000", "102204.460000", "102204.920000", "102205.380000", "102205.840000", "102206.300000", "102206.760000", "102207.220000", "102207.680000", "102208.140000", "102208.600000", "102209.060000", "102209.520000", "102209.980000", "102210.440000", "102210.900000", "102211.360000", "102211.820000", "102212.280000", "102212.740000", "102213.200000", "102213.660000", "102214.120000", "102214.580000", "102215.040000", "102215.500000", "102215.960000", "102216.420000", "102216.880000", "102217.340000", "102217.800000", "102218.260000", "102218.720000", "102219.180000", "102219.640000", "102220.100000", "102220.560000", "102221.020000", "102221.480000", "102221.940000", "102222.400000", "102222.860000", "102223.320000", "102223.780000", "102224.240000", "102224.700000", "102225.160000", "102225.620000", "102226.080000", "102226.540000", "102227.000000", "102227.460000", "102227.920000", "102228.380000", "102228.840000", "102229.300000", "102229.760000", "102230.220000", "102230.680000", "102231.140000", "102231.600000", "102232.060000", "102232.520000", "102232.980000", "102233.440000", "102233.900000", "102234.360000", "102234.820000", "102235.280000", "102235.740000", "102236.200000", "102236.660000", "102237.120000", "102237.580000", "102238.040000", "102238.500000", "102238.960000", "102239.420000", "102239.880000", "102240.340000", "102240.800000", "102241.260000", "102241.720000", "102242.180000", "102242.640000", "102243.100000", "102243.560000", "102244.020000", "102244.480000", "102244.940000", "102245.400000", "102245.860000", "102246.320000", "102246.780000", "102247.240000", "102247.700000", "102248.160000", "102248.620000", "102249.080000", "102249.540000", "102250.000000", "102250.460000", "102250.920000", "102251.380000", "102251.840000", "102252.300000", "102252.760000", "102253.220000", "102253.680000", "102254.140000", "102254.600000", "102255.060000", "102255.520000", "102255.980000", "102256.440000", "102256.900000", "102257.360000", "102257.820000", "102258.280000", "102258.740000", "102259.200000", "102259.660000", "102300.120000", "102300.580000", "102301.040000", "102301.500000", "102301.960000", "102302.420000", "102302.880000", "102303.340000", "102303.800000", "102304.260000", "102304.720000", "102305.180000", "102305.640000", "102306.100000", "102306.560000", "102307.020000", "102307.480000", "102307.940000", "102308.400000", "102308.860000", "102309.320000", "102309.780000", "102310.240000", "102310.700000", "102311.160000", "102311.620000", "102312.080000", "102312.540000", "102313.000000", "102313.460000", "102313.920000", "102314.380000", "102314.840000", "102315.300000", "102315.760000", "102316.220000", "102316.680000", "102317.140000", "102317.600000", "102318.060000", "102318.520000", "102318.980000", "102319.440000", "102319.900000", "102320.360000", "102320.820000", "102321.280000", "102321.740000", "102322.200000", "102322.660000", "102323.120000", "102323.580000", "102324.040000", "102324.500000", "102324.960000", "102325.420000", "102325.880000", "102326.340000", "102326.800000", "102327.260000", "102327.720000", "102328.180000", "102328.640000", "102329.100000", "102329.560000", "102330.020000", "102330.480000", "102330.940000", "102331.400000", "102331.860000", "102332.320000", "102332.780000", "102333.240000", "102333.700000", "102334.160000", "102334.620000", "102335.080000", "102335.540000", "102336.000000", "102336.460000", "102336.920000", "102337.380000", "102337.840000", "102338.300000", "102338.760000", "102339.220000", "102339.680000", "102340.140000", "102340.600000", "102341.060000", "102341.520000", "102341.980000", "102342.440000", "102342.900000", "102343.360000", "102343.820000", "102344.280000", "102344.740000", "102345.200000", "102345.660000", "102346.120000", "102346.580000", "102347.040000", "102347.500000", "102347.960000", "102348.420000", "102348.880000", "102349.340000", "102349.800000", "102350.260000", "102350.720000", "102351.180000", "102351.640000", "102352.100000", "102352.560000", "102353.020000", "102353.480000", "102353.940000", "102354.400000", "102354.860000", "102355.320000", "102355.780000", "102356.240000", "102356.700000", "102357.160000", "102357.620000", "102358.080000", "102358.540000", "102359.000000", "102359.460000", "102359.920000", "102400.380000", "102400.840000", "102401.300000", "102401.760000", "102402.220000", "102402.680000", "102403.140000", "102403.600000", "102404.060000", "102404.520000", "102404.980000", "102405.440000", "102405.900000", "102406.360000", "102406.820000", "102407.280000", "102407.740000", "102408.200000", "102408.660000", "102409.120000", "102409.580000", "102410.040000", "102410.500000", "102410.960000", "102411.420000", "102411.880000", "102412.340000", "102412.800000", "102413.260000", "102413.720000", "102414.180000", "102414.640000", "102415.100000", "102415.560000", "102416.020000", "102416.480000", "102416.940000", "102417.400000", "102417.860000", "102418.320000", "102418.780000", "102419.240000", "102419.700000", "102420.160000", "102420.620000", "102421.080000", "102421.540000", "102422.000000", "102422.460000", "102422.920000", "102423.380000", "102423.840000", "102424.300000", "102424.760000", "102425.220000", "102425.680000", "102426.140000", "102426.600000", "102427.060000", "102427.520000", "102427.980000", "102428.440000", "102428.900000", "102429.360000", "102429.820000", "102430.280000", "102430.740000", "102431.200000", "102431.660000", "102432.120000", "102432.580000", "102433.040000", "102433.500000", "102433.960000", "102434.420000", "102434.880000", "102435.340000", "102435.800000", "102436.260000", "102436.720000", "102437.180000", "102437.640000", "102438.100000", "102438.560000", "102439.020000", "102439.480000", "102439.940000", "102440.400000", "102440.860000", "102441.320000", "102441.780000", "102442.240000", "102442.700000", "102443.160000", "102443.620000", "102444.080000", "102444.540000", "102445.000000", "102445.460000", "102445.920000", "102446.380000", "102446.840000", "102447.300000", "102447.760000", "102448.220000", "102448.680000", "102449.140000", "102449.600000", "102450.060000", "102450.520000", "102450.980000", "102451.440000", "102451.900000", "102452.360000", "102452.820000", "102453.280000", "102453.740000", "102454.200000", "102454.660000", "102455.120000", "102455.580000", "102456.040000", "102456.500000", "102456.960000", "102457.420000", "102457.880000", "102458.340000", "102458.800000", "102459.260000", "102459.720000", "102500.180000", "102500.640000", "102501.100000", "102501.560000", "102502.020000", "102502.480000", "102502.940000", "102503.400000", "102503.860000", "102504.320000", "102504.780000", "102505.240000", "102505.700000", "102506.160000", "102506.620000", "102507.080000", "102507.540000", "102508.000000", "102508.460000", "102508.920000", "102509.380000", "102509.840000", "102510.300000", "102510.760000", "102511.220000", "102511.680000", "102512.140000", "102512.600000", "102513.060000", "102513.520000", "102513.980000", "102514.440000", "102514.900000", "102515.360000", "102515.820000", "102516.280000", "102516.740000", "102517.200000", "102517.660000", "102518.120000", "102518.580000", "102519.040000", "102519.500000", "102519.960000", "102520.420000", "102520.880000", "102521.340000", "102521.800000", "102522.260000", "102522.720000", "102523.180000", "102523.640000", "102524.100000", "102524.560000", "102525.020000", "102525.480000", "102525.940000", "102526.400000", "102526.860000", "102527.320000", "102527.780000", "102528.240000", "102528.700000", "102529.160000", "102529.620000", "102530.080000", "102530.540000", "102531.000000", "102531.460000", "102531.920000", "102532.380000", "102532.840000", "102533.300000", "102533.760000", "102534.220000", "102534.680000", "102535.140000", "102535.600000", "102536.060000", "102536.520000", "102536.980000", "102537.440000", "102537.900000", "102538.360000", "102538.820000", "102539.280000", "102539.740000", "102540.200000", "102540.660000", "102541.120000", "102541.580000", "102542.040000", "102542.500000", "102542.960000", "102543.420000", "102543.880000", "102544.340000", "102544.800000", "102545.260000", "102545.720000", "102546.180000", "102546.640000", "102547.100000", "102547.560000", "102548.020000", "102548.480000", "102548.940000", "102549.400000", "102549.860000", "102550.320000", "102550.780000", "102551.240000", "102551.700000", "102552.160000", "102552.620000", "102553.080000", "102553.540000", "102554.000000", "102554.460000", "102554.920000", "102555.380000", "102555.840000", "102556.300000", "102556.760000", "102557.220000", "102557.680000", "102558.140000", "102558.600000", "102559.060000", "102559.520000", "102559.980000", "102600.440000", "102600.900000", "102601.360000", "102601.820000", "102602.280000", "102602.740000", "102603.200000", "102603.660000", "102604.120000", "102604.580000", "102605.040000", "102605.500000", "102605.960000", "102606.420000", "102606.880000", "102607.340000", "102607.800000", "102608.260000", "102608.720000", "102609.180000", "102609.640000", "102610.100000", "102610.560000", "102611.020000", "102611.480000", "102611.940000", "102612.400000", "102612.860000", "102613.320000", "102613.780000", "102614.240000", "102614.700000", "102615.160000", "102615.620000", "102616.080000", "102616.540000", "102617.000000", "102617.460000", "102617.920000", "102618.380000", "102618.840000", "102619.300000", "102619.760000", "102620.220000", "102620.680000", "102621.140000", "102621.600000", "102622.060000", "102622.520000", "102622.980000", "102623.440000", "102623.900000", "102624.360000", "102624.820000", "102625.280000", "102625.740000", "102626.200000", "102626.660000", "102627.120000", "102627.580000", "102628.040000", "102628.500000", "102628.960000", "102629.420000", "102629.880000", "102630.340000", "102630.800000", "102631.260000", "102631.720000", "102632.180000", "102632.640000", "102633.100000", "102633.560000", "102634.020000", "102634.480000", "102634.940000", "102635.400000", "102635.860000", "102636.320000", "102636.780000", "102637.240000", "102637.700000", "102638.160000", "102638.620000", "102639.080000", "102639.540000", "102640.000000", "102640.460000", "102640.920000", "102641.380000", "102641.840000", "102642.300000", "102642.760000", "102643.220000", "102643.680000", "102644.140000", "102644.600000", "102645.060000", "102645.520000", "102645.980000", "102646.440000", "102646.900000", "102647.360000", "102647.820000", "102648.280000", "102648.740000", "102649.200000", "102649.660000", "102650.120000", "102650.580000", "102651.040000", "102651.500000", "102651.960000", "102652.420000", "102652.880000", "102653.340000", "102653.800000", "102654.260000", "102654.720000", "102655.180000", "102655.640000", "102656.100000", "102656.560000", "102657.020000", "102657.480000", "102657.940000", "102658.400000", "102658.860000", "102659.320000", "102659.780000", "102700.240000", "102700.700000", "102701.160000", "102701.620000", "102702.080000", "102702.540000", "102703.000000", "102703.460000", "102703.920000", "102704.380000", "102704.840000", "102705.300000", "102705.760000", "102706.220000", "102706.680000", "102707.140000", "102707.600000", "102708.060000", "102708.520000", "102708.980000", "102709.440000", "102709.900000", "102710.360000", "102710.820000", "102711.280000", "102711.740000", "102712.200000", "102712.660000", "102713.120000", "102713.580000", "102714.040000", "102714.500000", "102714.960000", "102715.420000", "102715.880000", "102716.340000", "102716.800000", "102717.260000", "102717.720000", "102718.180000", "102718.640000", "102719.100000", "102719.560000", "102720.020000", "102720.480000", "102720.940000", "102721.400000", "102721.860000", "102722.320000", "102722.780000", "102723.240000", "102723.700000", "102724.160000", "102724.620000", "102725.080000", "102725.540000", "102726.000000", "102726.460000", "102726.920000", "102727.380000", "102727.840000", "102728.300000", "102728.760000", "102729.220000", "102729.680000", "102730.140000", "102730.600000", "102731.060000", "102731.520000", "102731.980000", "102732.440000", "102732.900000", "102733.360000", "102733.820000", "102734.280000", "102734.740000", "102735.200000", "102735.660000", "102736.120000", "102736.580000", "102737.040000", "102737.500000", "102737.960000", "102738.420000", "102738.880000", "102739.340000", "102739.800000", "102740.260000", "102740.720000", "102741.180000", "102741.640000", "102742.100000", "102742.560000"],
