{
  "AcquisitionMatrixPE": 82,
  "AcquisitionNumber": 1,
  "AcquisitionTime": "10:51:53.400000",
  "BandwidthPerPixelPhaseEncode": 24.888,
  "BaseResolution": 82,
  "BodyPartExamined": "BRAIN",
  "ConsistencyInfo": "N4_VE11C_LATEST_20160120",
  "ConversionSoftware": "dcm2niix",
  "ConversionSoftwareVersion": "v1.0.20201102",
  "DerivedVendorReportedEchoSpacing": 0.00049,
  "DeviceSerialNumber": "66112",
  "DwellTime": 2e-06,
  "EchoTime": 0.0272,
  "EchoTrainLength": 82,
  "EffectiveEchoSpacing": 0.00049,
  "FlipAngle": 44,
  "ImageComments": "Unaliased MB8/PE3",
  "ImageOrientationPatientDICOM": [0.99988, 0.00678569, -0.0139418, -0.00558445, 0.996411, 0.0844624],
  "ImageType": [
    "ORIGINAL",
    "PRIMARY",
    "M",
    "MB",
    "ND",
    "NORM",
    "MOSAIC"
],
  "ImagingFrequency": 123.252,
  "InPlanePhaseEncodingDirectionDICOM": "COL",
  "InstitutionAddress": "Maynard 3,Hanover,NH,US,03755",
  "InstitutionName": "Dartmouth College - PBS",
  "InstitutionalDepartmentName": "Department",
  "MRAcquisitionType": "2D",
  "MagneticFieldStrength": 3,
  "Manufacturer": "Siemens",
  "ManufacturersModelName": "Prisma",
  "Modality": "MR",
  "MultibandAccelerationFactor": 8,
  "PartialFourier": 1,
  "PatientPosition": "HFS",
  "PercentPhaseFOV": 100,
  "PercentSampling": 100,
  "PhaseEncodingDirection": "j-",
  "PhaseEncodingSteps": 82,
  "PhaseResolution": 1,
  "PixelBandwidth": 3050,
  "ProcedureStepDescription": "Wager_Wager^1076_spacetop",
  "ProtocolName": "func_run-04_task-alignvideo_acq-ap-mb8",
  "PulseSequenceDetails": "%CustomerSeq%\\cmrr_mbep2d_bold",
  "ReceiveCoilActiveElements": "HEA;HEP",
  "ReceiveCoilName": "Head_32",
  "ReconMatrixPE": 82,
  "RepetitionTime": 0.46,
  "SAR": 0.0888487,
  "ScanOptions": "FS",
  "ScanningSequence": "EP",
  "SequenceName": "epfid2d1_82",
  "SequenceVariant": "SK\\SS",
  "SeriesDescription": "func_run-04_task-alignvideo_acq-ap-mb8",
  "SeriesNumber": 26,
  "ShimSetting": [4140, -7748, -7256, 580, -93, -151, 46, 108],
  "SliceThickness": 2.7,
  "SliceTiming": [0, 0.2525, 0.0625, 0.315, 0.125, 0.3775, 0.1875, 0, 0.2525, 0.0625, 0.315, 0.125, 0.3775, 0.1875, 0, 0.2525, 0.0625, 0.315, 0.125, 0.3775, 0.1875, 0, 0.2525, 0.0625, 0.315, 0.125, 0.3775, 0.1875, 0, 0.2525, 0.0625, 0.315, 0.125, 0.3775, 0.1875, 0, 0.2525, 0.0625, 0.315, 0.125, 0.3775, 0.1875, 0, 0.2525, 0.0625, 0.315, 0.125, 0.3775, 0.1875, 0, 0.2525, 0.0625, 0.315, 0.125, 0.3775, 0.1875],
  "SoftwareVersions": "syngo MR E11",
  "SpacingBetweenSlices": 2.7,
  "StationName": "AWP66112",
  "TaskName": "alignvideo",
  "TotalReadoutTime": 0.03969,
  "TxRefAmp": 222.625,
  "WipMemBlock": "1f29d7da-4f43-454a-81db-62a2a95e258a||Sequence: R016 ve11c/master r/e634e98; Dec 19 2017 11:00:25 by eja",
  "dcmmeta_affine": [
    [-2.6826043128967285, -0.014982668682932854, -0.039055146276950836, 111.86400604248047],
    [-0.01820550300180912, 2.673297882080078, 0.22781087458133698, -103.58810424804688],
    [-0.03740474954247475, -0.22660645842552185, 2.6900887489318848, -32.05398178100586],
    [0.0, 0.0, 0.0, 1.0]
],
  "dcmmeta_reorient_transform": [
    [0.0, -1.0, 0.0, 81.0],
    [1.0, 0.0, 0.0, 0.0],
    [0.0, 0.0, 1.0, 0.0],
    [0.0, 0.0, 0.0, 1.0]
],
  "dcmmeta_shape": [82, 82, 56, 914],
  "dcmmeta_slice_dim": 2,
  "dcmmeta_version": 0.6,
  "global": {
    "const": {
      "AccessionNumber": "A003447",
      "AcquisitionMatrix": [82, 0, 0, 82],
      "AngioFlag": "N",
      "BitsAllocated": 16,
      "BitsStored": 16,
      "BodyPartExamined": "BRAIN",
      "Columns": 656,
      "EchoNumbers": 1,
      "EchoTime": 27.2,
      "EchoTrainLength": 82,
      "FlipAngle": 44.0,
      "HighBit": 15,
      "ImageOrientationPatient": [0.99987978352998, 0.00678568702379, -0.0139417696028, -0.0055844492287, 0.99641101742535, 0.08446240749706],
      "ImagePositionPatient": [-876.25783266983, -885.41050875383, -104.7099992218],
      "ImageType": [
        "ORIGINAL",
        "PRIMARY",
        "M",
        "MB",
        "ND",
        "NORM",
        "MOSAIC"
],
      "ImagedNucleus": "1H",
      "ImagingFrequency": 123.25215,
      "InPlanePhaseEncodingDirection": "COL",
      "MRAcquisitionType": "2D",
      "MagneticFieldStrength": 3.0,
      "Manufacturer": "SIEMENS",
      "ManufacturerModelName": "Prisma",
      "Modality": "MR",
      "NumberOfAverages": 1.0,
      "NumberOfPhaseEncodingSteps": 82,
      "PercentPhaseFieldOfView": 100.0,
      "PercentSampling": 100.0,
      "PerformedProcedureStepStartTime": "094706.347000",
      "PhotometricInterpretation": "MONOCHROME2",
      "PixelBandwidth": 3050.0,
      "PixelRepresentation": 0,
      "PixelSpacing": [2.6829268932343, 2.6829268932343],
      "ProtocolName": "func_run-04_task-alignvideo_acq-ap-mb8",
      "RepetitionTime": 460.0,
      "Rows": 656,
      "SAR": 0.08884874889651,
      "SamplesPerPixel": 1,
      "ScanOptions": "FS",
      "ScanningSequence": "EP",
      "SequenceName": "epfid2d1_82",
      "SequenceVariant": [
        "SK",
        "SS"
],
      "SeriesDescription": "func_run-04_task-alignvideo_acq-ap-mb8",
      "SeriesNumber": 26,
      "SeriesTime": "105222.139000",
      "SliceLocation": -42.294598791821,
      "SliceThickness": 2.7000000476837,
      "SmallestImagePixelValue": 0,
      "SoftwareVersions": "syngo MR E11",
      "SpacingBetweenSlices": 2.7000000110842,
      "SpecificCharacterSet": "ISO_IR 100",
      "StudyID": "4",
      "StudyTime": "094706.221000",
      "TransmitCoilName": "Body",
      "VariableFlipAngleFlag": "N",
      "WindowCenterWidthExplanation": "Algo1",
      "dBdt": 0.0},
    "slices": {}
  },
  "time": {
    "samples": {
      "AcquisitionNumber": [1, 2, 3, 4, 5, 6, 7, 8, 9, 10, 11, 12, 13, 14, 15, 16, 17, 18, 19, 20, 21, 22, 23, 24, 25, 26, 27, 28, 29, 30, 31, 32, 33, 34, 35, 36, 37, 38, 39, 40, 41, 42, 43, 44, 45, 46, 47, 48, 49, 50, 51, 52, 53, 54, 55, 56, 57, 58, 59, 60, 61, 62, 63, 64, 65, 66, 67, 68, 69, 70, 71, 72, 73, 74, 75, 76, 77, 78, 79, 80, 81, 82, 83, 84, 85, 86, 87, 88, 89, 90, 91, 92, 93, 94, 95, 96, 97, 98, 99, 100, 101, 102, 103, 104, 105, 106, 107, 108, 109, 110, 111, 112, 113, 114, 115, 116, 117, 118, 119, 120, 121, 122, 123, 124, 125, 126, 127, 128, 129, 130, 131, 132, 133, 134, 135, 136, 137, 138, 139, 140, 141, 142, 143, 144, 145, 146, 147, 148, 149, 150, 151, 152, 153, 154, 155, 156, 157, 158, 159, 160, 161, 162, 163, 164, 165, 166, 167, 168, 169, 170, 171, 172, 173, 174, 175, 176, 177, 178, 179, 180, 181, 182, 183, 184, 185, 186, 187, 188, 189, 190, 191, 192, 193, 194, 195, 196, 197, 198, 199, 200, 201, 202, 203, 204, 205, 206, 207, 208, 209, 210, 211, 212, 213, 214, 215, 216, 217, 218, 219, 220, 221, 222, 223, 224, 225, 226, 227, 228, 229, 230, 231, 232, 233, 234, 235, 236, 237, 238, 239, 240, 241, 242, 243, 244, 245, 246, 247, 248, 249, 250, 251, 252, 253, 254, 255, 256, 257, 258, 259, 260, 261, 262, 263, 264, 265, 266, 267, 268, 269, 270, 271, 272, 273, 274, 275, 276, 277, 278, 279, 280, 281, 282, 283, 284, 285, 286, 287, 288, 289, 290, 291, 292, 293, 294, 295, 296, 297, 298, 299, 300, 301, 302, 303, 304, 305, 306, 307, 308, 309, 310, 311, 312, 313, 314, 315, 316, 317, 318, 319, 320, 321, 322, 323, 324, 325, 326, 327, 328, 329, 330, 331, 332, 333, 334, 335, 336, 337, 338, 339, 340, 341, 342, 343, 344, 345, 346, 347, 348, 349, 350, 351, 352, 353, 354, 355, 356, 357, 358, 359, 360, 361, 362, 363, 364, 365, 366, 367, 368, 369, 370, 371, 372, 373, 374, 375, 376, 377, 378, 379, 380, 381, 382, 383, 384, 385, 386, 387, 388, 389, 390, 391, 392, 393, 394, 395, 396, 397, 398, 399, 400, 401, 402, 403, 404, 405, 406, 407, 408, 409, 410, 411, 412, 413, 414, 415, 416, 417, 418, 419, 420, 421, 422, 423, 424, 425, 426, 427, 428, 429, 430, 431, 432, 433, 434, 435, 436, 437, 438, 439, 440, 441, 442, 443, 444, 445, 446, 447, 448, 449, 450, 451, 452, 453, 454, 455, 456, 457, 458, 459, 460, 461, 462, 463, 464, 465, 466, 467, 468, 469, 470, 471, 472, 473, 474, 475, 476, 477, 478, 479, 480, 481, 482, 483, 484, 485, 486, 487, 488, 489, 490, 491, 492, 493, 494, 495, 496, 497, 498, 499, 500, 501, 502, 503, 504, 505, 506, 507, 508, 509, 510, 511, 512, 513, 514, 515, 516, 517, 518, 519, 520, 521, 522, 523, 524, 525, 526, 527, 528, 529, 530, 531, 532, 533, 534, 535, 536, 537, 538, 539, 540, 541, 542, 543, 544, 545, 546, 547, 548, 549, 550, 551, 552, 553, 554, 555, 556, 557, 558, 559, 560, 561, 562, 563, 564, 565, 566, 567, 568, 569, 570, 571, 572, 573, 574, 575, 576, 577, 578, 579, 580, 581, 582, 583, 584, 585, 586, 587, 588, 589, 590, 591, 592, 593, 594, 595, 596, 597, 598, 599, 600, 601, 602, 603, 604, 605, 606, 607, 608, 609, 610, 611, 612, 613, 614, 615, 616, 617, 618, 619, 620, 621, 622, 623, 624, 625, 626, 627, 628, 629, 630, 631, 632, 633, 634, 635, 636, 637, 638, 639, 640, 641, 642, 643, 644, 645, 646, 647, 648, 649, 650, 651, 652, 653, 654, 655, 656, 657, 658, 659, 660, 661, 662, 663, 664, 665, 666, 667, 668, 669, 670, 671, 672, 673, 674, 675, 676, 677, 678, 679, 680, 681, 682, 683, 684, 685, 686, 687, 688, 689, 690, 691, 692, 693, 694, 695, 696, 697, 698, 699, 700, 701, 702, 703, 704, 705, 706, 707, 708, 709, 710, 711, 712, 713, 714, 715, 716, 717, 718, 719, 720, 721, 722, 723, 724, 725, 726, 727, 728, 729, 730, 731, 732, 733, 734, 735, 736, 737, 738, 739, 740, 741, 742, 743, 744, 745, 746, 747, 748, 749, 750, 751, 752, 753, 754, 755, 756, 757, 758, 759, 760, 761, 762, 763, 764, 765, 766, 767, 768, 769, 770, 771, 772, 773, 774, 775, 776, 777, 778, 779, 780, 781, 782, 783, 784, 785, 786, 787, 788, 789, 790, 791, 792, 793, 794, 795, 796, 797, 798, 799, 800, 801, 802, 803, 804, 805, 806, 807, 808, 809, 810, 811, 812, 813, 814, 815, 816, 817, 818, 819, 820, 821, 822, 823, 824, 825, 826, 827, 828, 829, 830, 831, 832, 833, 834, 835, 836, 837, 838, 839, 840, 841, 842, 843, 844, 845, 846, 847, 848, 849, 850, 851, 852, 853, 854, 855, 856, 857, 858, 859, 860, 861, 862, 863, 864, 865, 866, 867, 868, 869, 870, 871, 872, 873, 874, 875, 876, 877, 878, 879, 880, 881, 882, 883, 884, 885, 886, 887, 888, 889, 890, 891, 892, 893, 894, 895, 896, 897, 898, 899, 900, 901, 902, 903, 904, 905, 906, 907, 908, 909, 910, 911, 912, 913, 914],
      "AcquisitionTime": ["105153.400000", "105153.860000", "105154.320000", "105154.780000", "105155.240000", "105155.700000", "105156.160000", "105156.620000", "105157.080000", "105157.540000", "105158.000000", "105158.460000", "105158.920000", "105159.380000", "105159.840000", "105200.300000", "105200.760000", "105201.220000", "105201.680000", "105202.140000", "105202.600000", "105203.060000", "105203.520000", "105203.980000", "105204.440000", "105204.900000", "105205.360000", "105205.820000", "105206.280000", "105206.740000", "105207.200000", "105207.660000", "105208.120000", "105208.580000", "105209.040000", "105209.500000", "105209.960000", "105210.420000", "105210.880000", "105211.340000", "105211.800000", "105212.260000", "105212.720000", "105213.180000", "105213.640000", "105214.100000", "105214.560000", "105215.020000", "105215.480000", "105215.940000", "105216.400000", "105216.860000", "105217.320000", "105217.780000", "105218.240000", "105218.700000", "105219.160000", "105219.620000", "105220.080000", "105220.540000", "105221.000000", "105221.460000", "105221.920000", "105222.380000", "105222.840000", "105223.300000", "105223.760000", "105224.220000", "105224.680000", "105225.140000", "105225.600000", "105226.060000", "105226.520000", "105226.980000", "105227.440000", "105227.900000", "105228.360000", "105228.820000", "105229.280000", "105229.740000", "105230.200000", "105230.660000", "105231.120000", "105231.580000", "105232.040000", "105232.500000", "105232.960000", "105233.420000", "105233.880000", "105234.340000", "105234.800000", "105235.260000", "105235.720000", "105236.180000", "105236.640000", "105237.100000", "105237.560000", "105238.020000", "105238.480000", "105238.940000", "105239.400000", "105239.860000", "105240.320000", "105240.780000", "105241.240000", "105241.700000", "105242.160000", "105242.620000", "105243.080000", "105243.540000", "105244.000000", "105244.460000", "105244.920000", "105245.380000", "105245.840000", "105246.300000", "105246.760000", "105247.220000", "105247.680000", "105248.140000", "105248.600000", "105249.060000", "105249.520000", "105249.980000", "105250.440000", "105250.900000", "105251.360000", "105251.820000", "105252.280000", "105252.740000", "105253.200000", "105253.660000", "105254.120000", "105254.580000", "105255.040000", "105255.500000", "105255.960000", "105256.420000", "105256.880000", "105257.340000", "105257.800000", "105258.260000", "105258.720000", "105259.180000", "105259.640000", "105300.100000", "105300.560000", "105301.020000", "105301.480000", "105301.940000", "105302.400000", "105302.860000", "105303.320000", "105303.780000", "105304.240000", "105304.700000", "105305.160000", "105305.620000", "105306.080000", "105306.540000", "105307.000000", "105307.460000", "105307.920000", "105308.380000", "105308.840000", "105309.300000", "105309.760000", "105310.220000", "105310.680000", "105311.140000", "105311.600000", "105312.060000", "105312.520000", "105312.980000", "105313.440000", "105313.900000", "105314.360000", "105314.820000", "105315.280000", "105315.740000", "105316.200000", "105316.660000", "105317.120000", "105317.580000", "105318.040000", "105318.500000", "105318.960000", "105319.420000", "105319.880000", "105320.340000", "105320.800000", "105321.260000", "105321.720000", "105322.180000", "105322.640000", "105323.100000", "105323.560000", "105324.020000", "105324.480000", "105324.940000", "105325.400000", "105325.860000", "105326.320000", "105326.780000", "105327.240000", "105327.700000", "105328.160000", "105328.620000", "105329.080000", "105329.540000", "105330.000000", "105330.460000", "105330.920000", "105331.380000", "105331.840000", "105332.300000", "105332.760000", "105333.220000", "105333.680000", "105334.140000", "105334.600000", "105335.060000", "105335.520000", "105335.980000", "105336.440000", "105336.900000", "105337.360000", "105337.820000", "105338.280000", "105338.740000", "105339.200000", "105339.660000", "105340.120000", "105340.580000", "105341.040000", "105341.500000", "105341.960000", "105342.420000", "105342.880000", "105343.340000", "105343.800000", "105344.260000", "105344.720000", "105345.180000", "105345.640000", "105346.100000", "105346.560000", "105347.020000", "105347.480000", "105347.940000", "105348.400000", "105348.860000", "105349.320000", "105349.780000", "105350.240000", "105350.700000", "105351.160000", "105351.620000", "105352.080000", "105352.540000", "105353.000000", "105353.460000", "105353.920000", "105354.380000", "105354.840000", "105355.300000", "105355.760000", "105356.220000", "105356.680000", "105357.140000", "105357.600000", "105358.060000", "105358.520000", "105358.980000", "105359.440000", "105359.900000", "105400.360000", "105400.820000", "105401.280000", "105401.740000", "105402.200000", "105402.660000", "105403.120000", "105403.580000", "105404.040000", "105404.500000", "105404.960000", "105405.420000", "105405.880000", "105406.340000", "105406.800000", "105407.260000", "105407.720000", "105408.180000", "105408.640000", "105409.100000", "105409.560000", "105410.020000", "105410.480000", "105410.940000", "105411.400000", "105411.860000", "105412.320000", "105412.780000", "105413.240000", "105413.700000", "105414.160000", "105414.620000", "105415.080000", "105415.540000", "105416.000000", "105416.460000", "105416.920000", "105417.380000", "105417.840000", "105418.300000", "105418.760000", "105419.220000", "105419.680000", "105420.140000", "105420.600000", "105421.060000", "105421.520000", "105421.980000", "105422.440000", "105422.900000", "105423.360000", "105423.820000", "105424.280000", "105424.740000", "105425.200000", "105425.660000", "105426.120000", "105426.580000", "105427.040000", "105427.500000", "105427.960000", "105428.420000", "105428.880000", "105429.340000", "105429.800000", "105430.260000", "105430.720000", "105431.180000", "105431.640000", "105432.100000", "105432.560000", "105433.020000", "105433.480000", "105433.940000", "105434.400000", "105434.860000", "105435.320000", "105435.780000", "105436.240000", "105436.700000", "105437.160000", "105437.620000", "105438.080000", "105438.540000", "105439.000000", "105439.460000", "105439.920000", "105440.380000", "105440.840000", "105441.300000", "105441.760000", "105442.220000", "105442.680000", "105443.140000", "105443.600000", "105444.060000", "105444.520000", "105444.980000", "105445.440000", "105445.900000", "105446.360000", "105446.820000", "105447.280000", "105447.740000", "105448.200000", "105448.660000", "105449.120000", "105449.580000", "105450.040000", "105450.500000", "105450.960000", "105451.420000", "105451.880000", "105452.340000", "105452.800000", "105453.260000", "105453.720000", "105454.180000", "105454.640000", "105455.100000", "105455.560000", "105456.020000", "105456.480000", "105456.940000", "105457.400000", "105457.860000", "105458.320000", "105458.780000", "105459.240000", "105459.700000", "105500.160000", "105500.620000", "105501.080000", "105501.540000", "105502.000000", "105502.460000", "105502.920000", "105503.380000", "105503.840000", "105504.300000", "105504.760000", "105505.220000", "105505.680000", "105506.140000", "105506.600000", "105507.060000", "105507.520000", "105507.980000", "105508.440000", "105508.900000", "105509.360000", "105509.820000", "105510.280000", "105510.740000", "105511.200000", "105511.660000", "105512.120000", "105512.580000", "105513.040000", "105513.500000", "105513.960000", "105514.420000", "105514.880000", "105515.340000", "105515.800000", "105516.260000", "105516.720000", "105517.180000", "105517.640000", "105518.100000", "105518.560000", "105519.020000", "105519.480000", "105519.940000", "105520.400000", "105520.860000", "105521.320000", "105521.780000", "105522.240000", "105522.700000", "105523.160000", "105523.620000", "105524.080000", "105524.540000", "105525.000000", "105525.460000", "105525.920000", "105526.380000", "105526.840000", "105527.300000", "105527.760000", "105528.220000", "105528.680000", "105529.140000", "105529.600000", "105530.060000", "105530.520000", "105530.980000", "105531.440000", "105531.900000", "105532.360000", "105532.820000", "105533.280000", "105533.740000", "105534.200000", "105534.660000", "105535.120000", "105535.580000", "105536.040000", "105536.500000", "105536.960000", "105537.420000", "105537.880000", "105538.340000", "105538.800000", "105539.260000", "105539.720000", "105540.180000", "105540.640000", "105541.100000", "105541.560000", "105542.020000", "105542.480000", "105542.940000", "105543.400000", "105543.860000", "105544.320000", "105544.780000", "105545.240000", "105545.700000", "105546.160000", "105546.620000", "105547.080000", "105547.540000", "105548.000000", "105548.460000", "105548.920000", "105549.380000", "105549.840000", "105550.300000", "105550.760000", "105551.220000", "105551.680000", "105552.140000", "105552.600000", "105553.060000", "105553.520000", "105553.980000", "105554.440000", "105554.900000", "105555.360000", "105555.820000", "105556.280000", "105556.740000", "105557.200000", "105557.660000", "105558.120000", "105558.580000", "105559.040000", "105559.500000", "105559.960000", "105600.420000", "105600.880000", "105601.340000", "105601.800000", "105602.260000", "105602.720000", "105603.180000", "105603.640000", "105604.100000", "105604.560000", "105605.020000", "105605.480000", "105605.940000", "105606.400000", "105606.860000", "105607.320000", "105607.780000", "105608.240000", "105608.700000", "105609.160000", "105609.620000", "105610.080000", "105610.540000", "105611.000000", "105611.460000", "105611.920000", "105612.380000", "105612.840000", "105613.300000", "105613.760000", "105614.220000", "105614.680000", "105615.140000", "105615.600000", "105616.060000", "105616.520000", "105616.980000", "105617.440000", "105617.900000", "105618.360000", "105618.820000", "105619.280000", "105619.740000", "105620.200000", "105620.660000", "105621.120000", "105621.580000", "105622.040000", "105622.500000", "105622.960000", "105623.420000", "105623.880000", "105624.340000", "105624.800000", "105625.260000", "105625.720000", "105626.180000", "105626.640000", "105627.100000", "105627.560000", "105628.020000", "105628.480000", "105628.940000", "105629.400000", "105629.860000", "105630.320000", "105630.780000", "105631.240000", "105631.700000", "105632.160000", "105632.620000", "105633.080000", "105633.540000", "105634.000000", "105634.460000", "105634.920000", "105635.380000", "105635.840000", "105636.300000", "105636.760000", "105637.220000", "105637.680000", "105638.140000", "105638.600000", "105639.060000", "105639.520000", "105639.980000", "105640.440000", "105640.900000", "105641.360000", "105641.820000", "105642.280000", "105642.740000", "105643.200000", "105643.660000", "105644.120000", "105644.580000", "105645.040000", "105645.500000", "105645.960000", "105646.420000", "105646.880000", "105647.340000", "105647.800000", "105648.260000", "105648.720000", "105649.180000", "105649.640000", "105650.100000", "105650.560000", "105651.020000", "105651.480000", "105651.940000", "105652.400000", "105652.860000", "105653.320000", "105653.780000", "105654.240000", "105654.700000", "105655.160000", "105655.620000", "105656.080000", "105656.540000", "105657.000000", "105657.460000", "105657.920000", "105658.380000", "105658.840000", "105659.300000", "105659.760000", "105700.220000", "105700.680000", "105701.140000", "105701.600000", "105702.060000", "105702.520000", "105702.980000", "105703.440000", "105703.900000", "105704.360000", "105704.820000", "105705.280000", "105705.740000", "105706.200000", "105706.660000", "105707.120000", "105707.580000", "105708.040000", "105708.500000", "105708.960000", "105709.420000", "105709.880000", "105710.340000", "105710.800000", "105711.260000", "105711.720000", "105712.180000", "105712.640000", "105713.100000", "105713.560000", "105714.020000", "105714.480000", "105714.940000", "105715.400000", "105715.860000", "105716.320000", "105716.780000", "105717.240000", "105717.700000", "105718.160000", "105718.620000", "105719.080000", "105719.540000", "105720.000000", "105720.460000", "105720.920000", "105721.380000", "105721.840000", "105722.300000", "105722.760000", "105723.220000", "105723.680000", "105724.140000", "105724.600000", "105725.060000", "105725.520000", "105725.980000", "105726.440000", "105726.900000", "105727.360000", "105727.820000", "105728.280000", "105728.740000", "105729.200000", "105729.660000", "105730.120000", "105730.580000", "105731.040000", "105731.500000", "105731.960000", "105732.420000", "105732.880000", "105733.340000", "105733.800000", "105734.260000", "105734.720000", "105735.180000", "105735.640000", "105736.100000", "105736.560000", "105737.020000", "105737.480000", "105737.940000", "105738.400000", "105738.860000", "105739.320000", "105739.780000", "105740.240000", "105740.700000", "105741.160000", "105741.620000", "105742.080000", "105742.540000", "105743.000000", "105743.460000", "105743.920000", "105744.380000", "105744.840000", "105745.300000", "105745.760000", "105746.220000", "105746.680000", "105747.140000", "105747.600000", "105748.060000", "105748.520000", "105748.980000", "105749.440000", "105749.900000", "105750.360000", "105750.820000", "105751.280000", "105751.740000", "105752.200000", "105752.660000", "105753.120000", "105753.580000", "105754.040000", "105754.500000", "105754.960000", "105755.420000", "105755.880000", "105756.340000", "105756.800000", "105757.260000", "105757.720000", "105758.180000", "105758.640000", "105759.100000", "105759.560000", "105800.020000", "105800.480000", "105800.940000", "105801.400000", "105801.860000", "105802.320000", "105802.780000", "105803.240000", "105803.700000", "105804.160000", "105804.620000", "105805.080000", "105805.540000", "105806.000000", "105806.460000", "105806.920000", "105807.380000", "105807.840000", "105808.300000", "105808.760000", "105809.220000", "105809.680000", "105810.140000", "105810.600000", "105811.060000", "105811.520000", "105811.980000", "105812.440000", "105812.900000", "105813.360000", "105813.820000", "105814.280000", "105814.740000", "105815.200000", "105815.660000", "105816.120000", "105816.580000", "105817.040000", "105817.500000", "105817.960000", "105818.420000", "105818.880000", "105819.340000", "105819.800000", "105820.260000", "105820.720000", "105821.180000", "105821.640000", "105822.100000", "105822.560000", "105823.020000", "105823.480000", "105823.940000", "105824.400000", "105824.860000", "105825.320000", "105825.780000", "105826.240000", "105826.700000", "105827.160000", "105827.620000", "105828.080000", "105828.540000", "105829.000000", "105829.460000", "105829.920000", "105830.380000", "105830.840000", "105831.300000", "105831.760000", "105832.220000", "105832.680000", "105833.140000", "105833.600000", "105834.060000", "105834.520000", "105834.980000", "105835.440000", "105835.900000", "105836.360000", "105836.820000", "105837.280000", "105837.740000", "105838.200000", "105838.660000", "105839.120000", "105839.580000", "105840.040000", "105840.500000", "105840.960000", "105841.420000", "105841.880000", "105842.340000", "105842.800000", "105843.260000", "105843.720000", "105844.180000", "105844.640000", "105845.100000", "105845.560000", "105846.020000", "105846.480000", "105846.940000", "105847.400000", "105847.860000", "105848.320000", "105848.780000", "105849.240000", "105849.700000", "105850.160000", "105850.620000", "105851.080000", "105851.540000", "105852.000000", "105852.460000", "105852.920000", "105853.380000"],
