{
  "AcquisitionMatrixPE": 82,
  "AcquisitionNumber": 1,
  "AcquisitionTime": "14:16:44.827500",
  "BandwidthPerPixelPhaseEncode": 24.888,
  "BaseResolution": 82,
  "BodyPartExamined": "BRAIN",
  "ConsistencyInfo": "N4_VE11C_LATEST_20160120",
  "ConversionSoftware": "dcm2niix",
  "ConversionSoftwareVersion": "v1.0.20201102",
  "DerivedVendorReportedEchoSpacing": 0.00049,
  "DeviceSerialNumber": "66112",
  "DwellTime": 2e-06,
  "EchoTime": 0.0272,
  "EchoTrainLength": 82,
  "EffectiveEchoSpacing": 0.00049,
  "FlipAngle": 44,
  "ImageComments": "Unaliased MB8/PE3",
  "ImageOrientationPatientDICOM": [0.991787, 0.0733625, 0.104765, -0.0691786, 0.996676, -0.0430311],
  "ImageType": [
    "ORIGINAL",
    "PRIMARY",
    "M",
    "MB",
    "ND",
    "NORM",
    "MOSAIC"
],
  "ImagingFrequency": 123.252,
  "InPlanePhaseEncodingDirectionDICOM": "COL",
  "InstitutionAddress": "Maynard 3,Hanover,NH,US,03755",
  "InstitutionName": "Dartmouth College - PBS",
  "InstitutionalDepartmentName": "Department",
  "MRAcquisitionType": "2D",
  "MagneticFieldStrength": 3,
  "Manufacturer": "Siemens",
  "ManufacturersModelName": "Prisma",
  "Modality": "MR",
  "MultibandAccelerationFactor": 8,
  "PartialFourier": 1,
  "PatientPosition": "HFS",
  "PercentPhaseFOV": 100,
  "PercentSampling": 100,
  "PhaseEncodingDirection": "j-",
  "PhaseEncodingSteps": 82,
  "PhaseResolution": 1,
  "PixelBandwidth": 3050,
  "ProcedureStepDescription": "Wager_Wager^1076_spacetop",
  "ProtocolName": "func_run-03_task-social_acq-ap-mb8",
  "PulseSequenceDetails": "%CustomerSeq%\\cmrr_mbep2d_bold",
  "ReceiveCoilActiveElements": "HEA;HEP",
  "ReceiveCoilName": "Head_32",
  "ReconMatrixPE": 82,
  "RepetitionTime": 0.46,
  "SAR": 0.10858,
  "ScanOptions": "FS",
  "ScanningSequence": "EP",
  "SequenceName": "epfid2d1_82",
  "SequenceVariant": "SK\\SS",
  "SeriesDescription": "func_run-03_task-social_acq-ap-mb8",
  "SeriesNumber": 16,
  "ShimSetting": [4171, -7765, -7131, 742, -32, -105, -201, -3],
  "SliceThickness": 2.7,
  "SliceTiming": [0, 0.2525, 0.065, 0.315, 0.1275, 0.3775, 0.19, 0, 0.2525, 0.065, 0.315, 0.1275, 0.3775, 0.19, 0, 0.2525, 0.065, 0.315, 0.1275, 0.3775, 0.19, 0, 0.2525, 0.065, 0.315, 0.1275, 0.3775, 0.19, 0, 0.2525, 0.065, 0.315, 0.1275, 0.3775, 0.19, 0, 0.2525, 0.065, 0.315, 0.1275, 0.3775, 0.19, 0, 0.2525, 0.065, 0.315, 0.1275, 0.3775, 0.19, 0, 0.2525, 0.065, 0.315, 0.1275, 0.3775, 0.19],
  "SoftwareVersions": "syngo MR E11",
  "SpacingBetweenSlices": 2.7,
  "StationName": "AWP66112",
  "TaskName": "social",
  "TotalReadoutTime": 0.03969,
  "TxRefAmp": 241.786,
  "WipMemBlock": "77527451-f76a-4bd7-ad81-db17542f6f4f||Sequence: R016 ve11c/master r/e634e98; Dec 19 2017 11:00:25 by eja",
  "dcmmeta_affine": [
    [-2.660893201828003, -0.18560126423835754, 0.290448397397995, 116.07282257080078],
    [-0.19682632386684418, 2.674008369445801, -0.09566163271665573, -85.4970932006836],
    [0.28107646107673645, 0.11544935405254364, 2.6826272010803223, -48.687828063964844],
    [0.0, 0.0, 0.0, 1.0]
],
  "dcmmeta_reorient_transform": [
    [0.0, -1.0, 0.0, 81.0],
    [1.0, 0.0, 0.0, 0.0],
    [0.0, 0.0, 1.0, 0.0],
    [0.0, 0.0, 0.0, 1.0]
],
  "dcmmeta_shape": [82, 82, 56, 872],
  "dcmmeta_slice_dim": 2,
  "dcmmeta_version": 0.6,
  "global": {
    "const": {
      "AccessionNumber": "A003748",
      "AcquisitionMatrix": [82, 0, 0, 82],
      "AngioFlag": "N",
      "BitsAllocated": 16,
      "BitsStored": 16,
      "BodyPartExamined": "BRAIN",
      "Columns": 656,
      "EchoNumbers": 1,
      "EchoTime": 27.2,
      "EchoTrainLength": 82,
      "FlipAngle": 44.0,
      "HighBit": 15,
      "ImageOrientationPatient": [0.99178740757093, 0.07336253715954, 0.10476486207341, -0.0691786514121, 0.99667579318492, -0.0430311220864],
      "ImagePositionPatient": [-811.44787654624, -955.02710852299, -86.871411630563],
      "ImageType": [
        "ORIGINAL",
        "PRIMARY",
        "M",
        "MB",
        "ND",
        "NORM",
        "MOSAIC"
],
      "ImagedNucleus": "1H",
      "ImagingFrequency": 123.252239,
      "InPlanePhaseEncodingDirection": "COL",
      "MRAcquisitionType": "2D",
      "MagneticFieldStrength": 3.0,
      "Manufacturer": "SIEMENS",
      "ManufacturerModelName": "Prisma",
      "Modality": "MR",
      "NumberOfAverages": 1.0,
      "NumberOfPhaseEncodingSteps": 82,
      "PercentPhaseFieldOfView": 100.0,
      "PercentSampling": 100.0,
      "PerformedProcedureStepStartTime": "134056.968000",
      "PhotometricInterpretation": "MONOCHROME2",
      "PixelBandwidth": 3050.0,
      "PixelRepresentation": 0,
      "PixelSpacing": [2.6829268932343, 2.6829268932343],
      "ProtocolName": "func_run-03_task-social_acq-ap-mb8",
      "RepetitionTime": 460.0,
      "Rows": 656,
      "SAR": 0.10857957331689,
      "SamplesPerPixel": 1,
      "ScanOptions": "FS",
      "ScanningSequence": "EP",
      "SequenceName": "epfid2d1_82",
      "SequenceVariant": [
        "SK",
        "SS"
],
      "SeriesDescription": "func_run-03_task-social_acq-ap-mb8",
      "SeriesNumber": 16,
      "SeriesTime": "141658.685000",
      "SliceLocation": -32.859013997079,
      "SliceThickness": 2.7000000476837,
      "SmallestImagePixelValue": 0,
      "SoftwareVersions": "syngo MR E11",
      "SpacingBetweenSlices": 2.7000000630581,
      "SpecificCharacterSet": "ISO_IR 100",
      "StudyID": "1",
      "StudyTime": "134056.860000",
      "TransmitCoilName": "Body",
      "VariableFlipAngleFlag": "N",
      "WindowCenterWidthExplanation": "Algo1",
      "dBdt": 0.0},
    "slices": {}
  },
  "time": {
    "samples": {
      "AcquisitionNumber": [1, 2, 3, 4, 5, 6, 7, 8, 9, 10, 11, 12, 13, 14, 15, 16, 17, 18, 19, 20, 21, 22, 23, 24, 25, 26, 27, 28, 29, 30, 31, 32, 33, 34, 35, 36, 37, 38, 39, 40, 41, 42, 43, 44, 45, 46, 47, 48, 49, 50, 51, 52, 53, 54, 55, 56, 57, 58, 59, 60, 61, 62, 63, 64, 65, 66, 67, 68, 69, 70, 71, 72, 73, 74, 75, 76, 77, 78, 79, 80, 81, 82, 83, 84, 85, 86, 87, 88, 89, 90, 91, 92, 93, 94, 95, 96, 97, 98, 99, 100, 101, 102, 103, 104, 105, 106, 107, 108, 109, 110, 111, 112, 113, 114, 115, 116, 117, 118, 119, 120, 121, 122, 123, 124, 125, 126, 127, 128, 129, 130, 131, 132, 133, 134, 135, 136, 137, 138, 139, 140, 141, 142, 143, 144, 145, 146, 147, 148, 149, 150, 151, 152, 153, 154, 155, 156, 157, 158, 159, 160, 161, 162, 163, 164, 165, 166, 167, 168, 169, 170, 171, 172, 173, 174, 175, 176, 177, 178, 179, 180, 181, 182, 183, 184, 185, 186, 187, 188, 189, 190, 191, 192, 193, 194, 195, 196, 197, 198, 199, 200, 201, 202, 203, 204, 205, 206, 207, 208, 209, 210, 211, 212, 213, 214, 215, 216, 217, 218, 219, 220, 221, 222, 223, 224, 225, 226, 227, 228, 229, 230, 231, 232, 233, 234, 235, 236, 237, 238, 239, 240, 241, 242, 243, 244, 245, 246, 247, 248, 249, 250, 251, 252, 253, 254, 255, 256, 257, 258, 259, 260, 261, 262, 263, 264, 265, 266, 267, 268, 269, 270, 271, 272, 273, 274, 275, 276, 277, 278, 279, 280, 281, 282, 283, 284, 285, 286, 287, 288, 289, 290, 291, 292, 293, 294, 295, 296, 297, 298, 299, 300, 301, 302, 303, 304, 305, 306, 307, 308, 309, 310, 311, 312, 313, 314, 315, 316, 317, 318, 319, 320, 321, 322, 323, 324, 325, 326, 327, 328, 329, 330, 331, 332, 333, 334, 335, 336, 337, 338, 339, 340, 341, 342, 343, 344, 345, 346, 347, 348, 349, 350, 351, 352, 353, 354, 355, 356, 357, 358, 359, 360, 361, 362, 363, 364, 365, 366, 367, 368, 369, 370, 371, 372, 373, 374, 375, 376, 377, 378, 379, 380, 381, 382, 383, 384, 385, 386, 387, 388, 389, 390, 391, 392, 393, 394, 395, 396, 397, 398, 399, 400, 401, 402, 403, 404, 405, 406, 407, 408, 409, 410, 411, 412, 413, 414, 415, 416, 417, 418, 419, 420, 421, 422, 423, 424, 425, 426, 427, 428, 429, 430, 431, 432, 433, 434, 435, 436, 437, 438, 439, 440, 441, 442, 443, 444, 445, 446, 447, 448, 449, 450, 451, 452, 453, 454, 455, 456, 457, 458, 459, 460, 461, 462, 463, 464, 465, 466, 467, 468, 469, 470, 471, 472, 473, 474, 475, 476, 477, 478, 479, 480, 481, 482, 483, 484, 485, 486, 487, 488, 489, 490, 491, 492, 493, 494, 495, 496, 497, 498, 499, 500, 501, 502, 503, 504, 505, 506, 507, 508, 509, 510, 511, 512, 513, 514, 515, 516, 517, 518, 519, 520, 521, 522, 523, 524, 525, 526, 527, 528, 529, 530, 531, 532, 533, 534, 535, 536, 537, 538, 539, 540, 541, 542, 543, 544, 545, 546, 547, 548, 549, 550, 551, 552, 553, 554, 555, 556, 557, 558, 559, 560, 561, 562, 563, 564, 565, 566, 567, 568, 569, 570, 571, 572, 573, 574, 575, 576, 577, 578, 579, 580, 581, 582, 583, 584, 585, 586, 587, 588, 589, 590, 591, 592, 593, 594, 595, 596, 597, 598, 599, 600, 601, 602, 603, 604, 605, 606, 607, 608, 609, 610, 611, 612, 613, 614, 615, 616, 617, 618, 619, 620, 621, 622, 623, 624, 625, 626, 627, 628, 629, 630, 631, 632, 633, 634, 635, 636, 637, 638, 639, 640, 641, 642, 643, 644, 645, 646, 647, 648, 649, 650, 651, 652, 653, 654, 655, 656, 657, 658, 659, 660, 661, 662, 663, 664, 665, 666, 667, 668, 669, 670, 671, 672, 673, 674, 675, 676, 677, 678, 679, 680, 681, 682, 683, 684, 685, 686, 687, 688, 689, 690, 691, 692, 693, 694, 695, 696, 697, 698, 699, 700, 701, 702, 703, 704, 705, 706, 707, 708, 709, 710, 711, 712, 713, 714, 715, 716, 717, 718, 719, 720, 721, 722, 723, 724, 725, 726, 727, 728, 729, 730, 731, 732, 733, 734, 735, 736, 737, 738, 739, 740, 741, 742, 743, 744, 745, 746, 747, 748, 749, 750, 751, 752, 753, 754, 755, 756, 757, 758, 759, 760, 761, 762, 763, 764, 765, 766, 767, 768, 769, 770, 771, 772, 773, 774, 775, 776, 777, 778, 779, 780, 781, 782, 783, 784, 785, 786, 787, 788, 789, 790, 791, 792, 793, 794, 795, 796, 797, 798, 799, 800, 801, 802, 803, 804, 805, 806, 807, 808, 809, 810, 811, 812, 813, 814, 815, 816, 817, 818, 819, 820, 821, 822, 823, 824, 825, 826, 827, 828, 829, 830, 831, 832, 833, 834, 835, 836, 837, 838, 839, 840, 841, 842, 843, 844, 845, 846, 847, 848, 849, 850, 851, 852, 853, 854, 855, 856, 857, 858, 859, 860, 861, 862, 863, 864, 865, 866, 867, 868, 869, 870, 871, 872],
      "AcquisitionTime": ["141644.827500", "141645.287500", "141645.747500", "141646.207500", "141646.667500", "141647.127500", "141647.587500", "141648.047500", "141648.507500", "141648.967500", "141649.427500", "141649.887500", "141650.347500", "141650.807500", "141651.267500", "141651.727500", "141652.187500", "141652.647500", "141653.107500", "141653.567500", "141654.027500", "141654.487500", "141654.947500", "141655.407500", "141655.867500", "141656.327500", "141656.787500", "141657.247500", "141657.707500", "141658.167500", "141658.627500", "141659.087500", "141659.547500", "141700.007500", "141700.467500", "141700.927500", "141701.387500", "141701.847500", "141702.307500", "141702.767500", "141703.227500", "141703.687500", "141704.147500", "141704.607500", "141705.067500", "141705.527500", "141705.987500", "141706.447500", "141706.907500", "141707.367500", "141707.827500", "141708.287500", "141708.747500", "141709.207500", "141709.667500", "141710.127500", "141710.587500", "141711.047500", "141711.507500", "141711.967500", "141712.427500", "141712.887500", "141713.347500", "141713.807500", "141714.267500", "141714.727500", "141715.187500", "141715.647500", "141716.107500", "141716.567500", "141717.027500", "141717.487500", "141717.947500", "141718.407500", "141718.867500", "141719.327500", "141719.787500", "141720.247500", "141720.707500", "141721.167500", "141721.627500", "141722.087500", "141722.547500", "141723.007500", "141723.467500", "141723.927500", "141724.387500", "141724.847500", "141725.307500", "141725.767500", "141726.227500", "141726.687500", "141727.147500", "141727.607500", "141728.067500", "141728.527500", "141728.987500", "141729.447500", "141729.907500", "141730.367500", "141730.827500", "141731.287500", "141731.747500", "141732.207500", "141732.667500", "141733.127500", "141733.587500", "141734.047500", "141734.507500", "141734.967500", "141735.427500", "141735.887500", "141736.347500", "141736.807500", "141737.267500", "141737.727500", "141738.187500", "141738.647500", "141739.107500", "141739.567500", "141740.027500", "141740.487500", "141740.947500", "141741.407500", "141741.867500", "141742.327500", "141742.787500", "141743.247500", "141743.707500", "141744.167500", "141744.627500", "141745.087500", "141745.547500", "141746.007500", "141746.467500", "141746.927500", "141747.387500", "141747.847500", "141748.307500", "141748.767500", "141749.227500", "141749.687500", "141750.147500", "141750.607500", "141751.067500", "141751.527500", "141751.987500", "141752.447500", "141752.907500", "141753.367500", "141753.827500", "141754.287500", "141754.747500", "141755.207500", "141755.667500", "141756.127500", "141756.587500", "141757.047500", "141757.507500", "141757.967500", "141758.427500", "141758.887500", "141759.347500", "141759.807500", "141800.267500", "141800.727500", "141801.187500", "141801.647500", "141802.107500", "141802.567500", "141803.027500", "141803.487500", "141803.947500", "141804.407500", "141804.867500", "141805.327500", "141805.787500", "141806.247500", "141806.707500", "141807.167500", "141807.627500", "141808.087500", "141808.547500", "141809.007500", "141809.467500", "141809.927500", "141810.387500", "141810.847500", "141811.307500", "141811.767500", "141812.227500", "141812.687500", "141813.147500", "141813.607500", "141814.067500", "141814.527500", "141814.987500", "141815.447500", "141815.907500", "141816.367500", "141816.827500", "141817.287500", "141817.747500", "141818.207500", "141818.667500", "141819.127500", "141819.587500", "141820.047500", "141820.507500", "141820.967500", "141821.427500", "141821.887500", "141822.347500", "141822.807500", "141823.267500", "141823.727500", "141824.187500", "141824.647500", "141825.107500", "141825.567500", "141826.027500", "141826.487500", "141826.947500", "141827.407500", "141827.867500", "141828.327500", "141828.787500", "141829.247500", "141829.707500", "141830.167500", "141830.627500", "141831.087500", "141831.547500", "141832.007500", "141832.467500", "141832.927500", "141833.387500", "141833.847500", "141834.307500", "141834.767500", "141835.227500", "141835.687500", "141836.147500", "141836.607500", "141837.067500", "141837.527500", "141837.987500", "141838.447500", "141838.907500", "141839.367500", "141839.827500", "141840.287500", "141840.747500", "141841.207500", "141841.667500", "141842.127500", "141842.587500", "141843.047500", "141843.507500", "141843.967500", "141844.427500", "141844.887500", "141845.347500", "141845.807500", "141846.267500", "141846.727500", "141847.187500", "141847.647500", "141848.107500", "141848.567500", "141849.027500", "141849.487500", "141849.947500", "141850.407500", "141850.867500", "141851.327500", "141851.787500", "141852.247500", "141852.707500", "141853.167500", "141853.627500", "141854.087500", "141854.547500", "141855.007500", "141855.467500", "141855.927500", "141856.387500", "141856.847500", "141857.307500", "141857.767500", "141858.227500", "141858.687500", "141859.147500", "141859.607500", "141900.067500", "141900.527500", "141900.987500", "141901.447500", "141901.907500", "141902.367500", "141902.827500", "141903.287500", "141903.747500", "141904.207500", "141904.667500", "141905.127500", "141905.587500", "141906.047500", "141906.507500", "141906.967500", "141907.427500", "141907.887500", "141908.347500", "141908.807500", "141909.267500", "141909.727500", "141910.187500", "141910.647500", "141911.107500", "141911.567500", "141912.027500", "141912.487500", "141912.947500", "141913.407500", "141913.867500", "141914.327500", "141914.787500", "141915.247500", "141915.707500", "141916.167500", "141916.627500", "141917.087500", "141917.547500", "141918.007500", "141918.467500", "141918.927500", "141919.387500", "141919.847500", "141920.307500", "141920.767500", "141921.227500", "141921.687500", "141922.147500", "141922.607500", "141923.067500", "141923.527500", "141923.987500", "141924.447500", "141924.907500", "141925.367500", "141925.827500", "141926.287500", "141926.747500", "141927.207500", "141927.667500", "141928.127500", "141928.587500", "141929.047500", "141929.507500", "141929.967500", "141930.427500", "141930.887500", "141931.347500", "141931.807500", "141932.267500", "141932.727500", "141933.187500", "141933.647500", "141934.107500", "141934.567500", "141935.027500", "141935.487500", "141935.947500", "141936.407500", "141936.867500", "141937.327500", "141937.787500", "141938.247500", "141938.707500", "141939.167500", "141939.627500", "141940.087500", "141940.547500", "141941.007500", "141941.467500", "141941.927500", "141942.387500", "141942.847500", "141943.307500", "141943.767500", "141944.227500", "141944.687500", "141945.147500", "141945.607500", "141946.067500", "141946.527500", "141946.987500", "141947.447500", "141947.907500", "141948.367500", "141948.827500", "141949.287500", "141949.747500", "141950.207500", "141950.667500", "141951.127500", "141951.587500", "141952.047500", "141952.507500", "141952.967500", "141953.427500", "141953.887500", "141954.347500", "141954.807500", "141955.267500", "141955.727500", "141956.187500", "141956.647500", "141957.107500", "141957.567500", "141958.027500", "141958.487500", "141958.947500", "141959.407500", "141959.867500", "142000.327500", "142000.787500", "142001.247500", "142001.707500", "142002.167500", "142002.627500", "142003.087500", "142003.547500", "142004.007500", "142004.467500", "142004.927500", "142005.387500", "142005.847500", "142006.307500", "142006.767500", "142007.227500", "142007.687500", "142008.147500", "142008.607500", "142009.067500", "142009.527500", "142009.987500", "142010.447500", "142010.907500", "142011.367500", "142011.827500", "142012.287500", "142012.747500", "142013.207500", "142013.667500", "142014.127500", "142014.587500", "142015.047500", "142015.507500", "142015.967500", "142016.427500", "142016.887500", "142017.347500", "142017.807500", "142018.267500", "142018.727500", "142019.187500", "142019.647500", "142020.107500", "142020.567500", "142021.027500", "142021.487500", "142021.947500", "142022.407500", "142022.867500", "142023.327500", "142023.787500", "142024.247500", "142024.707500", "142025.167500", "142025.627500", "142026.087500", "142026.547500", "142027.007500", "142027.467500", "142027.927500", "142028.387500", "142028.847500", "142029.307500", "142029.767500", "142030.227500", "142030.687500", "142031.147500", "142031.607500", "142032.067500", "142032.527500", "142032.987500", "142033.447500", "142033.907500", "142034.367500", "142034.827500", "142035.287500", "142035.747500", "142036.207500", "142036.667500", "142037.127500", "142037.587500", "142038.047500", "142038.507500", "142038.967500", "142039.427500", "142039.887500", "142040.347500", "142040.807500", "142041.267500", "142041.727500", "142042.187500", "142042.647500", "142043.107500", "142043.567500", "142044.027500", "142044.487500", "142044.947500", "142045.407500", "142045.867500", "142046.327500", "142046.787500", "142047.247500", "142047.707500", "142048.167500", "142048.627500", "142049.087500", "142049.547500", "142050.007500", "142050.467500", "142050.927500", "142051.387500", "142051.847500", "142052.307500", "142052.767500", "142053.227500", "142053.687500", "142054.147500", "142054.607500", "142055.067500", "142055.527500", "142055.987500", "142056.447500", "142056.907500", "142057.367500", "142057.827500", "142058.287500", "142058.747500", "142059.207500", "142059.667500", "142100.127500", "142100.587500", "142101.047500", "142101.507500", "142101.967500", "142102.427500", "142102.887500", "142103.347500", "142103.807500", "142104.267500", "142104.727500", "142105.187500", "142105.647500", "142106.107500", "142106.567500", "142107.027500", "142107.487500", "142107.947500", "142108.407500", "142108.867500", "142109.327500", "142109.787500", "142110.247500", "142110.707500", "142111.167500", "142111.627500", "142112.087500", "142112.547500", "142113.007500", "142113.467500", "142113.927500", "142114.387500", "142114.847500", "142115.307500", "142115.767500", "142116.227500", "142116.687500", "142117.147500", "142117.607500", "142118.067500", "142118.527500", "142118.987500", "142119.447500", "142119.907500", "142120.367500", "142120.827500", "142121.287500", "142121.747500", "142122.207500", "142122.667500", "142123.127500", "142123.587500", "142124.047500", "142124.507500", "142124.967500", "142125.427500", "142125.887500", "142126.347500", "142126.807500", "142127.267500", "142127.727500", "142128.187500", "142128.647500", "142129.107500", "142129.567500", "142130.027500", "142130.487500", "142130.947500", "142131.407500", "142131.867500", "142132.327500", "142132.787500", "142133.247500", "142133.707500", "142134.167500", "142134.627500", "142135.087500", "142135.547500", "142136.007500", "142136.467500", "142136.927500", "142137.387500", "142137.847500", "142138.307500", "142138.767500", "142139.227500", "142139.687500", "142140.147500", "142140.607500", "142141.067500", "142141.527500", "142141.987500", "142142.447500", "142142.907500", "142143.367500", "142143.827500", "142144.287500", "142144.747500", "142145.207500", "142145.667500", "142146.127500", "142146.587500", "142147.047500", "142147.507500", "142147.967500", "142148.427500", "142148.887500", "142149.347500", "142149.807500", "142150.267500", "142150.727500", "142151.187500", "142151.647500", "142152.107500", "142152.567500", "142153.027500", "142153.487500", "142153.947500", "142154.407500", "142154.867500", "142155.327500", "142155.787500", "142156.247500", "142156.707500", "142157.167500", "142157.627500", "142158.087500", "142158.547500", "142159.007500", "142159.467500", "142159.927500", "142200.387500", "142200.847500", "142201.307500", "142201.767500", "142202.227500", "142202.687500", "142203.147500", "142203.607500", "142204.067500", "142204.527500", "142204.987500", "142205.447500", "142205.907500", "142206.367500", "142206.827500", "142207.287500", "142207.747500", "142208.207500", "142208.667500", "142209.127500", "142209.587500", "142210.047500", "142210.507500", "142210.967500", "142211.427500", "142211.887500", "142212.347500", "142212.807500", "142213.267500", "142213.727500", "142214.187500", "142214.647500", "142215.107500", "142215.567500", "142216.027500", "142216.487500", "142216.947500", "142217.407500", "142217.867500", "142218.327500", "142218.787500", "142219.247500", "142219.707500", "142220.167500", "142220.627500", "142221.087500", "142221.547500", "142222.007500", "142222.467500", "142222.927500", "142223.387500", "142223.847500", "142224.307500", "142224.767500", "142225.227500", "142225.687500", "142226.147500", "142226.607500", "142227.067500", "142227.527500", "142227.987500", "142228.447500", "142228.907500", "142229.367500", "142229.827500", "142230.287500", "142230.747500", "142231.207500", "142231.667500", "142232.127500", "142232.587500", "142233.047500", "142233.507500", "142233.967500", "142234.427500", "142234.887500", "142235.347500", "142235.807500", "142236.267500", "142236.727500", "142237.187500", "142237.647500", "142238.107500", "142238.567500", "142239.027500", "142239.487500", "142239.947500", "142240.407500", "142240.867500", "142241.327500", "142241.787500", "142242.247500", "142242.707500", "142243.167500", "142243.627500", "142244.087500", "142244.547500", "142245.007500", "142245.467500", "142245.927500", "142246.387500", "142246.847500", "142247.307500", "142247.767500", "142248.227500", "142248.687500", "142249.147500", "142249.607500", "142250.067500", "142250.527500", "142250.987500", "142251.447500", "142251.907500", "142252.367500", "142252.827500", "142253.287500", "142253.747500", "142254.207500", "142254.667500", "142255.127500", "142255.587500", "142256.047500", "142256.507500", "142256.967500", "142257.427500", "142257.887500", "142258.347500", "142258.807500", "142259.267500", "142259.727500", "142300.187500", "142300.647500", "142301.107500", "142301.567500", "142302.027500", "142302.487500", "142302.947500", "142303.407500", "142303.867500", "142304.327500", "142304.787500", "142305.247500", "142305.707500", "142306.167500", "142306.627500", "142307.087500", "142307.547500", "142308.007500", "142308.467500", "142308.927500", "142309.387500", "142309.847500", "142310.307500", "142310.767500", "142311.227500", "142311.687500", "142312.147500", "142312.607500", "142313.067500", "142313.527500", "142313.987500", "142314.447500", "142314.907500", "142315.367500", "142315.827500", "142316.287500", "142316.747500", "142317.207500", "142317.667500", "142318.127500", "142318.587500", "142319.047500", "142319.507500", "142319.967500", "142320.427500", "142320.887500", "142321.347500", "142321.807500", "142322.267500", "142322.727500", "142323.187500", "142323.647500", "142324.107500", "142324.567500", "142325.027500", "142325.487500"],
