{
  "AcquisitionMatrixPE": 82,
  "AcquisitionNumber": 1,
  "AcquisitionTime": "14:48:32.035000",
  "BandwidthPerPixelPhaseEncode": 24.888,
  "BaseResolution": 82,
  "BodyPartExamined": "BRAIN",
  "ConsistencyInfo": "N4_VE11C_LATEST_20160120",
  "ConversionSoftware": "dcm2niix",
  "ConversionSoftwareVersion": "v1.0.20201102",
  "DerivedVendorReportedEchoSpacing": 0.00049,
  "DeviceSerialNumber": "66112",
  "DwellTime": 2e-06,
  "EchoTime": 0.0272,
  "EchoTrainLength": 82,
  "EffectiveEchoSpacing": 0.00049,
  "FlipAngle": 44,
  "ImageComments": "Unaliased MB8/PE3",
  "ImageOrientationPatientDICOM": [0.981498, 0.162713, 0.10093, -0.17713, 0.971762, 0.155898],
  "ImageType": [
    "ORIGINAL",
    "PRIMARY",
    "M",
    "MB",
    "ND",
    "NORM",
    "MOSAIC"
],
  "ImagingFrequency": 123.252,
  "InPlanePhaseEncodingDirectionDICOM": "COL",
  "InstitutionAddress": "Maynard 3,Hanover,NH,US,03755",
  "InstitutionName": "Dartmouth College - PBS",
  "InstitutionalDepartmentName": "Department",
  "MRAcquisitionType": "2D",
  "MagneticFieldStrength": 3,
  "Manufacturer": "Siemens",
  "ManufacturersModelName": "Prisma",
  "Modality": "MR",
  "MultibandAccelerationFactor": 8,
  "PartialFourier": 1,
  "PatientPosition": "HFS",
  "PercentPhaseFOV": 100,
  "PercentSampling": 100,
  "PhaseEncodingDirection": "j-",
  "PhaseEncodingSteps": 82,
  "PhaseResolution": 1,
  "PixelBandwidth": 3050,
  "ProcedureStepDescription": "Wager_Wager^1076_spacetop",
  "ProtocolName": "func_run-01_task-alignvideo_acq-ap-mb8",
  "PulseSequenceDetails": "%CustomerSeq%\\cmrr_mbep2d_bold",
  "ReceiveCoilActiveElements": "HEA;HEP",
  "ReceiveCoilName": "Head_32",
  "ReconMatrixPE": 82,
  "RepetitionTime": 0.46,
  "SAR": 0.108706,
  "ScanOptions": "FS",
  "ScanningSequence": "EP",
  "SequenceName": "epfid2d1_82",
  "SequenceVariant": "SK\\SS",
  "SeriesDescription": "func_run-01_task-alignvideo_acq-ap-mb8",
  "SeriesNumber": 30,
  "ShimSetting": [4173, -7754, -7151, 699, -34, -71, -183, -7],
  "SliceThickness": 2.7,
  "SliceTiming": [0, 0.2525, 0.0625, 0.315, 0.125, 0.3775, 0.19, 0, 0.2525, 0.0625, 0.315, 0.125, 0.3775, 0.19, 0, 0.2525, 0.0625, 0.315, 0.125, 0.3775, 0.19, 0, 0.2525, 0.0625, 0.315, 0.125, 0.3775, 0.19, 0, 0.2525, 0.0625, 0.315, 0.125, 0.3775, 0.19, 0, 0.2525, 0.0625, 0.315, 0.125, 0.3775, 0.19, 0, 0.2525, 0.0625, 0.315, 0.125, 0.3775, 0.19, 0, 0.2525, 0.0625, 0.315, 0.125, 0.3775, 0.19],
  "SoftwareVersions": "syngo MR E11",
  "SpacingBetweenSlices": 2.7,
  "StationName": "AWP66112",
  "TaskName": "alignvideo",
  "TotalReadoutTime": 0.03969,
  "TxRefAmp": 241.786,
  "WipMemBlock": "9f2a01e2-7ece-45ca-ac8f-371c8c39ff3b||Sequence: R016 ve11c/master r/e634e98; Dec 19 2017 11:00:25 by eja",
  "dcmmeta_affine": [
    [-2.633286714553833, -0.4752265512943268, 0.1963246464729309, 128.68826293945312],
    [-0.4365459680557251, 2.607165575027466, 0.46140697598457336, -90.1495361328125],
    [0.2707865536212921, -0.4182637631893158, 2.6530284881591797, -21.4099178314209],
    [0.0, 0.0, 0.0, 1.0]
],
  "dcmmeta_reorient_transform": [
    [0.0, -1.0, 0.0, 81.0],
    [1.0, 0.0, 0.0, 0.0],
    [0.0, 0.0, 1.0, 0.0],
    [0.0, 0.0, 0.0, 1.0]
],
  "dcmmeta_shape": [82, 82, 56, 1073],
  "dcmmeta_slice_dim": 2,
  "dcmmeta_version": 0.6,
  "global": {
    "const": {
      "AccessionNumber": "A003748",
      "AcquisitionMatrix": [82, 0, 0, 82],
      "AngioFlag": "N",
      "BitsAllocated": 16,
      "BitsStored": 16,
      "BodyPartExamined": "BRAIN",
      "Columns": 656,
      "EchoNumbers": 1,
      "EchoTime": 27.2,
      "EchoTrainLength": 82,
      "FlipAngle": 44.0,
      "HighBit": 15,
      "ImageOrientationPatient": [0.98149775643916, 0.16271258251958, 0.10092952786327, -0.1771298915943, 0.97176165821624, 0.15589830379011],
      "ImagePositionPatient": [-709.55818722627, -994.57605198648, -253.04671669534],
      "ImageType": [
        "ORIGINAL",
        "PRIMARY",
        "M",
        "MB",
        "ND",
        "NORM",
        "MOSAIC"
],
      "ImagedNucleus": "1H",
      "ImagingFrequency": 123.252244,
      "InPlanePhaseEncodingDirection": "COL",
      "MRAcquisitionType": "2D",
      "MagneticFieldStrength": 3.0,
      "Manufacturer": "SIEMENS",
      "ManufacturerModelName": "Prisma",
      "Modality": "MR",
      "NumberOfAverages": 1.0,
      "NumberOfPhaseEncodingSteps": 82,
      "PercentPhaseFieldOfView": 100.0,
      "PercentSampling": 100.0,
      "PerformedProcedureStepStartTime": "134056.968000",
      "PhotometricInterpretation": "MONOCHROME2",
      "PixelBandwidth": 3050.0,
      "PixelRepresentation": 0,
      "PixelSpacing": [2.6829268932343, 2.6829268932343],
      "ProtocolName": "func_run-01_task-alignvideo_acq-ap-mb8",
      "RepetitionTime": 460.0,
      "Rows": 656,
      "SAR": 0.10870620132296,
      "SamplesPerPixel": 1,
      "ScanOptions": "FS",
      "ScanningSequence": "EP",
      "SequenceName": "epfid2d1_82",
      "SequenceVariant": [
        "SK",
        "SS"
],
      "SeriesDescription": "func_run-01_task-alignvideo_acq-ap-mb8",
      "SeriesNumber": 30,
      "SeriesTime": "144858.535000",
      "SliceLocation": -27.085951848151,
      "SliceThickness": 2.7000000476837,
      "SmallestImagePixelValue": 0,
      "SoftwareVersions": "syngo MR E11",
      "SpacingBetweenSlices": 2.7000000170301,
      "SpecificCharacterSet": "ISO_IR 100",
      "StudyID": "1",
      "StudyTime": "134056.860000",
      "TransmitCoilName": "Body",
      "VariableFlipAngleFlag": "N",
      "WindowCenterWidthExplanation": "Algo1",
      "dBdt": 0.0},
    "slices": {}
  },
  "time": {
    "samples": {
      "AcquisitionNumber": [1, 2, 3, 4, 5, 6, 7, 8, 9, 10, 11, 12, 13, 14, 15, 16, 17, 18, 19, 20, 21, 22, 23, 24, 25, 26, 27, 28, 29, 30, 31, 32, 33, 34, 35, 36, 37, 38, 39, 40, 41, 42, 43, 44, 45, 46, 47, 48, 49, 50, 51, 52, 53, 54, 55, 56, 57, 58, 59, 60, 61, 62, 63, 64, 65, 66, 67, 68, 69, 70, 71, 72, 73, 74, 75, 76, 77, 78, 79, 80, 81, 82, 83, 84, 85, 86, 87, 88, 89, 90, 91, 92, 93, 94, 95, 96, 97, 98, 99, 100, 101, 102, 103, 104, 105, 106, 107, 108, 109, 110, 111, 112, 113, 114, 115, 116, 117, 118, 119, 120, 121, 122, 123, 124, 125, 126, 127, 128, 129, 130, 131, 132, 133, 134, 135, 136, 137, 138, 139, 140, 141, 142, 143, 144, 145, 146, 147, 148, 149, 150, 151, 152, 153, 154, 155, 156, 157, 158, 159, 160, 161, 162, 163, 164, 165, 166, 167, 168, 169, 170, 171, 172, 173, 174, 175, 176, 177, 178, 179, 180, 181, 182, 183, 184, 185, 186, 187, 188, 189, 190, 191, 192, 193, 194, 195, 196, 197, 198, 199, 200, 201, 202, 203, 204, 205, 206, 207, 208, 209, 210, 211, 212, 213, 214, 215, 216, 217, 218, 219, 220, 221, 222, 223, 224, 225, 226, 227, 228, 229, 230, 231, 232, 233, 234, 235, 236, 237, 238, 239, 240, 241, 242, 243, 244, 245, 246, 247, 248, 249, 250, 251, 252, 253, 254, 255, 256, 257, 258, 259, 260, 261, 262, 263, 264, 265, 266, 267, 268, 269, 270, 271, 272, 273, 274, 275, 276, 277, 278, 279, 280, 281, 282, 283, 284, 285, 286, 287, 288, 289, 290, 291, 292, 293, 294, 295, 296, 297, 298, 299, 300, 301, 302, 303, 304, 305, 306, 307, 308, 309, 310, 311, 312, 313, 314, 315, 316, 317, 318, 319, 320, 321, 322, 323, 324, 325, 326, 327, 328, 329, 330, 331, 332, 333, 334, 335, 336, 337, 338, 339, 340, 341, 342, 343, 344, 345, 346, 347, 348, 349, 350, 351, 352, 353, 354, 355, 356, 357, 358, 359, 360, 361, 362, 363, 364, 365, 366, 367, 368, 369, 370, 371, 372, 373, 374, 375, 376, 377, 378, 379, 380, 381, 382, 383, 384, 385, 386, 387, 388, 389, 390, 391, 392, 393, 394, 395, 396, 397, 398, 399, 400, 401, 402, 403, 404, 405, 406, 407, 408, 409, 410, 411, 412, 413, 414, 415, 416, 417, 418, 419, 420, 421, 422, 423, 424, 425, 426, 427, 428, 429, 430, 431, 432, 433, 434, 435, 436, 437, 438, 439, 440, 441, 442, 443, 444, 445, 446, 447, 448, 449, 450, 451, 452, 453, 454, 455, 456, 457, 458, 459, 460, 461, 462, 463, 464, 465, 466, 467, 468, 469, 470, 471, 472, 473, 474, 475, 476, 477, 478, 479, 480, 481, 482, 483, 484, 485, 486, 487, 488, 489, 490, 491, 492, 493, 494, 495, 496, 497, 498, 499, 500, 501, 502, 503, 504, 505, 506, 507, 508, 509, 510, 511, 512, 513, 514, 515, 516, 517, 518, 519, 520, 521, 522, 523, 524, 525, 526, 527, 528, 529, 530, 531, 532, 533, 534, 535, 536, 537, 538, 539, 540, 541, 542, 543, 544, 545, 546, 547, 548, 549, 550, 551, 552, 553, 554, 555, 556, 557, 558, 559, 560, 561, 562, 563, 564, 565, 566, 567, 568, 569, 570, 571, 572, 573, 574, 575, 576, 577, 578, 579, 580, 581, 582, 583, 584, 585, 586, 587, 588, 589, 590, 591, 592, 593, 594, 595, 596, 597, 598, 599, 600, 601, 602, 603, 604, 605, 606, 607, 608, 609, 610, 611, 612, 613, 614, 615, 616, 617, 618, 619, 620, 621, 622, 623, 624, 625, 626, 627, 628, 629, 630, 631, 632, 633, 634, 635, 636, 637, 638, 639, 640, 641, 642, 643, 644, 645, 646, 647, 648, 649, 650, 651, 652, 653, 654, 655, 656, 657, 658, 659, 660, 661, 662, 663, 664, 665, 666, 667, 668, 669, 670, 671, 672, 673, 674, 675, 676, 677, 678, 679, 680, 681, 682, 683, 684, 685, 686, 687, 688, 689, 690, 691, 692, 693, 694, 695, 696, 697, 698, 699, 700, 701, 702, 703, 704, 705, 706, 707, 708, 709, 710, 711, 712, 713, 714, 715, 716, 717, 718, 719, 720, 721, 722, 723, 724, 725, 726, 727, 728, 729, 730, 731, 732, 733, 734, 735, 736, 737, 738, 739, 740, 741, 742, 743, 744, 745, 746, 747, 748, 749, 750, 751, 752, 753, 754, 755, 756, 757, 758, 759, 760, 761, 762, 763, 764, 765, 766, 767, 768, 769, 770, 771, 772, 773, 774, 775, 776, 777, 778, 779, 780, 781, 782, 783, 784, 785, 786, 787, 788, 789, 790, 791, 792, 793, 794, 795, 796, 797, 798, 799, 800, 801, 802, 803, 804, 805, 806, 807, 808, 809, 810, 811, 812, 813, 814, 815, 816, 817, 818, 819, 820, 821, 822, 823, 824, 825, 826, 827, 828, 829, 830, 831, 832, 833, 834, 835, 836, 837, 838, 839, 840, 841, 842, 843, 844, 845, 846, 847, 848, 849, 850, 851, 852, 853, 854, 855, 856, 857, 858, 859, 860, 861, 862, 863, 864, 865, 866, 867, 868, 869, 870, 871, 872, 873, 874, 875, 876, 877, 878, 879, 880, 881, 882, 883, 884, 885, 886, 887, 888, 889, 890, 891, 892, 893, 894, 895, 896, 897, 898, 899, 900, 901, 902, 903, 904, 905, 906, 907, 908, 909, 910, 911, 912, 913, 914, 915, 916, 917, 918, 919, 920, 921, 922, 923, 924, 925, 926, 927, 928, 929, 930, 931, 932, 933, 934, 935, 936, 937, 938, 939, 940, 941, 942, 943, 944, 945, 946, 947, 948, 949, 950, 951, 952, 953, 954, 955, 956, 957, 958, 959, 960, 961, 962, 963, 964, 965, 966, 967, 968, 969, 970, 971, 972, 973, 974, 975, 976, 977, 978, 979, 980, 981, 982, 983, 984, 985, 986, 987, 988, 989, 990, 991, 992, 993, 994, 995, 996, 997, 998, 999, 1000, 1001, 1002, 1003, 1004, 1005, 1006, 1007, 1008, 1009, 1010, 1011, 1012, 1013, 1014, 1015, 1016, 1017, 1018, 1019, 1020, 1021, 1022, 1023, 1024, 1025, 1026, 1027, 1028, 1029, 1030, 1031, 1032, 1033, 1034, 1035, 1036, 1037, 1038, 1039, 1040, 1041, 1042, 1043, 1044, 1045, 1046, 1047, 1048, 1049, 1050, 1051, 1052, 1053, 1054, 1055, 1056, 1057, 1058, 1059, 1060, 1061, 1062, 1063, 1064, 1065, 1066, 1067, 1068, 1069, 1070, 1071, 1072, 1073],
      "AcquisitionTime": ["144832.035000", "144832.495000", "144832.955000", "144833.415000", "144833.875000", "144834.335000", "144834.795000", "144835.255000", "144835.715000", "144836.175000", "144836.635000", "144837.095000", "144837.555000", "144838.015000", "144838.475000", "144838.935000", "144839.395000", "144839.855000", "144840.315000", "144840.775000", "144841.235000", "144841.695000", "144842.155000", "144842.615000", "144843.075000", "144843.535000", "144843.995000", "144844.455000", "144844.915000", "144845.375000", "144845.835000", "144846.295000", "144846.755000", "144847.215000", "144847.675000", "144848.135000", "144848.595000", "144849.055000", "144849.515000", "144849.975000", "144850.435000", "144850.895000", "144851.355000", "144851.815000", "144852.275000", "144852.735000", "144853.195000", "144853.655000", "144854.115000", "144854.575000", "144855.035000", "144855.495000", "144855.955000", "144856.415000", "144856.875000", "144857.335000", "144857.795000", "144858.255000", "144858.715000", "144859.175000", "144859.635000", "144900.095000", "144900.555000", "144901.015000", "144901.475000", "144901.935000", "144902.395000", "144902.855000", "144903.315000", "144903.775000", "144904.235000", "144904.695000", "144905.155000", "144905.615000", "144906.075000", "144906.535000", "144906.995000", "144907.455000", "144907.915000", "144908.375000", "144908.835000", "144909.295000", "144909.755000", "144910.215000", "144910.675000", "144911.135000", "144911.595000", "144912.055000", "144912.515000", "144912.975000", "144913.435000", "144913.895000", "144914.355000", "144914.815000", "144915.275000", "144915.735000", "144916.195000", "144916.655000", "144917.115000", "144917.575000", "144918.035000", "144918.495000", "144918.955000", "144919.415000", "144919.875000", "144920.335000", "144920.795000", "144921.255000", "144921.715000", "144922.175000", "144922.635000", "144923.095000", "144923.555000", "144924.015000", "144924.475000", "144924.935000", "144925.395000", "144925.855000", "144926.315000", "144926.775000", "144927.235000", "144927.695000", "144928.155000", "144928.615000", "144929.075000", "144929.535000", "144929.995000", "144930.455000", "144930.915000", "144931.375000", "144931.835000", "144932.295000", "144932.755000", "144933.215000", "144933.675000", "144934.135000", "144934.595000", "144935.055000", "144935.515000", "144935.975000", "144936.435000", "144936.895000", "144937.355000", "144937.815000", "144938.275000", "144938.735000", "144939.195000", "144939.655000", "144940.115000", "144940.575000", "144941.035000", "144941.495000", "144941.955000", "144942.415000", "144942.875000", "144943.335000", "144943.795000", "144944.255000", "144944.715000", "144945.175000", "144945.635000", "144946.095000", "144946.555000", "144947.015000", "144947.475000", "144947.935000", "144948.395000", "144948.855000", "144949.315000", "144949.775000", "144950.235000", "144950.695000", "144951.155000", "144951.615000", "144952.075000", "144952.535000", "144952.995000", "144953.455000", "144953.915000", "144954.375000", "144954.835000", "144955.295000", "144955.755000", "144956.215000", "144956.675000", "144957.135000", "144957.595000", "144958.055000", "144958.515000", "144958.975000", "144959.435000", "144959.895000", "145000.355000", "145000.815000", "145001.275000", "145001.735000", "145002.195000", "145002.655000", "145003.115000", "145003.575000", "145004.035000", "145004.495000", "145004.955000", "145005.415000", "145005.875000", "145006.335000", "145006.795000", "145007.255000", "145007.715000", "145008.175000", "145008.635000", "145009.095000", "145009.555000", "145010.015000", "145010.475000", "145010.935000", "145011.395000", "145011.855000", "145012.315000", "145012.775000", "145013.235000", "145013.695000", "145014.155000", "145014.615000", "145015.075000", "145015.535000", "145015.995000", "145016.455000", "145016.915000", "145017.375000", "145017.835000", "145018.295000", "145018.755000", "145019.215000", "145019.675000", "145020.135000", "145020.595000", "145021.055000", "145021.515000", "145021.975000", "145022.435000", "145022.895000", "145023.355000", "145023.815000", "145024.275000", "145024.735000", "145025.195000", "145025.655000", "145026.115000", "145026.575000", "145027.035000", "145027.495000", "145027.955000", "145028.415000", "145028.875000", "145029.335000", "145029.795000", "145030.255000", "145030.715000", "145031.175000", "145031.635000", "145032.095000", "145032.555000", "145033.015000", "145033.475000", "145033.935000", "145034.395000", "145034.855000", "145035.315000", "145035.775000", "145036.235000", "145036.695000", "145037.155000", "145037.615000", "145038.075000", "145038.535000", "145038.995000", "145039.455000", "145039.915000", "145040.375000", "145040.835000", "145041.295000", "145041.755000", "145042.215000", "145042.675000", "145043.135000", "145043.595000", "145044.055000", "145044.515000", "145044.975000", "145045.435000", "145045.895000", "145046.355000", "145046.815000", "145047.275000", "145047.735000", "145048.195000", "145048.655000", "145049.115000", "145049.575000", "145050.035000", "145050.495000", "145050.955000", "145051.415000", "145051.875000", "145052.335000", "145052.795000", "145053.255000", "145053.715000", "145054.175000", "145054.635000", "145055.095000", "145055.555000", "145056.015000", "145056.475000", "145056.935000", "145057.395000", "145057.855000", "145058.315000", "145058.775000", "145059.235000", "145059.695000", "145100.155000", "145100.615000", "145101.075000", "145101.535000", "145101.995000", "145102.455000", "145102.915000", "145103.375000", "145103.835000", "145104.295000", "145104.755000", "145105.215000", "145105.675000", "145106.135000", "145106.595000", "145107.055000", "145107.515000", "145107.975000", "145108.435000", "145108.895000", "145109.355000", "145109.815000", "145110.275000", "145110.735000", "145111.195000", "145111.655000", "145112.115000", "145112.575000", "145113.035000", "145113.495000", "145113.955000", "145114.415000", "145114.875000", "145115.335000", "145115.795000", "145116.255000", "145116.715000", "145117.175000", "145117.635000", "145118.095000", "145118.555000", "145119.015000", "145119.475000", "145119.935000", "145120.395000", "145120.855000", "145121.315000", "145121.775000", "145122.235000", "145122.695000", "145123.155000", "145123.615000", "145124.075000", "145124.535000", "145124.995000", "145125.455000", "145125.915000", "145126.375000", "145126.835000", "145127.295000", "145127.755000", "145128.215000", "145128.675000", "145129.135000", "145129.595000", "145130.055000", "145130.515000", "145130.975000", "145131.435000", "145131.895000", "145132.355000", "145132.815000", "145133.275000", "145133.735000", "145134.195000", "145134.655000", "145135.115000", "145135.575000", "145136.035000", "145136.495000", "145136.955000", "145137.415000", "145137.875000", "145138.335000", "145138.795000", "145139.255000", "145139.715000", "145140.175000", "145140.635000", "145141.095000", "145141.555000", "145142.015000", "145142.475000", "145142.935000", "145143.395000", "145143.855000", "145144.315000", "145144.775000", "145145.235000", "145145.695000", "145146.155000", "145146.615000", "145147.075000", "145147.535000", "145147.995000", "145148.455000", "145148.915000", "145149.375000", "145149.835000", "145150.295000", "145150.755000", "145151.215000", "145151.675000", "145152.135000", "145152.595000", "145153.055000", "145153.515000", "145153.975000", "145154.435000", "145154.895000", "145155.355000", "145155.815000", "145156.275000", "145156.735000", "145157.195000", "145157.655000", "145158.115000", "145158.575000", "145159.035000", "145159.495000", "145159.955000", "145200.415000", "145200.875000", "145201.335000", "145201.795000", "145202.255000", "145202.715000", "145203.175000", "145203.635000", "145204.095000", "145204.555000", "145205.015000", "145205.475000", "145205.935000", "145206.395000", "145206.855000", "145207.315000", "145207.775000", "145208.235000", "145208.695000", "145209.155000", "145209.615000", "145210.075000", "145210.535000", "145210.995000", "145211.455000", "145211.915000", "145212.375000", "145212.835000", "145213.295000", "145213.755000", "145214.215000", "145214.675000", "145215.135000", "145215.595000", "145216.055000", "145216.515000", "145216.975000", "145217.435000", "145217.895000", "145218.355000", "145218.815000", "145219.275000", "145219.735000", "145220.195000", "145220.655000", "145221.115000", "145221.575000", "145222.035000", "145222.495000", "145222.955000", "145223.415000", "145223.875000", "145224.335000", "145224.795000", "145225.255000", "145225.715000", "145226.175000", "145226.635000", "145227.095000", "145227.555000", "145228.015000", "145228.475000", "145228.935000", "145229.395000", "145229.855000", "145230.315000", "145230.775000", "145231.235000", "145231.695000", "145232.155000", "145232.615000", "145233.075000", "145233.535000", "145233.995000", "145234.455000", "145234.915000", "145235.375000", "145235.835000", "145236.295000", "145236.755000", "145237.215000", "145237.675000", "145238.135000", "145238.595000", "145239.055000", "145239.515000", "145239.975000", "145240.435000", "145240.895000", "145241.355000", "145241.815000", "145242.275000", "145242.735000", "145243.195000", "145243.655000", "145244.115000", "145244.575000", "145245.035000", "145245.495000", "145245.955000", "145246.415000", "145246.875000", "145247.335000", "145247.795000", "145248.255000", "145248.715000", "145249.175000", "145249.635000", "145250.095000", "145250.555000", "145251.015000", "145251.475000", "145251.935000", "145252.395000", "145252.855000", "145253.315000", "145253.775000", "145254.235000", "145254.695000", "145255.155000", "145255.615000", "145256.075000", "145256.535000", "145256.995000", "145257.455000", "145257.915000", "145258.375000", "145258.835000", "145259.295000", "145259.755000", "145300.215000", "145300.675000", "145301.135000", "145301.595000", "145302.055000", "145302.515000", "145302.975000", "145303.435000", "145303.895000", "145304.355000", "145304.815000", "145305.275000", "145305.735000", "145306.195000", "145306.655000", "145307.115000", "145307.575000", "145308.035000", "145308.495000", "145308.955000", "145309.415000", "145309.875000", "145310.335000", "145310.795000", "145311.255000", "145311.715000", "145312.175000", "145312.635000", "145313.095000", "145313.555000", "145314.015000", "145314.475000", "145314.935000", "145315.395000", "145315.855000", "145316.315000", "145316.775000", "145317.235000", "145317.695000", "145318.155000", "145318.615000", "145319.075000", "145319.535000", "145319.995000", "145320.455000", "145320.915000", "145321.375000", "145321.835000", "145322.295000", "145322.755000", "145323.215000", "145323.675000", "145324.135000", "145324.595000", "145325.055000", "145325.515000", "145325.975000", "145326.435000", "145326.895000", "145327.355000", "145327.815000", "145328.275000", "145328.735000", "145329.195000", "145329.655000", "145330.115000", "145330.575000", "145331.035000", "145331.495000", "145331.955000", "145332.415000", "145332.875000", "145333.335000", "145333.795000", "145334.255000", "145334.715000", "145335.175000", "145335.635000", "145336.095000", "145336.555000", "145337.015000", "145337.475000", "145337.935000", "145338.395000", "145338.855000", "145339.315000", "145339.775000", "145340.235000", "145340.695000", "145341.155000", "145341.615000", "145342.075000", "145342.535000", "145342.995000", "145343.455000", "145343.915000", "145344.375000", "145344.835000", "145345.295000", "145345.755000", "145346.215000", "145346.675000", "145347.135000", "145347.595000", "145348.055000", "145348.515000", "145348.975000", "145349.435000", "145349.895000", "145350.355000", "145350.815000", "145351.275000", "145351.735000", "145352.195000", "145352.655000", "145353.115000", "145353.575000", "145354.035000", "145354.495000", "145354.955000", "145355.415000", "145355.875000", "145356.335000", "145356.795000", "145357.255000", "145357.715000", "145358.175000", "145358.635000", "145359.095000", "145359.555000", "145400.015000", "145400.475000", "145400.935000", "145401.395000", "145401.855000", "145402.315000", "145402.775000", "145403.235000", "145403.695000", "145404.155000", "145404.615000", "145405.075000", "145405.535000", "145405.995000", "145406.455000", "145406.915000", "145407.375000", "145407.835000", "145408.295000", "145408.755000", "145409.215000", "145409.675000", "145410.135000", "145410.595000", "145411.055000", "145411.515000", "145411.975000", "145412.435000", "145412.895000", "145413.355000", "145413.815000", "145414.275000", "145414.735000", "145415.195000", "145415.655000", "145416.115000", "145416.575000", "145417.035000", "145417.495000", "145417.955000", "145418.415000", "145418.875000", "145419.335000", "145419.795000", "145420.255000", "145420.715000", "145421.175000", "145421.635000", "145422.095000", "145422.555000", "145423.015000", "145423.475000", "145423.935000", "145424.395000", "145424.855000", "145425.315000", "145425.775000", "145426.235000", "145426.695000", "145427.155000", "145427.615000", "145428.075000", "145428.535000", "145428.995000", "145429.455000", "145429.915000", "145430.375000", "145430.835000", "145431.295000", "145431.755000", "145432.215000", "145432.675000", "145433.135000", "145433.595000", "145434.055000", "145434.515000", "145434.975000", "145435.435000", "145435.895000", "145436.355000", "145436.815000", "145437.275000", "145437.735000", "145438.195000", "145438.655000", "145439.115000", "145439.575000", "145440.035000", "145440.495000", "145440.955000", "145441.415000", "145441.875000", "145442.335000", "145442.795000", "145443.255000", "145443.715000", "145444.175000", "145444.635000", "145445.095000", "145445.555000", "145446.015000", "145446.475000", "145446.935000", "145447.395000", "145447.855000", "145448.315000", "145448.775000", "145449.235000", "145449.695000", "145450.155000", "145450.615000", "145451.075000", "145451.535000", "145451.995000", "145452.455000", "145452.915000", "145453.375000", "145453.835000", "145454.295000", "145454.755000", "145455.215000", "145455.675000", "145456.135000", "145456.595000", "145457.055000", "145457.515000", "145457.975000", "145458.435000", "145458.895000", "145459.355000", "145459.815000", "145500.275000", "145500.735000", "145501.195000", "145501.655000", "145502.115000", "145502.575000", "145503.035000", "145503.495000", "145503.955000", "145504.415000", "145504.875000", "145505.335000", "145505.795000", "145506.255000", "145506.715000", "145507.175000", "145507.635000", "145508.095000", "145508.555000", "145509.015000", "145509.475000", "145509.935000", "145510.395000", "145510.855000", "145511.315000", "145511.775000", "145512.235000", "145512.695000", "145513.155000", "145513.615000", "145514.075000", "145514.535000", "145514.995000", "145515.455000", "145515.915000", "145516.375000", "145516.835000", "145517.295000", "145517.755000", "145518.215000", "145518.675000", "145519.135000", "145519.595000", "145520.055000", "145520.515000", "145520.975000", "145521.435000", "145521.895000", "145522.355000", "145522.815000", "145523.275000", "145523.735000", "145524.195000", "145524.655000", "145525.115000", "145525.575000", "145526.035000", "145526.495000", "145526.955000", "145527.415000", "145527.875000", "145528.335000", "145528.795000", "145529.255000", "145529.715000", "145530.175000", "145530.635000", "145531.095000", "145531.555000", "145532.015000", "145532.475000", "145532.935000", "145533.395000", "145533.855000", "145534.315000", "145534.775000", "145535.235000", "145535.695000", "145536.155000", "145536.615000", "145537.075000", "145537.535000", "145537.995000", "145538.455000", "145538.915000", "145539.375000", "145539.835000", "145540.295000", "145540.755000", "145541.215000", "145541.675000", "145542.135000", "145542.595000", "145543.055000", "145543.515000", "145543.975000", "145544.435000", "145544.895000", "145545.355000", "145545.815000", "145546.275000", "145546.735000", "145547.195000", "145547.655000", "145548.115000", "145548.575000", "145549.035000", "145549.495000", "145549.955000", "145550.415000", "145550.875000", "145551.335000", "145551.795000", "145552.255000", "145552.715000", "145553.175000", "145553.635000", "145554.095000", "145554.555000", "145555.015000", "145555.475000", "145555.935000", "145556.395000", "145556.855000", "145557.315000", "145557.775000", "145558.235000", "145558.695000", "145559.155000", "145559.615000", "145600.075000", "145600.535000", "145600.995000", "145601.455000", "145601.915000", "145602.375000", "145602.835000", "145603.295000", "145603.755000", "145604.215000", "145604.675000", "145605.135000", "145605.595000", "145606.055000", "145606.515000", "145606.975000", "145607.435000", "145607.895000", "145608.355000", "145608.815000", "145609.275000", "145609.735000", "145610.195000", "145610.655000", "145611.115000", "145611.575000", "145612.035000", "145612.495000", "145612.955000", "145613.415000", "145613.875000", "145614.335000", "145614.795000", "145615.255000", "145615.715000", "145616.175000", "145616.635000", "145617.095000", "145617.555000", "145618.015000", "145618.475000", "145618.935000", "145619.395000", "145619.855000", "145620.315000", "145620.775000", "145621.235000", "145621.695000", "145622.155000", "145622.615000", "145623.075000", "145623.535000", "145623.995000", "145624.455000", "145624.915000", "145625.375000", "145625.835000", "145626.295000", "145626.755000", "145627.215000", "145627.675000", "145628.135000", "145628.595000", "145629.055000", "145629.515000", "145629.975000", "145630.435000", "145630.895000", "145631.355000", "145631.815000", "145632.275000", "145632.735000", "145633.195000", "145633.655000", "145634.115000", "145634.575000", "145635.035000", "145635.495000", "145635.955000", "145636.415000", "145636.875000", "145637.335000", "145637.795000", "145638.255000", "145638.715000", "145639.175000", "145639.635000", "145640.095000", "145640.555000", "145641.015000", "145641.475000", "145641.935000", "145642.395000", "145642.855000", "145643.315000", "145643.775000", "145644.235000", "145644.695000", "145645.155000"],
