{
  "AcquisitionMatrixPE": 82,
  "AcquisitionNumber": 1,
  "AcquisitionTime": "14:24:51.190000",
  "BandwidthPerPixelPhaseEncode": 24.888,
  "BaseResolution": 82,
  "BodyPartExamined": "BRAIN",
  "ConsistencyInfo": "N4_VE11C_LATEST_20160120",
  "ConversionSoftware": "dcm2niix",
  "ConversionSoftwareVersion": "v1.0.20201102",
  "DerivedVendorReportedEchoSpacing": 0.00049,
  "DeviceSerialNumber": "66112",
  "DwellTime": 2e-06,
  "EchoTime": 0.0272,
  "EchoTrainLength": 82,
  "EffectiveEchoSpacing": 0.00049,
  "FlipAngle": 44,
  "ImageComments": "Unaliased MB8/PE3",
  "ImageOrientationPatientDICOM": [0.991787, 0.0733625, 0.104765, -0.0691786, 0.996676, -0.0430311],
  "ImageType": [
    "ORIGINAL",
    "PRIMARY",
    "M",
    "MB",
    "ND",
    "NORM",
    "MOSAIC"
],
  "ImagingFrequency": 123.252,
  "InPlanePhaseEncodingDirectionDICOM": "COL",
  "InstitutionAddress": "Maynard 3,Hanover,NH,US,03755",
  "InstitutionName": "Dartmouth College - PBS",
  "InstitutionalDepartmentName": "Department",
  "MRAcquisitionType": "2D",
  "MagneticFieldStrength": 3,
  "Manufacturer": "Siemens",
  "ManufacturersModelName": "Prisma",
  "Modality": "MR",
  "MultibandAccelerationFactor": 8,
  "PartialFourier": 1,
  "PatientPosition": "HFS",
  "PercentPhaseFOV": 100,
  "PercentSampling": 100,
  "PhaseEncodingDirection": "j-",
  "PhaseEncodingSteps": 82,
  "PhaseResolution": 1,
  "PixelBandwidth": 3050,
  "ProcedureStepDescription": "Wager_Wager^1076_spacetop",
  "ProtocolName": "func_run-04_task-social_acq-ap-mb8",
  "PulseSequenceDetails": "%CustomerSeq%\\cmrr_mbep2d_bold",
  "ReceiveCoilActiveElements": "HEA;HEP",
  "ReceiveCoilName": "Head_32",
  "ReconMatrixPE": 82,
  "RepetitionTime": 0.46,
  "SAR": 0.10858,
  "ScanOptions": "FS",
  "ScanningSequence": "EP",
  "SequenceName": "epfid2d1_82",
  "SequenceVariant": "SK\\SS",
  "SeriesDescription": "func_run-04_task-social_acq-ap-mb8",
  "SeriesNumber": 18,
  "ShimSetting": [4171, -7765, -7131, 742, -32, -105, -201, -3],
  "SliceThickness": 2.7,
  "SliceTiming": [0, 0.2525, 0.0625, 0.315, 0.1275, 0.3775, 0.19, 0, 0.2525, 0.0625, 0.315, 0.1275, 0.3775, 0.19, 0, 0.2525, 0.0625, 0.315, 0.1275, 0.3775, 0.19, 0, 0.2525, 0.0625, 0.315, 0.1275, 0.3775, 0.19, 0, 0.2525, 0.0625, 0.315, 0.1275, 0.3775, 0.19, 0, 0.2525, 0.0625, 0.315, 0.1275, 0.3775, 0.19, 0, 0.2525, 0.0625, 0.315, 0.1275, 0.3775, 0.19, 0, 0.2525, 0.0625, 0.315, 0.1275, 0.3775, 0.19],
  "SoftwareVersions": "syngo MR E11",
  "SpacingBetweenSlices": 2.7,
  "StationName": "AWP66112",
  "TaskName": "social",
  "TotalReadoutTime": 0.03969,
  "TxRefAmp": 241.786,
  "WipMemBlock": "6c123804-91d9-4236-b973-e4c7b4e9027a||Sequence: R016 ve11c/master r/e634e98; Dec 19 2017 11:00:25 by eja",
  "dcmmeta_affine": [
    [-2.660893201828003, -0.18560126423835754, 0.290448397397995, 116.07282257080078],
    [-0.19682632386684418, 2.674008369445801, -0.09566163271665573, -85.4970932006836],
    [0.28107646107673645, 0.11544935405254364, 2.6826272010803223, -48.687828063964844],
    [0.0, 0.0, 0.0, 1.0]
],
  "dcmmeta_reorient_transform": [
    [0.0, -1.0, 0.0, 81.0],
    [1.0, 0.0, 0.0, 0.0],
    [0.0, 0.0, 1.0, 0.0],
    [0.0, 0.0, 0.0, 1.0]
],
  "dcmmeta_shape": [82, 82, 56, 872],
  "dcmmeta_slice_dim": 2,
  "dcmmeta_version": 0.6,
  "global": {
    "const": {
      "AccessionNumber": "A003748",
      "AcquisitionMatrix": [82, 0, 0, 82],
      "AngioFlag": "N",
      "BitsAllocated": 16,
      "BitsStored": 16,
      "BodyPartExamined": "BRAIN",
      "Columns": 656,
      "EchoNumbers": 1,
      "EchoTime": 27.2,
      "EchoTrainLength": 82,
      "FlipAngle": 44.0,
      "HighBit": 15,
      "ImageOrientationPatient": [0.99178740757093, 0.07336253715954, 0.10476486207341, -0.0691786514121, 0.99667579318492, -0.0430311220864],
      "ImagePositionPatient": [-811.44787654624, -955.02710852299, -86.871411630563],
      "ImageType": [
        "ORIGINAL",
        "PRIMARY",
        "M",
        "MB",
        "ND",
        "NORM",
        "MOSAIC"
],
      "ImagedNucleus": "1H",
      "ImagingFrequency": 123.252241,
      "InPlanePhaseEncodingDirection": "COL",
      "MRAcquisitionType": "2D",
      "MagneticFieldStrength": 3.0,
      "Manufacturer": "SIEMENS",
      "ManufacturerModelName": "Prisma",
      "Modality": "MR",
      "NumberOfAverages": 1.0,
      "NumberOfPhaseEncodingSteps": 82,
      "PercentPhaseFieldOfView": 100.0,
      "PercentSampling": 100.0,
      "PerformedProcedureStepStartTime": "134056.968000",
      "PhotometricInterpretation": "MONOCHROME2",
      "PixelBandwidth": 3050.0,
      "PixelRepresentation": 0,
      "PixelSpacing": [2.6829268932343, 2.6829268932343],
      "ProtocolName": "func_run-04_task-social_acq-ap-mb8",
      "RepetitionTime": 460.0,
      "Rows": 656,
      "SAR": 0.10857957331689,
      "SamplesPerPixel": 1,
      "ScanOptions": "FS",
      "ScanningSequence": "EP",
      "SequenceName": "epfid2d1_82",
      "SequenceVariant": [
        "SK",
        "SS"
],
      "SeriesDescription": "func_run-04_task-social_acq-ap-mb8",
      "SeriesNumber": 18,
      "SeriesTime": "142458.540000",
      "SliceLocation": -32.859013997079,
      "SliceThickness": 2.7000000476837,
      "SmallestImagePixelValue": 0,
      "SoftwareVersions": "syngo MR E11",
      "SpacingBetweenSlices": 2.7000000630581,
      "SpecificCharacterSet": "ISO_IR 100",
      "StudyID": "1",
      "StudyTime": "134056.860000",
      "TransmitCoilName": "Body",
      "VariableFlipAngleFlag": "N",
      "WindowCenterWidthExplanation": "Algo1",
      "dBdt": 0.0},
    "slices": {}
  },
  "time": {
    "samples": {
      "AcquisitionNumber": [1, 2, 3, 4, 5, 6, 7, 8, 9, 10, 11, 12, 13, 14, 15, 16, 17, 18, 19, 20, 21, 22, 23, 24, 25, 26, 27, 28, 29, 30, 31, 32, 33, 34, 35, 36, 37, 38, 39, 40, 41, 42, 43, 44, 45, 46, 47, 48, 49, 50, 51, 52, 53, 54, 55, 56, 57, 58, 59, 60, 61, 62, 63, 64, 65, 66, 67, 68, 69, 70, 71, 72, 73, 74, 75, 76, 77, 78, 79, 80, 81, 82, 83, 84, 85, 86, 87, 88, 89, 90, 91, 92, 93, 94, 95, 96, 97, 98, 99, 100, 101, 102, 103, 104, 105, 106, 107, 108, 109, 110, 111, 112, 113, 114, 115, 116, 117, 118, 119, 120, 121, 122, 123, 124, 125, 126, 127, 128, 129, 130, 131, 132, 133, 134, 135, 136, 137, 138, 139, 140, 141, 142, 143, 144, 145, 146, 147, 148, 149, 150, 151, 152, 153, 154, 155, 156, 157, 158, 159, 160, 161, 162, 163, 164, 165, 166, 167, 168, 169, 170, 171, 172, 173, 174, 175, 176, 177, 178, 179, 180, 181, 182, 183, 184, 185, 186, 187, 188, 189, 190, 191, 192, 193, 194, 195, 196, 197, 198, 199, 200, 201, 202, 203, 204, 205, 206, 207, 208, 209, 210, 211, 212, 213, 214, 215, 216, 217, 218, 219, 220, 221, 222, 223, 224, 225, 226, 227, 228, 229, 230, 231, 232, 233, 234, 235, 236, 237, 238, 239, 240, 241, 242, 243, 244, 245, 246, 247, 248, 249, 250, 251, 252, 253, 254, 255, 256, 257, 258, 259, 260, 261, 262, 263, 264, 265, 266, 267, 268, 269, 270, 271, 272, 273, 274, 275, 276, 277, 278, 279, 280, 281, 282, 283, 284, 285, 286, 287, 288, 289, 290, 291, 292, 293, 294, 295, 296, 297, 298, 299, 300, 301, 302, 303, 304, 305, 306, 307, 308, 309, 310, 311, 312, 313, 314, 315, 316, 317, 318, 319, 320, 321, 322, 323, 324, 325, 326, 327, 328, 329, 330, 331, 332, 333, 334, 335, 336, 337, 338, 339, 340, 341, 342, 343, 344, 345, 346, 347, 348, 349, 350, 351, 352, 353, 354, 355, 356, 357, 358, 359, 360, 361, 362, 363, 364, 365, 366, 367, 368, 369, 370, 371, 372, 373, 374, 375, 376, 377, 378, 379, 380, 381, 382, 383, 384, 385, 386, 387, 388, 389, 390, 391, 392, 393, 394, 395, 396, 397, 398, 399, 400, 401, 402, 403, 404, 405, 406, 407, 408, 409, 410, 411, 412, 413, 414, 415, 416, 417, 418, 419, 420, 421, 422, 423, 424, 425, 426, 427, 428, 429, 430, 431, 432, 433, 434, 435, 436, 437, 438, 439, 440, 441, 442, 443, 444, 445, 446, 447, 448, 449, 450, 451, 452, 453, 454, 455, 456, 457, 458, 459, 460, 461, 462, 463, 464, 465, 466, 467, 468, 469, 470, 471, 472, 473, 474, 475, 476, 477, 478, 479, 480, 481, 482, 483, 484, 485, 486, 487, 488, 489, 490, 491, 492, 493, 494, 495, 496, 497, 498, 499, 500, 501, 502, 503, 504, 505, 506, 507, 508, 509, 510, 511, 512, 513, 514, 515, 516, 517, 518, 519, 520, 521, 522, 523, 524, 525, 526, 527, 528, 529, 530, 531, 532, 533, 534, 535, 536, 537, 538, 539, 540, 541, 542, 543, 544, 545, 546, 547, 548, 549, 550, 551, 552, 553, 554, 555, 556, 557, 558, 559, 560, 561, 562, 563, 564, 565, 566, 567, 568, 569, 570, 571, 572, 573, 574, 575, 576, 577, 578, 579, 580, 581, 582, 583, 584, 585, 586, 587, 588, 589, 590, 591, 592, 593, 594, 595, 596, 597, 598, 599, 600, 601, 602, 603, 604, 605, 606, 607, 608, 609, 610, 611, 612, 613, 614, 615, 616, 617, 618, 619, 620, 621, 622, 623, 624, 625, 626, 627, 628, 629, 630, 631, 632, 633, 634, 635, 636, 637, 638, 639, 640, 641, 642, 643, 644, 645, 646, 647, 648, 649, 650, 651, 652, 653, 654, 655, 656, 657, 658, 659, 660, 661, 662, 663, 664, 665, 666, 667, 668, 669, 670, 671, 672, 673, 674, 675, 676, 677, 678, 679, 680, 681, 682, 683, 684, 685, 686, 687, 688, 689, 690, 691, 692, 693, 694, 695, 696, 697, 698, 699, 700, 701, 702, 703, 704, 705, 706, 707, 708, 709, 710, 711, 712, 713, 714, 715, 716, 717, 718, 719, 720, 721, 722, 723, 724, 725, 726, 727, 728, 729, 730, 731, 732, 733, 734, 735, 736, 737, 738, 739, 740, 741, 742, 743, 744, 745, 746, 747, 748, 749, 750, 751, 752, 753, 754, 755, 756, 757, 758, 759, 760, 761, 762, 763, 764, 765, 766, 767, 768, 769, 770, 771, 772, 773, 774, 775, 776, 777, 778, 779, 780, 781, 782, 783, 784, 785, 786, 787, 788, 789, 790, 791, 792, 793, 794, 795, 796, 797, 798, 799, 800, 801, 802, 803, 804, 805, 806, 807, 808, 809, 810, 811, 812, 813, 814, 815, 816, 817, 818, 819, 820, 821, 822, 823, 824, 825, 826, 827, 828, 829, 830, 831, 832, 833, 834, 835, 836, 837, 838, 839, 840, 841, 842, 843, 844, 845, 846, 847, 848, 849, 850, 851, 852, 853, 854, 855, 856, 857, 858, 859, 860, 861, 862, 863, 864, 865, 866, 867, 868, 869, 870, 871, 872],
      "AcquisitionTime": ["142451.190000", "142451.650000", "142452.110000", "142452.570000", "142453.030000", "142453.490000", "142453.950000", "142454.410000", "142454.870000", "142455.330000", "142455.790000", "142456.250000", "142456.710000", "142457.170000", "142457.630000", "142458.090000", "142458.550000", "142459.010000", "142459.470000", "142459.930000", "142500.390000", "142500.850000", "142501.310000", "142501.770000", "142502.230000", "142502.690000", "142503.150000", "142503.610000", "142504.070000", "142504.530000", "142504.990000", "142505.450000", "142505.910000", "142506.370000", "142506.830000", "142507.290000", "142507.750000", "142508.210000", "142508.670000", "142509.130000", "142509.590000", "142510.050000", "142510.510000", "142510.970000", "142511.430000", "142511.890000", "142512.350000", "142512.810000", "142513.270000", "142513.730000", "142514.190000", "142514.650000", "142515.110000", "142515.570000", "142516.030000", "142516.490000", "142516.950000", "142517.410000", "142517.870000", "142518.330000", "142518.790000", "142519.250000", "142519.710000", "142520.170000", "142520.630000", "142521.090000", "142521.550000", "142522.010000", "142522.470000", "142522.930000", "142523.390000", "142523.850000", "142524.310000", "142524.770000", "142525.230000", "142525.690000", "142526.150000", "142526.610000", "142527.070000", "142527.530000", "142527.990000", "142528.450000", "142528.910000", "142529.370000", "142529.830000", "142530.290000", "142530.750000", "142531.210000", "142531.670000", "142532.130000", "142532.590000", "142533.050000", "142533.510000", "142533.970000", "142534.430000", "142534.890000", "142535.350000", "142535.810000", "142536.270000", "142536.730000", "142537.190000", "142537.650000", "142538.110000", "142538.570000", "142539.030000", "142539.490000", "142539.950000", "142540.410000", "142540.870000", "142541.330000", "142541.790000", "142542.250000", "142542.710000", "142543.170000", "142543.630000", "142544.090000", "142544.550000", "142545.010000", "142545.470000", "142545.930000", "142546.390000", "142546.850000", "142547.310000", "142547.770000", "142548.230000", "142548.690000", "142549.150000", "142549.610000", "142550.070000", "142550.530000", "142550.990000", "142551.450000", "142551.910000", "142552.370000", "142552.830000", "142553.290000", "142553.750000", "142554.210000", "142554.670000", "142555.130000", "142555.590000", "142556.050000", "142556.510000", "142556.970000", "142557.430000", "142557.890000", "142558.350000", "142558.810000", "142559.270000", "142559.730000", "142600.190000", "142600.650000", "142601.110000", "142601.570000", "142602.030000", "142602.490000", "142602.950000", "142603.410000", "142603.870000", "142604.330000", "142604.790000", "142605.250000", "142605.710000", "142606.170000", "142606.630000", "142607.090000", "142607.550000", "142608.010000", "142608.470000", "142608.930000", "142609.390000", "142609.850000", "142610.310000", "142610.770000", "142611.230000", "142611.690000", "142612.150000", "142612.610000", "142613.070000", "142613.530000", "142613.990000", "142614.450000", "142614.910000", "142615.370000", "142615.830000", "142616.290000", "142616.750000", "142617.210000", "142617.670000", "142618.130000", "142618.590000", "142619.050000", "142619.510000", "142619.970000", "142620.430000", "142620.890000", "142621.350000", "142621.810000", "142622.270000", "142622.730000", "142623.190000", "142623.650000", "142624.110000", "142624.570000", "142625.030000", "142625.490000", "142625.950000", "142626.410000", "142626.870000", "142627.330000", "142627.790000", "142628.250000", "142628.710000", "142629.170000", "142629.630000", "142630.090000", "142630.550000", "142631.010000", "142631.470000", "142631.930000", "142632.390000", "142632.850000", "142633.310000", "142633.770000", "142634.230000", "142634.690000", "142635.150000", "142635.610000", "142636.070000", "142636.530000", "142636.990000", "142637.450000", "142637.910000", "142638.370000", "142638.830000", "142639.290000", "142639.750000", "142640.210000", "142640.670000", "142641.130000", "142641.590000", "142642.050000", "142642.510000", "142642.970000", "142643.430000", "142643.890000", "142644.350000", "142644.810000", "142645.270000", "142645.730000", "142646.190000", "142646.650000", "142647.110000", "142647.570000", "142648.030000", "142648.490000", "142648.950000", "142649.410000", "142649.870000", "142650.330000", "142650.790000", "142651.250000", "142651.710000", "142652.170000", "142652.630000", "142653.090000", "142653.550000", "142654.010000", "142654.470000", "142654.930000", "142655.390000", "142655.850000", "142656.310000", "142656.770000", "142657.230000", "142657.690000", "142658.150000", "142658.610000", "142659.070000", "142659.530000", "142659.990000", "142700.450000", "142700.910000", "142701.370000", "142701.830000", "142702.290000", "142702.750000", "142703.210000", "142703.670000", "142704.130000", "142704.590000", "142705.050000", "142705.510000", "142705.970000", "142706.430000", "142706.890000", "142707.350000", "142707.810000", "142708.270000", "142708.730000", "142709.190000", "142709.650000", "142710.110000", "142710.570000", "142711.030000", "142711.490000", "142711.950000", "142712.410000", "142712.870000", "142713.330000", "142713.790000", "142714.250000", "142714.710000", "142715.170000", "142715.630000", "142716.090000", "142716.550000", "142717.010000", "142717.470000", "142717.930000", "142718.390000", "142718.850000", "142719.310000", "142719.770000", "142720.230000", "142720.690000", "142721.150000", "142721.610000", "142722.070000", "142722.530000", "142722.990000", "142723.450000", "142723.910000", "142724.370000", "142724.830000", "142725.290000", "142725.750000", "142726.210000", "142726.670000", "142727.130000", "142727.590000", "142728.050000", "142728.510000", "142728.970000", "142729.430000", "142729.890000", "142730.350000", "142730.810000", "142731.270000", "142731.730000", "142732.190000", "142732.650000", "142733.110000", "142733.570000", "142734.030000", "142734.490000", "142734.950000", "142735.410000", "142735.870000", "142736.330000", "142736.790000", "142737.250000", "142737.710000", "142738.170000", "142738.630000", "142739.090000", "142739.550000", "142740.010000", "142740.470000", "142740.930000", "142741.390000", "142741.850000", "142742.310000", "142742.770000", "142743.230000", "142743.690000", "142744.150000", "142744.610000", "142745.070000", "142745.530000", "142745.990000", "142746.450000", "142746.910000", "142747.370000", "142747.830000", "142748.290000", "142748.750000", "142749.210000", "142749.670000", "142750.130000", "142750.590000", "142751.050000", "142751.510000", "142751.970000", "142752.430000", "142752.890000", "142753.350000", "142753.810000", "142754.270000", "142754.730000", "142755.190000", "142755.650000", "142756.110000", "142756.570000", "142757.030000", "142757.490000", "142757.950000", "142758.410000", "142758.870000", "142759.330000", "142759.790000", "142800.250000", "142800.710000", "142801.170000", "142801.630000", "142802.090000", "142802.550000", "142803.010000", "142803.470000", "142803.930000", "142804.390000", "142804.850000", "142805.310000", "142805.770000", "142806.230000", "142806.690000", "142807.150000", "142807.610000", "142808.070000", "142808.530000", "142808.990000", "142809.450000", "142809.910000", "142810.370000", "142810.830000", "142811.290000", "142811.750000", "142812.210000", "142812.670000", "142813.130000", "142813.590000", "142814.050000", "142814.510000", "142814.970000", "142815.430000", "142815.890000", "142816.350000", "142816.810000", "142817.270000", "142817.730000", "142818.190000", "142818.650000", "142819.110000", "142819.570000", "142820.030000", "142820.490000", "142820.950000", "142821.410000", "142821.870000", "142822.330000", "142822.790000", "142823.250000", "142823.710000", "142824.170000", "142824.630000", "142825.090000", "142825.550000", "142826.010000", "142826.470000", "142826.930000", "142827.390000", "142827.850000", "142828.310000", "142828.770000", "142829.230000", "142829.690000", "142830.150000", "142830.610000", "142831.070000", "142831.530000", "142831.990000", "142832.450000", "142832.910000", "142833.370000", "142833.830000", "142834.290000", "142834.750000", "142835.210000", "142835.670000", "142836.130000", "142836.590000", "142837.050000", "142837.510000", "142837.970000", "142838.430000", "142838.890000", "142839.350000", "142839.810000", "142840.270000", "142840.730000", "142841.190000", "142841.650000", "142842.110000", "142842.570000", "142843.030000", "142843.490000", "142843.950000", "142844.410000", "142844.870000", "142845.330000", "142845.790000", "142846.250000", "142846.710000", "142847.170000", "142847.630000", "142848.090000", "142848.550000", "142849.010000", "142849.470000", "142849.930000", "142850.390000", "142850.850000", "142851.310000", "142851.770000", "142852.230000", "142852.690000", "142853.150000", "142853.610000", "142854.070000", "142854.530000", "142854.990000", "142855.450000", "142855.910000", "142856.370000", "142856.830000", "142857.290000", "142857.750000", "142858.210000", "142858.670000", "142859.130000", "142859.590000", "142900.050000", "142900.510000", "142900.970000", "142901.430000", "142901.890000", "142902.350000", "142902.810000", "142903.270000", "142903.730000", "142904.190000", "142904.650000", "142905.110000", "142905.570000", "142906.030000", "142906.490000", "142906.950000", "142907.410000", "142907.870000", "142908.330000", "142908.790000", "142909.250000", "142909.710000", "142910.170000", "142910.630000", "142911.090000", "142911.550000", "142912.010000", "142912.470000", "142912.930000", "142913.390000", "142913.850000", "142914.310000", "142914.770000", "142915.230000", "142915.690000", "142916.150000", "142916.610000", "142917.070000", "142917.530000", "142917.990000", "142918.450000", "142918.910000", "142919.370000", "142919.830000", "142920.290000", "142920.750000", "142921.210000", "142921.670000", "142922.130000", "142922.590000", "142923.050000", "142923.510000", "142923.970000", "142924.430000", "142924.890000", "142925.350000", "142925.810000", "142926.270000", "142926.730000", "142927.190000", "142927.650000", "142928.110000", "142928.570000", "142929.030000", "142929.490000", "142929.950000", "142930.410000", "142930.870000", "142931.330000", "142931.790000", "142932.250000", "142932.710000", "142933.170000", "142933.630000", "142934.090000", "142934.550000", "142935.010000", "142935.470000", "142935.930000", "142936.390000", "142936.850000", "142937.310000", "142937.770000", "142938.230000", "142938.690000", "142939.150000", "142939.610000", "142940.070000", "142940.530000", "142940.990000", "142941.450000", "142941.910000", "142942.370000", "142942.830000", "142943.290000", "142943.750000", "142944.210000", "142944.670000", "142945.130000", "142945.590000", "142946.050000", "142946.510000", "142946.970000", "142947.430000", "142947.890000", "142948.350000", "142948.810000", "142949.270000", "142949.730000", "142950.190000", "142950.650000", "142951.110000", "142951.570000", "142952.030000", "142952.490000", "142952.950000", "142953.410000", "142953.870000", "142954.330000", "142954.790000", "142955.250000", "142955.710000", "142956.170000", "142956.630000", "142957.090000", "142957.550000", "142958.010000", "142958.470000", "142958.930000", "142959.390000", "142959.850000", "143000.310000", "143000.770000", "143001.230000", "143001.690000", "143002.150000", "143002.610000", "143003.070000", "143003.530000", "143003.990000", "143004.450000", "143004.910000", "143005.370000", "143005.830000", "143006.290000", "143006.750000", "143007.210000", "143007.670000", "143008.130000", "143008.590000", "143009.050000", "143009.510000", "143009.970000", "143010.430000", "143010.890000", "143011.350000", "143011.810000", "143012.270000", "143012.730000", "143013.190000", "143013.650000", "143014.110000", "143014.570000", "143015.030000", "143015.490000", "143015.950000", "143016.410000", "143016.870000", "143017.330000", "143017.790000", "143018.250000", "143018.710000", "143019.170000", "143019.630000", "143020.090000", "143020.550000", "143021.010000", "143021.470000", "143021.930000", "143022.390000", "143022.850000", "143023.310000", "143023.770000", "143024.230000", "143024.690000", "143025.150000", "143025.610000", "143026.070000", "143026.530000", "143026.990000", "143027.450000", "143027.910000", "143028.370000", "143028.830000", "143029.290000", "143029.750000", "143030.210000", "143030.670000", "143031.130000", "143031.590000", "143032.050000", "143032.510000", "143032.970000", "143033.430000", "143033.890000", "143034.350000", "143034.810000", "143035.270000", "143035.730000", "143036.190000", "143036.650000", "143037.110000", "143037.570000", "143038.030000", "143038.490000", "143038.950000", "143039.410000", "143039.870000", "143040.330000", "143040.790000", "143041.250000", "143041.710000", "143042.170000", "143042.630000", "143043.090000", "143043.550000", "143044.010000", "143044.470000", "143044.930000", "143045.390000", "143045.850000", "143046.310000", "143046.770000", "143047.230000", "143047.690000", "143048.150000", "143048.610000", "143049.070000", "143049.530000", "143049.990000", "143050.450000", "143050.910000", "143051.370000", "143051.830000", "143052.290000", "143052.750000", "143053.210000", "143053.670000", "143054.130000", "143054.590000", "143055.050000", "143055.510000", "143055.970000", "143056.430000", "143056.890000", "143057.350000", "143057.810000", "143058.270000", "143058.730000", "143059.190000", "143059.650000", "143100.110000", "143100.570000", "143101.030000", "143101.490000", "143101.950000", "143102.410000", "143102.870000", "143103.330000", "143103.790000", "143104.250000", "143104.710000", "143105.170000", "143105.630000", "143106.090000", "143106.550000", "143107.010000", "143107.470000", "143107.930000", "143108.390000", "143108.850000", "143109.310000", "143109.770000", "143110.230000", "143110.690000", "143111.150000", "143111.610000", "143112.070000", "143112.530000", "143112.990000", "143113.450000", "143113.910000", "143114.370000", "143114.830000", "143115.290000", "143115.750000", "143116.210000", "143116.670000", "143117.130000", "143117.590000", "143118.050000", "143118.510000", "143118.970000", "143119.430000", "143119.890000", "143120.350000", "143120.810000", "143121.270000", "143121.730000", "143122.190000", "143122.650000", "143123.110000", "143123.570000", "143124.030000", "143124.490000", "143124.950000", "143125.410000", "143125.870000", "143126.330000", "143126.790000", "143127.250000", "143127.710000", "143128.170000", "143128.630000", "143129.090000", "143129.550000", "143130.010000", "143130.470000", "143130.930000", "143131.390000", "143131.850000"],
