{
  "AcquisitionMatrixPE": 82,
  "AcquisitionNumber": 1,
  "AcquisitionTime": "14:32:26.085000",
  "BandwidthPerPixelPhaseEncode": 24.888,
  "BaseResolution": 82,
  "BodyPartExamined": "BRAIN",
  "ConsistencyInfo": "N4_VE11C_LATEST_20160120",
  "ConversionSoftware": "dcm2niix",
  "ConversionSoftwareVersion": "v1.0.20201102",
  "DerivedVendorReportedEchoSpacing": 0.00049,
  "DeviceSerialNumber": "66112",
  "DwellTime": 2e-06,
  "EchoTime": 0.0272,
  "EchoTrainLength": 82,
  "EffectiveEchoSpacing": 0.00049,
  "FlipAngle": 44,
  "ImageComments": "Unaliased MB8/PE3",
  "ImageOrientationPatientDICOM": [0.991787, 0.0733625, 0.104765, -0.0691786, 0.996676, -0.0430311],
  "ImageType": [
    "ORIGINAL",
    "PRIMARY",
    "M",
    "MB",
    "ND",
    "NORM",
    "MOSAIC"
],
  "ImagingFrequency": 123.252,
  "InPlanePhaseEncodingDirectionDICOM": "COL",
  "InstitutionAddress": "Maynard 3,Hanover,NH,US,03755",
  "InstitutionName": "Dartmouth College - PBS",
  "InstitutionalDepartmentName": "Department",
  "MRAcquisitionType": "2D",
  "MagneticFieldStrength": 3,
  "Manufacturer": "Siemens",
  "ManufacturersModelName": "Prisma",
  "Modality": "MR",
  "MultibandAccelerationFactor": 8,
  "PartialFourier": 1,
  "PatientPosition": "HFS",
  "PercentPhaseFOV": 100,
  "PercentSampling": 100,
  "PhaseEncodingDirection": "j-",
  "PhaseEncodingSteps": 82,
  "PhaseResolution": 1,
  "PixelBandwidth": 3050,
  "ProcedureStepDescription": "Wager_Wager^1076_spacetop",
  "ProtocolName": "func_run-05_task-social_acq-ap-mb8",
  "PulseSequenceDetails": "%CustomerSeq%\\cmrr_mbep2d_bold",
  "ReceiveCoilActiveElements": "HEA;HEP",
  "ReceiveCoilName": "Head_32",
  "ReconMatrixPE": 82,
  "RepetitionTime": 0.46,
  "SAR": 0.10858,
  "ScanOptions": "FS",
  "ScanningSequence": "EP",
  "SequenceName": "epfid2d1_82",
  "SequenceVariant": "SK\\SS",
  "SeriesDescription": "func_run-05_task-social_acq-ap-mb8",
  "SeriesNumber": 20,
  "ShimSetting": [4171, -7765, -7131, 742, -32, -105, -201, -3],
  "SliceThickness": 2.7,
  "SliceTiming": [0, 0.2525, 0.0625, 0.315, 0.125, 0.3775, 0.19, 0, 0.2525, 0.0625, 0.315, 0.125, 0.3775, 0.19, 0, 0.2525, 0.0625, 0.315, 0.125, 0.3775, 0.19, 0, 0.2525, 0.0625, 0.315, 0.125, 0.3775, 0.19, 0, 0.2525, 0.0625, 0.315, 0.125, 0.3775, 0.19, 0, 0.2525, 0.0625, 0.315, 0.125, 0.3775, 0.19, 0, 0.2525, 0.0625, 0.315, 0.125, 0.3775, 0.19, 0, 0.2525, 0.0625, 0.315, 0.125, 0.3775, 0.19],
  "SoftwareVersions": "syngo MR E11",
  "SpacingBetweenSlices": 2.7,
  "StationName": "AWP66112",
  "TaskName": "social",
  "TotalReadoutTime": 0.03969,
  "TxRefAmp": 241.786,
  "WipMemBlock": "fdaf55a2-f06a-4ca7-8dcc-a601d448128f||Sequence: R016 ve11c/master r/e634e98; Dec 19 2017 11:00:25 by eja",
  "dcmmeta_affine": [
    [-2.660893201828003, -0.18560126423835754, 0.290448397397995, 116.07282257080078],
    [-0.19682632386684418, 2.674008369445801, -0.09566163271665573, -85.4970932006836],
    [0.28107646107673645, 0.11544935405254364, 2.6826272010803223, -48.687828063964844],
    [0.0, 0.0, 0.0, 1.0]
],
  "dcmmeta_reorient_transform": [
    [0.0, -1.0, 0.0, 81.0],
    [1.0, 0.0, 0.0, 0.0],
    [0.0, 0.0, 1.0, 0.0],
    [0.0, 0.0, 0.0, 1.0]
],
  "dcmmeta_shape": [82, 82, 56, 872],
  "dcmmeta_slice_dim": 2,
  "dcmmeta_version": 0.6,
  "global": {
    "const": {
      "AccessionNumber": "A003748",
      "AcquisitionMatrix": [82, 0, 0, 82],
      "AngioFlag": "N",
      "BitsAllocated": 16,
      "BitsStored": 16,
      "BodyPartExamined": "BRAIN",
      "Columns": 656,
      "EchoNumbers": 1,
      "EchoTime": 27.2,
      "EchoTrainLength": 82,
      "FlipAngle": 44.0,
      "HighBit": 15,
      "ImageOrientationPatient": [0.99178740757093, 0.07336253715954, 0.10476486207341, -0.0691786514121, 0.99667579318492, -0.0430311220864],
      "ImagePositionPatient": [-811.44787654624, -955.02710852299, -86.871411630563],
      "ImageType": [
        "ORIGINAL",
        "PRIMARY",
        "M",
        "MB",
        "ND",
        "NORM",
        "MOSAIC"
],
      "ImagedNucleus": "1H",
      "ImagingFrequency": 123.252237,
      "InPlanePhaseEncodingDirection": "COL",
      "MRAcquisitionType": "2D",
      "MagneticFieldStrength": 3.0,
      "Manufacturer": "SIEMENS",
      "ManufacturerModelName": "Prisma",
      "Modality": "MR",
      "NumberOfAverages": 1.0,
      "NumberOfPhaseEncodingSteps": 82,
      "PercentPhaseFieldOfView": 100.0,
      "PercentSampling": 100.0,
      "PerformedProcedureStepStartTime": "134056.968000",
      "PhotometricInterpretation": "MONOCHROME2",
      "PixelBandwidth": 3050.0,
      "PixelRepresentation": 0,
      "PixelSpacing": [2.6829268932343, 2.6829268932343],
      "ProtocolName": "func_run-05_task-social_acq-ap-mb8",
      "RepetitionTime": 460.0,
      "Rows": 656,
      "SAR": 0.10857957331689,
      "SamplesPerPixel": 1,
      "ScanOptions": "FS",
      "ScanningSequence": "EP",
      "SequenceName": "epfid2d1_82",
      "SequenceVariant": [
        "SK",
        "SS"
],
      "SeriesDescription": "func_run-05_task-social_acq-ap-mb8",
      "SeriesNumber": 20,
      "SeriesTime": "143238.608000",
      "SliceLocation": -32.859013997079,
      "SliceThickness": 2.7000000476837,
      "SmallestImagePixelValue": 0,
      "SoftwareVersions": "syngo MR E11",
      "SpacingBetweenSlices": 2.7000000630581,
      "SpecificCharacterSet": "ISO_IR 100",
      "StudyID": "1",
      "StudyTime": "134056.860000",
      "TransmitCoilName": "Body",
      "VariableFlipAngleFlag": "N",
      "WindowCenterWidthExplanation": "Algo1",
      "dBdt": 0.0},
    "slices": {}
  },
  "time": {
    "samples": {
      "AcquisitionNumber": [1, 2, 3, 4, 5, 6, 7, 8, 9, 10, 11, 12, 13, 14, 15, 16, 17, 18, 19, 20, 21, 22, 23, 24, 25, 26, 27, 28, 29, 30, 31, 32, 33, 34, 35, 36, 37, 38, 39, 40, 41, 42, 43, 44, 45, 46, 47, 48, 49, 50, 51, 52, 53, 54, 55, 56, 57, 58, 59, 60, 61, 62, 63, 64, 65, 66, 67, 68, 69, 70, 71, 72, 73, 74, 75, 76, 77, 78, 79, 80, 81, 82, 83, 84, 85, 86, 87, 88, 89, 90, 91, 92, 93, 94, 95, 96, 97, 98, 99, 100, 101, 102, 103, 104, 105, 106, 107, 108, 109, 110, 111, 112, 113, 114, 115, 116, 117, 118, 119, 120, 121, 122, 123, 124, 125, 126, 127, 128, 129, 130, 131, 132, 133, 134, 135, 136, 137, 138, 139, 140, 141, 142, 143, 144, 145, 146, 147, 148, 149, 150, 151, 152, 153, 154, 155, 156, 157, 158, 159, 160, 161, 162, 163, 164, 165, 166, 167, 168, 169, 170, 171, 172, 173, 174, 175, 176, 177, 178, 179, 180, 181, 182, 183, 184, 185, 186, 187, 188, 189, 190, 191, 192, 193, 194, 195, 196, 197, 198, 199, 200, 201, 202, 203, 204, 205, 206, 207, 208, 209, 210, 211, 212, 213, 214, 215, 216, 217, 218, 219, 220, 221, 222, 223, 224, 225, 226, 227, 228, 229, 230, 231, 232, 233, 234, 235, 236, 237, 238, 239, 240, 241, 242, 243, 244, 245, 246, 247, 248, 249, 250, 251, 252, 253, 254, 255, 256, 257, 258, 259, 260, 261, 262, 263, 264, 265, 266, 267, 268, 269, 270, 271, 272, 273, 274, 275, 276, 277, 278, 279, 280, 281, 282, 283, 284, 285, 286, 287, 288, 289, 290, 291, 292, 293, 294, 295, 296, 297, 298, 299, 300, 301, 302, 303, 304, 305, 306, 307, 308, 309, 310, 311, 312, 313, 314, 315, 316, 317, 318, 319, 320, 321, 322, 323, 324, 325, 326, 327, 328, 329, 330, 331, 332, 333, 334, 335, 336, 337, 338, 339, 340, 341, 342, 343, 344, 345, 346, 347, 348, 349, 350, 351, 352, 353, 354, 355, 356, 357, 358, 359, 360, 361, 362, 363, 364, 365, 366, 367, 368, 369, 370, 371, 372, 373, 374, 375, 376, 377, 378, 379, 380, 381, 382, 383, 384, 385, 386, 387, 388, 389, 390, 391, 392, 393, 394, 395, 396, 397, 398, 399, 400, 401, 402, 403, 404, 405, 406, 407, 408, 409, 410, 411, 412, 413, 414, 415, 416, 417, 418, 419, 420, 421, 422, 423, 424, 425, 426, 427, 428, 429, 430, 431, 432, 433, 434, 435, 436, 437, 438, 439, 440, 441, 442, 443, 444, 445, 446, 447, 448, 449, 450, 451, 452, 453, 454, 455, 456, 457, 458, 459, 460, 461, 462, 463, 464, 465, 466, 467, 468, 469, 470, 471, 472, 473, 474, 475, 476, 477, 478, 479, 480, 481, 482, 483, 484, 485, 486, 487, 488, 489, 490, 491, 492, 493, 494, 495, 496, 497, 498, 499, 500, 501, 502, 503, 504, 505, 506, 507, 508, 509, 510, 511, 512, 513, 514, 515, 516, 517, 518, 519, 520, 521, 522, 523, 524, 525, 526, 527, 528, 529, 530, 531, 532, 533, 534, 535, 536, 537, 538, 539, 540, 541, 542, 543, 544, 545, 546, 547, 548, 549, 550, 551, 552, 553, 554, 555, 556, 557, 558, 559, 560, 561, 562, 563, 564, 565, 566, 567, 568, 569, 570, 571, 572, 573, 574, 575, 576, 577, 578, 579, 580, 581, 582, 583, 584, 585, 586, 587, 588, 589, 590, 591, 592, 593, 594, 595, 596, 597, 598, 599, 600, 601, 602, 603, 604, 605, 606, 607, 608, 609, 610, 611, 612, 613, 614, 615, 616, 617, 618, 619, 620, 621, 622, 623, 624, 625, 626, 627, 628, 629, 630, 631, 632, 633, 634, 635, 636, 637, 638, 639, 640, 641, 642, 643, 644, 645, 646, 647, 648, 649, 650, 651, 652, 653, 654, 655, 656, 657, 658, 659, 660, 661, 662, 663, 664, 665, 666, 667, 668, 669, 670, 671, 672, 673, 674, 675, 676, 677, 678, 679, 680, 681, 682, 683, 684, 685, 686, 687, 688, 689, 690, 691, 692, 693, 694, 695, 696, 697, 698, 699, 700, 701, 702, 703, 704, 705, 706, 707, 708, 709, 710, 711, 712, 713, 714, 715, 716, 717, 718, 719, 720, 721, 722, 723, 724, 725, 726, 727, 728, 729, 730, 731, 732, 733, 734, 735, 736, 737, 738, 739, 740, 741, 742, 743, 744, 745, 746, 747, 748, 749, 750, 751, 752, 753, 754, 755, 756, 757, 758, 759, 760, 761, 762, 763, 764, 765, 766, 767, 768, 769, 770, 771, 772, 773, 774, 775, 776, 777, 778, 779, 780, 781, 782, 783, 784, 785, 786, 787, 788, 789, 790, 791, 792, 793, 794, 795, 796, 797, 798, 799, 800, 801, 802, 803, 804, 805, 806, 807, 808, 809, 810, 811, 812, 813, 814, 815, 816, 817, 818, 819, 820, 821, 822, 823, 824, 825, 826, 827, 828, 829, 830, 831, 832, 833, 834, 835, 836, 837, 838, 839, 840, 841, 842, 843, 844, 845, 846, 847, 848, 849, 850, 851, 852, 853, 854, 855, 856, 857, 858, 859, 860, 861, 862, 863, 864, 865, 866, 867, 868, 869, 870, 871, 872],
      "AcquisitionTime": ["143226.085000", "143226.545000", "143227.005000", "143227.465000", "143227.925000", "143228.385000", "143228.845000", "143229.305000", "143229.765000", "143230.225000", "143230.685000", "143231.145000", "143231.605000", "143232.065000", "143232.525000", "143232.985000", "143233.445000", "143233.905000", "143234.365000", "143234.825000", "143235.285000", "143235.745000", "143236.205000", "143236.665000", "143237.125000", "143237.585000", "143238.045000", "143238.505000", "143238.965000", "143239.425000", "143239.885000", "143240.345000", "143240.805000", "143241.265000", "143241.725000", "143242.185000", "143242.645000", "143243.105000", "143243.565000", "143244.025000", "143244.485000", "143244.945000", "143245.405000", "143245.865000", "143246.325000", "143246.785000", "143247.245000", "143247.705000", "143248.165000", "143248.625000", "143249.085000", "143249.545000", "143250.005000", "143250.465000", "143250.925000", "143251.385000", "143251.845000", "143252.305000", "143252.765000", "143253.225000", "143253.685000", "143254.145000", "143254.605000", "143255.065000", "143255.525000", "143255.985000", "143256.445000", "143256.905000", "143257.365000", "143257.825000", "143258.285000", "143258.745000", "143259.205000", "143259.665000", "143300.125000", "143300.585000", "143301.045000", "143301.505000", "143301.965000", "143302.425000", "143302.885000", "143303.345000", "143303.805000", "143304.265000", "143304.725000", "143305.185000", "143305.645000", "143306.105000", "143306.565000", "143307.025000", "143307.485000", "143307.945000", "143308.405000", "143308.865000", "143309.325000", "143309.785000", "143310.245000", "143310.705000", "143311.165000", "143311.625000", "143312.085000", "143312.545000", "143313.005000", "143313.465000", "143313.925000", "143314.385000", "143314.845000", "143315.305000", "143315.765000", "143316.225000", "143316.685000", "143317.145000", "143317.605000", "143318.065000", "143318.525000", "143318.985000", "143319.445000", "143319.905000", "143320.365000", "143320.825000", "143321.285000", "143321.745000", "143322.205000", "143322.665000", "143323.125000", "143323.585000", "143324.045000", "143324.505000", "143324.965000", "143325.425000", "143325.885000", "143326.345000", "143326.805000", "143327.265000", "143327.725000", "143328.185000", "143328.645000", "143329.105000", "143329.565000", "143330.025000", "143330.485000", "143330.945000", "143331.405000", "143331.865000", "143332.325000", "143332.785000", "143333.245000", "143333.705000", "143334.165000", "143334.625000", "143335.085000", "143335.545000", "143336.005000", "143336.465000", "143336.925000", "143337.385000", "143337.845000", "143338.305000", "143338.765000", "143339.225000", "143339.685000", "143340.145000", "143340.605000", "143341.065000", "143341.525000", "143341.985000", "143342.445000", "143342.905000", "143343.365000", "143343.825000", "143344.285000", "143344.745000", "143345.205000", "143345.665000", "143346.125000", "143346.585000", "143347.045000", "143347.505000", "143347.965000", "143348.425000", "143348.885000", "143349.345000", "143349.805000", "143350.265000", "143350.725000", "143351.185000", "143351.645000", "143352.105000", "143352.565000", "143353.025000", "143353.485000", "143353.945000", "143354.405000", "143354.865000", "143355.325000", "143355.785000", "143356.245000", "143356.705000", "143357.165000", "143357.625000", "143358.085000", "143358.545000", "143359.005000", "143359.465000", "143359.925000", "143400.385000", "143400.845000", "143401.305000", "143401.765000", "143402.225000", "143402.685000", "143403.145000", "143403.605000", "143404.065000", "143404.525000", "143404.985000", "143405.445000", "143405.905000", "143406.365000", "143406.825000", "143407.285000", "143407.745000", "143408.205000", "143408.665000", "143409.125000", "143409.585000", "143410.045000", "143410.505000", "143410.965000", "143411.425000", "143411.885000", "143412.345000", "143412.805000", "143413.265000", "143413.725000", "143414.185000", "143414.645000", "143415.105000", "143415.565000", "143416.025000", "143416.485000", "143416.945000", "143417.405000", "143417.865000", "143418.325000", "143418.785000", "143419.245000", "143419.705000", "143420.165000", "143420.625000", "143421.085000", "143421.545000", "143422.005000", "143422.465000", "143422.925000", "143423.385000", "143423.845000", "143424.305000", "143424.765000", "143425.225000", "143425.685000", "143426.145000", "143426.605000", "143427.065000", "143427.525000", "143427.985000", "143428.445000", "143428.905000", "143429.365000", "143429.825000", "143430.285000", "143430.745000", "143431.205000", "143431.665000", "143432.125000", "143432.585000", "143433.045000", "143433.505000", "143433.965000", "143434.425000", "143434.885000", "143435.345000", "143435.805000", "143436.265000", "143436.725000", "143437.185000", "143437.645000", "143438.105000", "143438.565000", "143439.025000", "143439.485000", "143439.945000", "143440.405000", "143440.865000", "143441.325000", "143441.785000", "143442.245000", "143442.705000", "143443.165000", "143443.625000", "143444.085000", "143444.545000", "143445.005000", "143445.465000", "143445.925000", "143446.385000", "143446.845000", "143447.305000", "143447.765000", "143448.225000", "143448.685000", "143449.145000", "143449.605000", "143450.065000", "143450.525000", "143450.985000", "143451.445000", "143451.905000", "143452.365000", "143452.825000", "143453.285000", "143453.745000", "143454.205000", "143454.665000", "143455.125000", "143455.585000", "143456.045000", "143456.505000", "143456.965000", "143457.425000", "143457.885000", "143458.345000", "143458.805000", "143459.265000", "143459.725000", "143500.185000", "143500.645000", "143501.105000", "143501.565000", "143502.025000", "143502.485000", "143502.945000", "143503.405000", "143503.865000", "143504.325000", "143504.785000", "143505.245000", "143505.705000", "143506.165000", "143506.625000", "143507.085000", "143507.545000", "143508.005000", "143508.465000", "143508.925000", "143509.385000", "143509.845000", "143510.305000", "143510.765000", "143511.225000", "143511.685000", "143512.145000", "143512.605000", "143513.065000", "143513.525000", "143513.985000", "143514.445000", "143514.905000", "143515.365000", "143515.825000", "143516.285000", "143516.745000", "143517.205000", "143517.665000", "143518.125000", "143518.585000", "143519.045000", "143519.505000", "143519.965000", "143520.425000", "143520.885000", "143521.345000", "143521.805000", "143522.265000", "143522.725000", "143523.185000", "143523.645000", "143524.105000", "143524.565000", "143525.025000", "143525.485000", "143525.945000", "143526.405000", "143526.865000", "143527.325000", "143527.785000", "143528.245000", "143528.705000", "143529.165000", "143529.625000", "143530.085000", "143530.545000", "143531.005000", "143531.465000", "143531.925000", "143532.385000", "143532.845000", "143533.305000", "143533.765000", "143534.225000", "143534.685000", "143535.145000", "143535.605000", "143536.065000", "143536.525000", "143536.985000", "143537.445000", "143537.905000", "143538.365000", "143538.825000", "143539.285000", "143539.745000", "143540.205000", "143540.665000", "143541.125000", "143541.585000", "143542.045000", "143542.505000", "143542.965000", "143543.425000", "143543.885000", "143544.345000", "143544.805000", "143545.265000", "143545.725000", "143546.185000", "143546.645000", "143547.105000", "143547.565000", "143548.025000", "143548.485000", "143548.945000", "143549.405000", "143549.865000", "143550.325000", "143550.785000", "143551.245000", "143551.705000", "143552.165000", "143552.625000", "143553.085000", "143553.545000", "143554.005000", "143554.465000", "143554.925000", "143555.385000", "143555.845000", "143556.305000", "143556.765000", "143557.225000", "143557.685000", "143558.145000", "143558.605000", "143559.065000", "143559.525000", "143559.985000", "143600.445000", "143600.905000", "143601.365000", "143601.825000", "143602.285000", "143602.745000", "143603.205000", "143603.665000", "143604.125000", "143604.585000", "143605.045000", "143605.505000", "143605.965000", "143606.425000", "143606.885000", "143607.345000", "143607.805000", "143608.265000", "143608.725000", "143609.185000", "143609.645000", "143610.105000", "143610.565000", "143611.025000", "143611.485000", "143611.945000", "143612.405000", "143612.865000", "143613.325000", "143613.785000", "143614.245000", "143614.705000", "143615.165000", "143615.625000", "143616.085000", "143616.545000", "143617.005000", "143617.465000", "143617.925000", "143618.385000", "143618.845000", "143619.305000", "143619.765000", "143620.225000", "143620.685000", "143621.145000", "143621.605000", "143622.065000", "143622.525000", "143622.985000", "143623.445000", "143623.905000", "143624.365000", "143624.825000", "143625.285000", "143625.745000", "143626.205000", "143626.665000", "143627.125000", "143627.585000", "143628.045000", "143628.505000", "143628.965000", "143629.425000", "143629.885000", "143630.345000", "143630.805000", "143631.265000", "143631.725000", "143632.185000", "143632.645000", "143633.105000", "143633.565000", "143634.025000", "143634.485000", "143634.945000", "143635.405000", "143635.865000", "143636.325000", "143636.785000", "143637.245000", "143637.705000", "143638.165000", "143638.625000", "143639.085000", "143639.545000", "143640.005000", "143640.465000", "143640.925000", "143641.385000", "143641.845000", "143642.305000", "143642.765000", "143643.225000", "143643.685000", "143644.145000", "143644.605000", "143645.065000", "143645.525000", "143645.985000", "143646.445000", "143646.905000", "143647.365000", "143647.825000", "143648.285000", "143648.745000", "143649.205000", "143649.665000", "143650.125000", "143650.585000", "143651.045000", "143651.505000", "143651.965000", "143652.425000", "143652.885000", "143653.345000", "143653.805000", "143654.265000", "143654.725000", "143655.185000", "143655.645000", "143656.105000", "143656.565000", "143657.025000", "143657.485000", "143657.945000", "143658.405000", "143658.865000", "143659.325000", "143659.785000", "143700.245000", "143700.705000", "143701.165000", "143701.625000", "143702.085000", "143702.545000", "143703.005000", "143703.465000", "143703.925000", "143704.385000", "143704.845000", "143705.305000", "143705.765000", "143706.225000", "143706.685000", "143707.145000", "143707.605000", "143708.065000", "143708.525000", "143708.985000", "143709.445000", "143709.905000", "143710.365000", "143710.825000", "143711.285000", "143711.745000", "143712.205000", "143712.665000", "143713.125000", "143713.585000", "143714.045000", "143714.505000", "143714.965000", "143715.425000", "143715.885000", "143716.345000", "143716.805000", "143717.265000", "143717.725000", "143718.185000", "143718.645000", "143719.105000", "143719.565000", "143720.025000", "143720.485000", "143720.945000", "143721.405000", "143721.865000", "143722.325000", "143722.785000", "143723.245000", "143723.705000", "143724.165000", "143724.625000", "143725.085000", "143725.545000", "143726.005000", "143726.465000", "143726.925000", "143727.385000", "143727.845000", "143728.305000", "143728.765000", "143729.225000", "143729.685000", "143730.145000", "143730.605000", "143731.065000", "143731.525000", "143731.985000", "143732.445000", "143732.905000", "143733.365000", "143733.825000", "143734.285000", "143734.745000", "143735.205000", "143735.665000", "143736.125000", "143736.585000", "143737.045000", "143737.505000", "143737.965000", "143738.425000", "143738.885000", "143739.345000", "143739.805000", "143740.265000", "143740.725000", "143741.185000", "143741.645000", "143742.105000", "143742.565000", "143743.025000", "143743.485000", "143743.945000", "143744.405000", "143744.865000", "143745.325000", "143745.785000", "143746.245000", "143746.705000", "143747.165000", "143747.625000", "143748.085000", "143748.545000", "143749.005000", "143749.465000", "143749.925000", "143750.385000", "143750.845000", "143751.305000", "143751.765000", "143752.225000", "143752.685000", "143753.145000", "143753.605000", "143754.065000", "143754.525000", "143754.985000", "143755.445000", "143755.905000", "143756.365000", "143756.825000", "143757.285000", "143757.745000", "143758.205000", "143758.665000", "143759.125000", "143759.585000", "143800.045000", "143800.505000", "143800.965000", "143801.425000", "143801.885000", "143802.345000", "143802.805000", "143803.265000", "143803.725000", "143804.185000", "143804.645000", "143805.105000", "143805.565000", "143806.025000", "143806.485000", "143806.945000", "143807.405000", "143807.865000", "143808.325000", "143808.785000", "143809.245000", "143809.705000", "143810.165000", "143810.625000", "143811.085000", "143811.545000", "143812.005000", "143812.465000", "143812.925000", "143813.385000", "143813.845000", "143814.305000", "143814.765000", "143815.225000", "143815.685000", "143816.145000", "143816.605000", "143817.065000", "143817.525000", "143817.985000", "143818.445000", "143818.905000", "143819.365000", "143819.825000", "143820.285000", "143820.745000", "143821.205000", "143821.665000", "143822.125000", "143822.585000", "143823.045000", "143823.505000", "143823.965000", "143824.425000", "143824.885000", "143825.345000", "143825.805000", "143826.265000", "143826.725000", "143827.185000", "143827.645000", "143828.105000", "143828.565000", "143829.025000", "143829.485000", "143829.945000", "143830.405000", "143830.865000", "143831.325000", "143831.785000", "143832.245000", "143832.705000", "143833.165000", "143833.625000", "143834.085000", "143834.545000", "143835.005000", "143835.465000", "143835.925000", "143836.385000", "143836.845000", "143837.305000", "143837.765000", "143838.225000", "143838.685000", "143839.145000", "143839.605000", "143840.065000", "143840.525000", "143840.985000", "143841.445000", "143841.905000", "143842.365000", "143842.825000", "143843.285000", "143843.745000", "143844.205000", "143844.665000", "143845.125000", "143845.585000", "143846.045000", "143846.505000", "143846.965000", "143847.425000", "143847.885000", "143848.345000", "143848.805000", "143849.265000", "143849.725000", "143850.185000", "143850.645000", "143851.105000", "143851.565000", "143852.025000", "143852.485000", "143852.945000", "143853.405000", "143853.865000", "143854.325000", "143854.785000", "143855.245000", "143855.705000", "143856.165000", "143856.625000", "143857.085000", "143857.545000", "143858.005000", "143858.465000", "143858.925000", "143859.385000", "143859.845000", "143900.305000", "143900.765000", "143901.225000", "143901.685000", "143902.145000", "143902.605000", "143903.065000", "143903.525000", "143903.985000", "143904.445000", "143904.905000", "143905.365000", "143905.825000", "143906.285000", "143906.745000"],
