{
  "AcquisitionMatrixPE": 82,
  "AcquisitionNumber": 1,
  "AcquisitionTime": "14:09:30.030000",
  "BandwidthPerPixelPhaseEncode": 24.888,
  "BaseResolution": 82,
  "BodyPartExamined": "BRAIN",
  "ConsistencyInfo": "N4_VE11C_LATEST_20160120",
  "ConversionSoftware": "dcm2niix",
  "ConversionSoftwareVersion": "v1.0.20201102",
  "DerivedVendorReportedEchoSpacing": 0.00049,
  "DeviceSerialNumber": "66112",
  "DwellTime": 2e-06,
  "EchoTime": 0.0272,
  "EchoTrainLength": 82,
  "EffectiveEchoSpacing": 0.00049,
  "FlipAngle": 44,
  "ImageComments": "Unaliased MB8/PE3",
  "ImageOrientationPatientDICOM": [0.991787, 0.0733625, 0.104765, -0.0691786, 0.996676, -0.0430311],
  "ImageType": [
    "ORIGINAL",
    "PRIMARY",
    "M",
    "MB",
    "ND",
    "NORM",
    "MOSAIC"
],
  "ImagingFrequency": 123.252,
  "InPlanePhaseEncodingDirectionDICOM": "COL",
  "InstitutionAddress": "Maynard 3,Hanover,NH,US,03755",
  "InstitutionName": "Dartmouth College - PBS",
  "InstitutionalDepartmentName": "Department",
  "MRAcquisitionType": "2D",
  "MagneticFieldStrength": 3,
  "Manufacturer": "Siemens",
  "ManufacturersModelName": "Prisma",
  "Modality": "MR",
  "MultibandAccelerationFactor": 8,
  "PartialFourier": 1,
  "PatientPosition": "HFS",
  "PercentPhaseFOV": 100,
  "PercentSampling": 100,
  "PhaseEncodingDirection": "j-",
  "PhaseEncodingSteps": 82,
  "PhaseResolution": 1,
  "PixelBandwidth": 3050,
  "ProcedureStepDescription": "Wager_Wager^1076_spacetop",
  "ProtocolName": "func_run-02_task-social_acq-ap-mb8",
  "PulseSequenceDetails": "%CustomerSeq%\\cmrr_mbep2d_bold",
  "ReceiveCoilActiveElements": "HEA;HEP",
  "ReceiveCoilName": "Head_32",
  "ReconMatrixPE": 82,
  "RepetitionTime": 0.46,
  "SAR": 0.10858,
  "ScanOptions": "FS",
  "ScanningSequence": "EP",
  "SequenceName": "epfid2d1_82",
  "SequenceVariant": "SK\\SS",
  "SeriesDescription": "func_run-02_task-social_acq-ap-mb8",
  "SeriesNumber": 14,
  "ShimSetting": [4171, -7765, -7131, 742, -32, -105, -201, -3],
  "SliceThickness": 2.7,
  "SliceTiming": [0, 0.25, 0.0625, 0.3125, 0.125, 0.375, 0.1875, 0, 0.25, 0.0625, 0.3125, 0.125, 0.375, 0.1875, 0, 0.25, 0.0625, 0.3125, 0.125, 0.375, 0.1875, 0, 0.25, 0.0625, 0.3125, 0.125, 0.375, 0.1875, 0, 0.25, 0.0625, 0.3125, 0.125, 0.375, 0.1875, 0, 0.25, 0.0625, 0.3125, 0.125, 0.375, 0.1875, 0, 0.25, 0.0625, 0.3125, 0.125, 0.375, 0.1875, 0, 0.25, 0.0625, 0.3125, 0.125, 0.375, 0.1875],
  "SoftwareVersions": "syngo MR E11",
  "SpacingBetweenSlices": 2.7,
  "StationName": "AWP66112",
  "TaskName": "social",
  "TotalReadoutTime": 0.03969,
  "TxRefAmp": 241.786,
  "WipMemBlock": "e3534306-b3e1-4e2e-b429-aa18ec2ad055||Sequence: R016 ve11c/master r/e634e98; Dec 19 2017 11:00:25 by eja",
  "dcmmeta_affine": [
    [-2.660893201828003, -0.18560126423835754, 0.290448397397995, 116.07282257080078],
    [-0.19682632386684418, 2.674008369445801, -0.09566163271665573, -85.4970932006836],
    [0.28107646107673645, 0.11544935405254364, 2.6826272010803223, -48.687828063964844],
    [0.0, 0.0, 0.0, 1.0]
],
  "dcmmeta_reorient_transform": [
    [0.0, -1.0, 0.0, 81.0],
    [1.0, 0.0, 0.0, 0.0],
    [0.0, 0.0, 1.0, 0.0],
    [0.0, 0.0, 0.0, 1.0]
],
  "dcmmeta_shape": [82, 82, 56, 872],
  "dcmmeta_slice_dim": 2,
  "dcmmeta_version": 0.6,
  "global": {
    "const": {
      "AccessionNumber": "A003748",
      "AcquisitionMatrix": [82, 0, 0, 82],
      "AngioFlag": "N",
      "BitsAllocated": 16,
      "BitsStored": 16,
      "BodyPartExamined": "BRAIN",
      "Columns": 656,
      "EchoNumbers": 1,
      "EchoTime": 27.2,
      "EchoTrainLength": 82,
      "FlipAngle": 44.0,
      "HighBit": 15,
      "ImageOrientationPatient": [0.99178740757093, 0.07336253715954, 0.10476486207341, -0.0691786514121, 0.99667579318492, -0.0430311220864],
      "ImagePositionPatient": [-811.44787654624, -955.02710852299, -86.871411630563],
      "ImageType": [
        "ORIGINAL",
        "PRIMARY",
        "M",
        "MB",
        "ND",
        "NORM",
        "MOSAIC"
],
      "ImagedNucleus": "1H",
      "ImagingFrequency": 123.252238,
      "InPlanePhaseEncodingDirection": "COL",
      "MRAcquisitionType": "2D",
      "MagneticFieldStrength": 3.0,
      "Manufacturer": "SIEMENS",
      "ManufacturerModelName": "Prisma",
      "Modality": "MR",
      "NumberOfAverages": 1.0,
      "NumberOfPhaseEncodingSteps": 82,
      "PercentPhaseFieldOfView": 100.0,
      "PercentSampling": 100.0,
      "PerformedProcedureStepStartTime": "134056.968000",
      "PhotometricInterpretation": "MONOCHROME2",
      "PixelBandwidth": 3050.0,
      "PixelRepresentation": 0,
      "PixelSpacing": [2.6829268932343, 2.6829268932343],
      "ProtocolName": "func_run-02_task-social_acq-ap-mb8",
      "RepetitionTime": 460.0,
      "Rows": 656,
      "SAR": 0.10857957331689,
      "SamplesPerPixel": 1,
      "ScanOptions": "FS",
      "ScanningSequence": "EP",
      "SequenceName": "epfid2d1_82",
      "SequenceVariant": [
        "SK",
        "SS"
],
      "SeriesDescription": "func_run-02_task-social_acq-ap-mb8",
      "SeriesNumber": 14,
      "SeriesTime": "140958.616000",
      "SliceLocation": -32.859013997079,
      "SliceThickness": 2.7000000476837,
      "SmallestImagePixelValue": 0,
      "SoftwareVersions": "syngo MR E11",
      "SpacingBetweenSlices": 2.7000000630581,
      "SpecificCharacterSet": "ISO_IR 100",
      "StudyID": "1",
      "StudyTime": "134056.860000",
      "TransmitCoilName": "Body",
      "VariableFlipAngleFlag": "N",
      "WindowCenterWidthExplanation": "Algo1",
      "dBdt": 0.0},
    "slices": {}
  },
  "time": {
    "samples": {
      "AcquisitionNumber": [1, 2, 3, 4, 5, 6, 7, 8, 9, 10, 11, 12, 13, 14, 15, 16, 17, 18, 19, 20, 21, 22, 23, 24, 25, 26, 27, 28, 29, 30, 31, 32, 33, 34, 35, 36, 37, 38, 39, 40, 41, 42, 43, 44, 45, 46, 47, 48, 49, 50, 51, 52, 53, 54, 55, 56, 57, 58, 59, 60, 61, 62, 63, 64, 65, 66, 67, 68, 69, 70, 71, 72, 73, 74, 75, 76, 77, 78, 79, 80, 81, 82, 83, 84, 85, 86, 87, 88, 89, 90, 91, 92, 93, 94, 95, 96, 97, 98, 99, 100, 101, 102, 103, 104, 105, 106, 107, 108, 109, 110, 111, 112, 113, 114, 115, 116, 117, 118, 119, 120, 121, 122, 123, 124, 125, 126, 127, 128, 129, 130, 131, 132, 133, 134, 135, 136, 137, 138, 139, 140, 141, 142, 143, 144, 145, 146, 147, 148, 149, 150, 151, 152, 153, 154, 155, 156, 157, 158, 159, 160, 161, 162, 163, 164, 165, 166, 167, 168, 169, 170, 171, 172, 173, 174, 175, 176, 177, 178, 179, 180, 181, 182, 183, 184, 185, 186, 187, 188, 189, 190, 191, 192, 193, 194, 195, 196, 197, 198, 199, 200, 201, 202, 203, 204, 205, 206, 207, 208, 209, 210, 211, 212, 213, 214, 215, 216, 217, 218, 219, 220, 221, 222, 223, 224, 225, 226, 227, 228, 229, 230, 231, 232, 233, 234, 235, 236, 237, 238, 239, 240, 241, 242, 243, 244, 245, 246, 247, 248, 249, 250, 251, 252, 253, 254, 255, 256, 257, 258, 259, 260, 261, 262, 263, 264, 265, 266, 267, 268, 269, 270, 271, 272, 273, 274, 275, 276, 277, 278, 279, 280, 281, 282, 283, 284, 285, 286, 287, 288, 289, 290, 291, 292, 293, 294, 295, 296, 297, 298, 299, 300, 301, 302, 303, 304, 305, 306, 307, 308, 309, 310, 311, 312, 313, 314, 315, 316, 317, 318, 319, 320, 321, 322, 323, 324, 325, 326, 327, 328, 329, 330, 331, 332, 333, 334, 335, 336, 337, 338, 339, 340, 341, 342, 343, 344, 345, 346, 347, 348, 349, 350, 351, 352, 353, 354, 355, 356, 357, 358, 359, 360, 361, 362, 363, 364, 365, 366, 367, 368, 369, 370, 371, 372, 373, 374, 375, 376, 377, 378, 379, 380, 381, 382, 383, 384, 385, 386, 387, 388, 389, 390, 391, 392, 393, 394, 395, 396, 397, 398, 399, 400, 401, 402, 403, 404, 405, 406, 407, 408, 409, 410, 411, 412, 413, 414, 415, 416, 417, 418, 419, 420, 421, 422, 423, 424, 425, 426, 427, 428, 429, 430, 431, 432, 433, 434, 435, 436, 437, 438, 439, 440, 441, 442, 443, 444, 445, 446, 447, 448, 449, 450, 451, 452, 453, 454, 455, 456, 457, 458, 459, 460, 461, 462, 463, 464, 465, 466, 467, 468, 469, 470, 471, 472, 473, 474, 475, 476, 477, 478, 479, 480, 481, 482, 483, 484, 485, 486, 487, 488, 489, 490, 491, 492, 493, 494, 495, 496, 497, 498, 499, 500, 501, 502, 503, 504, 505, 506, 507, 508, 509, 510, 511, 512, 513, 514, 515, 516, 517, 518, 519, 520, 521, 522, 523, 524, 525, 526, 527, 528, 529, 530, 531, 532, 533, 534, 535, 536, 537, 538, 539, 540, 541, 542, 543, 544, 545, 546, 547, 548, 549, 550, 551, 552, 553, 554, 555, 556, 557, 558, 559, 560, 561, 562, 563, 564, 565, 566, 567, 568, 569, 570, 571, 572, 573, 574, 575, 576, 577, 578, 579, 580, 581, 582, 583, 584, 585, 586, 587, 588, 589, 590, 591, 592, 593, 594, 595, 596, 597, 598, 599, 600, 601, 602, 603, 604, 605, 606, 607, 608, 609, 610, 611, 612, 613, 614, 615, 616, 617, 618, 619, 620, 621, 622, 623, 624, 625, 626, 627, 628, 629, 630, 631, 632, 633, 634, 635, 636, 637, 638, 639, 640, 641, 642, 643, 644, 645, 646, 647, 648, 649, 650, 651, 652, 653, 654, 655, 656, 657, 658, 659, 660, 661, 662, 663, 664, 665, 666, 667, 668, 669, 670, 671, 672, 673, 674, 675, 676, 677, 678, 679, 680, 681, 682, 683, 684, 685, 686, 687, 688, 689, 690, 691, 692, 693, 694, 695, 696, 697, 698, 699, 700, 701, 702, 703, 704, 705, 706, 707, 708, 709, 710, 711, 712, 713, 714, 715, 716, 717, 718, 719, 720, 721, 722, 723, 724, 725, 726, 727, 728, 729, 730, 731, 732, 733, 734, 735, 736, 737, 738, 739, 740, 741, 742, 743, 744, 745, 746, 747, 748, 749, 750, 751, 752, 753, 754, 755, 756, 757, 758, 759, 760, 761, 762, 763, 764, 765, 766, 767, 768, 769, 770, 771, 772, 773, 774, 775, 776, 777, 778, 779, 780, 781, 782, 783, 784, 785, 786, 787, 788, 789, 790, 791, 792, 793, 794, 795, 796, 797, 798, 799, 800, 801, 802, 803, 804, 805, 806, 807, 808, 809, 810, 811, 812, 813, 814, 815, 816, 817, 818, 819, 820, 821, 822, 823, 824, 825, 826, 827, 828, 829, 830, 831, 832, 833, 834, 835, 836, 837, 838, 839, 840, 841, 842, 843, 844, 845, 846, 847, 848, 849, 850, 851, 852, 853, 854, 855, 856, 857, 858, 859, 860, 861, 862, 863, 864, 865, 866, 867, 868, 869, 870, 871, 872],
      "AcquisitionTime": ["140930.030000", "140930.490000", "140930.950000", "140931.410000", "140931.870000", "140932.330000", "140932.790000", "140933.250000", "140933.710000", "140934.170000", "140934.630000", "140935.090000", "140935.550000", "140936.010000", "140936.470000", "140936.930000", "140937.390000", "140937.850000", "140938.310000", "140938.770000", "140939.230000", "140939.690000", "140940.150000", "140940.610000", "140941.070000", "140941.530000", "140941.990000", "140942.450000", "140942.910000", "140943.370000", "140943.830000", "140944.290000", "140944.750000", "140945.210000", "140945.670000", "140946.130000", "140946.590000", "140947.050000", "140947.510000", "140947.970000", "140948.430000", "140948.890000", "140949.350000", "140949.810000", "140950.270000", "140950.730000", "140951.190000", "140951.650000", "140952.110000", "140952.570000", "140953.030000", "140953.490000", "140953.950000", "140954.410000", "140954.870000", "140955.330000", "140955.790000", "140956.250000", "140956.710000", "140957.170000", "140957.630000", "140958.090000", "140958.550000", "140959.010000", "140959.470000", "140959.930000", "141000.390000", "141000.850000", "141001.310000", "141001.770000", "141002.230000", "141002.690000", "141003.150000", "141003.610000", "141004.070000", "141004.530000", "141004.990000", "141005.450000", "141005.910000", "141006.370000", "141006.830000", "141007.290000", "141007.750000", "141008.210000", "141008.670000", "141009.130000", "141009.590000", "141010.050000", "141010.510000", "141010.970000", "141011.430000", "141011.890000", "141012.350000", "141012.810000", "141013.270000", "141013.730000", "141014.190000", "141014.650000", "141015.110000", "141015.570000", "141016.030000", "141016.490000", "141016.950000", "141017.410000", "141017.870000", "141018.330000", "141018.790000", "141019.250000", "141019.710000", "141020.170000", "141020.630000", "141021.090000", "141021.550000", "141022.010000", "141022.470000", "141022.930000", "141023.390000", "141023.850000", "141024.310000", "141024.770000", "141025.230000", "141025.690000", "141026.150000", "141026.610000", "141027.070000", "141027.530000", "141027.990000", "141028.450000", "141028.910000", "141029.370000", "141029.830000", "141030.290000", "141030.750000", "141031.210000", "141031.670000", "141032.130000", "141032.590000", "141033.050000", "141033.510000", "141033.970000", "141034.430000", "141034.890000", "141035.350000", "141035.810000", "141036.270000", "141036.730000", "141037.190000", "141037.650000", "141038.110000", "141038.570000", "141039.030000", "141039.490000", "141039.950000", "141040.410000", "141040.870000", "141041.330000", "141041.790000", "141042.250000", "141042.710000", "141043.170000", "141043.630000", "141044.090000", "141044.550000", "141045.010000", "141045.470000", "141045.930000", "141046.390000", "141046.850000", "141047.310000", "141047.770000", "141048.230000", "141048.690000", "141049.150000", "141049.610000", "141050.070000", "141050.530000", "141050.990000", "141051.450000", "141051.910000", "141052.370000", "141052.830000", "141053.290000", "141053.750000", "141054.210000", "141054.670000", "141055.130000", "141055.590000", "141056.050000", "141056.510000", "141056.970000", "141057.430000", "141057.890000", "141058.350000", "141058.810000", "141059.270000", "141059.730000", "141100.190000", "141100.650000", "141101.110000", "141101.570000", "141102.030000", "141102.490000", "141102.950000", "141103.410000", "141103.870000", "141104.330000", "141104.790000", "141105.250000", "141105.710000", "141106.170000", "141106.630000", "141107.090000", "141107.550000", "141108.010000", "141108.470000", "141108.930000", "141109.390000", "141109.850000", "141110.310000", "141110.770000", "141111.230000", "141111.690000", "141112.150000", "141112.610000", "141113.070000", "141113.530000", "141113.990000", "141114.450000", "141114.910000", "141115.370000", "141115.830000", "141116.290000", "141116.750000", "141117.210000", "141117.670000", "141118.130000", "141118.590000", "141119.050000", "141119.510000", "141119.970000", "141120.430000", "141120.890000", "141121.350000", "141121.810000", "141122.270000", "141122.730000", "141123.190000", "141123.650000", "141124.110000", "141124.570000", "141125.030000", "141125.490000", "141125.950000", "141126.410000", "141126.870000", "141127.330000", "141127.790000", "141128.250000", "141128.710000", "141129.170000", "141129.630000", "141130.090000", "141130.550000", "141131.010000", "141131.470000", "141131.930000", "141132.390000", "141132.850000", "141133.310000", "141133.770000", "141134.230000", "141134.690000", "141135.150000", "141135.610000", "141136.070000", "141136.530000", "141136.990000", "141137.450000", "141137.910000", "141138.370000", "141138.830000", "141139.290000", "141139.750000", "141140.210000", "141140.670000", "141141.130000", "141141.590000", "141142.050000", "141142.510000", "141142.970000", "141143.430000", "141143.890000", "141144.350000", "141144.810000", "141145.270000", "141145.730000", "141146.190000", "141146.650000", "141147.110000", "141147.570000", "141148.030000", "141148.490000", "141148.950000", "141149.410000", "141149.870000", "141150.330000", "141150.790000", "141151.250000", "141151.710000", "141152.170000", "141152.630000", "141153.090000", "141153.550000", "141154.010000", "141154.470000", "141154.930000", "141155.390000", "141155.850000", "141156.310000", "141156.770000", "141157.230000", "141157.690000", "141158.150000", "141158.610000", "141159.070000", "141159.530000", "141159.990000", "141200.450000", "141200.910000", "141201.370000", "141201.830000", "141202.290000", "141202.750000", "141203.210000", "141203.670000", "141204.130000", "141204.590000", "141205.050000", "141205.510000", "141205.970000", "141206.430000", "141206.890000", "141207.350000", "141207.810000", "141208.270000", "141208.730000", "141209.190000", "141209.650000", "141210.110000", "141210.570000", "141211.030000", "141211.490000", "141211.950000", "141212.410000", "141212.870000", "141213.330000", "141213.790000", "141214.250000", "141214.710000", "141215.170000", "141215.630000", "141216.090000", "141216.550000", "141217.010000", "141217.470000", "141217.930000", "141218.390000", "141218.850000", "141219.310000", "141219.770000", "141220.230000", "141220.690000", "141221.150000", "141221.610000", "141222.070000", "141222.530000", "141222.990000", "141223.450000", "141223.910000", "141224.370000", "141224.830000", "141225.290000", "141225.750000", "141226.210000", "141226.670000", "141227.130000", "141227.590000", "141228.050000", "141228.510000", "141228.970000", "141229.430000", "141229.890000", "141230.350000", "141230.810000", "141231.270000", "141231.730000", "141232.190000", "141232.650000", "141233.110000", "141233.570000", "141234.030000", "141234.490000", "141234.950000", "141235.410000", "141235.870000", "141236.330000", "141236.790000", "141237.250000", "141237.710000", "141238.170000", "141238.630000", "141239.090000", "141239.550000", "141240.010000", "141240.470000", "141240.930000", "141241.390000", "141241.850000", "141242.310000", "141242.770000", "141243.230000", "141243.690000", "141244.150000", "141244.610000", "141245.070000", "141245.530000", "141245.990000", "141246.450000", "141246.910000", "141247.370000", "141247.830000", "141248.290000", "141248.750000", "141249.210000", "141249.670000", "141250.130000", "141250.590000", "141251.050000", "141251.510000", "141251.970000", "141252.430000", "141252.890000", "141253.350000", "141253.810000", "141254.270000", "141254.730000", "141255.190000", "141255.650000", "141256.110000", "141256.570000", "141257.030000", "141257.490000", "141257.950000", "141258.410000", "141258.870000", "141259.330000", "141259.790000", "141300.250000", "141300.710000", "141301.170000", "141301.630000", "141302.090000", "141302.550000", "141303.010000", "141303.470000", "141303.930000", "141304.390000", "141304.850000", "141305.310000", "141305.770000", "141306.230000", "141306.690000", "141307.150000", "141307.610000", "141308.070000", "141308.530000", "141308.990000", "141309.450000", "141309.910000", "141310.370000", "141310.830000", "141311.290000", "141311.750000", "141312.210000", "141312.670000", "141313.130000", "141313.590000", "141314.050000", "141314.510000", "141314.970000", "141315.430000", "141315.890000", "141316.350000", "141316.810000", "141317.270000", "141317.730000", "141318.190000", "141318.650000", "141319.110000", "141319.570000", "141320.030000", "141320.490000", "141320.950000", "141321.410000", "141321.870000", "141322.330000", "141322.790000", "141323.250000", "141323.710000", "141324.170000", "141324.630000", "141325.090000", "141325.550000", "141326.010000", "141326.470000", "141326.930000", "141327.390000", "141327.850000", "141328.310000", "141328.770000", "141329.230000", "141329.690000", "141330.150000", "141330.610000", "141331.070000", "141331.530000", "141331.990000", "141332.450000", "141332.910000", "141333.370000", "141333.830000", "141334.290000", "141334.750000", "141335.210000", "141335.670000", "141336.130000", "141336.590000", "141337.050000", "141337.510000", "141337.970000", "141338.430000", "141338.890000", "141339.350000", "141339.810000", "141340.270000", "141340.730000", "141341.190000", "141341.650000", "141342.110000", "141342.570000", "141343.030000", "141343.490000", "141343.950000", "141344.410000", "141344.870000", "141345.330000", "141345.790000", "141346.250000", "141346.710000", "141347.170000", "141347.630000", "141348.090000", "141348.550000", "141349.010000", "141349.470000", "141349.930000", "141350.390000", "141350.850000", "141351.310000", "141351.770000", "141352.230000", "141352.690000", "141353.150000", "141353.610000", "141354.070000", "141354.530000", "141354.990000", "141355.450000", "141355.910000", "141356.370000", "141356.830000", "141357.290000", "141357.750000", "141358.210000", "141358.670000", "141359.130000", "141359.590000", "141400.050000", "141400.510000", "141400.970000", "141401.430000", "141401.890000", "141402.350000", "141402.810000", "141403.270000", "141403.730000", "141404.190000", "141404.650000", "141405.110000", "141405.570000", "141406.030000", "141406.490000", "141406.950000", "141407.410000", "141407.870000", "141408.330000", "141408.790000", "141409.250000", "141409.710000", "141410.170000", "141410.630000", "141411.090000", "141411.550000", "141412.010000", "141412.470000", "141412.930000", "141413.390000", "141413.850000", "141414.310000", "141414.770000", "141415.230000", "141415.690000", "141416.150000", "141416.610000", "141417.070000", "141417.530000", "141417.990000", "141418.450000", "141418.910000", "141419.370000", "141419.830000", "141420.290000", "141420.750000", "141421.210000", "141421.670000", "141422.130000", "141422.590000", "141423.050000", "141423.510000", "141423.970000", "141424.430000", "141424.890000", "141425.350000", "141425.810000", "141426.270000", "141426.730000", "141427.190000", "141427.650000", "141428.110000", "141428.570000", "141429.030000", "141429.490000", "141429.950000", "141430.410000", "141430.870000", "141431.330000", "141431.790000", "141432.250000", "141432.710000", "141433.170000", "141433.630000", "141434.090000", "141434.550000", "141435.010000", "141435.470000", "141435.930000", "141436.390000", "141436.850000", "141437.310000", "141437.770000", "141438.230000", "141438.690000", "141439.150000", "141439.610000", "141440.070000", "141440.530000", "141440.990000", "141441.450000", "141441.910000", "141442.370000", "141442.830000", "141443.290000", "141443.750000", "141444.210000", "141444.670000", "141445.130000", "141445.590000", "141446.050000", "141446.510000", "141446.970000", "141447.430000", "141447.890000", "141448.350000", "141448.810000", "141449.270000", "141449.730000", "141450.190000", "141450.650000", "141451.110000", "141451.570000", "141452.030000", "141452.490000", "141452.950000", "141453.410000", "141453.870000", "141454.330000", "141454.790000", "141455.250000", "141455.710000", "141456.170000", "141456.630000", "141457.090000", "141457.550000", "141458.010000", "141458.470000", "141458.930000", "141459.390000", "141459.850000", "141500.310000", "141500.770000", "141501.230000", "141501.690000", "141502.150000", "141502.610000", "141503.070000", "141503.530000", "141503.990000", "141504.450000", "141504.910000", "141505.370000", "141505.830000", "141506.290000", "141506.750000", "141507.210000", "141507.670000", "141508.130000", "141508.590000", "141509.050000", "141509.510000", "141509.970000", "141510.430000", "141510.890000", "141511.350000", "141511.810000", "141512.270000", "141512.730000", "141513.190000", "141513.650000", "141514.110000", "141514.570000", "141515.030000", "141515.490000", "141515.950000", "141516.410000", "141516.870000", "141517.330000", "141517.790000", "141518.250000", "141518.710000", "141519.170000", "141519.630000", "141520.090000", "141520.550000", "141521.010000", "141521.470000", "141521.930000", "141522.390000", "141522.850000", "141523.310000", "141523.770000", "141524.230000", "141524.690000", "141525.150000", "141525.610000", "141526.070000", "141526.530000", "141526.990000", "141527.450000", "141527.910000", "141528.370000", "141528.830000", "141529.290000", "141529.750000", "141530.210000", "141530.670000", "141531.130000", "141531.590000", "141532.050000", "141532.510000", "141532.970000", "141533.430000", "141533.890000", "141534.350000", "141534.810000", "141535.270000", "141535.730000", "141536.190000", "141536.650000", "141537.110000", "141537.570000", "141538.030000", "141538.490000", "141538.950000", "141539.410000", "141539.870000", "141540.330000", "141540.790000", "141541.250000", "141541.710000", "141542.170000", "141542.630000", "141543.090000", "141543.550000", "141544.010000", "141544.470000", "141544.930000", "141545.390000", "141545.850000", "141546.310000", "141546.770000", "141547.230000", "141547.690000", "141548.150000", "141548.610000", "141549.070000", "141549.530000", "141549.990000", "141550.450000", "141550.910000", "141551.370000", "141551.830000", "141552.290000", "141552.750000", "141553.210000", "141553.670000", "141554.130000", "141554.590000", "141555.050000", "141555.510000", "141555.970000", "141556.430000", "141556.890000", "141557.350000", "141557.810000", "141558.270000", "141558.730000", "141559.190000", "141559.650000", "141600.110000", "141600.570000", "141601.030000", "141601.490000", "141601.950000", "141602.410000", "141602.870000", "141603.330000", "141603.790000", "141604.250000", "141604.710000", "141605.170000", "141605.630000", "141606.090000", "141606.550000", "141607.010000", "141607.470000", "141607.930000", "141608.390000", "141608.850000", "141609.310000", "141609.770000", "141610.230000", "141610.690000"],
