{
  "AcquisitionMatrixPE": 82,
  "AcquisitionNumber": 1,
  "AcquisitionTime": "19:18:57.230000",
  "BandwidthPerPixelPhaseEncode": 24.888,
  "BaseResolution": 82,
  "BodyPartExamined": "BRAIN",
  "ConsistencyInfo": "N4_VE11E_LATEST_20181129",
  "ConversionSoftware": "dcm2niix",
  "ConversionSoftwareVersion": "v1.0.20201102",
  "DerivedVendorReportedEchoSpacing": 0.00049,
  "DeviceSerialNumber": "66112",
  "DwellTime": 2e-06,
  "EchoTime": 0.0272,
  "EchoTrainLength": 82,
  "EffectiveEchoSpacing": 0.00049,
  "FlipAngle": 44,
  "ImageComments": "Unaliased MB8/PE3",
  "ImageOrientationPatientDICOM": [0.993898, -0.075553, 0.08037, 0.06828, 0.993627, 0.0896876],
  "ImageType": [
    "ORIGINAL",
    "PRIMARY",
    "M",
    "MB",
    "ND",
    "NORM",
    "MOSAIC"
],
  "ImagingFrequency": 123.252,
  "InPlanePhaseEncodingDirectionDICOM": "COL",
  "InstitutionAddress": "Maynard 3,Hanover,NH,US,03755",
  "InstitutionName": "Dartmouth College - PBS",
  "InstitutionalDepartmentName": "Department",
  "MRAcquisitionType": "2D",
  "MagneticFieldStrength": 3,
  "Manufacturer": "Siemens",
  "ManufacturersModelName": "Prisma",
  "Modality": "MR",
  "MultibandAccelerationFactor": 8,
  "PartialFourier": 1,
  "PatientPosition": "HFS",
  "PercentPhaseFOV": 100,
  "PercentSampling": 100,
  "PhaseEncodingDirection": "j-",
  "PhaseEncodingSteps": 82,
  "PhaseResolution": 1,
  "PixelBandwidth": 3050,
  "ProcedureStepDescription": "Wager_Wager^1076_spacetop",
  "ProtocolName": "func_run-03_task-social_acq-ap-mb8",
  "PulseSequenceDetails": "%CustomerSeq%\\cmrr_mbep2d_bold",
  "ReceiveCoilActiveElements": "HEA;HEP",
  "ReceiveCoilName": "Head_32",
  "ReconMatrixPE": 82,
  "RepetitionTime": 0.46,
  "SAR": 0.0856565,
  "ScanOptions": "FS",
  "ScanningSequence": "EP",
  "SequenceName": "epfid2d1_82",
  "SequenceVariant": "SK\\SS",
  "SeriesDescription": "func_run-03_task-social_acq-ap-mb8",
  "SeriesNumber": 12,
  "ShimSetting": [4177, -7744, -7273, 629, -126, -253, -142, 66],
  "SliceThickness": 2.7,
  "SliceTiming": [0, 0.25, 0.0625, 0.315, 0.125, 0.3775, 0.1875, 0, 0.25, 0.0625, 0.315, 0.125, 0.3775, 0.1875, 0, 0.25, 0.0625, 0.315, 0.125, 0.3775, 0.1875, 0, 0.25, 0.0625, 0.315, 0.125, 0.3775, 0.1875, 0, 0.25, 0.0625, 0.315, 0.125, 0.3775, 0.1875, 0, 0.25, 0.0625, 0.315, 0.125, 0.3775, 0.1875, 0, 0.25, 0.0625, 0.315, 0.125, 0.3775, 0.1875, 0, 0.25, 0.0625, 0.315, 0.125, 0.3775, 0.1875],
  "SoftwareVersions": "syngo MR E11",
  "SpacingBetweenSlices": 2.7,
  "StationName": "AWP66112",
  "TaskName": "social",
  "TotalReadoutTime": 0.03969,
  "TxRefAmp": 228.088,
  "WipMemBlock": "fcb7b3d3-33fb-4328-acca-18ccd7ef0c47||Sequence: R016 ve11e/master r/434b28f1; Aug  7 2019 18:53:46 by eja",
  "dcmmeta_affine": [
    [-2.6665544509887695, 0.18319012224674225, 0.23391161859035492, 91.65484619140625],
    [0.20270316302776337, 2.665827751159668, 0.22586211562156677, -107.57952880859375],
    [0.2156268209218979, -0.2406252920627594, 2.680349111557007, -77.5068588256836],
    [0.0, 0.0, 0.0, 1.0]
],
  "dcmmeta_reorient_transform": [
    [0.0, -1.0, 0.0, 81.0],
    [1.0, 0.0, 0.0, 0.0],
    [0.0, 0.0, 1.0, 0.0],
    [0.0, 0.0, 0.0, 1.0]
],
  "dcmmeta_shape": [82, 82, 56, 872],
  "dcmmeta_slice_dim": 2,
  "dcmmeta_version": 0.6,
  "global": {
    "const": {
      "AccessionNumber": "A004058",
      "AcquisitionMatrix": [82, 0, 0, 82],
      "AngioFlag": "N",
      "BitsAllocated": 16,
      "BitsStored": 16,
      "BodyPartExamined": "BRAIN",
      "Columns": 656,
      "EchoNumbers": 1,
      "EchoTime": 27.2,
      "EchoTrainLength": 82,
      "FlipAngle": 44.0,
      "HighBit": 15,
      "ImageOrientationPatient": [0.99389758480604, -0.075552994993, 0.08036999355675, 0.06827995179916, 0.99362668098741, 0.08968760790795],
      "ImagePositionPatient": [-924.36997058529, -815.26927047641, -227.94186106978],
      "ImageType": [
        "ORIGINAL",
        "PRIMARY",
        "M",
        "MB",
        "ND",
        "NORM",
        "MOSAIC"
],
      "ImagedNucleus": "1H",
      "ImagingFrequency": 123.252209,
      "InPlanePhaseEncodingDirection": "COL",
      "MRAcquisitionType": "2D",
      "MagneticFieldStrength": 3.0,
      "Manufacturer": "SIEMENS",
      "ManufacturerModelName": "Prisma",
      "Modality": "MR",
      "NumberOfAverages": 1.0,
      "NumberOfPhaseEncodingSteps": 82,
      "PercentPhaseFieldOfView": 100.0,
      "PercentSampling": 100.0,
      "PerformedProcedureStepStartTime": "175634.219000",
      "PhotometricInterpretation": "MONOCHROME2",
      "PixelBandwidth": 3050.0,
      "PixelRepresentation": 0,
      "PixelSpacing": [2.6829268932343, 2.6829268932343],
      "ProtocolName": "func_run-03_task-social_acq-ap-mb8",
      "RepetitionTime": 460.0,
      "Rows": 656,
      "SAR": 0.08565652760617,
      "SamplesPerPixel": 1,
      "ScanOptions": "FS",
      "ScanningSequence": "EP",
      "SequenceName": "epfid2d1_82",
      "SequenceVariant": [
        "SK",
        "SS"
],
      "SeriesDescription": "func_run-03_task-social_acq-ap-mb8",
      "SeriesNumber": 12,
      "SeriesTime": "191924.783000",
      "SliceLocation": -78.00164549906,
      "SliceThickness": 2.7000000476837,
      "SmallestImagePixelValue": 0,
      "SoftwareVersions": "syngo MR E11",
      "SpacingBetweenSlices": 2.6999998711393,
      "SpecificCharacterSet": "ISO_IR 100",
      "StudyID": "3",
      "StudyTime": "175634.167000",
      "TransmitCoilName": "Body",
      "VariableFlipAngleFlag": "N",
      "WindowCenterWidthExplanation": "Algo1"
    },
    "slices": {}
  },
  "time": {
    "samples": {
      "AcquisitionNumber": [1, 2, 3, 4, 5, 6, 7, 8, 9, 10, 11, 12, 13, 14, 15, 16, 17, 18, 19, 20, 21, 22, 23, 24, 25, 26, 27, 28, 29, 30, 31, 32, 33, 34, 35, 36, 37, 38, 39, 40, 41, 42, 43, 44, 45, 46, 47, 48, 49, 50, 51, 52, 53, 54, 55, 56, 57, 58, 59, 60, 61, 62, 63, 64, 65, 66, 67, 68, 69, 70, 71, 72, 73, 74, 75, 76, 77, 78, 79, 80, 81, 82, 83, 84, 85, 86, 87, 88, 89, 90, 91, 92, 93, 94, 95, 96, 97, 98, 99, 100, 101, 102, 103, 104, 105, 106, 107, 108, 109, 110, 111, 112, 113, 114, 115, 116, 117, 118, 119, 120, 121, 122, 123, 124, 125, 126, 127, 128, 129, 130, 131, 132, 133, 134, 135, 136, 137, 138, 139, 140, 141, 142, 143, 144, 145, 146, 147, 148, 149, 150, 151, 152, 153, 154, 155, 156, 157, 158, 159, 160, 161, 162, 163, 164, 165, 166, 167, 168, 169, 170, 171, 172, 173, 174, 175, 176, 177, 178, 179, 180, 181, 182, 183, 184, 185, 186, 187, 188, 189, 190, 191, 192, 193, 194, 195, 196, 197, 198, 199, 200, 201, 202, 203, 204, 205, 206, 207, 208, 209, 210, 211, 212, 213, 214, 215, 216, 217, 218, 219, 220, 221, 222, 223, 224, 225, 226, 227, 228, 229, 230, 231, 232, 233, 234, 235, 236, 237, 238, 239, 240, 241, 242, 243, 244, 245, 246, 247, 248, 249, 250, 251, 252, 253, 254, 255, 256, 257, 258, 259, 260, 261, 262, 263, 264, 265, 266, 267, 268, 269, 270, 271, 272, 273, 274, 275, 276, 277, 278, 279, 280, 281, 282, 283, 284, 285, 286, 287, 288, 289, 290, 291, 292, 293, 294, 295, 296, 297, 298, 299, 300, 301, 302, 303, 304, 305, 306, 307, 308, 309, 310, 311, 312, 313, 314, 315, 316, 317, 318, 319, 320, 321, 322, 323, 324, 325, 326, 327, 328, 329, 330, 331, 332, 333, 334, 335, 336, 337, 338, 339, 340, 341, 342, 343, 344, 345, 346, 347, 348, 349, 350, 351, 352, 353, 354, 355, 356, 357, 358, 359, 360, 361, 362, 363, 364, 365, 366, 367, 368, 369, 370, 371, 372, 373, 374, 375, 376, 377, 378, 379, 380, 381, 382, 383, 384, 385, 386, 387, 388, 389, 390, 391, 392, 393, 394, 395, 396, 397, 398, 399, 400, 401, 402, 403, 404, 405, 406, 407, 408, 409, 410, 411, 412, 413, 414, 415, 416, 417, 418, 419, 420, 421, 422, 423, 424, 425, 426, 427, 428, 429, 430, 431, 432, 433, 434, 435, 436, 437, 438, 439, 440, 441, 442, 443, 444, 445, 446, 447, 448, 449, 450, 451, 452, 453, 454, 455, 456, 457, 458, 459, 460, 461, 462, 463, 464, 465, 466, 467, 468, 469, 470, 471, 472, 473, 474, 475, 476, 477, 478, 479, 480, 481, 482, 483, 484, 485, 486, 487, 488, 489, 490, 491, 492, 493, 494, 495, 496, 497, 498, 499, 500, 501, 502, 503, 504, 505, 506, 507, 508, 509, 510, 511, 512, 513, 514, 515, 516, 517, 518, 519, 520, 521, 522, 523, 524, 525, 526, 527, 528, 529, 530, 531, 532, 533, 534, 535, 536, 537, 538, 539, 540, 541, 542, 543, 544, 545, 546, 547, 548, 549, 550, 551, 552, 553, 554, 555, 556, 557, 558, 559, 560, 561, 562, 563, 564, 565, 566, 567, 568, 569, 570, 571, 572, 573, 574, 575, 576, 577, 578, 579, 580, 581, 582, 583, 584, 585, 586, 587, 588, 589, 590, 591, 592, 593, 594, 595, 596, 597, 598, 599, 600, 601, 602, 603, 604, 605, 606, 607, 608, 609, 610, 611, 612, 613, 614, 615, 616, 617, 618, 619, 620, 621, 622, 623, 624, 625, 626, 627, 628, 629, 630, 631, 632, 633, 634, 635, 636, 637, 638, 639, 640, 641, 642, 643, 644, 645, 646, 647, 648, 649, 650, 651, 652, 653, 654, 655, 656, 657, 658, 659, 660, 661, 662, 663, 664, 665, 666, 667, 668, 669, 670, 671, 672, 673, 674, 675, 676, 677, 678, 679, 680, 681, 682, 683, 684, 685, 686, 687, 688, 689, 690, 691, 692, 693, 694, 695, 696, 697, 698, 699, 700, 701, 702, 703, 704, 705, 706, 707, 708, 709, 710, 711, 712, 713, 714, 715, 716, 717, 718, 719, 720, 721, 722, 723, 724, 725, 726, 727, 728, 729, 730, 731, 732, 733, 734, 735, 736, 737, 738, 739, 740, 741, 742, 743, 744, 745, 746, 747, 748, 749, 750, 751, 752, 753, 754, 755, 756, 757, 758, 759, 760, 761, 762, 763, 764, 765, 766, 767, 768, 769, 770, 771, 772, 773, 774, 775, 776, 777, 778, 779, 780, 781, 782, 783, 784, 785, 786, 787, 788, 789, 790, 791, 792, 793, 794, 795, 796, 797, 798, 799, 800, 801, 802, 803, 804, 805, 806, 807, 808, 809, 810, 811, 812, 813, 814, 815, 816, 817, 818, 819, 820, 821, 822, 823, 824, 825, 826, 827, 828, 829, 830, 831, 832, 833, 834, 835, 836, 837, 838, 839, 840, 841, 842, 843, 844, 845, 846, 847, 848, 849, 850, 851, 852, 853, 854, 855, 856, 857, 858, 859, 860, 861, 862, 863, 864, 865, 866, 867, 868, 869, 870, 871, 872],
      "AcquisitionTime": ["191857.230000", "191857.690000", "191858.150000", "191858.610000", "191859.070000", "191859.530000", "191859.990000", "191900.450000", "191900.910000", "191901.370000", "191901.830000", "191902.290000", "191902.750000", "191903.210000", "191903.670000", "191904.130000", "191904.590000", "191905.050000", "191905.510000", "191905.970000", "191906.430000", "191906.890000", "191907.350000", "191907.810000", "191908.270000", "191908.730000", "191909.190000", "191909.650000", "191910.110000", "191910.570000", "191911.030000", "191911.490000", "191911.950000", "191912.410000", "191912.870000", "191913.330000", "191913.790000", "191914.250000", "191914.710000", "191915.170000", "191915.630000", "191916.090000", "191916.550000", "191917.010000", "191917.470000", "191917.930000", "191918.390000", "191918.850000", "191919.310000", "191919.770000", "191920.230000", "191920.690000", "191921.150000", "191921.610000", "191922.070000", "191922.530000", "191922.990000", "191923.450000", "191923.910000", "191924.370000", "191924.830000", "191925.290000", "191925.750000", "191926.210000", "191926.670000", "191927.130000", "191927.590000", "191928.050000", "191928.510000", "191928.970000", "191929.430000", "191929.890000", "191930.350000", "191930.810000", "191931.270000", "191931.730000", "191932.190000", "191932.650000", "191933.110000", "191933.570000", "191934.030000", "191934.490000", "191934.950000", "191935.410000", "191935.870000", "191936.330000", "191936.790000", "191937.250000", "191937.710000", "191938.170000", "191938.630000", "191939.090000", "191939.550000", "191940.010000", "191940.470000", "191940.930000", "191941.390000", "191941.850000", "191942.310000", "191942.770000", "191943.230000", "191943.690000", "191944.150000", "191944.610000", "191945.070000", "191945.530000", "191945.990000", "191946.450000", "191946.910000", "191947.370000", "191947.830000", "191948.290000", "191948.750000", "191949.210000", "191949.670000", "191950.130000", "191950.590000", "191951.050000", "191951.510000", "191951.970000", "191952.430000", "191952.890000", "191953.350000", "191953.810000", "191954.270000", "191954.730000", "191955.190000", "191955.650000", "191956.110000", "191956.570000", "191957.030000", "191957.490000", "191957.950000", "191958.410000", "191958.870000", "191959.330000", "191959.790000", "192000.250000", "192000.710000", "192001.170000", "192001.630000", "192002.090000", "192002.550000", "192003.010000", "192003.470000", "192003.930000", "192004.390000", "192004.850000", "192005.310000", "192005.770000", "192006.230000", "192006.690000", "192007.150000", "192007.610000", "192008.070000", "192008.530000", "192008.990000", "192009.450000", "192009.910000", "192010.370000", "192010.830000", "192011.290000", "192011.750000", "192012.210000", "192012.670000", "192013.130000", "192013.590000", "192014.050000", "192014.510000", "192014.970000", "192015.430000", "192015.890000", "192016.350000", "192016.810000", "192017.270000", "192017.730000", "192018.190000", "192018.650000", "192019.110000", "192019.570000", "192020.030000", "192020.490000", "192020.950000", "192021.410000", "192021.870000", "192022.330000", "192022.790000", "192023.250000", "192023.710000", "192024.170000", "192024.630000", "192025.090000", "192025.550000", "192026.010000", "192026.470000", "192026.930000", "192027.390000", "192027.850000", "192028.310000", "192028.770000", "192029.230000", "192029.690000", "192030.150000", "192030.610000", "192031.070000", "192031.530000", "192031.990000", "192032.450000", "192032.910000", "192033.370000", "192033.830000", "192034.290000", "192034.750000", "192035.210000", "192035.670000", "192036.130000", "192036.590000", "192037.050000", "192037.510000", "192037.970000", "192038.430000", "192038.890000", "192039.350000", "192039.810000", "192040.270000", "192040.730000", "192041.190000", "192041.650000", "192042.110000", "192042.570000", "192043.030000", "192043.490000", "192043.950000", "192044.410000", "192044.870000", "192045.330000", "192045.790000", "192046.250000", "192046.710000", "192047.170000", "192047.630000", "192048.090000", "192048.550000", "192049.010000", "192049.470000", "192049.930000", "192050.390000", "192050.850000", "192051.310000", "192051.770000", "192052.230000", "192052.690000", "192053.150000", "192053.610000", "192054.070000", "192054.530000", "192054.990000", "192055.450000", "192055.910000", "192056.370000", "192056.830000", "192057.290000", "192057.750000", "192058.210000", "192058.670000", "192059.130000", "192059.590000", "192100.050000", "192100.510000", "192100.970000", "192101.430000", "192101.890000", "192102.350000", "192102.810000", "192103.270000", "192103.730000", "192104.190000", "192104.650000", "192105.110000", "192105.570000", "192106.030000", "192106.490000", "192106.950000", "192107.410000", "192107.870000", "192108.330000", "192108.790000", "192109.250000", "192109.710000", "192110.170000", "192110.630000", "192111.090000", "192111.550000", "192112.010000", "192112.470000", "192112.930000", "192113.390000", "192113.850000", "192114.310000", "192114.770000", "192115.230000", "192115.690000", "192116.150000", "192116.610000", "192117.070000", "192117.530000", "192117.990000", "192118.450000", "192118.910000", "192119.370000", "192119.830000", "192120.290000", "192120.750000", "192121.210000", "192121.670000", "192122.130000", "192122.590000", "192123.050000", "192123.510000", "192123.970000", "192124.430000", "192124.890000", "192125.350000", "192125.810000", "192126.270000", "192126.730000", "192127.190000", "192127.650000", "192128.110000", "192128.570000", "192129.030000", "192129.490000", "192129.950000", "192130.410000", "192130.870000", "192131.330000", "192131.790000", "192132.250000", "192132.710000", "192133.170000", "192133.630000", "192134.090000", "192134.550000", "192135.010000", "192135.470000", "192135.930000", "192136.390000", "192136.850000", "192137.310000", "192137.770000", "192138.230000", "192138.690000", "192139.150000", "192139.610000", "192140.070000", "192140.530000", "192140.990000", "192141.450000", "192141.910000", "192142.370000", "192142.830000", "192143.290000", "192143.750000", "192144.210000", "192144.670000", "192145.130000", "192145.590000", "192146.050000", "192146.510000", "192146.970000", "192147.430000", "192147.890000", "192148.350000", "192148.810000", "192149.270000", "192149.730000", "192150.190000", "192150.650000", "192151.110000", "192151.570000", "192152.030000", "192152.490000", "192152.950000", "192153.410000", "192153.870000", "192154.330000", "192154.790000", "192155.250000", "192155.710000", "192156.170000", "192156.630000", "192157.090000", "192157.550000", "192158.010000", "192158.470000", "192158.930000", "192159.390000", "192159.850000", "192200.310000", "192200.770000", "192201.230000", "192201.690000", "192202.150000", "192202.610000", "192203.070000", "192203.530000", "192203.990000", "192204.450000", "192204.910000", "192205.370000", "192205.830000", "192206.290000", "192206.750000", "192207.210000", "192207.670000", "192208.130000", "192208.590000", "192209.050000", "192209.510000", "192209.970000", "192210.430000", "192210.890000", "192211.350000", "192211.810000", "192212.270000", "192212.730000", "192213.190000", "192213.650000", "192214.110000", "192214.570000", "192215.030000", "192215.490000", "192215.950000", "192216.410000", "192216.870000", "192217.330000", "192217.790000", "192218.250000", "192218.710000", "192219.170000", "192219.630000", "192220.090000", "192220.550000", "192221.010000", "192221.470000", "192221.930000", "192222.390000", "192222.850000", "192223.310000", "192223.770000", "192224.230000", "192224.690000", "192225.150000", "192225.610000", "192226.070000", "192226.530000", "192226.990000", "192227.450000", "192227.910000", "192228.370000", "192228.830000", "192229.290000", "192229.750000", "192230.210000", "192230.670000", "192231.130000", "192231.590000", "192232.050000", "192232.510000", "192232.970000", "192233.430000", "192233.890000", "192234.350000", "192234.810000", "192235.270000", "192235.730000", "192236.190000", "192236.650000", "192237.110000", "192237.570000", "192238.030000", "192238.490000", "192238.950000", "192239.410000", "192239.870000", "192240.330000", "192240.790000", "192241.250000", "192241.710000", "192242.170000", "192242.630000", "192243.090000", "192243.550000", "192244.010000", "192244.470000", "192244.930000", "192245.390000", "192245.850000", "192246.310000", "192246.770000", "192247.230000", "192247.690000", "192248.150000", "192248.610000", "192249.070000", "192249.530000", "192249.990000", "192250.450000", "192250.910000", "192251.370000", "192251.830000", "192252.290000", "192252.750000", "192253.210000", "192253.670000", "192254.130000", "192254.590000", "192255.050000", "192255.510000", "192255.970000", "192256.430000", "192256.890000", "192257.350000", "192257.810000", "192258.270000", "192258.730000", "192259.190000", "192259.650000", "192300.110000", "192300.570000", "192301.030000", "192301.490000", "192301.950000", "192302.410000", "192302.870000", "192303.330000", "192303.790000", "192304.250000", "192304.710000", "192305.170000", "192305.630000", "192306.090000", "192306.550000", "192307.010000", "192307.470000", "192307.930000", "192308.390000", "192308.850000", "192309.310000", "192309.770000", "192310.230000", "192310.690000", "192311.150000", "192311.610000", "192312.070000", "192312.530000", "192312.990000", "192313.450000", "192313.910000", "192314.370000", "192314.830000", "192315.290000", "192315.750000", "192316.210000", "192316.670000", "192317.130000", "192317.590000", "192318.050000", "192318.510000", "192318.970000", "192319.430000", "192319.890000", "192320.350000", "192320.810000", "192321.270000", "192321.730000", "192322.190000", "192322.650000", "192323.110000", "192323.570000", "192324.030000", "192324.490000", "192324.950000", "192325.410000", "192325.870000", "192326.330000", "192326.790000", "192327.250000", "192327.710000", "192328.170000", "192328.630000", "192329.090000", "192329.550000", "192330.010000", "192330.470000", "192330.930000", "192331.390000", "192331.850000", "192332.310000", "192332.770000", "192333.230000", "192333.690000", "192334.150000", "192334.610000", "192335.070000", "192335.530000", "192335.990000", "192336.450000", "192336.910000", "192337.370000", "192337.830000", "192338.290000", "192338.750000", "192339.210000", "192339.670000", "192340.130000", "192340.590000", "192341.050000", "192341.510000", "192341.970000", "192342.430000", "192342.890000", "192343.350000", "192343.810000", "192344.270000", "192344.730000", "192345.190000", "192345.650000", "192346.110000", "192346.570000", "192347.030000", "192347.490000", "192347.950000", "192348.410000", "192348.870000", "192349.330000", "192349.790000", "192350.250000", "192350.710000", "192351.170000", "192351.630000", "192352.090000", "192352.550000", "192353.010000", "192353.470000", "192353.930000", "192354.390000", "192354.850000", "192355.310000", "192355.770000", "192356.230000", "192356.690000", "192357.150000", "192357.610000", "192358.070000", "192358.530000", "192358.990000", "192359.450000", "192359.910000", "192400.370000", "192400.830000", "192401.290000", "192401.750000", "192402.210000", "192402.670000", "192403.130000", "192403.590000", "192404.050000", "192404.510000", "192404.970000", "192405.430000", "192405.890000", "192406.350000", "192406.810000", "192407.270000", "192407.730000", "192408.190000", "192408.650000", "192409.110000", "192409.570000", "192410.030000", "192410.490000", "192410.950000", "192411.410000", "192411.870000", "192412.330000", "192412.790000", "192413.250000", "192413.710000", "192414.170000", "192414.630000", "192415.090000", "192415.550000", "192416.010000", "192416.470000", "192416.930000", "192417.390000", "192417.850000", "192418.310000", "192418.770000", "192419.230000", "192419.690000", "192420.150000", "192420.610000", "192421.070000", "192421.530000", "192421.990000", "192422.450000", "192422.910000", "192423.370000", "192423.830000", "192424.290000", "192424.750000", "192425.210000", "192425.670000", "192426.130000", "192426.590000", "192427.050000", "192427.510000", "192427.970000", "192428.430000", "192428.890000", "192429.350000", "192429.810000", "192430.270000", "192430.730000", "192431.190000", "192431.650000", "192432.110000", "192432.570000", "192433.030000", "192433.490000", "192433.950000", "192434.410000", "192434.870000", "192435.330000", "192435.790000", "192436.250000", "192436.710000", "192437.170000", "192437.630000", "192438.090000", "192438.550000", "192439.010000", "192439.470000", "192439.930000", "192440.390000", "192440.850000", "192441.310000", "192441.770000", "192442.230000", "192442.690000", "192443.150000", "192443.610000", "192444.070000", "192444.530000", "192444.990000", "192445.450000", "192445.910000", "192446.370000", "192446.830000", "192447.290000", "192447.750000", "192448.210000", "192448.670000", "192449.130000", "192449.590000", "192450.050000", "192450.510000", "192450.970000", "192451.430000", "192451.890000", "192452.350000", "192452.810000", "192453.270000", "192453.730000", "192454.190000", "192454.650000", "192455.110000", "192455.570000", "192456.030000", "192456.490000", "192456.950000", "192457.410000", "192457.870000", "192458.330000", "192458.790000", "192459.250000", "192459.710000", "192500.170000", "192500.630000", "192501.090000", "192501.550000", "192502.010000", "192502.470000", "192502.930000", "192503.390000", "192503.850000", "192504.310000", "192504.770000", "192505.230000", "192505.690000", "192506.150000", "192506.610000", "192507.070000", "192507.530000", "192507.990000", "192508.450000", "192508.910000", "192509.370000", "192509.830000", "192510.290000", "192510.750000", "192511.210000", "192511.670000", "192512.130000", "192512.590000", "192513.050000", "192513.510000", "192513.970000", "192514.430000", "192514.890000", "192515.350000", "192515.810000", "192516.270000", "192516.730000", "192517.190000", "192517.650000", "192518.110000", "192518.570000", "192519.030000", "192519.490000", "192519.950000", "192520.410000", "192520.870000", "192521.330000", "192521.790000", "192522.250000", "192522.710000", "192523.170000", "192523.630000", "192524.090000", "192524.550000", "192525.010000", "192525.470000", "192525.930000", "192526.390000", "192526.850000", "192527.310000", "192527.770000", "192528.230000", "192528.690000", "192529.150000", "192529.610000", "192530.070000", "192530.530000", "192530.990000", "192531.450000", "192531.910000", "192532.370000", "192532.830000", "192533.290000", "192533.750000", "192534.210000", "192534.670000", "192535.130000", "192535.590000", "192536.050000", "192536.510000", "192536.970000", "192537.430000", "192537.890000"],
