{
  "AcquisitionMatrixPE": 82,
  "AcquisitionNumber": 1,
  "AcquisitionTime": "19:04:31.610000",
  "BandwidthPerPixelPhaseEncode": 24.888,
  "BaseResolution": 82,
  "BodyPartExamined": "BRAIN",
  "ConsistencyInfo": "N4_VE11E_LATEST_20181129",
  "ConversionSoftware": "dcm2niix",
  "ConversionSoftwareVersion": "v1.0.20201102",
  "DerivedVendorReportedEchoSpacing": 0.00049,
  "DeviceSerialNumber": "66112",
  "DwellTime": 2e-06,
  "EchoTime": 0.0272,
  "EchoTrainLength": 82,
  "EffectiveEchoSpacing": 0.00049,
  "FlipAngle": 44,
  "ImageComments": "Unaliased MB8/PE3",
  "ImageOrientationPatientDICOM": [0.993898, -0.075553, 0.08037, 0.06828, 0.993627, 0.0896876],
  "ImageType": [
    "ORIGINAL",
    "PRIMARY",
    "M",
    "MB",
    "ND",
    "NORM",
    "MOSAIC"
],
  "ImagingFrequency": 123.252,
  "InPlanePhaseEncodingDirectionDICOM": "COL",
  "InstitutionAddress": "Maynard 3,Hanover,NH,US,03755",
  "InstitutionName": "Dartmouth College - PBS",
  "InstitutionalDepartmentName": "Department",
  "MRAcquisitionType": "2D",
  "MagneticFieldStrength": 3,
  "Manufacturer": "Siemens",
  "ManufacturersModelName": "Prisma",
  "Modality": "MR",
  "MultibandAccelerationFactor": 8,
  "PartialFourier": 1,
  "PatientPosition": "HFS",
  "PercentPhaseFOV": 100,
  "PercentSampling": 100,
  "PhaseEncodingDirection": "j-",
  "PhaseEncodingSteps": 82,
  "PhaseResolution": 1,
  "PixelBandwidth": 3050,
  "ProcedureStepDescription": "Wager_Wager^1076_spacetop",
  "ProtocolName": "func_run-01_task-social_acq-ap-mb8",
  "PulseSequenceDetails": "%CustomerSeq%\\cmrr_mbep2d_bold",
  "ReceiveCoilActiveElements": "HEA;HEP",
  "ReceiveCoilName": "Head_32",
  "ReconMatrixPE": 82,
  "RepetitionTime": 0.46,
  "SAR": 0.0856565,
  "ScanOptions": "FS",
  "ScanningSequence": "EP",
  "SequenceName": "epfid2d1_82",
  "SequenceVariant": "SK\\SS",
  "SeriesDescription": "func_run-01_task-social_acq-ap-mb8",
  "SeriesNumber": 8,
  "ShimSetting": [4177, -7744, -7273, 629, -126, -253, -142, 66],
  "SliceThickness": 2.7,
  "SliceTiming": [0, 0.2525, 0.065, 0.315, 0.1275, 0.3775, 0.19, 0, 0.2525, 0.065, 0.315, 0.1275, 0.3775, 0.19, 0, 0.2525, 0.065, 0.315, 0.1275, 0.3775, 0.19, 0, 0.2525, 0.065, 0.315, 0.1275, 0.3775, 0.19, 0, 0.2525, 0.065, 0.315, 0.1275, 0.3775, 0.19, 0, 0.2525, 0.065, 0.315, 0.1275, 0.3775, 0.19, 0, 0.2525, 0.065, 0.315, 0.1275, 0.3775, 0.19, 0, 0.2525, 0.065, 0.315, 0.1275, 0.3775, 0.19],
  "SoftwareVersions": "syngo MR E11",
  "SpacingBetweenSlices": 2.7,
  "StationName": "AWP66112",
  "TaskName": "social",
  "TotalReadoutTime": 0.03969,
  "TxRefAmp": 228.088,
  "WipMemBlock": "65dadf11-1842-48c9-b962-7a994f5b5736||Sequence: R016 ve11e/master r/434b28f1; Aug  7 2019 18:53:46 by eja",
  "dcmmeta_affine": [
    [-2.6665544509887695, 0.18319012224674225, 0.23391161859035492, 91.65484619140625],
    [0.20270316302776337, 2.665827751159668, 0.22586211562156677, -107.57952880859375],
    [0.2156268209218979, -0.2406252920627594, 2.680349111557007, -77.5068588256836],
    [0.0, 0.0, 0.0, 1.0]
],
  "dcmmeta_reorient_transform": [
    [0.0, -1.0, 0.0, 81.0],
    [1.0, 0.0, 0.0, 0.0],
    [0.0, 0.0, 1.0, 0.0],
    [0.0, 0.0, 0.0, 1.0]
],
  "dcmmeta_shape": [82, 82, 56, 872],
  "dcmmeta_slice_dim": 2,
  "dcmmeta_version": 0.6,
  "global": {
    "const": {
      "AccessionNumber": "A004058",
      "AcquisitionMatrix": [82, 0, 0, 82],
      "AngioFlag": "N",
      "BitsAllocated": 16,
      "BitsStored": 16,
      "BodyPartExamined": "BRAIN",
      "Columns": 656,
      "EchoNumbers": 1,
      "EchoTime": 27.2,
      "EchoTrainLength": 82,
      "FlipAngle": 44.0,
      "HighBit": 15,
      "ImageOrientationPatient": [0.99389758480604, -0.075552994993, 0.08036999355675, 0.06827995179916, 0.99362668098741, 0.08968760790795],
      "ImagePositionPatient": [-924.36997058529, -815.26927047641, -227.94186106978],
      "ImageType": [
        "ORIGINAL",
        "PRIMARY",
        "M",
        "MB",
        "ND",
        "NORM",
        "MOSAIC"
],
      "ImagedNucleus": "1H",
      "ImagingFrequency": 123.252189,
      "InPlanePhaseEncodingDirection": "COL",
      "MRAcquisitionType": "2D",
      "MagneticFieldStrength": 3.0,
      "Manufacturer": "SIEMENS",
      "ManufacturerModelName": "Prisma",
      "Modality": "MR",
      "NumberOfAverages": 1.0,
      "NumberOfPhaseEncodingSteps": 82,
      "PercentPhaseFieldOfView": 100.0,
      "PercentSampling": 100.0,
      "PerformedProcedureStepStartTime": "175634.219000",
      "PhotometricInterpretation": "MONOCHROME2",
      "PixelBandwidth": 3050.0,
      "PixelRepresentation": 0,
      "PixelSpacing": [2.6829268932343, 2.6829268932343],
      "ProtocolName": "func_run-01_task-social_acq-ap-mb8",
      "RepetitionTime": 460.0,
      "Rows": 656,
      "SAR": 0.08565652760617,
      "SamplesPerPixel": 1,
      "ScanOptions": "FS",
      "ScanningSequence": "EP",
      "SequenceName": "epfid2d1_82",
      "SequenceVariant": [
        "SK",
        "SS"
],
      "SeriesDescription": "func_run-01_task-social_acq-ap-mb8",
      "SeriesNumber": 8,
      "SeriesTime": "190444.860000",
      "SliceLocation": -78.00164549906,
      "SliceThickness": 2.7000000476837,
      "SmallestImagePixelValue": 0,
      "SoftwareVersions": "syngo MR E11",
      "SpacingBetweenSlices": 2.6999998711393,
      "SpecificCharacterSet": "ISO_IR 100",
      "StudyID": "3",
      "StudyTime": "175634.167000",
      "TransmitCoilName": "Body",
      "VariableFlipAngleFlag": "N",
      "WindowCenterWidthExplanation": "Algo1"
    },
    "slices": {}
  },
  "time": {
    "samples": {
      "AcquisitionNumber": [1, 2, 3, 4, 5, 6, 7, 8, 9, 10, 11, 12, 13, 14, 15, 16, 17, 18, 19, 20, 21, 22, 23, 24, 25, 26, 27, 28, 29, 30, 31, 32, 33, 34, 35, 36, 37, 38, 39, 40, 41, 42, 43, 44, 45, 46, 47, 48, 49, 50, 51, 52, 53, 54, 55, 56, 57, 58, 59, 60, 61, 62, 63, 64, 65, 66, 67, 68, 69, 70, 71, 72, 73, 74, 75, 76, 77, 78, 79, 80, 81, 82, 83, 84, 85, 86, 87, 88, 89, 90, 91, 92, 93, 94, 95, 96, 97, 98, 99, 100, 101, 102, 103, 104, 105, 106, 107, 108, 109, 110, 111, 112, 113, 114, 115, 116, 117, 118, 119, 120, 121, 122, 123, 124, 125, 126, 127, 128, 129, 130, 131, 132, 133, 134, 135, 136, 137, 138, 139, 140, 141, 142, 143, 144, 145, 146, 147, 148, 149, 150, 151, 152, 153, 154, 155, 156, 157, 158, 159, 160, 161, 162, 163, 164, 165, 166, 167, 168, 169, 170, 171, 172, 173, 174, 175, 176, 177, 178, 179, 180, 181, 182, 183, 184, 185, 186, 187, 188, 189, 190, 191, 192, 193, 194, 195, 196, 197, 198, 199, 200, 201, 202, 203, 204, 205, 206, 207, 208, 209, 210, 211, 212, 213, 214, 215, 216, 217, 218, 219, 220, 221, 222, 223, 224, 225, 226, 227, 228, 229, 230, 231, 232, 233, 234, 235, 236, 237, 238, 239, 240, 241, 242, 243, 244, 245, 246, 247, 248, 249, 250, 251, 252, 253, 254, 255, 256, 257, 258, 259, 260, 261, 262, 263, 264, 265, 266, 267, 268, 269, 270, 271, 272, 273, 274, 275, 276, 277, 278, 279, 280, 281, 282, 283, 284, 285, 286, 287, 288, 289, 290, 291, 292, 293, 294, 295, 296, 297, 298, 299, 300, 301, 302, 303, 304, 305, 306, 307, 308, 309, 310, 311, 312, 313, 314, 315, 316, 317, 318, 319, 320, 321, 322, 323, 324, 325, 326, 327, 328, 329, 330, 331, 332, 333, 334, 335, 336, 337, 338, 339, 340, 341, 342, 343, 344, 345, 346, 347, 348, 349, 350, 351, 352, 353, 354, 355, 356, 357, 358, 359, 360, 361, 362, 363, 364, 365, 366, 367, 368, 369, 370, 371, 372, 373, 374, 375, 376, 377, 378, 379, 380, 381, 382, 383, 384, 385, 386, 387, 388, 389, 390, 391, 392, 393, 394, 395, 396, 397, 398, 399, 400, 401, 402, 403, 404, 405, 406, 407, 408, 409, 410, 411, 412, 413, 414, 415, 416, 417, 418, 419, 420, 421, 422, 423, 424, 425, 426, 427, 428, 429, 430, 431, 432, 433, 434, 435, 436, 437, 438, 439, 440, 441, 442, 443, 444, 445, 446, 447, 448, 449, 450, 451, 452, 453, 454, 455, 456, 457, 458, 459, 460, 461, 462, 463, 464, 465, 466, 467, 468, 469, 470, 471, 472, 473, 474, 475, 476, 477, 478, 479, 480, 481, 482, 483, 484, 485, 486, 487, 488, 489, 490, 491, 492, 493, 494, 495, 496, 497, 498, 499, 500, 501, 502, 503, 504, 505, 506, 507, 508, 509, 510, 511, 512, 513, 514, 515, 516, 517, 518, 519, 520, 521, 522, 523, 524, 525, 526, 527, 528, 529, 530, 531, 532, 533, 534, 535, 536, 537, 538, 539, 540, 541, 542, 543, 544, 545, 546, 547, 548, 549, 550, 551, 552, 553, 554, 555, 556, 557, 558, 559, 560, 561, 562, 563, 564, 565, 566, 567, 568, 569, 570, 571, 572, 573, 574, 575, 576, 577, 578, 579, 580, 581, 582, 583, 584, 585, 586, 587, 588, 589, 590, 591, 592, 593, 594, 595, 596, 597, 598, 599, 600, 601, 602, 603, 604, 605, 606, 607, 608, 609, 610, 611, 612, 613, 614, 615, 616, 617, 618, 619, 620, 621, 622, 623, 624, 625, 626, 627, 628, 629, 630, 631, 632, 633, 634, 635, 636, 637, 638, 639, 640, 641, 642, 643, 644, 645, 646, 647, 648, 649, 650, 651, 652, 653, 654, 655, 656, 657, 658, 659, 660, 661, 662, 663, 664, 665, 666, 667, 668, 669, 670, 671, 672, 673, 674, 675, 676, 677, 678, 679, 680, 681, 682, 683, 684, 685, 686, 687, 688, 689, 690, 691, 692, 693, 694, 695, 696, 697, 698, 699, 700, 701, 702, 703, 704, 705, 706, 707, 708, 709, 710, 711, 712, 713, 714, 715, 716, 717, 718, 719, 720, 721, 722, 723, 724, 725, 726, 727, 728, 729, 730, 731, 732, 733, 734, 735, 736, 737, 738, 739, 740, 741, 742, 743, 744, 745, 746, 747, 748, 749, 750, 751, 752, 753, 754, 755, 756, 757, 758, 759, 760, 761, 762, 763, 764, 765, 766, 767, 768, 769, 770, 771, 772, 773, 774, 775, 776, 777, 778, 779, 780, 781, 782, 783, 784, 785, 786, 787, 788, 789, 790, 791, 792, 793, 794, 795, 796, 797, 798, 799, 800, 801, 802, 803, 804, 805, 806, 807, 808, 809, 810, 811, 812, 813, 814, 815, 816, 817, 818, 819, 820, 821, 822, 823, 824, 825, 826, 827, 828, 829, 830, 831, 832, 833, 834, 835, 836, 837, 838, 839, 840, 841, 842, 843, 844, 845, 846, 847, 848, 849, 850, 851, 852, 853, 854, 855, 856, 857, 858, 859, 860, 861, 862, 863, 864, 865, 866, 867, 868, 869, 870, 871, 872],
      "AcquisitionTime": ["190431.610000", "190432.070000", "190432.530000", "190432.990000", "190433.450000", "190433.910000", "190434.370000", "190434.830000", "190435.290000", "190435.750000", "190436.210000", "190436.670000", "190437.130000", "190437.590000", "190438.050000", "190438.510000", "190438.970000", "190439.430000", "190439.890000", "190440.350000", "190440.810000", "190441.270000", "190441.730000", "190442.190000", "190442.650000", "190443.110000", "190443.570000", "190444.030000", "190444.490000", "190444.950000", "190445.410000", "190445.870000", "190446.330000", "190446.790000", "190447.250000", "190447.710000", "190448.170000", "190448.630000", "190449.090000", "190449.550000", "190450.010000", "190450.470000", "190450.930000", "190451.390000", "190451.850000", "190452.310000", "190452.770000", "190453.230000", "190453.690000", "190454.150000", "190454.610000", "190455.070000", "190455.530000", "190455.990000", "190456.450000", "190456.910000", "190457.370000", "190457.830000", "190458.290000", "190458.750000", "190459.210000", "190459.670000", "190500.130000", "190500.590000", "190501.050000", "190501.510000", "190501.970000", "190502.430000", "190502.890000", "190503.350000", "190503.810000", "190504.270000", "190504.730000", "190505.190000", "190505.650000", "190506.110000", "190506.570000", "190507.030000", "190507.490000", "190507.950000", "190508.410000", "190508.870000", "190509.330000", "190509.790000", "190510.250000", "190510.710000", "190511.170000", "190511.630000", "190512.090000", "190512.550000", "190513.010000", "190513.470000", "190513.930000", "190514.390000", "190514.850000", "190515.310000", "190515.770000", "190516.230000", "190516.690000", "190517.150000", "190517.610000", "190518.070000", "190518.530000", "190518.990000", "190519.450000", "190519.910000", "190520.370000", "190520.830000", "190521.290000", "190521.750000", "190522.210000", "190522.670000", "190523.130000", "190523.590000", "190524.050000", "190524.510000", "190524.970000", "190525.430000", "190525.890000", "190526.350000", "190526.810000", "190527.270000", "190527.730000", "190528.190000", "190528.650000", "190529.110000", "190529.570000", "190530.030000", "190530.490000", "190530.950000", "190531.410000", "190531.870000", "190532.330000", "190532.790000", "190533.250000", "190533.710000", "190534.170000", "190534.630000", "190535.090000", "190535.550000", "190536.010000", "190536.470000", "190536.930000", "190537.390000", "190537.850000", "190538.310000", "190538.770000", "190539.230000", "190539.690000", "190540.150000", "190540.610000", "190541.070000", "190541.530000", "190541.990000", "190542.450000", "190542.910000", "190543.370000", "190543.830000", "190544.290000", "190544.750000", "190545.210000", "190545.670000", "190546.130000", "190546.590000", "190547.050000", "190547.510000", "190547.970000", "190548.430000", "190548.890000", "190549.350000", "190549.810000", "190550.270000", "190550.730000", "190551.190000", "190551.650000", "190552.110000", "190552.570000", "190553.030000", "190553.490000", "190553.950000", "190554.410000", "190554.870000", "190555.330000", "190555.790000", "190556.250000", "190556.710000", "190557.170000", "190557.630000", "190558.090000", "190558.550000", "190559.010000", "190559.470000", "190559.930000", "190600.390000", "190600.850000", "190601.310000", "190601.770000", "190602.230000", "190602.690000", "190603.150000", "190603.610000", "190604.070000", "190604.530000", "190604.990000", "190605.450000", "190605.910000", "190606.370000", "190606.830000", "190607.290000", "190607.750000", "190608.210000", "190608.670000", "190609.130000", "190609.590000", "190610.050000", "190610.510000", "190610.970000", "190611.430000", "190611.890000", "190612.350000", "190612.810000", "190613.270000", "190613.730000", "190614.190000", "190614.650000", "190615.110000", "190615.570000", "190616.030000", "190616.490000", "190616.950000", "190617.410000", "190617.870000", "190618.330000", "190618.790000", "190619.250000", "190619.710000", "190620.170000", "190620.630000", "190621.090000", "190621.550000", "190622.010000", "190622.470000", "190622.930000", "190623.390000", "190623.850000", "190624.310000", "190624.770000", "190625.230000", "190625.690000", "190626.150000", "190626.610000", "190627.070000", "190627.530000", "190627.990000", "190628.450000", "190628.910000", "190629.370000", "190629.830000", "190630.290000", "190630.750000", "190631.210000", "190631.670000", "190632.130000", "190632.590000", "190633.050000", "190633.510000", "190633.970000", "190634.430000", "190634.890000", "190635.350000", "190635.810000", "190636.270000", "190636.730000", "190637.190000", "190637.650000", "190638.110000", "190638.570000", "190639.030000", "190639.490000", "190639.950000", "190640.410000", "190640.870000", "190641.330000", "190641.790000", "190642.250000", "190642.710000", "190643.170000", "190643.630000", "190644.090000", "190644.550000", "190645.010000", "190645.470000", "190645.930000", "190646.390000", "190646.850000", "190647.310000", "190647.770000", "190648.230000", "190648.690000", "190649.150000", "190649.610000", "190650.070000", "190650.530000", "190650.990000", "190651.450000", "190651.910000", "190652.370000", "190652.830000", "190653.290000", "190653.750000", "190654.210000", "190654.670000", "190655.130000", "190655.590000", "190656.050000", "190656.510000", "190656.970000", "190657.430000", "190657.890000", "190658.350000", "190658.810000", "190659.270000", "190659.730000", "190700.190000", "190700.650000", "190701.110000", "190701.570000", "190702.030000", "190702.490000", "190702.950000", "190703.410000", "190703.870000", "190704.330000", "190704.790000", "190705.250000", "190705.710000", "190706.170000", "190706.630000", "190707.090000", "190707.550000", "190708.010000", "190708.470000", "190708.930000", "190709.390000", "190709.850000", "190710.310000", "190710.770000", "190711.230000", "190711.690000", "190712.150000", "190712.610000", "190713.070000", "190713.530000", "190713.990000", "190714.450000", "190714.910000", "190715.370000", "190715.830000", "190716.290000", "190716.750000", "190717.210000", "190717.670000", "190718.130000", "190718.590000", "190719.050000", "190719.510000", "190719.970000", "190720.430000", "190720.890000", "190721.350000", "190721.810000", "190722.270000", "190722.730000", "190723.190000", "190723.650000", "190724.110000", "190724.570000", "190725.030000", "190725.490000", "190725.950000", "190726.410000", "190726.870000", "190727.330000", "190727.790000", "190728.250000", "190728.710000", "190729.170000", "190729.630000", "190730.090000", "190730.550000", "190731.010000", "190731.470000", "190731.930000", "190732.390000", "190732.850000", "190733.310000", "190733.770000", "190734.230000", "190734.690000", "190735.150000", "190735.610000", "190736.070000", "190736.530000", "190736.990000", "190737.450000", "190737.910000", "190738.370000", "190738.830000", "190739.290000", "190739.750000", "190740.210000", "190740.670000", "190741.130000", "190741.590000", "190742.050000", "190742.510000", "190742.970000", "190743.430000", "190743.890000", "190744.350000", "190744.810000", "190745.270000", "190745.730000", "190746.190000", "190746.650000", "190747.110000", "190747.570000", "190748.030000", "190748.490000", "190748.950000", "190749.410000", "190749.870000", "190750.330000", "190750.790000", "190751.250000", "190751.710000", "190752.170000", "190752.630000", "190753.090000", "190753.550000", "190754.010000", "190754.470000", "190754.930000", "190755.390000", "190755.850000", "190756.310000", "190756.770000", "190757.230000", "190757.690000", "190758.150000", "190758.610000", "190759.070000", "190759.530000", "190759.990000", "190800.450000", "190800.910000", "190801.370000", "190801.830000", "190802.290000", "190802.750000", "190803.210000", "190803.670000", "190804.130000", "190804.590000", "190805.050000", "190805.510000", "190805.970000", "190806.430000", "190806.890000", "190807.350000", "190807.810000", "190808.270000", "190808.730000", "190809.190000", "190809.650000", "190810.110000", "190810.570000", "190811.030000", "190811.490000", "190811.950000", "190812.410000", "190812.870000", "190813.330000", "190813.790000", "190814.250000", "190814.710000", "190815.170000", "190815.630000", "190816.090000", "190816.550000", "190817.010000", "190817.470000", "190817.930000", "190818.390000", "190818.850000", "190819.310000", "190819.770000", "190820.230000", "190820.690000", "190821.150000", "190821.610000", "190822.070000", "190822.530000", "190822.990000", "190823.450000", "190823.910000", "190824.370000", "190824.830000", "190825.290000", "190825.750000", "190826.210000", "190826.670000", "190827.130000", "190827.590000", "190828.050000", "190828.510000", "190828.970000", "190829.430000", "190829.890000", "190830.350000", "190830.810000", "190831.270000", "190831.730000", "190832.190000", "190832.650000", "190833.110000", "190833.570000", "190834.030000", "190834.490000", "190834.950000", "190835.410000", "190835.870000", "190836.330000", "190836.790000", "190837.250000", "190837.710000", "190838.170000", "190838.630000", "190839.090000", "190839.550000", "190840.010000", "190840.470000", "190840.930000", "190841.390000", "190841.850000", "190842.310000", "190842.770000", "190843.230000", "190843.690000", "190844.150000", "190844.610000", "190845.070000", "190845.530000", "190845.990000", "190846.450000", "190846.910000", "190847.370000", "190847.830000", "190848.290000", "190848.750000", "190849.210000", "190849.670000", "190850.130000", "190850.590000", "190851.050000", "190851.510000", "190851.970000", "190852.430000", "190852.890000", "190853.350000", "190853.810000", "190854.270000", "190854.730000", "190855.190000", "190855.650000", "190856.110000", "190856.570000", "190857.030000", "190857.490000", "190857.950000", "190858.410000", "190858.870000", "190859.330000", "190859.790000", "190900.250000", "190900.710000", "190901.170000", "190901.630000", "190902.090000", "190902.550000", "190903.010000", "190903.470000", "190903.930000", "190904.390000", "190904.850000", "190905.310000", "190905.770000", "190906.230000", "190906.690000", "190907.150000", "190907.610000", "190908.070000", "190908.530000", "190908.990000", "190909.450000", "190909.910000", "190910.370000", "190910.830000", "190911.290000", "190911.750000", "190912.210000", "190912.670000", "190913.130000", "190913.590000", "190914.050000", "190914.510000", "190914.970000", "190915.430000", "190915.890000", "190916.350000", "190916.810000", "190917.270000", "190917.730000", "190918.190000", "190918.650000", "190919.110000", "190919.570000", "190920.030000", "190920.490000", "190920.950000", "190921.410000", "190921.870000", "190922.330000", "190922.790000", "190923.250000", "190923.710000", "190924.170000", "190924.630000", "190925.090000", "190925.550000", "190926.010000", "190926.470000", "190926.930000", "190927.390000", "190927.850000", "190928.310000", "190928.770000", "190929.230000", "190929.690000", "190930.150000", "190930.610000", "190931.070000", "190931.530000", "190931.990000", "190932.450000", "190932.910000", "190933.370000", "190933.830000", "190934.290000", "190934.750000", "190935.210000", "190935.670000", "190936.130000", "190936.590000", "190937.050000", "190937.510000", "190937.970000", "190938.430000", "190938.890000", "190939.350000", "190939.810000", "190940.270000", "190940.730000", "190941.190000", "190941.650000", "190942.110000", "190942.570000", "190943.030000", "190943.490000", "190943.950000", "190944.410000", "190944.870000", "190945.330000", "190945.790000", "190946.250000", "190946.710000", "190947.170000", "190947.630000", "190948.090000", "190948.550000", "190949.010000", "190949.470000", "190949.930000", "190950.390000", "190950.850000", "190951.310000", "190951.770000", "190952.230000", "190952.690000", "190953.150000", "190953.610000", "190954.070000", "190954.530000", "190954.990000", "190955.450000", "190955.910000", "190956.370000", "190956.830000", "190957.290000", "190957.750000", "190958.210000", "190958.670000", "190959.130000", "190959.590000", "191000.050000", "191000.510000", "191000.970000", "191001.430000", "191001.890000", "191002.350000", "191002.810000", "191003.270000", "191003.730000", "191004.190000", "191004.650000", "191005.110000", "191005.570000", "191006.030000", "191006.490000", "191006.950000", "191007.410000", "191007.870000", "191008.330000", "191008.790000", "191009.250000", "191009.710000", "191010.170000", "191010.630000", "191011.090000", "191011.550000", "191012.010000", "191012.470000", "191012.930000", "191013.390000", "191013.850000", "191014.310000", "191014.770000", "191015.230000", "191015.690000", "191016.150000", "191016.610000", "191017.070000", "191017.530000", "191017.990000", "191018.450000", "191018.910000", "191019.370000", "191019.830000", "191020.290000", "191020.750000", "191021.210000", "191021.670000", "191022.130000", "191022.590000", "191023.050000", "191023.510000", "191023.970000", "191024.430000", "191024.890000", "191025.350000", "191025.810000", "191026.270000", "191026.730000", "191027.190000", "191027.650000", "191028.110000", "191028.570000", "191029.030000", "191029.490000", "191029.950000", "191030.410000", "191030.870000", "191031.330000", "191031.790000", "191032.250000", "191032.710000", "191033.170000", "191033.630000", "191034.090000", "191034.550000", "191035.010000", "191035.470000", "191035.930000", "191036.390000", "191036.850000", "191037.310000", "191037.770000", "191038.230000", "191038.690000", "191039.150000", "191039.610000", "191040.070000", "191040.530000", "191040.990000", "191041.450000", "191041.910000", "191042.370000", "191042.830000", "191043.290000", "191043.750000", "191044.210000", "191044.670000", "191045.130000", "191045.590000", "191046.050000", "191046.510000", "191046.970000", "191047.430000", "191047.890000", "191048.350000", "191048.810000", "191049.270000", "191049.730000", "191050.190000", "191050.650000", "191051.110000", "191051.570000", "191052.030000", "191052.490000", "191052.950000", "191053.410000", "191053.870000", "191054.330000", "191054.790000", "191055.250000", "191055.710000", "191056.170000", "191056.630000", "191057.090000", "191057.550000", "191058.010000", "191058.470000", "191058.930000", "191059.390000", "191059.850000", "191100.310000", "191100.770000", "191101.230000", "191101.690000", "191102.150000", "191102.610000", "191103.070000", "191103.530000", "191103.990000", "191104.450000", "191104.910000", "191105.370000", "191105.830000", "191106.290000", "191106.750000", "191107.210000", "191107.670000", "191108.130000", "191108.590000", "191109.050000", "191109.510000", "191109.970000", "191110.430000", "191110.890000", "191111.350000", "191111.810000", "191112.270000"],
