{
  "AcquisitionMatrixPE": 82,
  "AcquisitionNumber": 1,
  "AcquisitionTime": "11:30:8.272500",
  "BandwidthPerPixelPhaseEncode": 24.888,
  "BaseResolution": 82,
  "BodyPartExamined": "BRAIN",
  "ConsistencyInfo": "N4_VE11E_LATEST_20181129",
  "ConversionSoftware": "dcm2niix",
  "ConversionSoftwareVersion": "v1.0.20201102",
  "DerivedVendorReportedEchoSpacing": 0.00049,
  "DeviceSerialNumber": "66112",
  "DwellTime": 2e-06,
  "EchoTime": 0.0272,
  "EchoTrainLength": 82,
  "EffectiveEchoSpacing": 0.00049,
  "FlipAngle": 44,
  "ImageComments": "Unaliased MB8/PE3",
  "ImageOrientationPatientDICOM": [0.999072, -0.0239215, 0.0358115, 0.0205787, 0.995641, 0.0909652],
  "ImageType": [
    "ORIGINAL",
    "PRIMARY",
    "M",
    "MB",
    "ND",
    "NORM",
    "MOSAIC"
],
  "ImagingFrequency": 123.252,
  "InPlanePhaseEncodingDirectionDICOM": "COL",
  "InstitutionAddress": "Maynard 3,Hanover,NH,US,03755",
  "InstitutionName": "Dartmouth College - PBS",
  "InstitutionalDepartmentName": "Department",
  "MRAcquisitionType": "2D",
  "MagneticFieldStrength": 3,
  "Manufacturer": "Siemens",
  "ManufacturersModelName": "Prisma",
  "Modality": "MR",
  "MultibandAccelerationFactor": 8,
  "PartialFourier": 1,
  "PatientPosition": "HFS",
  "PercentPhaseFOV": 100,
  "PercentSampling": 100,
  "PhaseEncodingDirection": "j-",
  "PhaseEncodingSteps": 82,
  "PhaseResolution": 1,
  "PixelBandwidth": 3050,
  "ProcedureStepDescription": "Wager_Wager^1076_spacetop",
  "ProtocolName": "func_run-05_task-social_acq-ap-mb8",
  "PulseSequenceDetails": "%CustomerSeq%\\cmrr_mbep2d_bold",
  "ReceiveCoilActiveElements": "HEA;HEP",
  "ReceiveCoilName": "Head_32",
  "ReconMatrixPE": 82,
  "RepetitionTime": 0.46,
  "SAR": 0.0969932,
  "ScanOptions": "FS",
  "ScanningSequence": "EP",
  "SequenceName": "epfid2d1_82",
  "SequenceVariant": "SK\\SS",
  "SeriesDescription": "func_run-05_task-social_acq-ap-mb8",
  "SeriesNumber": 20,
  "ShimSetting": [4155, -7760, -7264, 540, -88, -250, -23, 15],
  "SliceThickness": 2.7,
  "SliceTiming": [0, 0.25, 0.0625, 0.315, 0.125, 0.3775, 0.1875, 0, 0.25, 0.0625, 0.315, 0.125, 0.3775, 0.1875, 0, 0.25, 0.0625, 0.315, 0.125, 0.3775, 0.1875, 0, 0.25, 0.0625, 0.315, 0.125, 0.3775, 0.1875, 0, 0.25, 0.0625, 0.315, 0.125, 0.3775, 0.1875, 0, 0.25, 0.0625, 0.315, 0.125, 0.3775, 0.1875, 0, 0.25, 0.0625, 0.315, 0.125, 0.3775, 0.1875, 0, 0.25, 0.0625, 0.315, 0.125, 0.3775, 0.1875],
  "SoftwareVersions": "syngo MR E11",
  "SpacingBetweenSlices": 2.7,
  "StationName": "AWP66112",
  "TaskName": "social",
  "TotalReadoutTime": 0.03969,
  "TxRefAmp": 246.974,
  "WipMemBlock": "6ccdc820-fcc7-4402-bf95-3b345e95c65e||Sequence: R016 ve11e/master r/434b28f1; Aug  7 2019 18:53:46 by eja",
  "dcmmeta_affine": [
    [-2.6804378032684326, 0.05521111935377121, 0.1021447703242302, 105.10557556152344],
    [0.06417951732873917, 2.6712331771850586, 0.2433883100748062, -102.5382080078125],
    [0.09607954323291779, -0.24405288696289062, 2.6870670318603516, -66.02936553955078],
    [0.0, 0.0, 0.0, 1.0]
],
  "dcmmeta_reorient_transform": [
    [0.0, -1.0, 0.0, 81.0],
    [1.0, 0.0, 0.0, 0.0],
    [0.0, 0.0, 1.0, 0.0],
    [0.0, 0.0, 0.0, 1.0]
],
  "dcmmeta_shape": [82, 82, 56, 872],
  "dcmmeta_slice_dim": 2,
  "dcmmeta_version": 0.6,
  "global": {
    "const": {
      "AccessionNumber": "A003885",
      "AcquisitionMatrix": [82, 0, 0, 82],
      "AngioFlag": "N",
      "BitsAllocated": 16,
      "BitsStored": 16,
      "BodyPartExamined": "BRAIN",
      "Columns": 656,
      "EchoNumbers": 1,
      "EchoTime": 27.2,
      "EchoTrainLength": 82,
      "FlipAngle": 44.0,
      "HighBit": 15,
      "ImageOrientationPatient": [0.99907222111114, -0.0239214557961, 0.03581146403936, 0.0205786891011, 0.99564142938653, 0.09096516720164],
      "ImagePositionPatient": [-894.70889212592, -862.05607246596, -183.4156567799],
      "ImageType": [
        "ORIGINAL",
        "PRIMARY",
        "M",
        "MB",
        "ND",
        "NORM",
        "MOSAIC"
],
      "ImagedNucleus": "1H",
      "ImagingFrequency": 123.252177,
      "InPlanePhaseEncodingDirection": "COL",
      "MRAcquisitionType": "2D",
      "MagneticFieldStrength": 3.0,
      "Manufacturer": "SIEMENS",
      "ManufacturerModelName": "Prisma",
      "Modality": "MR",
      "NumberOfAverages": 1.0,
      "NumberOfPhaseEncodingSteps": 82,
      "PercentPhaseFieldOfView": 100.0,
      "PercentSampling": 100.0,
      "PerformedProcedureStepStartTime": "102705.344000",
      "PhotometricInterpretation": "MONOCHROME2",
      "PixelBandwidth": 3050.0,
      "PixelRepresentation": 0,
      "PixelSpacing": [2.6829268932343, 2.6829268932343],
      "ProtocolName": "func_run-05_task-social_acq-ap-mb8",
      "RepetitionTime": 460.0,
      "Rows": 656,
      "SAR": 0.09699323825838,
      "SamplesPerPixel": 1,
      "ScanOptions": "FS",
      "ScanningSequence": "EP",
      "SequenceName": "epfid2d1_82",
      "SequenceVariant": [
        "SK",
        "SS"
],
      "SeriesDescription": "func_run-05_task-social_acq-ap-mb8",
      "SeriesNumber": 20,
      "SeriesTime": "113033.614000",
      "SliceLocation": -70.979976546598,
      "SliceThickness": 2.7000000476837,
      "SmallestImagePixelValue": 0,
      "SoftwareVersions": "syngo MR E11",
      "SpacingBetweenSlices": 2.7000000185928,
      "SpecificCharacterSet": "ISO_IR 100",
      "StudyID": "1",
      "StudyTime": "102705.293000",
      "TransmitCoilName": "Body",
      "VariableFlipAngleFlag": "N",
      "WindowCenterWidthExplanation": "Algo1"
    },
    "slices": {}
  },
  "time": {
    "samples": {
      "AcquisitionNumber": [1, 2, 3, 4, 5, 6, 7, 8, 9, 10, 11, 12, 13, 14, 15, 16, 17, 18, 19, 20, 21, 22, 23, 24, 25, 26, 27, 28, 29, 30, 31, 32, 33, 34, 35, 36, 37, 38, 39, 40, 41, 42, 43, 44, 45, 46, 47, 48, 49, 50, 51, 52, 53, 54, 55, 56, 57, 58, 59, 60, 61, 62, 63, 64, 65, 66, 67, 68, 69, 70, 71, 72, 73, 74, 75, 76, 77, 78, 79, 80, 81, 82, 83, 84, 85, 86, 87, 88, 89, 90, 91, 92, 93, 94, 95, 96, 97, 98, 99, 100, 101, 102, 103, 104, 105, 106, 107, 108, 109, 110, 111, 112, 113, 114, 115, 116, 117, 118, 119, 120, 121, 122, 123, 124, 125, 126, 127, 128, 129, 130, 131, 132, 133, 134, 135, 136, 137, 138, 139, 140, 141, 142, 143, 144, 145, 146, 147, 148, 149, 150, 151, 152, 153, 154, 155, 156, 157, 158, 159, 160, 161, 162, 163, 164, 165, 166, 167, 168, 169, 170, 171, 172, 173, 174, 175, 176, 177, 178, 179, 180, 181, 182, 183, 184, 185, 186, 187, 188, 189, 190, 191, 192, 193, 194, 195, 196, 197, 198, 199, 200, 201, 202, 203, 204, 205, 206, 207, 208, 209, 210, 211, 212, 213, 214, 215, 216, 217, 218, 219, 220, 221, 222, 223, 224, 225, 226, 227, 228, 229, 230, 231, 232, 233, 234, 235, 236, 237, 238, 239, 240, 241, 242, 243, 244, 245, 246, 247, 248, 249, 250, 251, 252, 253, 254, 255, 256, 257, 258, 259, 260, 261, 262, 263, 264, 265, 266, 267, 268, 269, 270, 271, 272, 273, 274, 275, 276, 277, 278, 279, 280, 281, 282, 283, 284, 285, 286, 287, 288, 289, 290, 291, 292, 293, 294, 295, 296, 297, 298, 299, 300, 301, 302, 303, 304, 305, 306, 307, 308, 309, 310, 311, 312, 313, 314, 315, 316, 317, 318, 319, 320, 321, 322, 323, 324, 325, 326, 327, 328, 329, 330, 331, 332, 333, 334, 335, 336, 337, 338, 339, 340, 341, 342, 343, 344, 345, 346, 347, 348, 349, 350, 351, 352, 353, 354, 355, 356, 357, 358, 359, 360, 361, 362, 363, 364, 365, 366, 367, 368, 369, 370, 371, 372, 373, 374, 375, 376, 377, 378, 379, 380, 381, 382, 383, 384, 385, 386, 387, 388, 389, 390, 391, 392, 393, 394, 395, 396, 397, 398, 399, 400, 401, 402, 403, 404, 405, 406, 407, 408, 409, 410, 411, 412, 413, 414, 415, 416, 417, 418, 419, 420, 421, 422, 423, 424, 425, 426, 427, 428, 429, 430, 431, 432, 433, 434, 435, 436, 437, 438, 439, 440, 441, 442, 443, 444, 445, 446, 447, 448, 449, 450, 451, 452, 453, 454, 455, 456, 457, 458, 459, 460, 461, 462, 463, 464, 465, 466, 467, 468, 469, 470, 471, 472, 473, 474, 475, 476, 477, 478, 479, 480, 481, 482, 483, 484, 485, 486, 487, 488, 489, 490, 491, 492, 493, 494, 495, 496, 497, 498, 499, 500, 501, 502, 503, 504, 505, 506, 507, 508, 509, 510, 511, 512, 513, 514, 515, 516, 517, 518, 519, 520, 521, 522, 523, 524, 525, 526, 527, 528, 529, 530, 531, 532, 533, 534, 535, 536, 537, 538, 539, 540, 541, 542, 543, 544, 545, 546, 547, 548, 549, 550, 551, 552, 553, 554, 555, 556, 557, 558, 559, 560, 561, 562, 563, 564, 565, 566, 567, 568, 569, 570, 571, 572, 573, 574, 575, 576, 577, 578, 579, 580, 581, 582, 583, 584, 585, 586, 587, 588, 589, 590, 591, 592, 593, 594, 595, 596, 597, 598, 599, 600, 601, 602, 603, 604, 605, 606, 607, 608, 609, 610, 611, 612, 613, 614, 615, 616, 617, 618, 619, 620, 621, 622, 623, 624, 625, 626, 627, 628, 629, 630, 631, 632, 633, 634, 635, 636, 637, 638, 639, 640, 641, 642, 643, 644, 645, 646, 647, 648, 649, 650, 651, 652, 653, 654, 655, 656, 657, 658, 659, 660, 661, 662, 663, 664, 665, 666, 667, 668, 669, 670, 671, 672, 673, 674, 675, 676, 677, 678, 679, 680, 681, 682, 683, 684, 685, 686, 687, 688, 689, 690, 691, 692, 693, 694, 695, 696, 697, 698, 699, 700, 701, 702, 703, 704, 705, 706, 707, 708, 709, 710, 711, 712, 713, 714, 715, 716, 717, 718, 719, 720, 721, 722, 723, 724, 725, 726, 727, 728, 729, 730, 731, 732, 733, 734, 735, 736, 737, 738, 739, 740, 741, 742, 743, 744, 745, 746, 747, 748, 749, 750, 751, 752, 753, 754, 755, 756, 757, 758, 759, 760, 761, 762, 763, 764, 765, 766, 767, 768, 769, 770, 771, 772, 773, 774, 775, 776, 777, 778, 779, 780, 781, 782, 783, 784, 785, 786, 787, 788, 789, 790, 791, 792, 793, 794, 795, 796, 797, 798, 799, 800, 801, 802, 803, 804, 805, 806, 807, 808, 809, 810, 811, 812, 813, 814, 815, 816, 817, 818, 819, 820, 821, 822, 823, 824, 825, 826, 827, 828, 829, 830, 831, 832, 833, 834, 835, 836, 837, 838, 839, 840, 841, 842, 843, 844, 845, 846, 847, 848, 849, 850, 851, 852, 853, 854, 855, 856, 857, 858, 859, 860, 861, 862, 863, 864, 865, 866, 867, 868, 869, 870, 871, 872],
      "AcquisitionTime": ["113008.272500", "113008.732500", "113009.192500", "113009.652500", "113010.112500", "113010.572500", "113011.032500", "113011.492500", "113011.952500", "113012.412500", "113012.872500", "113013.332500", "113013.792500", "113014.252500", "113014.712500", "113015.172500", "113015.632500", "113016.092500", "113016.552500", "113017.012500", "113017.472500", "113017.932500", "113018.392500", "113018.852500", "113019.312500", "113019.772500", "113020.232500", "113020.692500", "113021.152500", "113021.612500", "113022.072500", "113022.532500", "113022.992500", "113023.452500", "113023.912500", "113024.372500", "113024.832500", "113025.292500", "113025.752500", "113026.212500", "113026.672500", "113027.132500", "113027.592500", "113028.052500", "113028.512500", "113028.972500", "113029.432500", "113029.892500", "113030.352500", "113030.812500", "113031.272500", "113031.732500", "113032.192500", "113032.652500", "113033.112500", "113033.572500", "113034.032500", "113034.492500", "113034.952500", "113035.412500", "113035.872500", "113036.332500", "113036.792500", "113037.252500", "113037.712500", "113038.172500", "113038.632500", "113039.092500", "113039.552500", "113040.012500", "113040.472500", "113040.932500", "113041.392500", "113041.852500", "113042.312500", "113042.772500", "113043.232500", "113043.692500", "113044.152500", "113044.612500", "113045.072500", "113045.532500", "113045.992500", "113046.452500", "113046.912500", "113047.372500", "113047.832500", "113048.292500", "113048.752500", "113049.212500", "113049.672500", "113050.132500", "113050.592500", "113051.052500", "113051.512500", "113051.972500", "113052.432500", "113052.892500", "113053.352500", "113053.812500", "113054.272500", "113054.732500", "113055.192500", "113055.652500", "113056.112500", "113056.572500", "113057.032500", "113057.492500", "113057.952500", "113058.412500", "113058.872500", "113059.332500", "113059.792500", "113100.252500", "113100.712500", "113101.172500", "113101.632500", "113102.092500", "113102.552500", "113103.012500", "113103.472500", "113103.932500", "113104.392500", "113104.852500", "113105.312500", "113105.772500", "113106.232500", "113106.692500", "113107.152500", "113107.612500", "113108.072500", "113108.532500", "113108.992500", "113109.452500", "113109.912500", "113110.372500", "113110.832500", "113111.292500", "113111.752500", "113112.212500", "113112.672500", "113113.132500", "113113.592500", "113114.052500", "113114.512500", "113114.972500", "113115.432500", "113115.892500", "113116.352500", "113116.812500", "113117.272500", "113117.732500", "113118.192500", "113118.652500", "113119.112500", "113119.572500", "113120.032500", "113120.492500", "113120.952500", "113121.412500", "113121.872500", "113122.332500", "113122.792500", "113123.252500", "113123.712500", "113124.172500", "113124.632500", "113125.092500", "113125.552500", "113126.012500", "113126.472500", "113126.932500", "113127.392500", "113127.852500", "113128.312500", "113128.772500", "113129.232500", "113129.692500", "113130.152500", "113130.612500", "113131.072500", "113131.532500", "113131.992500", "113132.452500", "113132.912500", "113133.372500", "113133.832500", "113134.292500", "113134.752500", "113135.212500", "113135.672500", "113136.132500", "113136.592500", "113137.052500", "113137.512500", "113137.972500", "113138.432500", "113138.892500", "113139.352500", "113139.812500", "113140.272500", "113140.732500", "113141.192500", "113141.652500", "113142.112500", "113142.572500", "113143.032500", "113143.492500", "113143.952500", "113144.412500", "113144.872500", "113145.332500", "113145.792500", "113146.252500", "113146.712500", "113147.172500", "113147.632500", "113148.092500", "113148.552500", "113149.012500", "113149.472500", "113149.932500", "113150.392500", "113150.852500", "113151.312500", "113151.772500", "113152.232500", "113152.692500", "113153.152500", "113153.612500", "113154.072500", "113154.532500", "113154.992500", "113155.452500", "113155.912500", "113156.372500", "113156.832500", "113157.292500", "113157.752500", "113158.212500", "113158.672500", "113159.132500", "113159.592500", "113200.052500", "113200.512500", "113200.972500", "113201.432500", "113201.892500", "113202.352500", "113202.812500", "113203.272500", "113203.732500", "113204.192500", "113204.652500", "113205.112500", "113205.572500", "113206.032500", "113206.492500", "113206.952500", "113207.412500", "113207.872500", "113208.332500", "113208.792500", "113209.252500", "113209.712500", "113210.172500", "113210.632500", "113211.092500", "113211.552500", "113212.012500", "113212.472500", "113212.932500", "113213.392500", "113213.852500", "113214.312500", "113214.772500", "113215.232500", "113215.692500", "113216.152500", "113216.612500", "113217.072500", "113217.532500", "113217.992500", "113218.452500", "113218.912500", "113219.372500", "113219.832500", "113220.292500", "113220.752500", "113221.212500", "113221.672500", "113222.132500", "113222.592500", "113223.052500", "113223.512500", "113223.972500", "113224.432500", "113224.892500", "113225.352500", "113225.812500", "113226.272500", "113226.732500", "113227.192500", "113227.652500", "113228.112500", "113228.572500", "113229.032500", "113229.492500", "113229.952500", "113230.412500", "113230.872500", "113231.332500", "113231.792500", "113232.252500", "113232.712500", "113233.172500", "113233.632500", "113234.092500", "113234.552500", "113235.012500", "113235.472500", "113235.932500", "113236.392500", "113236.852500", "113237.312500", "113237.772500", "113238.232500", "113238.692500", "113239.152500", "113239.612500", "113240.072500", "113240.532500", "113240.992500", "113241.452500", "113241.912500", "113242.372500", "113242.832500", "113243.292500", "113243.752500", "113244.212500", "113244.672500", "113245.132500", "113245.592500", "113246.052500", "113246.512500", "113246.972500", "113247.432500", "113247.892500", "113248.352500", "113248.812500", "113249.272500", "113249.732500", "113250.192500", "113250.652500", "113251.112500", "113251.572500", "113252.032500", "113252.492500", "113252.952500", "113253.412500", "113253.872500", "113254.332500", "113254.792500", "113255.252500", "113255.712500", "113256.172500", "113256.632500", "113257.092500", "113257.552500", "113258.012500", "113258.472500", "113258.932500", "113259.392500", "113259.852500", "113300.312500", "113300.772500", "113301.232500", "113301.692500", "113302.152500", "113302.612500", "113303.072500", "113303.532500", "113303.992500", "113304.452500", "113304.912500", "113305.372500", "113305.832500", "113306.292500", "113306.752500", "113307.212500", "113307.672500", "113308.132500", "113308.592500", "113309.052500", "113309.512500", "113309.972500", "113310.432500", "113310.892500", "113311.352500", "113311.812500", "113312.272500", "113312.732500", "113313.192500", "113313.652500", "113314.112500", "113314.572500", "113315.032500", "113315.492500", "113315.952500", "113316.412500", "113316.872500", "113317.332500", "113317.792500", "113318.252500", "113318.712500", "113319.172500", "113319.632500", "113320.092500", "113320.552500", "113321.012500", "113321.472500", "113321.932500", "113322.392500", "113322.852500", "113323.312500", "113323.772500", "113324.232500", "113324.692500", "113325.152500", "113325.612500", "113326.072500", "113326.532500", "113326.992500", "113327.452500", "113327.912500", "113328.372500", "113328.832500", "113329.292500", "113329.752500", "113330.212500", "113330.672500", "113331.132500", "113331.592500", "113332.052500", "113332.512500", "113332.972500", "113333.432500", "113333.892500", "113334.352500", "113334.812500", "113335.272500", "113335.732500", "113336.192500", "113336.652500", "113337.112500", "113337.572500", "113338.032500", "113338.492500", "113338.952500", "113339.412500", "113339.872500", "113340.332500", "113340.792500", "113341.252500", "113341.712500", "113342.172500", "113342.632500", "113343.092500", "113343.552500", "113344.012500", "113344.472500", "113344.932500", "113345.392500", "113345.852500", "113346.312500", "113346.772500", "113347.232500", "113347.692500", "113348.152500", "113348.612500", "113349.072500", "113349.532500", "113349.992500", "113350.452500", "113350.912500", "113351.372500", "113351.832500", "113352.292500", "113352.752500", "113353.212500", "113353.672500", "113354.132500", "113354.592500", "113355.052500", "113355.512500", "113355.972500", "113356.432500", "113356.892500", "113357.352500", "113357.812500", "113358.272500", "113358.732500", "113359.192500", "113359.652500", "113400.112500", "113400.572500", "113401.032500", "113401.492500", "113401.952500", "113402.412500", "113402.872500", "113403.332500", "113403.792500", "113404.252500", "113404.712500", "113405.172500", "113405.632500", "113406.092500", "113406.552500", "113407.012500", "113407.472500", "113407.932500", "113408.392500", "113408.852500", "113409.312500", "113409.772500", "113410.232500", "113410.692500", "113411.152500", "113411.612500", "113412.072500", "113412.532500", "113412.992500", "113413.452500", "113413.912500", "113414.372500", "113414.832500", "113415.292500", "113415.752500", "113416.212500", "113416.672500", "113417.132500", "113417.592500", "113418.052500", "113418.512500", "113418.972500", "113419.432500", "113419.892500", "113420.352500", "113420.812500", "113421.272500", "113421.732500", "113422.192500", "113422.652500", "113423.112500", "113423.572500", "113424.032500", "113424.492500", "113424.952500", "113425.412500", "113425.872500", "113426.332500", "113426.792500", "113427.252500", "113427.712500", "113428.172500", "113428.632500", "113429.092500", "113429.552500", "113430.012500", "113430.472500", "113430.932500", "113431.392500", "113431.852500", "113432.312500", "113432.772500", "113433.232500", "113433.692500", "113434.152500", "113434.612500", "113435.072500", "113435.532500", "113435.992500", "113436.452500", "113436.912500", "113437.372500", "113437.832500", "113438.292500", "113438.752500", "113439.212500", "113439.672500", "113440.132500", "113440.592500", "113441.052500", "113441.512500", "113441.972500", "113442.432500", "113442.892500", "113443.352500", "113443.812500", "113444.272500", "113444.732500", "113445.192500", "113445.652500", "113446.112500", "113446.572500", "113447.032500", "113447.492500", "113447.952500", "113448.412500", "113448.872500", "113449.332500", "113449.792500", "113450.252500", "113450.712500", "113451.172500", "113451.632500", "113452.092500", "113452.552500", "113453.012500", "113453.472500", "113453.932500", "113454.392500", "113454.852500", "113455.312500", "113455.772500", "113456.232500", "113456.692500", "113457.152500", "113457.612500", "113458.072500", "113458.532500", "113458.992500", "113459.452500", "113459.912500", "113500.372500", "113500.832500", "113501.292500", "113501.752500", "113502.212500", "113502.672500", "113503.132500", "113503.592500", "113504.052500", "113504.512500", "113504.972500", "113505.432500", "113505.892500", "113506.352500", "113506.812500", "113507.272500", "113507.732500", "113508.192500", "113508.652500", "113509.112500", "113509.572500", "113510.032500", "113510.492500", "113510.952500", "113511.412500", "113511.872500", "113512.332500", "113512.792500", "113513.252500", "113513.712500", "113514.172500", "113514.632500", "113515.092500", "113515.552500", "113516.012500", "113516.472500", "113516.932500", "113517.392500", "113517.852500", "113518.312500", "113518.772500", "113519.232500", "113519.692500", "113520.152500", "113520.612500", "113521.072500", "113521.532500", "113521.992500", "113522.452500", "113522.912500", "113523.372500", "113523.832500", "113524.292500", "113524.752500", "113525.212500", "113525.672500", "113526.132500", "113526.592500", "113527.052500", "113527.512500", "113527.972500", "113528.432500", "113528.892500", "113529.352500", "113529.812500", "113530.272500", "113530.732500", "113531.192500", "113531.652500", "113532.112500", "113532.572500", "113533.032500", "113533.492500", "113533.952500", "113534.412500", "113534.872500", "113535.332500", "113535.792500", "113536.252500", "113536.712500", "113537.172500", "113537.632500", "113538.092500", "113538.552500", "113539.012500", "113539.472500", "113539.932500", "113540.392500", "113540.852500", "113541.312500", "113541.772500", "113542.232500", "113542.692500", "113543.152500", "113543.612500", "113544.072500", "113544.532500", "113544.992500", "113545.452500", "113545.912500", "113546.372500", "113546.832500", "113547.292500", "113547.752500", "113548.212500", "113548.672500", "113549.132500", "113549.592500", "113550.052500", "113550.512500", "113550.972500", "113551.432500", "113551.892500", "113552.352500", "113552.812500", "113553.272500", "113553.732500", "113554.192500", "113554.652500", "113555.112500", "113555.572500", "113556.032500", "113556.492500", "113556.952500", "113557.412500", "113557.872500", "113558.332500", "113558.792500", "113559.252500", "113559.712500", "113600.172500", "113600.632500", "113601.092500", "113601.552500", "113602.012500", "113602.472500", "113602.932500", "113603.392500", "113603.852500", "113604.312500", "113604.772500", "113605.232500", "113605.692500", "113606.152500", "113606.612500", "113607.072500", "113607.532500", "113607.992500", "113608.452500", "113608.912500", "113609.372500", "113609.832500", "113610.292500", "113610.752500", "113611.212500", "113611.672500", "113612.132500", "113612.592500", "113613.052500", "113613.512500", "113613.972500", "113614.432500", "113614.892500", "113615.352500", "113615.812500", "113616.272500", "113616.732500", "113617.192500", "113617.652500", "113618.112500", "113618.572500", "113619.032500", "113619.492500", "113619.952500", "113620.412500", "113620.872500", "113621.332500", "113621.792500", "113622.252500", "113622.712500", "113623.172500", "113623.632500", "113624.092500", "113624.552500", "113625.012500", "113625.472500", "113625.932500", "113626.392500", "113626.852500", "113627.312500", "113627.772500", "113628.232500", "113628.692500", "113629.152500", "113629.612500", "113630.072500", "113630.532500", "113630.992500", "113631.452500", "113631.912500", "113632.372500", "113632.832500", "113633.292500", "113633.752500", "113634.212500", "113634.672500", "113635.132500", "113635.592500", "113636.052500", "113636.512500", "113636.972500", "113637.432500", "113637.892500", "113638.352500", "113638.812500", "113639.272500", "113639.732500", "113640.192500", "113640.652500", "113641.112500", "113641.572500", "113642.032500", "113642.492500", "113642.952500", "113643.412500", "113643.872500", "113644.332500", "113644.792500", "113645.252500", "113645.712500", "113646.172500", "113646.632500", "113647.092500", "113647.552500", "113648.012500", "113648.472500", "113648.932500"],
