{
  "AcquisitionMatrixPE": 82,
  "AcquisitionNumber": 1,
  "AcquisitionTime": "11:13:16.842500",
  "BandwidthPerPixelPhaseEncode": 24.888,
  "BaseResolution": 82,
  "BodyPartExamined": "BRAIN",
  "ConsistencyInfo": "N4_VE11E_LATEST_20181129",
  "ConversionSoftware": "dcm2niix",
  "ConversionSoftwareVersion": "v1.0.20201102",
  "DerivedVendorReportedEchoSpacing": 0.00049,
  "DeviceSerialNumber": "66112",
  "DwellTime": 2e-06,
  "EchoTime": 0.0272,
  "EchoTrainLength": 82,
  "EffectiveEchoSpacing": 0.00049,
  "FlipAngle": 44,
  "ImageComments": "Unaliased MB8/PE3",
  "ImageOrientationPatientDICOM": [0.999072, -0.0239215, 0.0358115, 0.0205787, 0.995641, 0.0909652],
  "ImageType": [
    "ORIGINAL",
    "PRIMARY",
    "M",
    "MB",
    "ND",
    "NORM",
    "MOSAIC"
],
  "ImagingFrequency": 123.252,
  "InPlanePhaseEncodingDirectionDICOM": "COL",
  "InstitutionAddress": "Maynard 3,Hanover,NH,US,03755",
  "InstitutionName": "Dartmouth College - PBS",
  "InstitutionalDepartmentName": "Department",
  "MRAcquisitionType": "2D",
  "MagneticFieldStrength": 3,
  "Manufacturer": "Siemens",
  "ManufacturersModelName": "Prisma",
  "Modality": "MR",
  "MultibandAccelerationFactor": 8,
  "PartialFourier": 1,
  "PatientPosition": "HFS",
  "PercentPhaseFOV": 100,
  "PercentSampling": 100,
  "PhaseEncodingDirection": "j-",
  "PhaseEncodingSteps": 82,
  "PhaseResolution": 1,
  "PixelBandwidth": 3050,
  "ProcedureStepDescription": "Wager_Wager^1076_spacetop",
  "ProtocolName": "func_run-03_task-social_acq-ap-mb8",
  "PulseSequenceDetails": "%CustomerSeq%\\cmrr_mbep2d_bold",
  "ReceiveCoilActiveElements": "HEA;HEP",
  "ReceiveCoilName": "Head_32",
  "ReconMatrixPE": 82,
  "RepetitionTime": 0.46,
  "SAR": 0.0969932,
  "ScanOptions": "FS",
  "ScanningSequence": "EP",
  "SequenceName": "epfid2d1_82",
  "SequenceVariant": "SK\\SS",
  "SeriesDescription": "func_run-03_task-social_acq-ap-mb8",
  "SeriesNumber": 16,
  "ShimSetting": [4155, -7760, -7264, 540, -88, -250, -23, 15],
  "SliceThickness": 2.7,
  "SliceTiming": [0, 0.2525, 0.065, 0.315, 0.1275, 0.3775, 0.19, 0, 0.2525, 0.065, 0.315, 0.1275, 0.3775, 0.19, 0, 0.2525, 0.065, 0.315, 0.1275, 0.3775, 0.19, 0, 0.2525, 0.065, 0.315, 0.1275, 0.3775, 0.19, 0, 0.2525, 0.065, 0.315, 0.1275, 0.3775, 0.19, 0, 0.2525, 0.065, 0.315, 0.1275, 0.3775, 0.19, 0, 0.2525, 0.065, 0.315, 0.1275, 0.3775, 0.19, 0, 0.2525, 0.065, 0.315, 0.1275, 0.3775, 0.19],
  "SoftwareVersions": "syngo MR E11",
  "SpacingBetweenSlices": 2.7,
  "StationName": "AWP66112",
  "TaskName": "social",
  "TotalReadoutTime": 0.03969,
  "TxRefAmp": 246.974,
  "WipMemBlock": "c1a69601-f593-427a-bdbc-a3d794b40fa4||Sequence: R016 ve11e/master r/434b28f1; Aug  7 2019 18:53:46 by eja",
  "dcmmeta_affine": [
    [-2.6804378032684326, 0.05521111935377121, 0.1021447703242302, 105.10557556152344],
    [0.06417951732873917, 2.6712331771850586, 0.2433883100748062, -102.5382080078125],
    [0.09607954323291779, -0.24405288696289062, 2.6870670318603516, -66.02936553955078],
    [0.0, 0.0, 0.0, 1.0]
],
  "dcmmeta_reorient_transform": [
    [0.0, -1.0, 0.0, 81.0],
    [1.0, 0.0, 0.0, 0.0],
    [0.0, 0.0, 1.0, 0.0],
    [0.0, 0.0, 0.0, 1.0]
],
  "dcmmeta_shape": [82, 82, 56, 872],
  "dcmmeta_slice_dim": 2,
  "dcmmeta_version": 0.6,
  "global": {
    "const": {
      "AccessionNumber": "A003885",
      "AcquisitionMatrix": [82, 0, 0, 82],
      "AngioFlag": "N",
      "BitsAllocated": 16,
      "BitsStored": 16,
      "BodyPartExamined": "BRAIN",
      "Columns": 656,
      "EchoNumbers": 1,
      "EchoTime": 27.2,
      "EchoTrainLength": 82,
      "FlipAngle": 44.0,
      "HighBit": 15,
      "ImageOrientationPatient": [0.99907222111114, -0.0239214557961, 0.03581146403936, 0.0205786891011, 0.99564142938653, 0.09096516720164],
      "ImagePositionPatient": [-894.70889212592, -862.05607246596, -183.4156567799],
      "ImageType": [
        "ORIGINAL",
        "PRIMARY",
        "M",
        "MB",
        "ND",
        "NORM",
        "MOSAIC"
],
      "ImagedNucleus": "1H",
      "ImagingFrequency": 123.252169,
      "InPlanePhaseEncodingDirection": "COL",
      "MRAcquisitionType": "2D",
      "MagneticFieldStrength": 3.0,
      "Manufacturer": "SIEMENS",
      "ManufacturerModelName": "Prisma",
      "Modality": "MR",
      "NumberOfAverages": 1.0,
      "NumberOfPhaseEncodingSteps": 82,
      "PercentPhaseFieldOfView": 100.0,
      "PercentSampling": 100.0,
      "PerformedProcedureStepStartTime": "102705.344000",
      "PhotometricInterpretation": "MONOCHROME2",
      "PixelBandwidth": 3050.0,
      "PixelRepresentation": 0,
      "PixelSpacing": [2.6829268932343, 2.6829268932343],
      "ProtocolName": "func_run-03_task-social_acq-ap-mb8",
      "RepetitionTime": 460.0,
      "Rows": 656,
      "SAR": 0.09699323825838,
      "SamplesPerPixel": 1,
      "ScanOptions": "FS",
      "ScanningSequence": "EP",
      "SequenceName": "epfid2d1_82",
      "SequenceVariant": [
        "SK",
        "SS"
],
      "SeriesDescription": "func_run-03_task-social_acq-ap-mb8",
      "SeriesNumber": 16,
      "SeriesTime": "111333.446000",
      "SliceLocation": -70.979976546598,
      "SliceThickness": 2.7000000476837,
      "SmallestImagePixelValue": 0,
      "SoftwareVersions": "syngo MR E11",
      "SpacingBetweenSlices": 2.7000000185928,
      "SpecificCharacterSet": "ISO_IR 100",
      "StudyID": "1",
      "StudyTime": "102705.293000",
      "TransmitCoilName": "Body",
      "VariableFlipAngleFlag": "N",
      "WindowCenterWidthExplanation": "Algo1"
    },
    "slices": {}
  },
  "time": {
    "samples": {
      "AcquisitionNumber": [1, 2, 3, 4, 5, 6, 7, 8, 9, 10, 11, 12, 13, 14, 15, 16, 17, 18, 19, 20, 21, 22, 23, 24, 25, 26, 27, 28, 29, 30, 31, 32, 33, 34, 35, 36, 37, 38, 39, 40, 41, 42, 43, 44, 45, 46, 47, 48, 49, 50, 51, 52, 53, 54, 55, 56, 57, 58, 59, 60, 61, 62, 63, 64, 65, 66, 67, 68, 69, 70, 71, 72, 73, 74, 75, 76, 77, 78, 79, 80, 81, 82, 83, 84, 85, 86, 87, 88, 89, 90, 91, 92, 93, 94, 95, 96, 97, 98, 99, 100, 101, 102, 103, 104, 105, 106, 107, 108, 109, 110, 111, 112, 113, 114, 115, 116, 117, 118, 119, 120, 121, 122, 123, 124, 125, 126, 127, 128, 129, 130, 131, 132, 133, 134, 135, 136, 137, 138, 139, 140, 141, 142, 143, 144, 145, 146, 147, 148, 149, 150, 151, 152, 153, 154, 155, 156, 157, 158, 159, 160, 161, 162, 163, 164, 165, 166, 167, 168, 169, 170, 171, 172, 173, 174, 175, 176, 177, 178, 179, 180, 181, 182, 183, 184, 185, 186, 187, 188, 189, 190, 191, 192, 193, 194, 195, 196, 197, 198, 199, 200, 201, 202, 203, 204, 205, 206, 207, 208, 209, 210, 211, 212, 213, 214, 215, 216, 217, 218, 219, 220, 221, 222, 223, 224, 225, 226, 227, 228, 229, 230, 231, 232, 233, 234, 235, 236, 237, 238, 239, 240, 241, 242, 243, 244, 245, 246, 247, 248, 249, 250, 251, 252, 253, 254, 255, 256, 257, 258, 259, 260, 261, 262, 263, 264, 265, 266, 267, 268, 269, 270, 271, 272, 273, 274, 275, 276, 277, 278, 279, 280, 281, 282, 283, 284, 285, 286, 287, 288, 289, 290, 291, 292, 293, 294, 295, 296, 297, 298, 299, 300, 301, 302, 303, 304, 305, 306, 307, 308, 309, 310, 311, 312, 313, 314, 315, 316, 317, 318, 319, 320, 321, 322, 323, 324, 325, 326, 327, 328, 329, 330, 331, 332, 333, 334, 335, 336, 337, 338, 339, 340, 341, 342, 343, 344, 345, 346, 347, 348, 349, 350, 351, 352, 353, 354, 355, 356, 357, 358, 359, 360, 361, 362, 363, 364, 365, 366, 367, 368, 369, 370, 371, 372, 373, 374, 375, 376, 377, 378, 379, 380, 381, 382, 383, 384, 385, 386, 387, 388, 389, 390, 391, 392, 393, 394, 395, 396, 397, 398, 399, 400, 401, 402, 403, 404, 405, 406, 407, 408, 409, 410, 411, 412, 413, 414, 415, 416, 417, 418, 419, 420, 421, 422, 423, 424, 425, 426, 427, 428, 429, 430, 431, 432, 433, 434, 435, 436, 437, 438, 439, 440, 441, 442, 443, 444, 445, 446, 447, 448, 449, 450, 451, 452, 453, 454, 455, 456, 457, 458, 459, 460, 461, 462, 463, 464, 465, 466, 467, 468, 469, 470, 471, 472, 473, 474, 475, 476, 477, 478, 479, 480, 481, 482, 483, 484, 485, 486, 487, 488, 489, 490, 491, 492, 493, 494, 495, 496, 497, 498, 499, 500, 501, 502, 503, 504, 505, 506, 507, 508, 509, 510, 511, 512, 513, 514, 515, 516, 517, 518, 519, 520, 521, 522, 523, 524, 525, 526, 527, 528, 529, 530, 531, 532, 533, 534, 535, 536, 537, 538, 539, 540, 541, 542, 543, 544, 545, 546, 547, 548, 549, 550, 551, 552, 553, 554, 555, 556, 557, 558, 559, 560, 561, 562, 563, 564, 565, 566, 567, 568, 569, 570, 571, 572, 573, 574, 575, 576, 577, 578, 579, 580, 581, 582, 583, 584, 585, 586, 587, 588, 589, 590, 591, 592, 593, 594, 595, 596, 597, 598, 599, 600, 601, 602, 603, 604, 605, 606, 607, 608, 609, 610, 611, 612, 613, 614, 615, 616, 617, 618, 619, 620, 621, 622, 623, 624, 625, 626, 627, 628, 629, 630, 631, 632, 633, 634, 635, 636, 637, 638, 639, 640, 641, 642, 643, 644, 645, 646, 647, 648, 649, 650, 651, 652, 653, 654, 655, 656, 657, 658, 659, 660, 661, 662, 663, 664, 665, 666, 667, 668, 669, 670, 671, 672, 673, 674, 675, 676, 677, 678, 679, 680, 681, 682, 683, 684, 685, 686, 687, 688, 689, 690, 691, 692, 693, 694, 695, 696, 697, 698, 699, 700, 701, 702, 703, 704, 705, 706, 707, 708, 709, 710, 711, 712, 713, 714, 715, 716, 717, 718, 719, 720, 721, 722, 723, 724, 725, 726, 727, 728, 729, 730, 731, 732, 733, 734, 735, 736, 737, 738, 739, 740, 741, 742, 743, 744, 745, 746, 747, 748, 749, 750, 751, 752, 753, 754, 755, 756, 757, 758, 759, 760, 761, 762, 763, 764, 765, 766, 767, 768, 769, 770, 771, 772, 773, 774, 775, 776, 777, 778, 779, 780, 781, 782, 783, 784, 785, 786, 787, 788, 789, 790, 791, 792, 793, 794, 795, 796, 797, 798, 799, 800, 801, 802, 803, 804, 805, 806, 807, 808, 809, 810, 811, 812, 813, 814, 815, 816, 817, 818, 819, 820, 821, 822, 823, 824, 825, 826, 827, 828, 829, 830, 831, 832, 833, 834, 835, 836, 837, 838, 839, 840, 841, 842, 843, 844, 845, 846, 847, 848, 849, 850, 851, 852, 853, 854, 855, 856, 857, 858, 859, 860, 861, 862, 863, 864, 865, 866, 867, 868, 869, 870, 871, 872],
      "AcquisitionTime": ["111316.842500", "111317.302500", "111317.762500", "111318.222500", "111318.682500", "111319.142500", "111319.602500", "111320.062500", "111320.522500", "111320.982500", "111321.442500", "111321.902500", "111322.362500", "111322.822500", "111323.282500", "111323.742500", "111324.202500", "111324.662500", "111325.122500", "111325.582500", "111326.042500", "111326.502500", "111326.962500", "111327.422500", "111327.882500", "111328.342500", "111328.802500", "111329.262500", "111329.722500", "111330.182500", "111330.642500", "111331.102500", "111331.562500", "111332.022500", "111332.482500", "111332.942500", "111333.402500", "111333.862500", "111334.322500", "111334.782500", "111335.242500", "111335.702500", "111336.162500", "111336.622500", "111337.082500", "111337.542500", "111338.002500", "111338.462500", "111338.922500", "111339.382500", "111339.842500", "111340.302500", "111340.762500", "111341.222500", "111341.682500", "111342.142500", "111342.602500", "111343.062500", "111343.522500", "111343.982500", "111344.442500", "111344.902500", "111345.362500", "111345.822500", "111346.282500", "111346.742500", "111347.202500", "111347.662500", "111348.122500", "111348.582500", "111349.042500", "111349.502500", "111349.962500", "111350.422500", "111350.882500", "111351.342500", "111351.802500", "111352.262500", "111352.722500", "111353.182500", "111353.642500", "111354.102500", "111354.562500", "111355.022500", "111355.482500", "111355.942500", "111356.402500", "111356.862500", "111357.322500", "111357.782500", "111358.242500", "111358.702500", "111359.162500", "111359.622500", "111400.082500", "111400.542500", "111401.002500", "111401.462500", "111401.922500", "111402.382500", "111402.842500", "111403.302500", "111403.762500", "111404.222500", "111404.682500", "111405.142500", "111405.602500", "111406.062500", "111406.522500", "111406.982500", "111407.442500", "111407.902500", "111408.362500", "111408.822500", "111409.282500", "111409.742500", "111410.202500", "111410.662500", "111411.122500", "111411.582500", "111412.042500", "111412.502500", "111412.962500", "111413.422500", "111413.882500", "111414.342500", "111414.802500", "111415.262500", "111415.722500", "111416.182500", "111416.642500", "111417.102500", "111417.562500", "111418.022500", "111418.482500", "111418.942500", "111419.402500", "111419.862500", "111420.322500", "111420.782500", "111421.242500", "111421.702500", "111422.162500", "111422.622500", "111423.082500", "111423.542500", "111424.002500", "111424.462500", "111424.922500", "111425.382500", "111425.842500", "111426.302500", "111426.762500", "111427.222500", "111427.682500", "111428.142500", "111428.602500", "111429.062500", "111429.522500", "111429.982500", "111430.442500", "111430.902500", "111431.362500", "111431.822500", "111432.282500", "111432.742500", "111433.202500", "111433.662500", "111434.122500", "111434.582500", "111435.042500", "111435.502500", "111435.962500", "111436.422500", "111436.882500", "111437.342500", "111437.802500", "111438.262500", "111438.722500", "111439.182500", "111439.642500", "111440.102500", "111440.562500", "111441.022500", "111441.482500", "111441.942500", "111442.402500", "111442.862500", "111443.322500", "111443.782500", "111444.242500", "111444.702500", "111445.162500", "111445.622500", "111446.082500", "111446.542500", "111447.002500", "111447.462500", "111447.922500", "111448.382500", "111448.842500", "111449.302500", "111449.762500", "111450.222500", "111450.682500", "111451.142500", "111451.602500", "111452.062500", "111452.522500", "111452.982500", "111453.442500", "111453.902500", "111454.362500", "111454.822500", "111455.282500", "111455.742500", "111456.202500", "111456.662500", "111457.122500", "111457.582500", "111458.042500", "111458.502500", "111458.962500", "111459.422500", "111459.882500", "111500.342500", "111500.802500", "111501.262500", "111501.722500", "111502.182500", "111502.642500", "111503.102500", "111503.562500", "111504.022500", "111504.482500", "111504.942500", "111505.402500", "111505.862500", "111506.322500", "111506.782500", "111507.242500", "111507.702500", "111508.162500", "111508.622500", "111509.082500", "111509.542500", "111510.002500", "111510.462500", "111510.922500", "111511.382500", "111511.842500", "111512.302500", "111512.762500", "111513.222500", "111513.682500", "111514.142500", "111514.602500", "111515.062500", "111515.522500", "111515.982500", "111516.442500", "111516.902500", "111517.362500", "111517.822500", "111518.282500", "111518.742500", "111519.202500", "111519.662500", "111520.122500", "111520.582500", "111521.042500", "111521.502500", "111521.962500", "111522.422500", "111522.882500", "111523.342500", "111523.802500", "111524.262500", "111524.722500", "111525.182500", "111525.642500", "111526.102500", "111526.562500", "111527.022500", "111527.482500", "111527.942500", "111528.402500", "111528.862500", "111529.322500", "111529.782500", "111530.242500", "111530.702500", "111531.162500", "111531.622500", "111532.082500", "111532.542500", "111533.002500", "111533.462500", "111533.922500", "111534.382500", "111534.842500", "111535.302500", "111535.762500", "111536.222500", "111536.682500", "111537.142500", "111537.602500", "111538.062500", "111538.522500", "111538.982500", "111539.442500", "111539.902500", "111540.362500", "111540.822500", "111541.282500", "111541.742500", "111542.202500", "111542.662500", "111543.122500", "111543.582500", "111544.042500", "111544.502500", "111544.962500", "111545.422500", "111545.882500", "111546.342500", "111546.802500", "111547.262500", "111547.722500", "111548.182500", "111548.642500", "111549.102500", "111549.562500", "111550.022500", "111550.482500", "111550.942500", "111551.402500", "111551.862500", "111552.322500", "111552.782500", "111553.242500", "111553.702500", "111554.162500", "111554.622500", "111555.082500", "111555.542500", "111556.002500", "111556.462500", "111556.922500", "111557.382500", "111557.842500", "111558.302500", "111558.762500", "111559.222500", "111559.682500", "111600.142500", "111600.602500", "111601.062500", "111601.522500", "111601.982500", "111602.442500", "111602.902500", "111603.362500", "111603.822500", "111604.282500", "111604.742500", "111605.202500", "111605.662500", "111606.122500", "111606.582500", "111607.042500", "111607.502500", "111607.962500", "111608.422500", "111608.882500", "111609.342500", "111609.802500", "111610.262500", "111610.722500", "111611.182500", "111611.642500", "111612.102500", "111612.562500", "111613.022500", "111613.482500", "111613.942500", "111614.402500", "111614.862500", "111615.322500", "111615.782500", "111616.242500", "111616.702500", "111617.162500", "111617.622500", "111618.082500", "111618.542500", "111619.002500", "111619.462500", "111619.922500", "111620.382500", "111620.842500", "111621.302500", "111621.762500", "111622.222500", "111622.682500", "111623.142500", "111623.602500", "111624.062500", "111624.522500", "111624.982500", "111625.442500", "111625.902500", "111626.362500", "111626.822500", "111627.282500", "111627.742500", "111628.202500", "111628.662500", "111629.122500", "111629.582500", "111630.042500", "111630.502500", "111630.962500", "111631.422500", "111631.882500", "111632.342500", "111632.802500", "111633.262500", "111633.722500", "111634.182500", "111634.642500", "111635.102500", "111635.562500", "111636.022500", "111636.482500", "111636.942500", "111637.402500", "111637.862500", "111638.322500", "111638.782500", "111639.242500", "111639.702500", "111640.162500", "111640.622500", "111641.082500", "111641.542500", "111642.002500", "111642.462500", "111642.922500", "111643.382500", "111643.842500", "111644.302500", "111644.762500", "111645.222500", "111645.682500", "111646.142500", "111646.602500", "111647.062500", "111647.522500", "111647.982500", "111648.442500", "111648.902500", "111649.362500", "111649.822500", "111650.282500", "111650.742500", "111651.202500", "111651.662500", "111652.122500", "111652.582500", "111653.042500", "111653.502500", "111653.962500", "111654.422500", "111654.882500", "111655.342500", "111655.802500", "111656.262500", "111656.722500", "111657.182500", "111657.642500", "111658.102500", "111658.562500", "111659.022500", "111659.482500", "111659.942500", "111700.402500", "111700.862500", "111701.322500", "111701.782500", "111702.242500", "111702.702500", "111703.162500", "111703.622500", "111704.082500", "111704.542500", "111705.002500", "111705.462500", "111705.922500", "111706.382500", "111706.842500", "111707.302500", "111707.762500", "111708.222500", "111708.682500", "111709.142500", "111709.602500", "111710.062500", "111710.522500", "111710.982500", "111711.442500", "111711.902500", "111712.362500", "111712.822500", "111713.282500", "111713.742500", "111714.202500", "111714.662500", "111715.122500", "111715.582500", "111716.042500", "111716.502500", "111716.962500", "111717.422500", "111717.882500", "111718.342500", "111718.802500", "111719.262500", "111719.722500", "111720.182500", "111720.642500", "111721.102500", "111721.562500", "111722.022500", "111722.482500", "111722.942500", "111723.402500", "111723.862500", "111724.322500", "111724.782500", "111725.242500", "111725.702500", "111726.162500", "111726.622500", "111727.082500", "111727.542500", "111728.002500", "111728.462500", "111728.922500", "111729.382500", "111729.842500", "111730.302500", "111730.762500", "111731.222500", "111731.682500", "111732.142500", "111732.602500", "111733.062500", "111733.522500", "111733.982500", "111734.442500", "111734.902500", "111735.362500", "111735.822500", "111736.282500", "111736.742500", "111737.202500", "111737.662500", "111738.122500", "111738.582500", "111739.042500", "111739.502500", "111739.962500", "111740.422500", "111740.882500", "111741.342500", "111741.802500", "111742.262500", "111742.722500", "111743.182500", "111743.642500", "111744.102500", "111744.562500", "111745.022500", "111745.482500", "111745.942500", "111746.402500", "111746.862500", "111747.322500", "111747.782500", "111748.242500", "111748.702500", "111749.162500", "111749.622500", "111750.082500", "111750.542500", "111751.002500", "111751.462500", "111751.922500", "111752.382500", "111752.842500", "111753.302500", "111753.762500", "111754.222500", "111754.682500", "111755.142500", "111755.602500", "111756.062500", "111756.522500", "111756.982500", "111757.442500", "111757.902500", "111758.362500", "111758.822500", "111759.282500", "111759.742500", "111800.202500", "111800.662500", "111801.122500", "111801.582500", "111802.042500", "111802.502500", "111802.962500", "111803.422500", "111803.882500", "111804.342500", "111804.802500", "111805.262500", "111805.722500", "111806.182500", "111806.642500", "111807.102500", "111807.562500", "111808.022500", "111808.482500", "111808.942500", "111809.402500", "111809.862500", "111810.322500", "111810.782500", "111811.242500", "111811.702500", "111812.162500", "111812.622500", "111813.082500", "111813.542500", "111814.002500", "111814.462500", "111814.922500", "111815.382500", "111815.842500", "111816.302500", "111816.762500", "111817.222500", "111817.682500", "111818.142500", "111818.602500", "111819.062500", "111819.522500", "111819.982500", "111820.442500", "111820.902500", "111821.362500", "111821.822500", "111822.282500", "111822.742500", "111823.202500", "111823.662500", "111824.122500", "111824.582500", "111825.042500", "111825.502500", "111825.962500", "111826.422500", "111826.882500", "111827.342500", "111827.802500", "111828.262500", "111828.722500", "111829.182500", "111829.642500", "111830.102500", "111830.562500", "111831.022500", "111831.482500", "111831.942500", "111832.402500", "111832.862500", "111833.322500", "111833.782500", "111834.242500", "111834.702500", "111835.162500", "111835.622500", "111836.082500", "111836.542500", "111837.002500", "111837.462500", "111837.922500", "111838.382500", "111838.842500", "111839.302500", "111839.762500", "111840.222500", "111840.682500", "111841.142500", "111841.602500", "111842.062500", "111842.522500", "111842.982500", "111843.442500", "111843.902500", "111844.362500", "111844.822500", "111845.282500", "111845.742500", "111846.202500", "111846.662500", "111847.122500", "111847.582500", "111848.042500", "111848.502500", "111848.962500", "111849.422500", "111849.882500", "111850.342500", "111850.802500", "111851.262500", "111851.722500", "111852.182500", "111852.642500", "111853.102500", "111853.562500", "111854.022500", "111854.482500", "111854.942500", "111855.402500", "111855.862500", "111856.322500", "111856.782500", "111857.242500", "111857.702500", "111858.162500", "111858.622500", "111859.082500", "111859.542500", "111900.002500", "111900.462500", "111900.922500", "111901.382500", "111901.842500", "111902.302500", "111902.762500", "111903.222500", "111903.682500", "111904.142500", "111904.602500", "111905.062500", "111905.522500", "111905.982500", "111906.442500", "111906.902500", "111907.362500", "111907.822500", "111908.282500", "111908.742500", "111909.202500", "111909.662500", "111910.122500", "111910.582500", "111911.042500", "111911.502500", "111911.962500", "111912.422500", "111912.882500", "111913.342500", "111913.802500", "111914.262500", "111914.722500", "111915.182500", "111915.642500", "111916.102500", "111916.562500", "111917.022500", "111917.482500", "111917.942500", "111918.402500", "111918.862500", "111919.322500", "111919.782500", "111920.242500", "111920.702500", "111921.162500", "111921.622500", "111922.082500", "111922.542500", "111923.002500", "111923.462500", "111923.922500", "111924.382500", "111924.842500", "111925.302500", "111925.762500", "111926.222500", "111926.682500", "111927.142500", "111927.602500", "111928.062500", "111928.522500", "111928.982500", "111929.442500", "111929.902500", "111930.362500", "111930.822500", "111931.282500", "111931.742500", "111932.202500", "111932.662500", "111933.122500", "111933.582500", "111934.042500", "111934.502500", "111934.962500", "111935.422500", "111935.882500", "111936.342500", "111936.802500", "111937.262500", "111937.722500", "111938.182500", "111938.642500", "111939.102500", "111939.562500", "111940.022500", "111940.482500", "111940.942500", "111941.402500", "111941.862500", "111942.322500", "111942.782500", "111943.242500", "111943.702500", "111944.162500", "111944.622500", "111945.082500", "111945.542500", "111946.002500", "111946.462500", "111946.922500", "111947.382500", "111947.842500", "111948.302500", "111948.762500", "111949.222500", "111949.682500", "111950.142500", "111950.602500", "111951.062500", "111951.522500", "111951.982500", "111952.442500", "111952.902500", "111953.362500", "111953.822500", "111954.282500", "111954.742500", "111955.202500", "111955.662500", "111956.122500", "111956.582500", "111957.042500", "111957.502500"],
