{
  "AcquisitionMatrixPE": 82,
  "AcquisitionNumber": 1,
  "AcquisitionTime": "12:07:36.575000",
  "BandwidthPerPixelPhaseEncode": 24.888,
  "BaseResolution": 82,
  "BodyPartExamined": "BRAIN",
  "ConsistencyInfo": "N4_VE11E_LATEST_20181129",
  "ConversionSoftware": "dcm2niix",
  "ConversionSoftwareVersion": "v1.0.20201102",
  "DerivedVendorReportedEchoSpacing": 0.00049,
  "DeviceSerialNumber": "66112",
  "DwellTime": 2e-06,
  "EchoTime": 0.0272,
  "EchoTrainLength": 82,
  "EffectiveEchoSpacing": 0.00049,
  "FlipAngle": 44,
  "ImageComments": "Unaliased MB8/PE3",
  "ImageOrientationPatientDICOM": [0.999136, -0.0121456, 0.039742, 0.00819612, 0.995146, 0.0980724],
  "ImageType": [
    "ORIGINAL",
    "PRIMARY",
    "M",
    "MB",
    "ND",
    "NORM",
    "MOSAIC"
],
  "ImagingFrequency": 123.252,
  "InPlanePhaseEncodingDirectionDICOM": "COL",
  "InstitutionAddress": "Maynard 3,Hanover,NH,US,03755",
  "InstitutionName": "Dartmouth College - PBS",
  "InstitutionalDepartmentName": "Department",
  "MRAcquisitionType": "2D",
  "MagneticFieldStrength": 3,
  "Manufacturer": "Siemens",
  "ManufacturersModelName": "Prisma",
  "Modality": "MR",
  "MultibandAccelerationFactor": 8,
  "PartialFourier": 1,
  "PatientPosition": "HFS",
  "PercentPhaseFOV": 100,
  "PercentSampling": 100,
  "PhaseEncodingDirection": "j-",
  "PhaseEncodingSteps": 82,
  "PhaseResolution": 1,
  "PixelBandwidth": 3050,
  "ProcedureStepDescription": "Wager_Wager^1076_spacetop",
  "ProtocolName": "func_run-03_task-alignvideo_acq-ap-mb8",
  "PulseSequenceDetails": "%CustomerSeq%\\cmrr_mbep2d_bold",
  "ReceiveCoilActiveElements": "HEA;HEP",
  "ReceiveCoilName": "Head_32",
  "ReconMatrixPE": 82,
  "RepetitionTime": 0.46,
  "SAR": 0.0970788,
  "ScanOptions": "FS",
  "ScanningSequence": "EP",
  "SequenceName": "epfid2d1_82",
  "SequenceVariant": "SK\\SS",
  "SeriesDescription": "func_run-03_task-alignvideo_acq-ap-mb8",
  "SeriesNumber": 34,
  "ShimSetting": [4155, -7761, -7265, 532, -87, -255, -21, 15],
  "SliceThickness": 2.7,
  "SliceTiming": [0, 0.25, 0.0625, 0.3125, 0.125, 0.3775, 0.1875, 0, 0.25, 0.0625, 0.3125, 0.125, 0.3775, 0.1875, 0, 0.25, 0.0625, 0.3125, 0.125, 0.3775, 0.1875, 0, 0.25, 0.0625, 0.3125, 0.125, 0.3775, 0.1875, 0, 0.25, 0.0625, 0.3125, 0.125, 0.3775, 0.1875, 0, 0.25, 0.0625, 0.3125, 0.125, 0.3775, 0.1875, 0, 0.25, 0.0625, 0.3125, 0.125, 0.3775, 0.1875, 0, 0.25, 0.0625, 0.3125, 0.125, 0.3775, 0.1875],
  "SoftwareVersions": "syngo MR E11",
  "SpacingBetweenSlices": 2.7,
  "StationName": "AWP66112",
  "TaskName": "alignvideo",
  "TotalReadoutTime": 0.03969,
  "TxRefAmp": 246.974,
  "WipMemBlock": "1a716a76-00ab-4d40-8d42-9178115ff271||Sequence: R016 ve11e/master r/434b28f1; Aug  7 2019 18:53:46 by eja",
  "dcmmeta_affine": [
    [-2.6806092262268066, 0.02198958396911621, 0.10999853163957596, 106.52082061767578],
    [0.03258572518825531, 2.669902801513672, 0.26368725299835205, -98.87194061279297],
    [0.10662481933832169, -0.2631210684776306, 2.684840679168701, -66.92986297607422],
    [0.0, 0.0, 0.0, 1.0]
],
  "dcmmeta_reorient_transform": [
    [0.0, -1.0, 0.0, 81.0],
    [1.0, 0.0, 0.0, 0.0],
    [0.0, 0.0, 1.0, 0.0],
    [0.0, 0.0, 0.0, 1.0]
],
  "dcmmeta_shape": [82, 82, 56, 1016],
  "dcmmeta_slice_dim": 2,
  "dcmmeta_version": 0.6,
  "global": {
    "const": {
      "AccessionNumber": "A003885",
      "AcquisitionMatrix": [82, 0, 0, 82],
      "AngioFlag": "N",
      "BitsAllocated": 16,
      "BitsStored": 16,
      "BodyPartExamined": "BRAIN",
      "Columns": 656,
      "EchoNumbers": 1,
      "EchoTime": 27.2,
      "EchoTrainLength": 82,
      "FlipAngle": 44.0,
      "HighBit": 15,
      "ImageOrientationPatient": [0.99913615687202, -0.0121455884441, 0.03974197670414, 0.00819611754875, 0.9951455319463, 0.09807239114267],
      "ImagePositionPatient": [-883.94785023344, -874.30015137939, -194.3597307031],
      "ImageType": [
        "ORIGINAL",
        "PRIMARY",
        "M",
        "MB",
        "ND",
        "NORM",
        "MOSAIC"
],
      "ImagedNucleus": "1H",
      "ImagingFrequency": 123.252184,
      "InPlanePhaseEncodingDirection": "COL",
      "MRAcquisitionType": "2D",
      "MagneticFieldStrength": 3.0,
      "Manufacturer": "SIEMENS",
      "ManufacturerModelName": "Prisma",
      "Modality": "MR",
      "NumberOfAverages": 1.0,
      "NumberOfPhaseEncodingSteps": 82,
      "PercentPhaseFieldOfView": 100.0,
      "PercentSampling": 100.0,
      "PerformedProcedureStepStartTime": "102705.344000",
      "PhotometricInterpretation": "MONOCHROME2",
      "PixelBandwidth": 3050.0,
      "PixelRepresentation": 0,
      "PixelSpacing": [2.6829268932343, 2.6829268932343],
      "ProtocolName": "func_run-03_task-alignvideo_acq-ap-mb8",
      "RepetitionTime": 460.0,
      "Rows": 656,
      "SAR": 0.09707875452995,
      "SamplesPerPixel": 1,
      "ScanOptions": "FS",
      "ScanningSequence": "EP",
      "SequenceName": "epfid2d1_82",
      "SequenceVariant": [
        "SK",
        "SS"
],
      "SeriesDescription": "func_run-03_task-alignvideo_acq-ap-mb8",
      "SeriesNumber": 34,
      "SeriesTime": "120753.453000",
      "SliceLocation": -71.870423505758,
      "SliceThickness": 2.7000000476837,
      "SmallestImagePixelValue": 0,
      "SoftwareVersions": "syngo MR E11",
      "SpacingBetweenSlices": 2.7000000135047,
      "SpecificCharacterSet": "ISO_IR 100",
      "StudyID": "1",
      "StudyTime": "102705.293000",
      "TransmitCoilName": "Body",
      "VariableFlipAngleFlag": "N",
      "WindowCenterWidthExplanation": "Algo1"
    },
    "slices": {}
  },
  "time": {
    "samples": {
      "AcquisitionNumber": [1, 2, 3, 4, 5, 6, 7, 8, 9, 10, 11, 12, 13, 14, 15, 16, 17, 18, 19, 20, 21, 22, 23, 24, 25, 26, 27, 28, 29, 30, 31, 32, 33, 34, 35, 36, 37, 38, 39, 40, 41, 42, 43, 44, 45, 46, 47, 48, 49, 50, 51, 52, 53, 54, 55, 56, 57, 58, 59, 60, 61, 62, 63, 64, 65, 66, 67, 68, 69, 70, 71, 72, 73, 74, 75, 76, 77, 78, 79, 80, 81, 82, 83, 84, 85, 86, 87, 88, 89, 90, 91, 92, 93, 94, 95, 96, 97, 98, 99, 100, 101, 102, 103, 104, 105, 106, 107, 108, 109, 110, 111, 112, 113, 114, 115, 116, 117, 118, 119, 120, 121, 122, 123, 124, 125, 126, 127, 128, 129, 130, 131, 132, 133, 134, 135, 136, 137, 138, 139, 140, 141, 142, 143, 144, 145, 146, 147, 148, 149, 150, 151, 152, 153, 154, 155, 156, 157, 158, 159, 160, 161, 162, 163, 164, 165, 166, 167, 168, 169, 170, 171, 172, 173, 174, 175, 176, 177, 178, 179, 180, 181, 182, 183, 184, 185, 186, 187, 188, 189, 190, 191, 192, 193, 194, 195, 196, 197, 198, 199, 200, 201, 202, 203, 204, 205, 206, 207, 208, 209, 210, 211, 212, 213, 214, 215, 216, 217, 218, 219, 220, 221, 222, 223, 224, 225, 226, 227, 228, 229, 230, 231, 232, 233, 234, 235, 236, 237, 238, 239, 240, 241, 242, 243, 244, 245, 246, 247, 248, 249, 250, 251, 252, 253, 254, 255, 256, 257, 258, 259, 260, 261, 262, 263, 264, 265, 266, 267, 268, 269, 270, 271, 272, 273, 274, 275, 276, 277, 278, 279, 280, 281, 282, 283, 284, 285, 286, 287, 288, 289, 290, 291, 292, 293, 294, 295, 296, 297, 298, 299, 300, 301, 302, 303, 304, 305, 306, 307, 308, 309, 310, 311, 312, 313, 314, 315, 316, 317, 318, 319, 320, 321, 322, 323, 324, 325, 326, 327, 328, 329, 330, 331, 332, 333, 334, 335, 336, 337, 338, 339, 340, 341, 342, 343, 344, 345, 346, 347, 348, 349, 350, 351, 352, 353, 354, 355, 356, 357, 358, 359, 360, 361, 362, 363, 364, 365, 366, 367, 368, 369, 370, 371, 372, 373, 374, 375, 376, 377, 378, 379, 380, 381, 382, 383, 384, 385, 386, 387, 388, 389, 390, 391, 392, 393, 394, 395, 396, 397, 398, 399, 400, 401, 402, 403, 404, 405, 406, 407, 408, 409, 410, 411, 412, 413, 414, 415, 416, 417, 418, 419, 420, 421, 422, 423, 424, 425, 426, 427, 428, 429, 430, 431, 432, 433, 434, 435, 436, 437, 438, 439, 440, 441, 442, 443, 444, 445, 446, 447, 448, 449, 450, 451, 452, 453, 454, 455, 456, 457, 458, 459, 460, 461, 462, 463, 464, 465, 466, 467, 468, 469, 470, 471, 472, 473, 474, 475, 476, 477, 478, 479, 480, 481, 482, 483, 484, 485, 486, 487, 488, 489, 490, 491, 492, 493, 494, 495, 496, 497, 498, 499, 500, 501, 502, 503, 504, 505, 506, 507, 508, 509, 510, 511, 512, 513, 514, 515, 516, 517, 518, 519, 520, 521, 522, 523, 524, 525, 526, 527, 528, 529, 530, 531, 532, 533, 534, 535, 536, 537, 538, 539, 540, 541, 542, 543, 544, 545, 546, 547, 548, 549, 550, 551, 552, 553, 554, 555, 556, 557, 558, 559, 560, 561, 562, 563, 564, 565, 566, 567, 568, 569, 570, 571, 572, 573, 574, 575, 576, 577, 578, 579, 580, 581, 582, 583, 584, 585, 586, 587, 588, 589, 590, 591, 592, 593, 594, 595, 596, 597, 598, 599, 600, 601, 602, 603, 604, 605, 606, 607, 608, 609, 610, 611, 612, 613, 614, 615, 616, 617, 618, 619, 620, 621, 622, 623, 624, 625, 626, 627, 628, 629, 630, 631, 632, 633, 634, 635, 636, 637, 638, 639, 640, 641, 642, 643, 644, 645, 646, 647, 648, 649, 650, 651, 652, 653, 654, 655, 656, 657, 658, 659, 660, 661, 662, 663, 664, 665, 666, 667, 668, 669, 670, 671, 672, 673, 674, 675, 676, 677, 678, 679, 680, 681, 682, 683, 684, 685, 686, 687, 688, 689, 690, 691, 692, 693, 694, 695, 696, 697, 698, 699, 700, 701, 702, 703, 704, 705, 706, 707, 708, 709, 710, 711, 712, 713, 714, 715, 716, 717, 718, 719, 720, 721, 722, 723, 724, 725, 726, 727, 728, 729, 730, 731, 732, 733, 734, 735, 736, 737, 738, 739, 740, 741, 742, 743, 744, 745, 746, 747, 748, 749, 750, 751, 752, 753, 754, 755, 756, 757, 758, 759, 760, 761, 762, 763, 764, 765, 766, 767, 768, 769, 770, 771, 772, 773, 774, 775, 776, 777, 778, 779, 780, 781, 782, 783, 784, 785, 786, 787, 788, 789, 790, 791, 792, 793, 794, 795, 796, 797, 798, 799, 800, 801, 802, 803, 804, 805, 806, 807, 808, 809, 810, 811, 812, 813, 814, 815, 816, 817, 818, 819, 820, 821, 822, 823, 824, 825, 826, 827, 828, 829, 830, 831, 832, 833, 834, 835, 836, 837, 838, 839, 840, 841, 842, 843, 844, 845, 846, 847, 848, 849, 850, 851, 852, 853, 854, 855, 856, 857, 858, 859, 860, 861, 862, 863, 864, 865, 866, 867, 868, 869, 870, 871, 872, 873, 874, 875, 876, 877, 878, 879, 880, 881, 882, 883, 884, 885, 886, 887, 888, 889, 890, 891, 892, 893, 894, 895, 896, 897, 898, 899, 900, 901, 902, 903, 904, 905, 906, 907, 908, 909, 910, 911, 912, 913, 914, 915, 916, 917, 918, 919, 920, 921, 922, 923, 924, 925, 926, 927, 928, 929, 930, 931, 932, 933, 934, 935, 936, 937, 938, 939, 940, 941, 942, 943, 944, 945, 946, 947, 948, 949, 950, 951, 952, 953, 954, 955, 956, 957, 958, 959, 960, 961, 962, 963, 964, 965, 966, 967, 968, 969, 970, 971, 972, 973, 974, 975, 976, 977, 978, 979, 980, 981, 982, 983, 984, 985, 986, 987, 988, 989, 990, 991, 992, 993, 994, 995, 996, 997, 998, 999, 1000, 1001, 1002, 1003, 1004, 1005, 1006, 1007, 1008, 1009, 1010, 1011, 1012, 1013, 1014, 1015, 1016],
      "AcquisitionTime": ["120736.575000", "120737.035000", "120737.495000", "120737.955000", "120738.415000", "120738.875000", "120739.335000", "120739.795000", "120740.255000", "120740.715000", "120741.175000", "120741.635000", "120742.095000", "120742.555000", "120743.015000", "120743.475000", "120743.935000", "120744.395000", "120744.855000", "120745.315000", "120745.775000", "120746.235000", "120746.695000", "120747.155000", "120747.615000", "120748.075000", "120748.535000", "120748.995000", "120749.455000", "120749.915000", "120750.375000", "120750.835000", "120751.295000", "120751.755000", "120752.215000", "120752.675000", "120753.135000", "120753.595000", "120754.055000", "120754.515000", "120754.975000", "120755.435000", "120755.895000", "120756.355000", "120756.815000", "120757.275000", "120757.735000", "120758.195000", "120758.655000", "120759.115000", "120759.575000", "120800.035000", "120800.495000", "120800.955000", "120801.415000", "120801.875000", "120802.335000", "120802.795000", "120803.255000", "120803.715000", "120804.175000", "120804.635000", "120805.095000", "120805.555000", "120806.015000", "120806.475000", "120806.935000", "120807.395000", "120807.855000", "120808.315000", "120808.775000", "120809.235000", "120809.695000", "120810.155000", "120810.615000", "120811.075000", "120811.535000", "120811.995000", "120812.455000", "120812.915000", "120813.375000", "120813.835000", "120814.295000", "120814.755000", "120815.215000", "120815.675000", "120816.135000", "120816.595000", "120817.055000", "120817.515000", "120817.975000", "120818.435000", "120818.895000", "120819.355000", "120819.815000", "120820.275000", "120820.735000", "120821.195000", "120821.655000", "120822.115000", "120822.575000", "120823.035000", "120823.495000", "120823.955000", "120824.415000", "120824.875000", "120825.335000", "120825.795000", "120826.255000", "120826.715000", "120827.175000", "120827.635000", "120828.095000", "120828.555000", "120829.015000", "120829.475000", "120829.935000", "120830.395000", "120830.855000", "120831.315000", "120831.775000", "120832.235000", "120832.695000", "120833.155000", "120833.615000", "120834.075000", "120834.535000", "120834.995000", "120835.455000", "120835.915000", "120836.375000", "120836.835000", "120837.295000", "120837.755000", "120838.215000", "120838.675000", "120839.135000", "120839.595000", "120840.055000", "120840.515000", "120840.975000", "120841.435000", "120841.895000", "120842.355000", "120842.815000", "120843.275000", "120843.735000", "120844.195000", "120844.655000", "120845.115000", "120845.575000", "120846.035000", "120846.495000", "120846.955000", "120847.415000", "120847.875000", "120848.335000", "120848.795000", "120849.255000", "120849.715000", "120850.175000", "120850.635000", "120851.095000", "120851.555000", "120852.015000", "120852.475000", "120852.935000", "120853.395000", "120853.855000", "120854.315000", "120854.775000", "120855.235000", "120855.695000", "120856.155000", "120856.615000", "120857.075000", "120857.535000", "120857.995000", "120858.455000", "120858.915000", "120859.375000", "120859.835000", "120900.295000", "120900.755000", "120901.215000", "120901.675000", "120902.135000", "120902.595000", "120903.055000", "120903.515000", "120903.975000", "120904.435000", "120904.895000", "120905.355000", "120905.815000", "120906.275000", "120906.735000", "120907.195000", "120907.655000", "120908.115000", "120908.575000", "120909.035000", "120909.495000", "120909.955000", "120910.415000", "120910.875000", "120911.335000", "120911.795000", "120912.255000", "120912.715000", "120913.175000", "120913.635000", "120914.095000", "120914.555000", "120915.015000", "120915.475000", "120915.935000", "120916.395000", "120916.855000", "120917.315000", "120917.775000", "120918.235000", "120918.695000", "120919.155000", "120919.615000", "120920.075000", "120920.535000", "120920.995000", "120921.455000", "120921.915000", "120922.375000", "120922.835000", "120923.295000", "120923.755000", "120924.215000", "120924.675000", "120925.135000", "120925.595000", "120926.055000", "120926.515000", "120926.975000", "120927.435000", "120927.895000", "120928.355000", "120928.815000", "120929.275000", "120929.735000", "120930.195000", "120930.655000", "120931.115000", "120931.575000", "120932.035000", "120932.495000", "120932.955000", "120933.415000", "120933.875000", "120934.335000", "120934.795000", "120935.255000", "120935.715000", "120936.175000", "120936.635000", "120937.095000", "120937.555000", "120938.015000", "120938.475000", "120938.935000", "120939.395000", "120939.855000", "120940.315000", "120940.775000", "120941.235000", "120941.695000", "120942.155000", "120942.615000", "120943.075000", "120943.535000", "120943.995000", "120944.455000", "120944.915000", "120945.375000", "120945.835000", "120946.295000", "120946.755000", "120947.215000", "120947.675000", "120948.135000", "120948.595000", "120949.055000", "120949.515000", "120949.975000", "120950.435000", "120950.895000", "120951.355000", "120951.815000", "120952.275000", "120952.735000", "120953.195000", "120953.655000", "120954.115000", "120954.575000", "120955.035000", "120955.495000", "120955.955000", "120956.415000", "120956.875000", "120957.335000", "120957.795000", "120958.255000", "120958.715000", "120959.175000", "120959.635000", "121000.095000", "121000.555000", "121001.015000", "121001.475000", "121001.935000", "121002.395000", "121002.855000", "121003.315000", "121003.775000", "121004.235000", "121004.695000", "121005.155000", "121005.615000", "121006.075000", "121006.535000", "121006.995000", "121007.455000", "121007.915000", "121008.375000", "121008.835000", "121009.295000", "121009.755000", "121010.215000", "121010.675000", "121011.135000", "121011.595000", "121012.055000", "121012.515000", "121012.975000", "121013.435000", "121013.895000", "121014.355000", "121014.815000", "121015.275000", "121015.735000", "121016.195000", "121016.655000", "121017.115000", "121017.575000", "121018.035000", "121018.495000", "121018.955000", "121019.415000", "121019.875000", "121020.335000", "121020.795000", "121021.255000", "121021.715000", "121022.175000", "121022.635000", "121023.095000", "121023.555000", "121024.015000", "121024.475000", "121024.935000", "121025.395000", "121025.855000", "121026.315000", "121026.775000", "121027.235000", "121027.695000", "121028.155000", "121028.615000", "121029.075000", "121029.535000", "121029.995000", "121030.455000", "121030.915000", "121031.375000", "121031.835000", "121032.295000", "121032.755000", "121033.215000", "121033.675000", "121034.135000", "121034.595000", "121035.055000", "121035.515000", "121035.975000", "121036.435000", "121036.895000", "121037.355000", "121037.815000", "121038.275000", "121038.735000", "121039.195000", "121039.655000", "121040.115000", "121040.575000", "121041.035000", "121041.495000", "121041.955000", "121042.415000", "121042.875000", "121043.335000", "121043.795000", "121044.255000", "121044.715000", "121045.175000", "121045.635000", "121046.095000", "121046.555000", "121047.015000", "121047.475000", "121047.935000", "121048.395000", "121048.855000", "121049.315000", "121049.775000", "121050.235000", "121050.695000", "121051.155000", "121051.615000", "121052.075000", "121052.535000", "121052.995000", "121053.455000", "121053.915000", "121054.375000", "121054.835000", "121055.295000", "121055.755000", "121056.215000", "121056.675000", "121057.135000", "121057.595000", "121058.055000", "121058.515000", "121058.975000", "121059.435000", "121059.895000", "121100.355000", "121100.815000", "121101.275000", "121101.735000", "121102.195000", "121102.655000", "121103.115000", "121103.575000", "121104.035000", "121104.495000", "121104.955000", "121105.415000", "121105.875000", "121106.335000", "121106.795000", "121107.255000", "121107.715000", "121108.175000", "121108.635000", "121109.095000", "121109.555000", "121110.015000", "121110.475000", "121110.935000", "121111.395000", "121111.855000", "121112.315000", "121112.775000", "121113.235000", "121113.695000", "121114.155000", "121114.615000", "121115.075000", "121115.535000", "121115.995000", "121116.455000", "121116.915000", "121117.375000", "121117.835000", "121118.295000", "121118.755000", "121119.215000", "121119.675000", "121120.135000", "121120.595000", "121121.055000", "121121.515000", "121121.975000", "121122.435000", "121122.895000", "121123.355000", "121123.815000", "121124.275000", "121124.735000", "121125.195000", "121125.655000", "121126.115000", "121126.575000", "121127.035000", "121127.495000", "121127.955000", "121128.415000", "121128.875000", "121129.335000", "121129.795000", "121130.255000", "121130.715000", "121131.175000", "121131.635000", "121132.095000", "121132.555000", "121133.015000", "121133.475000", "121133.935000", "121134.395000", "121134.855000", "121135.315000", "121135.775000", "121136.235000", "121136.695000", "121137.155000", "121137.615000", "121138.075000", "121138.535000", "121138.995000", "121139.455000", "121139.915000", "121140.375000", "121140.835000", "121141.295000", "121141.755000", "121142.215000", "121142.675000", "121143.135000", "121143.595000", "121144.055000", "121144.515000", "121144.975000", "121145.435000", "121145.895000", "121146.355000", "121146.815000", "121147.275000", "121147.735000", "121148.195000", "121148.655000", "121149.115000", "121149.575000", "121150.035000", "121150.495000", "121150.955000", "121151.415000", "121151.875000", "121152.335000", "121152.795000", "121153.255000", "121153.715000", "121154.175000", "121154.635000", "121155.095000", "121155.555000", "121156.015000", "121156.475000", "121156.935000", "121157.395000", "121157.855000", "121158.315000", "121158.775000", "121159.235000", "121159.695000", "121200.155000", "121200.615000", "121201.075000", "121201.535000", "121201.995000", "121202.455000", "121202.915000", "121203.375000", "121203.835000", "121204.295000", "121204.755000", "121205.215000", "121205.675000", "121206.135000", "121206.595000", "121207.055000", "121207.515000", "121207.975000", "121208.435000", "121208.895000", "121209.355000", "121209.815000", "121210.275000", "121210.735000", "121211.195000", "121211.655000", "121212.115000", "121212.575000", "121213.035000", "121213.495000", "121213.955000", "121214.415000", "121214.875000", "121215.335000", "121215.795000", "121216.255000", "121216.715000", "121217.175000", "121217.635000", "121218.095000", "121218.555000", "121219.015000", "121219.475000", "121219.935000", "121220.395000", "121220.855000", "121221.315000", "121221.775000", "121222.235000", "121222.695000", "121223.155000", "121223.615000", "121224.075000", "121224.535000", "121224.995000", "121225.455000", "121225.915000", "121226.375000", "121226.835000", "121227.295000", "121227.755000", "121228.215000", "121228.675000", "121229.135000", "121229.595000", "121230.055000", "121230.515000", "121230.975000", "121231.435000", "121231.895000", "121232.355000", "121232.815000", "121233.275000", "121233.735000", "121234.195000", "121234.655000", "121235.115000", "121235.575000", "121236.035000", "121236.495000", "121236.955000", "121237.415000", "121237.875000", "121238.335000", "121238.795000", "121239.255000", "121239.715000", "121240.175000", "121240.635000", "121241.095000", "121241.555000", "121242.015000", "121242.475000", "121242.935000", "121243.395000", "121243.855000", "121244.315000", "121244.775000", "121245.235000", "121245.695000", "121246.155000", "121246.615000", "121247.075000", "121247.535000", "121247.995000", "121248.455000", "121248.915000", "121249.375000", "121249.835000", "121250.295000", "121250.755000", "121251.215000", "121251.675000", "121252.135000", "121252.595000", "121253.055000", "121253.515000", "121253.975000", "121254.435000", "121254.895000", "121255.355000", "121255.815000", "121256.275000", "121256.735000", "121257.195000", "121257.655000", "121258.115000", "121258.575000", "121259.035000", "121259.495000", "121259.955000", "121300.415000", "121300.875000", "121301.335000", "121301.795000", "121302.255000", "121302.715000", "121303.175000", "121303.635000", "121304.095000", "121304.555000", "121305.015000", "121305.475000", "121305.935000", "121306.395000", "121306.855000", "121307.315000", "121307.775000", "121308.235000", "121308.695000", "121309.155000", "121309.615000", "121310.075000", "121310.535000", "121310.995000", "121311.455000", "121311.915000", "121312.375000", "121312.835000", "121313.295000", "121313.755000", "121314.215000", "121314.675000", "121315.135000", "121315.595000", "121316.055000", "121316.515000", "121316.975000", "121317.435000", "121317.895000", "121318.355000", "121318.815000", "121319.275000", "121319.735000", "121320.195000", "121320.655000", "121321.115000", "121321.575000", "121322.035000", "121322.495000", "121322.955000", "121323.415000", "121323.875000", "121324.335000", "121324.795000", "121325.255000", "121325.715000", "121326.175000", "121326.635000", "121327.095000", "121327.555000", "121328.015000", "121328.475000", "121328.935000", "121329.395000", "121329.855000", "121330.315000", "121330.775000", "121331.235000", "121331.695000", "121332.155000", "121332.615000", "121333.075000", "121333.535000", "121333.995000", "121334.455000", "121334.915000", "121335.375000", "121335.835000", "121336.295000", "121336.755000", "121337.215000", "121337.675000", "121338.135000", "121338.595000", "121339.055000", "121339.515000", "121339.975000", "121340.435000", "121340.895000", "121341.355000", "121341.815000", "121342.275000", "121342.735000", "121343.195000", "121343.655000", "121344.115000", "121344.575000", "121345.035000", "121345.495000", "121345.955000", "121346.415000", "121346.875000", "121347.335000", "121347.795000", "121348.255000", "121348.715000", "121349.175000", "121349.635000", "121350.095000", "121350.555000", "121351.015000", "121351.475000", "121351.935000", "121352.395000", "121352.855000", "121353.315000", "121353.775000", "121354.235000", "121354.695000", "121355.155000", "121355.615000", "121356.075000", "121356.535000", "121356.995000", "121357.455000", "121357.915000", "121358.375000", "121358.835000", "121359.295000", "121359.755000", "121400.215000", "121400.675000", "121401.135000", "121401.595000", "121402.055000", "121402.515000", "121402.975000", "121403.435000", "121403.895000", "121404.355000", "121404.815000", "121405.275000", "121405.735000", "121406.195000", "121406.655000", "121407.115000", "121407.575000", "121408.035000", "121408.495000", "121408.955000", "121409.415000", "121409.875000", "121410.335000", "121410.795000", "121411.255000", "121411.715000", "121412.175000", "121412.635000", "121413.095000", "121413.555000", "121414.015000", "121414.475000", "121414.935000", "121415.395000", "121415.855000", "121416.315000", "121416.775000", "121417.235000", "121417.695000", "121418.155000", "121418.615000", "121419.075000", "121419.535000", "121419.995000", "121420.455000", "121420.915000", "121421.375000", "121421.835000", "121422.295000", "121422.755000", "121423.215000", "121423.675000", "121424.135000", "121424.595000", "121425.055000", "121425.515000", "121425.975000", "121426.435000", "121426.895000", "121427.355000", "121427.815000", "121428.275000", "121428.735000", "121429.195000", "121429.655000", "121430.115000", "121430.575000", "121431.035000", "121431.495000", "121431.955000", "121432.415000", "121432.875000", "121433.335000", "121433.795000", "121434.255000", "121434.715000", "121435.175000", "121435.635000", "121436.095000", "121436.555000", "121437.015000", "121437.475000", "121437.935000", "121438.395000", "121438.855000", "121439.315000", "121439.775000", "121440.235000", "121440.695000", "121441.155000", "121441.615000", "121442.075000", "121442.535000", "121442.995000", "121443.455000", "121443.915000", "121444.375000", "121444.835000", "121445.295000", "121445.755000", "121446.215000", "121446.675000", "121447.135000", "121447.595000", "121448.055000", "121448.515000", "121448.975000", "121449.435000", "121449.895000", "121450.355000", "121450.815000", "121451.275000", "121451.735000", "121452.195000", "121452.655000", "121453.115000", "121453.575000", "121454.035000", "121454.495000", "121454.955000", "121455.415000", "121455.875000", "121456.335000", "121456.795000", "121457.255000", "121457.715000", "121458.175000", "121458.635000", "121459.095000", "121459.555000", "121500.015000", "121500.475000", "121500.935000", "121501.395000", "121501.855000", "121502.315000", "121502.775000", "121503.235000", "121503.695000", "121504.155000", "121504.615000", "121505.075000", "121505.535000", "121505.995000", "121506.455000", "121506.915000", "121507.375000", "121507.835000", "121508.295000", "121508.755000", "121509.215000", "121509.675000", "121510.135000", "121510.595000", "121511.055000", "121511.515000", "121511.975000", "121512.435000", "121512.895000", "121513.355000", "121513.815000", "121514.275000", "121514.735000", "121515.195000", "121515.655000", "121516.115000", "121516.575000", "121517.035000", "121517.495000", "121517.955000", "121518.415000", "121518.875000", "121519.335000", "121519.795000", "121520.255000", "121520.715000", "121521.175000", "121521.635000", "121522.095000", "121522.555000", "121523.015000", "121523.475000"],
