{
  "AcquisitionMatrixPE": 82,
  "AcquisitionNumber": 1,
  "AcquisitionTime": "11:37:22.822500",
  "BandwidthPerPixelPhaseEncode": 24.888,
  "BaseResolution": 82,
  "BodyPartExamined": "BRAIN",
  "ConsistencyInfo": "N4_VE11E_LATEST_20181129",
  "ConversionSoftware": "dcm2niix",
  "ConversionSoftwareVersion": "v1.0.20201102",
  "DerivedVendorReportedEchoSpacing": 0.00049,
  "DeviceSerialNumber": "66112",
  "DwellTime": 2e-06,
  "EchoTime": 0.0272,
  "EchoTrainLength": 82,
  "EffectiveEchoSpacing": 0.00049,
  "FlipAngle": 44,
  "ImageComments": "Unaliased MB8/PE3",
  "ImageOrientationPatientDICOM": [0.999072, -0.0239215, 0.0358115, 0.0205787, 0.995641, 0.0909652],
  "ImageType": [
    "ORIGINAL",
    "PRIMARY",
    "M",
    "MB",
    "ND",
    "NORM",
    "MOSAIC"
],
  "ImagingFrequency": 123.252,
  "InPlanePhaseEncodingDirectionDICOM": "COL",
  "InstitutionAddress": "Maynard 3,Hanover,NH,US,03755",
  "InstitutionName": "Dartmouth College - PBS",
  "InstitutionalDepartmentName": "Department",
  "MRAcquisitionType": "2D",
  "MagneticFieldStrength": 3,
  "Manufacturer": "Siemens",
  "ManufacturersModelName": "Prisma",
  "Modality": "MR",
  "MultibandAccelerationFactor": 8,
  "PartialFourier": 1,
  "PatientPosition": "HFS",
  "PercentPhaseFOV": 100,
  "PercentSampling": 100,
  "PhaseEncodingDirection": "j-",
  "PhaseEncodingSteps": 82,
  "PhaseResolution": 1,
  "PixelBandwidth": 3050,
  "ProcedureStepDescription": "Wager_Wager^1076_spacetop",
  "ProtocolName": "func_run-06_task-social_acq-ap-mb8",
  "PulseSequenceDetails": "%CustomerSeq%\\cmrr_mbep2d_bold",
  "ReceiveCoilActiveElements": "HEA;HEP",
  "ReceiveCoilName": "Head_32",
  "ReconMatrixPE": 82,
  "RepetitionTime": 0.46,
  "SAR": 0.0969932,
  "ScanOptions": "FS",
  "ScanningSequence": "EP",
  "SequenceName": "epfid2d1_82",
  "SequenceVariant": "SK\\SS",
  "SeriesDescription": "func_run-06_task-social_acq-ap-mb8",
  "SeriesNumber": 22,
  "ShimSetting": [4155, -7760, -7264, 540, -88, -250, -23, 15],
  "SliceThickness": 2.7,
  "SliceTiming": [0, 0.2525, 0.0625, 0.315, 0.125, 0.3775, 0.1875, 0, 0.2525, 0.0625, 0.315, 0.125, 0.3775, 0.1875, 0, 0.2525, 0.0625, 0.315, 0.125, 0.3775, 0.1875, 0, 0.2525, 0.0625, 0.315, 0.125, 0.3775, 0.1875, 0, 0.2525, 0.0625, 0.315, 0.125, 0.3775, 0.1875, 0, 0.2525, 0.0625, 0.315, 0.125, 0.3775, 0.1875, 0, 0.2525, 0.0625, 0.315, 0.125, 0.3775, 0.1875, 0, 0.2525, 0.0625, 0.315, 0.125, 0.3775, 0.1875],
  "SoftwareVersions": "syngo MR E11",
  "SpacingBetweenSlices": 2.7,
  "StationName": "AWP66112",
  "TaskName": "social",
  "TotalReadoutTime": 0.03969,
  "TxRefAmp": 246.974,
  "WipMemBlock": "024b7561-c820-4af8-9a54-88ca8a7361d4||Sequence: R016 ve11e/master r/434b28f1; Aug  7 2019 18:53:46 by eja",
  "dcmmeta_affine": [
    [-2.6804378032684326, 0.05521111935377121, 0.1021447703242302, 105.10557556152344],
    [0.06417951732873917, 2.6712331771850586, 0.2433883100748062, -102.5382080078125],
    [0.09607954323291779, -0.24405288696289062, 2.6870670318603516, -66.02936553955078],
    [0.0, 0.0, 0.0, 1.0]
],
  "dcmmeta_reorient_transform": [
    [0.0, -1.0, 0.0, 81.0],
    [1.0, 0.0, 0.0, 0.0],
    [0.0, 0.0, 1.0, 0.0],
    [0.0, 0.0, 0.0, 1.0]
],
  "dcmmeta_shape": [82, 82, 56, 872],
  "dcmmeta_slice_dim": 2,
  "dcmmeta_version": 0.6,
  "global": {
    "const": {
      "AccessionNumber": "A003885",
      "AcquisitionMatrix": [82, 0, 0, 82],
      "AngioFlag": "N",
      "BitsAllocated": 16,
      "BitsStored": 16,
      "BodyPartExamined": "BRAIN",
      "Columns": 656,
      "EchoNumbers": 1,
      "EchoTime": 27.2,
      "EchoTrainLength": 82,
      "FlipAngle": 44.0,
      "HighBit": 15,
      "ImageOrientationPatient": [0.99907222111114, -0.0239214557961, 0.03581146403936, 0.0205786891011, 0.99564142938653, 0.09096516720164],
      "ImagePositionPatient": [-894.70889212592, -862.05607246596, -183.4156567799],
      "ImageType": [
        "ORIGINAL",
        "PRIMARY",
        "M",
        "MB",
        "ND",
        "NORM",
        "MOSAIC"
],
      "ImagedNucleus": "1H",
      "ImagingFrequency": 123.252177,
      "InPlanePhaseEncodingDirection": "COL",
      "MRAcquisitionType": "2D",
      "MagneticFieldStrength": 3.0,
      "Manufacturer": "SIEMENS",
      "ManufacturerModelName": "Prisma",
      "Modality": "MR",
      "NumberOfAverages": 1.0,
      "NumberOfPhaseEncodingSteps": 82,
      "PercentPhaseFieldOfView": 100.0,
      "PercentSampling": 100.0,
      "PerformedProcedureStepStartTime": "102705.344000",
      "PhotometricInterpretation": "MONOCHROME2",
      "PixelBandwidth": 3050.0,
      "PixelRepresentation": 0,
      "PixelSpacing": [2.6829268932343, 2.6829268932343],
      "ProtocolName": "func_run-06_task-social_acq-ap-mb8",
      "RepetitionTime": 460.0,
      "Rows": 656,
      "SAR": 0.09699323825838,
      "SamplesPerPixel": 1,
      "ScanOptions": "FS",
      "ScanningSequence": "EP",
      "SequenceName": "epfid2d1_82",
      "SequenceVariant": [
        "SK",
        "SS"
],
      "SeriesDescription": "func_run-06_task-social_acq-ap-mb8",
      "SeriesNumber": 22,
      "SeriesTime": "113733.450000",
      "SliceLocation": -70.979976546598,
      "SliceThickness": 2.7000000476837,
      "SmallestImagePixelValue": 0,
      "SoftwareVersions": "syngo MR E11",
      "SpacingBetweenSlices": 2.7000000185928,
      "SpecificCharacterSet": "ISO_IR 100",
      "StudyID": "1",
      "StudyTime": "102705.293000",
      "TransmitCoilName": "Body",
      "VariableFlipAngleFlag": "N",
      "WindowCenterWidthExplanation": "Algo1"
    },
    "slices": {}
  },
  "time": {
    "samples": {
      "AcquisitionNumber": [1, 2, 3, 4, 5, 6, 7, 8, 9, 10, 11, 12, 13, 14, 15, 16, 17, 18, 19, 20, 21, 22, 23, 24, 25, 26, 27, 28, 29, 30, 31, 32, 33, 34, 35, 36, 37, 38, 39, 40, 41, 42, 43, 44, 45, 46, 47, 48, 49, 50, 51, 52, 53, 54, 55, 56, 57, 58, 59, 60, 61, 62, 63, 64, 65, 66, 67, 68, 69, 70, 71, 72, 73, 74, 75, 76, 77, 78, 79, 80, 81, 82, 83, 84, 85, 86, 87, 88, 89, 90, 91, 92, 93, 94, 95, 96, 97, 98, 99, 100, 101, 102, 103, 104, 105, 106, 107, 108, 109, 110, 111, 112, 113, 114, 115, 116, 117, 118, 119, 120, 121, 122, 123, 124, 125, 126, 127, 128, 129, 130, 131, 132, 133, 134, 135, 136, 137, 138, 139, 140, 141, 142, 143, 144, 145, 146, 147, 148, 149, 150, 151, 152, 153, 154, 155, 156, 157, 158, 159, 160, 161, 162, 163, 164, 165, 166, 167, 168, 169, 170, 171, 172, 173, 174, 175, 176, 177, 178, 179, 180, 181, 182, 183, 184, 185, 186, 187, 188, 189, 190, 191, 192, 193, 194, 195, 196, 197, 198, 199, 200, 201, 202, 203, 204, 205, 206, 207, 208, 209, 210, 211, 212, 213, 214, 215, 216, 217, 218, 219, 220, 221, 222, 223, 224, 225, 226, 227, 228, 229, 230, 231, 232, 233, 234, 235, 236, 237, 238, 239, 240, 241, 242, 243, 244, 245, 246, 247, 248, 249, 250, 251, 252, 253, 254, 255, 256, 257, 258, 259, 260, 261, 262, 263, 264, 265, 266, 267, 268, 269, 270, 271, 272, 273, 274, 275, 276, 277, 278, 279, 280, 281, 282, 283, 284, 285, 286, 287, 288, 289, 290, 291, 292, 293, 294, 295, 296, 297, 298, 299, 300, 301, 302, 303, 304, 305, 306, 307, 308, 309, 310, 311, 312, 313, 314, 315, 316, 317, 318, 319, 320, 321, 322, 323, 324, 325, 326, 327, 328, 329, 330, 331, 332, 333, 334, 335, 336, 337, 338, 339, 340, 341, 342, 343, 344, 345, 346, 347, 348, 349, 350, 351, 352, 353, 354, 355, 356, 357, 358, 359, 360, 361, 362, 363, 364, 365, 366, 367, 368, 369, 370, 371, 372, 373, 374, 375, 376, 377, 378, 379, 380, 381, 382, 383, 384, 385, 386, 387, 388, 389, 390, 391, 392, 393, 394, 395, 396, 397, 398, 399, 400, 401, 402, 403, 404, 405, 406, 407, 408, 409, 410, 411, 412, 413, 414, 415, 416, 417, 418, 419, 420, 421, 422, 423, 424, 425, 426, 427, 428, 429, 430, 431, 432, 433, 434, 435, 436, 437, 438, 439, 440, 441, 442, 443, 444, 445, 446, 447, 448, 449, 450, 451, 452, 453, 454, 455, 456, 457, 458, 459, 460, 461, 462, 463, 464, 465, 466, 467, 468, 469, 470, 471, 472, 473, 474, 475, 476, 477, 478, 479, 480, 481, 482, 483, 484, 485, 486, 487, 488, 489, 490, 491, 492, 493, 494, 495, 496, 497, 498, 499, 500, 501, 502, 503, 504, 505, 506, 507, 508, 509, 510, 511, 512, 513, 514, 515, 516, 517, 518, 519, 520, 521, 522, 523, 524, 525, 526, 527, 528, 529, 530, 531, 532, 533, 534, 535, 536, 537, 538, 539, 540, 541, 542, 543, 544, 545, 546, 547, 548, 549, 550, 551, 552, 553, 554, 555, 556, 557, 558, 559, 560, 561, 562, 563, 564, 565, 566, 567, 568, 569, 570, 571, 572, 573, 574, 575, 576, 577, 578, 579, 580, 581, 582, 583, 584, 585, 586, 587, 588, 589, 590, 591, 592, 593, 594, 595, 596, 597, 598, 599, 600, 601, 602, 603, 604, 605, 606, 607, 608, 609, 610, 611, 612, 613, 614, 615, 616, 617, 618, 619, 620, 621, 622, 623, 624, 625, 626, 627, 628, 629, 630, 631, 632, 633, 634, 635, 636, 637, 638, 639, 640, 641, 642, 643, 644, 645, 646, 647, 648, 649, 650, 651, 652, 653, 654, 655, 656, 657, 658, 659, 660, 661, 662, 663, 664, 665, 666, 667, 668, 669, 670, 671, 672, 673, 674, 675, 676, 677, 678, 679, 680, 681, 682, 683, 684, 685, 686, 687, 688, 689, 690, 691, 692, 693, 694, 695, 696, 697, 698, 699, 700, 701, 702, 703, 704, 705, 706, 707, 708, 709, 710, 711, 712, 713, 714, 715, 716, 717, 718, 719, 720, 721, 722, 723, 724, 725, 726, 727, 728, 729, 730, 731, 732, 733, 734, 735, 736, 737, 738, 739, 740, 741, 742, 743, 744, 745, 746, 747, 748, 749, 750, 751, 752, 753, 754, 755, 756, 757, 758, 759, 760, 761, 762, 763, 764, 765, 766, 767, 768, 769, 770, 771, 772, 773, 774, 775, 776, 777, 778, 779, 780, 781, 782, 783, 784, 785, 786, 787, 788, 789, 790, 791, 792, 793, 794, 795, 796, 797, 798, 799, 800, 801, 802, 803, 804, 805, 806, 807, 808, 809, 810, 811, 812, 813, 814, 815, 816, 817, 818, 819, 820, 821, 822, 823, 824, 825, 826, 827, 828, 829, 830, 831, 832, 833, 834, 835, 836, 837, 838, 839, 840, 841, 842, 843, 844, 845, 846, 847, 848, 849, 850, 851, 852, 853, 854, 855, 856, 857, 858, 859, 860, 861, 862, 863, 864, 865, 866, 867, 868, 869, 870, 871, 872],
      "AcquisitionTime": ["113722.822500", "113723.282500", "113723.742500", "113724.202500", "113724.662500", "113725.122500", "113725.582500", "113726.042500", "113726.502500", "113726.962500", "113727.422500", "113727.882500", "113728.342500", "113728.802500", "113729.262500", "113729.722500", "113730.182500", "113730.642500", "113731.102500", "113731.562500", "113732.022500", "113732.482500", "113732.942500", "113733.402500", "113733.862500", "113734.322500", "113734.782500", "113735.242500", "113735.702500", "113736.162500", "113736.622500", "113737.082500", "113737.542500", "113738.002500", "113738.462500", "113738.922500", "113739.382500", "113739.842500", "113740.302500", "113740.762500", "113741.222500", "113741.682500", "113742.142500", "113742.602500", "113743.062500", "113743.522500", "113743.982500", "113744.442500", "113744.902500", "113745.362500", "113745.822500", "113746.282500", "113746.742500", "113747.202500", "113747.662500", "113748.122500", "113748.582500", "113749.042500", "113749.502500", "113749.962500", "113750.422500", "113750.882500", "113751.342500", "113751.802500", "113752.262500", "113752.722500", "113753.182500", "113753.642500", "113754.102500", "113754.562500", "113755.022500", "113755.482500", "113755.942500", "113756.402500", "113756.862500", "113757.322500", "113757.782500", "113758.242500", "113758.702500", "113759.162500", "113759.622500", "113800.082500", "113800.542500", "113801.002500", "113801.462500", "113801.922500", "113802.382500", "113802.842500", "113803.302500", "113803.762500", "113804.222500", "113804.682500", "113805.142500", "113805.602500", "113806.062500", "113806.522500", "113806.982500", "113807.442500", "113807.902500", "113808.362500", "113808.822500", "113809.282500", "113809.742500", "113810.202500", "113810.662500", "113811.122500", "113811.582500", "113812.042500", "113812.502500", "113812.962500", "113813.422500", "113813.882500", "113814.342500", "113814.802500", "113815.262500", "113815.722500", "113816.182500", "113816.642500", "113817.102500", "113817.562500", "113818.022500", "113818.482500", "113818.942500", "113819.402500", "113819.862500", "113820.322500", "113820.782500", "113821.242500", "113821.702500", "113822.162500", "113822.622500", "113823.082500", "113823.542500", "113824.002500", "113824.462500", "113824.922500", "113825.382500", "113825.842500", "113826.302500", "113826.762500", "113827.222500", "113827.682500", "113828.142500", "113828.602500", "113829.062500", "113829.522500", "113829.982500", "113830.442500", "113830.902500", "113831.362500", "113831.822500", "113832.282500", "113832.742500", "113833.202500", "113833.662500", "113834.122500", "113834.582500", "113835.042500", "113835.502500", "113835.962500", "113836.422500", "113836.882500", "113837.342500", "113837.802500", "113838.262500", "113838.722500", "113839.182500", "113839.642500", "113840.102500", "113840.562500", "113841.022500", "113841.482500", "113841.942500", "113842.402500", "113842.862500", "113843.322500", "113843.782500", "113844.242500", "113844.702500", "113845.162500", "113845.622500", "113846.082500", "113846.542500", "113847.002500", "113847.462500", "113847.922500", "113848.382500", "113848.842500", "113849.302500", "113849.762500", "113850.222500", "113850.682500", "113851.142500", "113851.602500", "113852.062500", "113852.522500", "113852.982500", "113853.442500", "113853.902500", "113854.362500", "113854.822500", "113855.282500", "113855.742500", "113856.202500", "113856.662500", "113857.122500", "113857.582500", "113858.042500", "113858.502500", "113858.962500", "113859.422500", "113859.882500", "113900.342500", "113900.802500", "113901.262500", "113901.722500", "113902.182500", "113902.642500", "113903.102500", "113903.562500", "113904.022500", "113904.482500", "113904.942500", "113905.402500", "113905.862500", "113906.322500", "113906.782500", "113907.242500", "113907.702500", "113908.162500", "113908.622500", "113909.082500", "113909.542500", "113910.002500", "113910.462500", "113910.922500", "113911.382500", "113911.842500", "113912.302500", "113912.762500", "113913.222500", "113913.682500", "113914.142500", "113914.602500", "113915.062500", "113915.522500", "113915.982500", "113916.442500", "113916.902500", "113917.362500", "113917.822500", "113918.282500", "113918.742500", "113919.202500", "113919.662500", "113920.122500", "113920.582500", "113921.042500", "113921.502500", "113921.962500", "113922.422500", "113922.882500", "113923.342500", "113923.802500", "113924.262500", "113924.722500", "113925.182500", "113925.642500", "113926.102500", "113926.562500", "113927.022500", "113927.482500", "113927.942500", "113928.402500", "113928.862500", "113929.322500", "113929.782500", "113930.242500", "113930.702500", "113931.162500", "113931.622500", "113932.082500", "113932.542500", "113933.002500", "113933.462500", "113933.922500", "113934.382500", "113934.842500", "113935.302500", "113935.762500", "113936.222500", "113936.682500", "113937.142500", "113937.602500", "113938.062500", "113938.522500", "113938.982500", "113939.442500", "113939.902500", "113940.362500", "113940.822500", "113941.282500", "113941.742500", "113942.202500", "113942.662500", "113943.122500", "113943.582500", "113944.042500", "113944.502500", "113944.962500", "113945.422500", "113945.882500", "113946.342500", "113946.802500", "113947.262500", "113947.722500", "113948.182500", "113948.642500", "113949.102500", "113949.562500", "113950.022500", "113950.482500", "113950.942500", "113951.402500", "113951.862500", "113952.322500", "113952.782500", "113953.242500", "113953.702500", "113954.162500", "113954.622500", "113955.082500", "113955.542500", "113956.002500", "113956.462500", "113956.922500", "113957.382500", "113957.842500", "113958.302500", "113958.762500", "113959.222500", "113959.682500", "114000.142500", "114000.602500", "114001.062500", "114001.522500", "114001.982500", "114002.442500", "114002.902500", "114003.362500", "114003.822500", "114004.282500", "114004.742500", "114005.202500", "114005.662500", "114006.122500", "114006.582500", "114007.042500", "114007.502500", "114007.962500", "114008.422500", "114008.882500", "114009.342500", "114009.802500", "114010.262500", "114010.722500", "114011.182500", "114011.642500", "114012.102500", "114012.562500", "114013.022500", "114013.482500", "114013.942500", "114014.402500", "114014.862500", "114015.322500", "114015.782500", "114016.242500", "114016.702500", "114017.162500", "114017.622500", "114018.082500", "114018.542500", "114019.002500", "114019.462500", "114019.922500", "114020.382500", "114020.842500", "114021.302500", "114021.762500", "114022.222500", "114022.682500", "114023.142500", "114023.602500", "114024.062500", "114024.522500", "114024.982500", "114025.442500", "114025.902500", "114026.362500", "114026.822500", "114027.282500", "114027.742500", "114028.202500", "114028.662500", "114029.122500", "114029.582500", "114030.042500", "114030.502500", "114030.962500", "114031.422500", "114031.882500", "114032.342500", "114032.802500", "114033.262500", "114033.722500", "114034.182500", "114034.642500", "114035.102500", "114035.562500", "114036.022500", "114036.482500", "114036.942500", "114037.402500", "114037.862500", "114038.322500", "114038.782500", "114039.242500", "114039.702500", "114040.162500", "114040.622500", "114041.082500", "114041.542500", "114042.002500", "114042.462500", "114042.922500", "114043.382500", "114043.842500", "114044.302500", "114044.762500", "114045.222500", "114045.682500", "114046.142500", "114046.602500", "114047.062500", "114047.522500", "114047.982500", "114048.442500", "114048.902500", "114049.362500", "114049.822500", "114050.282500", "114050.742500", "114051.202500", "114051.662500", "114052.122500", "114052.582500", "114053.042500", "114053.502500", "114053.962500", "114054.422500", "114054.882500", "114055.342500", "114055.802500", "114056.262500", "114056.722500", "114057.182500", "114057.642500", "114058.102500", "114058.562500", "114059.022500", "114059.482500", "114059.942500", "114100.402500", "114100.862500", "114101.322500", "114101.782500", "114102.242500", "114102.702500", "114103.162500", "114103.622500", "114104.082500", "114104.542500", "114105.002500", "114105.462500", "114105.922500", "114106.382500", "114106.842500", "114107.302500", "114107.762500", "114108.222500", "114108.682500", "114109.142500", "114109.602500", "114110.062500", "114110.522500", "114110.982500", "114111.442500", "114111.902500", "114112.362500", "114112.822500", "114113.282500", "114113.742500", "114114.202500", "114114.662500", "114115.122500", "114115.582500", "114116.042500", "114116.502500", "114116.962500", "114117.422500", "114117.882500", "114118.342500", "114118.802500", "114119.262500", "114119.722500", "114120.182500", "114120.642500", "114121.102500", "114121.562500", "114122.022500", "114122.482500", "114122.942500", "114123.402500", "114123.862500", "114124.322500", "114124.782500", "114125.242500", "114125.702500", "114126.162500", "114126.622500", "114127.082500", "114127.542500", "114128.002500", "114128.462500", "114128.922500", "114129.382500", "114129.842500", "114130.302500", "114130.762500", "114131.222500", "114131.682500", "114132.142500", "114132.602500", "114133.062500", "114133.522500", "114133.982500", "114134.442500", "114134.902500", "114135.362500", "114135.822500", "114136.282500", "114136.742500", "114137.202500", "114137.662500", "114138.122500", "114138.582500", "114139.042500", "114139.502500", "114139.962500", "114140.422500", "114140.882500", "114141.342500", "114141.802500", "114142.262500", "114142.722500", "114143.182500", "114143.642500", "114144.102500", "114144.562500", "114145.022500", "114145.482500", "114145.942500", "114146.402500", "114146.862500", "114147.322500", "114147.782500", "114148.242500", "114148.702500", "114149.162500", "114149.622500", "114150.082500", "114150.542500", "114151.002500", "114151.462500", "114151.922500", "114152.382500", "114152.842500", "114153.302500", "114153.762500", "114154.222500", "114154.682500", "114155.142500", "114155.602500", "114156.062500", "114156.522500", "114156.982500", "114157.442500", "114157.902500", "114158.362500", "114158.822500", "114159.282500", "114159.742500", "114200.202500", "114200.662500", "114201.122500", "114201.582500", "114202.042500", "114202.502500", "114202.962500", "114203.422500", "114203.882500", "114204.342500", "114204.802500", "114205.262500", "114205.722500", "114206.182500", "114206.642500", "114207.102500", "114207.562500", "114208.022500", "114208.482500", "114208.942500", "114209.402500", "114209.862500", "114210.322500", "114210.782500", "114211.242500", "114211.702500", "114212.162500", "114212.622500", "114213.082500", "114213.542500", "114214.002500", "114214.462500", "114214.922500", "114215.382500", "114215.842500", "114216.302500", "114216.762500", "114217.222500", "114217.682500", "114218.142500", "114218.602500", "114219.062500", "114219.522500", "114219.982500", "114220.442500", "114220.902500", "114221.362500", "114221.822500", "114222.282500", "114222.742500", "114223.202500", "114223.662500", "114224.122500", "114224.582500", "114225.042500", "114225.502500", "114225.962500", "114226.422500", "114226.882500", "114227.342500", "114227.802500", "114228.262500", "114228.722500", "114229.182500", "114229.642500", "114230.102500", "114230.562500", "114231.022500", "114231.482500", "114231.942500", "114232.402500", "114232.862500", "114233.322500", "114233.782500", "114234.242500", "114234.702500", "114235.162500", "114235.622500", "114236.082500", "114236.542500", "114237.002500", "114237.462500", "114237.922500", "114238.382500", "114238.842500", "114239.302500", "114239.762500", "114240.222500", "114240.682500", "114241.142500", "114241.602500", "114242.062500", "114242.522500", "114242.982500", "114243.442500", "114243.902500", "114244.362500", "114244.822500", "114245.282500", "114245.742500", "114246.202500", "114246.662500", "114247.122500", "114247.582500", "114248.042500", "114248.502500", "114248.962500", "114249.422500", "114249.882500", "114250.342500", "114250.802500", "114251.262500", "114251.722500", "114252.182500", "114252.642500", "114253.102500", "114253.562500", "114254.022500", "114254.482500", "114254.942500", "114255.402500", "114255.862500", "114256.322500", "114256.782500", "114257.242500", "114257.702500", "114258.162500", "114258.622500", "114259.082500", "114259.542500", "114300.002500", "114300.462500", "114300.922500", "114301.382500", "114301.842500", "114302.302500", "114302.762500", "114303.222500", "114303.682500", "114304.142500", "114304.602500", "114305.062500", "114305.522500", "114305.982500", "114306.442500", "114306.902500", "114307.362500", "114307.822500", "114308.282500", "114308.742500", "114309.202500", "114309.662500", "114310.122500", "114310.582500", "114311.042500", "114311.502500", "114311.962500", "114312.422500", "114312.882500", "114313.342500", "114313.802500", "114314.262500", "114314.722500", "114315.182500", "114315.642500", "114316.102500", "114316.562500", "114317.022500", "114317.482500", "114317.942500", "114318.402500", "114318.862500", "114319.322500", "114319.782500", "114320.242500", "114320.702500", "114321.162500", "114321.622500", "114322.082500", "114322.542500", "114323.002500", "114323.462500", "114323.922500", "114324.382500", "114324.842500", "114325.302500", "114325.762500", "114326.222500", "114326.682500", "114327.142500", "114327.602500", "114328.062500", "114328.522500", "114328.982500", "114329.442500", "114329.902500", "114330.362500", "114330.822500", "114331.282500", "114331.742500", "114332.202500", "114332.662500", "114333.122500", "114333.582500", "114334.042500", "114334.502500", "114334.962500", "114335.422500", "114335.882500", "114336.342500", "114336.802500", "114337.262500", "114337.722500", "114338.182500", "114338.642500", "114339.102500", "114339.562500", "114340.022500", "114340.482500", "114340.942500", "114341.402500", "114341.862500", "114342.322500", "114342.782500", "114343.242500", "114343.702500", "114344.162500", "114344.622500", "114345.082500", "114345.542500", "114346.002500", "114346.462500", "114346.922500", "114347.382500", "114347.842500", "114348.302500", "114348.762500", "114349.222500", "114349.682500", "114350.142500", "114350.602500", "114351.062500", "114351.522500", "114351.982500", "114352.442500", "114352.902500", "114353.362500", "114353.822500", "114354.282500", "114354.742500", "114355.202500", "114355.662500", "114356.122500", "114356.582500", "114357.042500", "114357.502500", "114357.962500", "114358.422500", "114358.882500", "114359.342500", "114359.802500", "114400.262500", "114400.722500", "114401.182500", "114401.642500", "114402.102500", "114402.562500", "114403.022500", "114403.482500"],
