{
  "AcquisitionMatrixPE": 82,
  "AcquisitionNumber": 1,
  "AcquisitionTime": "11:21:26.087500",
  "BandwidthPerPixelPhaseEncode": 24.888,
  "BaseResolution": 82,
  "BodyPartExamined": "BRAIN",
  "ConsistencyInfo": "N4_VE11E_LATEST_20181129",
  "ConversionSoftware": "dcm2niix",
  "ConversionSoftwareVersion": "v1.0.20201102",
  "DerivedVendorReportedEchoSpacing": 0.00049,
  "DeviceSerialNumber": "66112",
  "DwellTime": 2e-06,
  "EchoTime": 0.0272,
  "EchoTrainLength": 82,
  "EffectiveEchoSpacing": 0.00049,
  "FlipAngle": 44,
  "ImageComments": "Unaliased MB8/PE3",
  "ImageOrientationPatientDICOM": [0.999072, -0.0239215, 0.0358115, 0.0205787, 0.995641, 0.0909652],
  "ImageType": [
    "ORIGINAL",
    "PRIMARY",
    "M",
    "MB",
    "ND",
    "NORM",
    "MOSAIC"
],
  "ImagingFrequency": 123.252,
  "InPlanePhaseEncodingDirectionDICOM": "COL",
  "InstitutionAddress": "Maynard 3,Hanover,NH,US,03755",
  "InstitutionName": "Dartmouth College - PBS",
  "InstitutionalDepartmentName": "Department",
  "MRAcquisitionType": "2D",
  "MagneticFieldStrength": 3,
  "Manufacturer": "Siemens",
  "ManufacturersModelName": "Prisma",
  "Modality": "MR",
  "MultibandAccelerationFactor": 8,
  "PartialFourier": 1,
  "PatientPosition": "HFS",
  "PercentPhaseFOV": 100,
  "PercentSampling": 100,
  "PhaseEncodingDirection": "j-",
  "PhaseEncodingSteps": 82,
  "PhaseResolution": 1,
  "PixelBandwidth": 3050,
  "ProcedureStepDescription": "Wager_Wager^1076_spacetop",
  "ProtocolName": "func_run-04_task-social_acq-ap-mb8",
  "PulseSequenceDetails": "%CustomerSeq%\\cmrr_mbep2d_bold",
  "ReceiveCoilActiveElements": "HEA;HEP",
  "ReceiveCoilName": "Head_32",
  "ReconMatrixPE": 82,
  "RepetitionTime": 0.46,
  "SAR": 0.0969932,
  "ScanOptions": "FS",
  "ScanningSequence": "EP",
  "SequenceName": "epfid2d1_82",
  "SequenceVariant": "SK\\SS",
  "SeriesDescription": "func_run-04_task-social_acq-ap-mb8",
  "SeriesNumber": 18,
  "ShimSetting": [4155, -7760, -7264, 540, -88, -250, -23, 15],
  "SliceThickness": 2.7,
  "SliceTiming": [0, 0.2525, 0.0625, 0.315, 0.125, 0.3775, 0.1875, 0, 0.2525, 0.0625, 0.315, 0.125, 0.3775, 0.1875, 0, 0.2525, 0.0625, 0.315, 0.125, 0.3775, 0.1875, 0, 0.2525, 0.0625, 0.315, 0.125, 0.3775, 0.1875, 0, 0.2525, 0.0625, 0.315, 0.125, 0.3775, 0.1875, 0, 0.2525, 0.0625, 0.315, 0.125, 0.3775, 0.1875, 0, 0.2525, 0.0625, 0.315, 0.125, 0.3775, 0.1875, 0, 0.2525, 0.0625, 0.315, 0.125, 0.3775, 0.1875],
  "SoftwareVersions": "syngo MR E11",
  "SpacingBetweenSlices": 2.7,
  "StationName": "AWP66112",
  "TaskName": "social",
  "TotalReadoutTime": 0.03969,
  "TxRefAmp": 246.974,
  "WipMemBlock": "284c73bf-22a5-44fd-822a-440bcf6c598b||Sequence: R016 ve11e/master r/434b28f1; Aug  7 2019 18:53:46 by eja",
  "dcmmeta_affine": [
    [-2.6804378032684326, 0.05521111935377121, 0.1021447703242302, 105.10557556152344],
    [0.06417951732873917, 2.6712331771850586, 0.2433883100748062, -102.5382080078125],
    [0.09607954323291779, -0.24405288696289062, 2.6870670318603516, -66.02936553955078],
    [0.0, 0.0, 0.0, 1.0]
],
  "dcmmeta_reorient_transform": [
    [0.0, -1.0, 0.0, 81.0],
    [1.0, 0.0, 0.0, 0.0],
    [0.0, 0.0, 1.0, 0.0],
    [0.0, 0.0, 0.0, 1.0]
],
  "dcmmeta_shape": [82, 82, 56, 872],
  "dcmmeta_slice_dim": 2,
  "dcmmeta_version": 0.6,
  "global": {
    "const": {
      "AccessionNumber": "A003885",
      "AcquisitionMatrix": [82, 0, 0, 82],
      "AngioFlag": "N",
      "BitsAllocated": 16,
      "BitsStored": 16,
      "BodyPartExamined": "BRAIN",
      "Columns": 656,
      "EchoNumbers": 1,
      "EchoTime": 27.2,
      "EchoTrainLength": 82,
      "FlipAngle": 44.0,
      "HighBit": 15,
      "ImageOrientationPatient": [0.99907222111114, -0.0239214557961, 0.03581146403936, 0.0205786891011, 0.99564142938653, 0.09096516720164],
      "ImagePositionPatient": [-894.70889212592, -862.05607246596, -183.4156567799],
      "ImageType": [
        "ORIGINAL",
        "PRIMARY",
        "M",
        "MB",
        "ND",
        "NORM",
        "MOSAIC"
],
      "ImagedNucleus": "1H",
      "ImagingFrequency": 123.252173,
      "InPlanePhaseEncodingDirection": "COL",
      "MRAcquisitionType": "2D",
      "MagneticFieldStrength": 3.0,
      "Manufacturer": "SIEMENS",
      "ManufacturerModelName": "Prisma",
      "Modality": "MR",
      "NumberOfAverages": 1.0,
      "NumberOfPhaseEncodingSteps": 82,
      "PercentPhaseFieldOfView": 100.0,
      "PercentSampling": 100.0,
      "PerformedProcedureStepStartTime": "102705.344000",
      "PhotometricInterpretation": "MONOCHROME2",
      "PixelBandwidth": 3050.0,
      "PixelRepresentation": 0,
      "PixelSpacing": [2.6829268932343, 2.6829268932343],
      "ProtocolName": "func_run-04_task-social_acq-ap-mb8",
      "RepetitionTime": 460.0,
      "Rows": 656,
      "SAR": 0.09699323825838,
      "SamplesPerPixel": 1,
      "ScanOptions": "FS",
      "ScanningSequence": "EP",
      "SequenceName": "epfid2d1_82",
      "SequenceVariant": [
        "SK",
        "SS"
],
      "SeriesDescription": "func_run-04_task-social_acq-ap-mb8",
      "SeriesNumber": 18,
      "SeriesTime": "112133.531000",
      "SliceLocation": -70.979976546598,
      "SliceThickness": 2.7000000476837,
      "SmallestImagePixelValue": 0,
      "SoftwareVersions": "syngo MR E11",
      "SpacingBetweenSlices": 2.7000000185928,
      "SpecificCharacterSet": "ISO_IR 100",
      "StudyID": "1",
      "StudyTime": "102705.293000",
      "TransmitCoilName": "Body",
      "VariableFlipAngleFlag": "N",
      "WindowCenterWidthExplanation": "Algo1"
    },
    "slices": {}
  },
  "time": {
    "samples": {
      "AcquisitionNumber": [1, 2, 3, 4, 5, 6, 7, 8, 9, 10, 11, 12, 13, 14, 15, 16, 17, 18, 19, 20, 21, 22, 23, 24, 25, 26, 27, 28, 29, 30, 31, 32, 33, 34, 35, 36, 37, 38, 39, 40, 41, 42, 43, 44, 45, 46, 47, 48, 49, 50, 51, 52, 53, 54, 55, 56, 57, 58, 59, 60, 61, 62, 63, 64, 65, 66, 67, 68, 69, 70, 71, 72, 73, 74, 75, 76, 77, 78, 79, 80, 81, 82, 83, 84, 85, 86, 87, 88, 89, 90, 91, 92, 93, 94, 95, 96, 97, 98, 99, 100, 101, 102, 103, 104, 105, 106, 107, 108, 109, 110, 111, 112, 113, 114, 115, 116, 117, 118, 119, 120, 121, 122, 123, 124, 125, 126, 127, 128, 129, 130, 131, 132, 133, 134, 135, 136, 137, 138, 139, 140, 141, 142, 143, 144, 145, 146, 147, 148, 149, 150, 151, 152, 153, 154, 155, 156, 157, 158, 159, 160, 161, 162, 163, 164, 165, 166, 167, 168, 169, 170, 171, 172, 173, 174, 175, 176, 177, 178, 179, 180, 181, 182, 183, 184, 185, 186, 187, 188, 189, 190, 191, 192, 193, 194, 195, 196, 197, 198, 199, 200, 201, 202, 203, 204, 205, 206, 207, 208, 209, 210, 211, 212, 213, 214, 215, 216, 217, 218, 219, 220, 221, 222, 223, 224, 225, 226, 227, 228, 229, 230, 231, 232, 233, 234, 235, 236, 237, 238, 239, 240, 241, 242, 243, 244, 245, 246, 247, 248, 249, 250, 251, 252, 253, 254, 255, 256, 257, 258, 259, 260, 261, 262, 263, 264, 265, 266, 267, 268, 269, 270, 271, 272, 273, 274, 275, 276, 277, 278, 279, 280, 281, 282, 283, 284, 285, 286, 287, 288, 289, 290, 291, 292, 293, 294, 295, 296, 297, 298, 299, 300, 301, 302, 303, 304, 305, 306, 307, 308, 309, 310, 311, 312, 313, 314, 315, 316, 317, 318, 319, 320, 321, 322, 323, 324, 325, 326, 327, 328, 329, 330, 331, 332, 333, 334, 335, 336, 337, 338, 339, 340, 341, 342, 343, 344, 345, 346, 347, 348, 349, 350, 351, 352, 353, 354, 355, 356, 357, 358, 359, 360, 361, 362, 363, 364, 365, 366, 367, 368, 369, 370, 371, 372, 373, 374, 375, 376, 377, 378, 379, 380, 381, 382, 383, 384, 385, 386, 387, 388, 389, 390, 391, 392, 393, 394, 395, 396, 397, 398, 399, 400, 401, 402, 403, 404, 405, 406, 407, 408, 409, 410, 411, 412, 413, 414, 415, 416, 417, 418, 419, 420, 421, 422, 423, 424, 425, 426, 427, 428, 429, 430, 431, 432, 433, 434, 435, 436, 437, 438, 439, 440, 441, 442, 443, 444, 445, 446, 447, 448, 449, 450, 451, 452, 453, 454, 455, 456, 457, 458, 459, 460, 461, 462, 463, 464, 465, 466, 467, 468, 469, 470, 471, 472, 473, 474, 475, 476, 477, 478, 479, 480, 481, 482, 483, 484, 485, 486, 487, 488, 489, 490, 491, 492, 493, 494, 495, 496, 497, 498, 499, 500, 501, 502, 503, 504, 505, 506, 507, 508, 509, 510, 511, 512, 513, 514, 515, 516, 517, 518, 519, 520, 521, 522, 523, 524, 525, 526, 527, 528, 529, 530, 531, 532, 533, 534, 535, 536, 537, 538, 539, 540, 541, 542, 543, 544, 545, 546, 547, 548, 549, 550, 551, 552, 553, 554, 555, 556, 557, 558, 559, 560, 561, 562, 563, 564, 565, 566, 567, 568, 569, 570, 571, 572, 573, 574, 575, 576, 577, 578, 579, 580, 581, 582, 583, 584, 585, 586, 587, 588, 589, 590, 591, 592, 593, 594, 595, 596, 597, 598, 599, 600, 601, 602, 603, 604, 605, 606, 607, 608, 609, 610, 611, 612, 613, 614, 615, 616, 617, 618, 619, 620, 621, 622, 623, 624, 625, 626, 627, 628, 629, 630, 631, 632, 633, 634, 635, 636, 637, 638, 639, 640, 641, 642, 643, 644, 645, 646, 647, 648, 649, 650, 651, 652, 653, 654, 655, 656, 657, 658, 659, 660, 661, 662, 663, 664, 665, 666, 667, 668, 669, 670, 671, 672, 673, 674, 675, 676, 677, 678, 679, 680, 681, 682, 683, 684, 685, 686, 687, 688, 689, 690, 691, 692, 693, 694, 695, 696, 697, 698, 699, 700, 701, 702, 703, 704, 705, 706, 707, 708, 709, 710, 711, 712, 713, 714, 715, 716, 717, 718, 719, 720, 721, 722, 723, 724, 725, 726, 727, 728, 729, 730, 731, 732, 733, 734, 735, 736, 737, 738, 739, 740, 741, 742, 743, 744, 745, 746, 747, 748, 749, 750, 751, 752, 753, 754, 755, 756, 757, 758, 759, 760, 761, 762, 763, 764, 765, 766, 767, 768, 769, 770, 771, 772, 773, 774, 775, 776, 777, 778, 779, 780, 781, 782, 783, 784, 785, 786, 787, 788, 789, 790, 791, 792, 793, 794, 795, 796, 797, 798, 799, 800, 801, 802, 803, 804, 805, 806, 807, 808, 809, 810, 811, 812, 813, 814, 815, 816, 817, 818, 819, 820, 821, 822, 823, 824, 825, 826, 827, 828, 829, 830, 831, 832, 833, 834, 835, 836, 837, 838, 839, 840, 841, 842, 843, 844, 845, 846, 847, 848, 849, 850, 851, 852, 853, 854, 855, 856, 857, 858, 859, 860, 861, 862, 863, 864, 865, 866, 867, 868, 869, 870, 871, 872],
      "AcquisitionTime": ["112126.087500", "112126.547500", "112127.007500", "112127.467500", "112127.927500", "112128.387500", "112128.847500", "112129.307500", "112129.767500", "112130.227500", "112130.687500", "112131.147500", "112131.607500", "112132.067500", "112132.527500", "112132.987500", "112133.447500", "112133.907500", "112134.367500", "112134.827500", "112135.287500", "112135.747500", "112136.207500", "112136.667500", "112137.127500", "112137.587500", "112138.047500", "112138.507500", "112138.967500", "112139.427500", "112139.887500", "112140.347500", "112140.807500", "112141.267500", "112141.727500", "112142.187500", "112142.647500", "112143.107500", "112143.567500", "112144.027500", "112144.487500", "112144.947500", "112145.407500", "112145.867500", "112146.327500", "112146.787500", "112147.247500", "112147.707500", "112148.167500", "112148.627500", "112149.087500", "112149.547500", "112150.007500", "112150.467500", "112150.927500", "112151.387500", "112151.847500", "112152.307500", "112152.767500", "112153.227500", "112153.687500", "112154.147500", "112154.607500", "112155.067500", "112155.527500", "112155.987500", "112156.447500", "112156.907500", "112157.367500", "112157.827500", "112158.287500", "112158.747500", "112159.207500", "112159.667500", "112200.127500", "112200.587500", "112201.047500", "112201.507500", "112201.967500", "112202.427500", "112202.887500", "112203.347500", "112203.807500", "112204.267500", "112204.727500", "112205.187500", "112205.647500", "112206.107500", "112206.567500", "112207.027500", "112207.487500", "112207.947500", "112208.407500", "112208.867500", "112209.327500", "112209.787500", "112210.247500", "112210.707500", "112211.167500", "112211.627500", "112212.087500", "112212.547500", "112213.007500", "112213.467500", "112213.927500", "112214.387500", "112214.847500", "112215.307500", "112215.767500", "112216.227500", "112216.687500", "112217.147500", "112217.607500", "112218.067500", "112218.527500", "112218.987500", "112219.447500", "112219.907500", "112220.367500", "112220.827500", "112221.287500", "112221.747500", "112222.207500", "112222.667500", "112223.127500", "112223.587500", "112224.047500", "112224.507500", "112224.967500", "112225.427500", "112225.887500", "112226.347500", "112226.807500", "112227.267500", "112227.727500", "112228.187500", "112228.647500", "112229.107500", "112229.567500", "112230.027500", "112230.487500", "112230.947500", "112231.407500", "112231.867500", "112232.327500", "112232.787500", "112233.247500", "112233.707500", "112234.167500", "112234.627500", "112235.087500", "112235.547500", "112236.007500", "112236.467500", "112236.927500", "112237.387500", "112237.847500", "112238.307500", "112238.767500", "112239.227500", "112239.687500", "112240.147500", "112240.607500", "112241.067500", "112241.527500", "112241.987500", "112242.447500", "112242.907500", "112243.367500", "112243.827500", "112244.287500", "112244.747500", "112245.207500", "112245.667500", "112246.127500", "112246.587500", "112247.047500", "112247.507500", "112247.967500", "112248.427500", "112248.887500", "112249.347500", "112249.807500", "112250.267500", "112250.727500", "112251.187500", "112251.647500", "112252.107500", "112252.567500", "112253.027500", "112253.487500", "112253.947500", "112254.407500", "112254.867500", "112255.327500", "112255.787500", "112256.247500", "112256.707500", "112257.167500", "112257.627500", "112258.087500", "112258.547500", "112259.007500", "112259.467500", "112259.927500", "112300.387500", "112300.847500", "112301.307500", "112301.767500", "112302.227500", "112302.687500", "112303.147500", "112303.607500", "112304.067500", "112304.527500", "112304.987500", "112305.447500", "112305.907500", "112306.367500", "112306.827500", "112307.287500", "112307.747500", "112308.207500", "112308.667500", "112309.127500", "112309.587500", "112310.047500", "112310.507500", "112310.967500", "112311.427500", "112311.887500", "112312.347500", "112312.807500", "112313.267500", "112313.727500", "112314.187500", "112314.647500", "112315.107500", "112315.567500", "112316.027500", "112316.487500", "112316.947500", "112317.407500", "112317.867500", "112318.327500", "112318.787500", "112319.247500", "112319.707500", "112320.167500", "112320.627500", "112321.087500", "112321.547500", "112322.007500", "112322.467500", "112322.927500", "112323.387500", "112323.847500", "112324.307500", "112324.767500", "112325.227500", "112325.687500", "112326.147500", "112326.607500", "112327.067500", "112327.527500", "112327.987500", "112328.447500", "112328.907500", "112329.367500", "112329.827500", "112330.287500", "112330.747500", "112331.207500", "112331.667500", "112332.127500", "112332.587500", "112333.047500", "112333.507500", "112333.967500", "112334.427500", "112334.887500", "112335.347500", "112335.807500", "112336.267500", "112336.727500", "112337.187500", "112337.647500", "112338.107500", "112338.567500", "112339.027500", "112339.487500", "112339.947500", "112340.407500", "112340.867500", "112341.327500", "112341.787500", "112342.247500", "112342.707500", "112343.167500", "112343.627500", "112344.087500", "112344.547500", "112345.007500", "112345.467500", "112345.927500", "112346.387500", "112346.847500", "112347.307500", "112347.767500", "112348.227500", "112348.687500", "112349.147500", "112349.607500", "112350.067500", "112350.527500", "112350.987500", "112351.447500", "112351.907500", "112352.367500", "112352.827500", "112353.287500", "112353.747500", "112354.207500", "112354.667500", "112355.127500", "112355.587500", "112356.047500", "112356.507500", "112356.967500", "112357.427500", "112357.887500", "112358.347500", "112358.807500", "112359.267500", "112359.727500", "112400.187500", "112400.647500", "112401.107500", "112401.567500", "112402.027500", "112402.487500", "112402.947500", "112403.407500", "112403.867500", "112404.327500", "112404.787500", "112405.247500", "112405.707500", "112406.167500", "112406.627500", "112407.087500", "112407.547500", "112408.007500", "112408.467500", "112408.927500", "112409.387500", "112409.847500", "112410.307500", "112410.767500", "112411.227500", "112411.687500", "112412.147500", "112412.607500", "112413.067500", "112413.527500", "112413.987500", "112414.447500", "112414.907500", "112415.367500", "112415.827500", "112416.287500", "112416.747500", "112417.207500", "112417.667500", "112418.127500", "112418.587500", "112419.047500", "112419.507500", "112419.967500", "112420.427500", "112420.887500", "112421.347500", "112421.807500", "112422.267500", "112422.727500", "112423.187500", "112423.647500", "112424.107500", "112424.567500", "112425.027500", "112425.487500", "112425.947500", "112426.407500", "112426.867500", "112427.327500", "112427.787500", "112428.247500", "112428.707500", "112429.167500", "112429.627500", "112430.087500", "112430.547500", "112431.007500", "112431.467500", "112431.927500", "112432.387500", "112432.847500", "112433.307500", "112433.767500", "112434.227500", "112434.687500", "112435.147500", "112435.607500", "112436.067500", "112436.527500", "112436.987500", "112437.447500", "112437.907500", "112438.367500", "112438.827500", "112439.287500", "112439.747500", "112440.207500", "112440.667500", "112441.127500", "112441.587500", "112442.047500", "112442.507500", "112442.967500", "112443.427500", "112443.887500", "112444.347500", "112444.807500", "112445.267500", "112445.727500", "112446.187500", "112446.647500", "112447.107500", "112447.567500", "112448.027500", "112448.487500", "112448.947500", "112449.407500", "112449.867500", "112450.327500", "112450.787500", "112451.247500", "112451.707500", "112452.167500", "112452.627500", "112453.087500", "112453.547500", "112454.007500", "112454.467500", "112454.927500", "112455.387500", "112455.847500", "112456.307500", "112456.767500", "112457.227500", "112457.687500", "112458.147500", "112458.607500", "112459.067500", "112459.527500", "112459.987500", "112500.447500", "112500.907500", "112501.367500", "112501.827500", "112502.287500", "112502.747500", "112503.207500", "112503.667500", "112504.127500", "112504.587500", "112505.047500", "112505.507500", "112505.967500", "112506.427500", "112506.887500", "112507.347500", "112507.807500", "112508.267500", "112508.727500", "112509.187500", "112509.647500", "112510.107500", "112510.567500", "112511.027500", "112511.487500", "112511.947500", "112512.407500", "112512.867500", "112513.327500", "112513.787500", "112514.247500", "112514.707500", "112515.167500", "112515.627500", "112516.087500", "112516.547500", "112517.007500", "112517.467500", "112517.927500", "112518.387500", "112518.847500", "112519.307500", "112519.767500", "112520.227500", "112520.687500", "112521.147500", "112521.607500", "112522.067500", "112522.527500", "112522.987500", "112523.447500", "112523.907500", "112524.367500", "112524.827500", "112525.287500", "112525.747500", "112526.207500", "112526.667500", "112527.127500", "112527.587500", "112528.047500", "112528.507500", "112528.967500", "112529.427500", "112529.887500", "112530.347500", "112530.807500", "112531.267500", "112531.727500", "112532.187500", "112532.647500", "112533.107500", "112533.567500", "112534.027500", "112534.487500", "112534.947500", "112535.407500", "112535.867500", "112536.327500", "112536.787500", "112537.247500", "112537.707500", "112538.167500", "112538.627500", "112539.087500", "112539.547500", "112540.007500", "112540.467500", "112540.927500", "112541.387500", "112541.847500", "112542.307500", "112542.767500", "112543.227500", "112543.687500", "112544.147500", "112544.607500", "112545.067500", "112545.527500", "112545.987500", "112546.447500", "112546.907500", "112547.367500", "112547.827500", "112548.287500", "112548.747500", "112549.207500", "112549.667500", "112550.127500", "112550.587500", "112551.047500", "112551.507500", "112551.967500", "112552.427500", "112552.887500", "112553.347500", "112553.807500", "112554.267500", "112554.727500", "112555.187500", "112555.647500", "112556.107500", "112556.567500", "112557.027500", "112557.487500", "112557.947500", "112558.407500", "112558.867500", "112559.327500", "112559.787500", "112600.247500", "112600.707500", "112601.167500", "112601.627500", "112602.087500", "112602.547500", "112603.007500", "112603.467500", "112603.927500", "112604.387500", "112604.847500", "112605.307500", "112605.767500", "112606.227500", "112606.687500", "112607.147500", "112607.607500", "112608.067500", "112608.527500", "112608.987500", "112609.447500", "112609.907500", "112610.367500", "112610.827500", "112611.287500", "112611.747500", "112612.207500", "112612.667500", "112613.127500", "112613.587500", "112614.047500", "112614.507500", "112614.967500", "112615.427500", "112615.887500", "112616.347500", "112616.807500", "112617.267500", "112617.727500", "112618.187500", "112618.647500", "112619.107500", "112619.567500", "112620.027500", "112620.487500", "112620.947500", "112621.407500", "112621.867500", "112622.327500", "112622.787500", "112623.247500", "112623.707500", "112624.167500", "112624.627500", "112625.087500", "112625.547500", "112626.007500", "112626.467500", "112626.927500", "112627.387500", "112627.847500", "112628.307500", "112628.767500", "112629.227500", "112629.687500", "112630.147500", "112630.607500", "112631.067500", "112631.527500", "112631.987500", "112632.447500", "112632.907500", "112633.367500", "112633.827500", "112634.287500", "112634.747500", "112635.207500", "112635.667500", "112636.127500", "112636.587500", "112637.047500", "112637.507500", "112637.967500", "112638.427500", "112638.887500", "112639.347500", "112639.807500", "112640.267500", "112640.727500", "112641.187500", "112641.647500", "112642.107500", "112642.567500", "112643.027500", "112643.487500", "112643.947500", "112644.407500", "112644.867500", "112645.327500", "112645.787500", "112646.247500", "112646.707500", "112647.167500", "112647.627500", "112648.087500", "112648.547500", "112649.007500", "112649.467500", "112649.927500", "112650.387500", "112650.847500", "112651.307500", "112651.767500", "112652.227500", "112652.687500", "112653.147500", "112653.607500", "112654.067500", "112654.527500", "112654.987500", "112655.447500", "112655.907500", "112656.367500", "112656.827500", "112657.287500", "112657.747500", "112658.207500", "112658.667500", "112659.127500", "112659.587500", "112700.047500", "112700.507500", "112700.967500", "112701.427500", "112701.887500", "112702.347500", "112702.807500", "112703.267500", "112703.727500", "112704.187500", "112704.647500", "112705.107500", "112705.567500", "112706.027500", "112706.487500", "112706.947500", "112707.407500", "112707.867500", "112708.327500", "112708.787500", "112709.247500", "112709.707500", "112710.167500", "112710.627500", "112711.087500", "112711.547500", "112712.007500", "112712.467500", "112712.927500", "112713.387500", "112713.847500", "112714.307500", "112714.767500", "112715.227500", "112715.687500", "112716.147500", "112716.607500", "112717.067500", "112717.527500", "112717.987500", "112718.447500", "112718.907500", "112719.367500", "112719.827500", "112720.287500", "112720.747500", "112721.207500", "112721.667500", "112722.127500", "112722.587500", "112723.047500", "112723.507500", "112723.967500", "112724.427500", "112724.887500", "112725.347500", "112725.807500", "112726.267500", "112726.727500", "112727.187500", "112727.647500", "112728.107500", "112728.567500", "112729.027500", "112729.487500", "112729.947500", "112730.407500", "112730.867500", "112731.327500", "112731.787500", "112732.247500", "112732.707500", "112733.167500", "112733.627500", "112734.087500", "112734.547500", "112735.007500", "112735.467500", "112735.927500", "112736.387500", "112736.847500", "112737.307500", "112737.767500", "112738.227500", "112738.687500", "112739.147500", "112739.607500", "112740.067500", "112740.527500", "112740.987500", "112741.447500", "112741.907500", "112742.367500", "112742.827500", "112743.287500", "112743.747500", "112744.207500", "112744.667500", "112745.127500", "112745.587500", "112746.047500", "112746.507500", "112746.967500", "112747.427500", "112747.887500", "112748.347500", "112748.807500", "112749.267500", "112749.727500", "112750.187500", "112750.647500", "112751.107500", "112751.567500", "112752.027500", "112752.487500", "112752.947500", "112753.407500", "112753.867500", "112754.327500", "112754.787500", "112755.247500", "112755.707500", "112756.167500", "112756.627500", "112757.087500", "112757.547500", "112758.007500", "112758.467500", "112758.927500", "112759.387500", "112759.847500", "112800.307500", "112800.767500", "112801.227500", "112801.687500", "112802.147500", "112802.607500", "112803.067500", "112803.527500", "112803.987500", "112804.447500", "112804.907500", "112805.367500", "112805.827500", "112806.287500", "112806.747500"],
