{
  "AcquisitionMatrixPE": 82,
  "AcquisitionNumber": 1,
  "AcquisitionTime": "19:10:8.615000",
  "BandwidthPerPixelPhaseEncode": 24.888,
  "BaseResolution": 82,
  "BodyPartExamined": "BRAIN",
  "ConsistencyInfo": "N4_VE11E_LATEST_20181129",
  "ConversionSoftware": "dcm2niix",
  "ConversionSoftwareVersion": "v1.0.20201102",
  "DerivedVendorReportedEchoSpacing": 0.00049,
  "DeviceSerialNumber": "66112",
  "DwellTime": 2e-06,
  "EchoTime": 0.0272,
  "EchoTrainLength": 82,
  "EffectiveEchoSpacing": 0.00049,
  "FlipAngle": 44,
  "ImageComments": "Unaliased MB8/PE3",
  "ImageOrientationPatientDICOM": [0.999882, 0.010981, 0.0107479, -0.00994759, 0.99572, -0.091888],
  "ImageType": [
    "ORIGINAL",
    "PRIMARY",
    "M",
    "MB",
    "ND",
    "NORM",
    "MOSAIC"
],
  "ImagingFrequency": 123.259,
  "InPlanePhaseEncodingDirectionDICOM": "COL",
  "InstitutionAddress": "Maynard 3,Hanover,NH,US,03755",
  "InstitutionName": "Dartmouth College - PBS",
  "InstitutionalDepartmentName": "Department",
  "MRAcquisitionType": "2D",
  "MagneticFieldStrength": 3,
  "Manufacturer": "Siemens",
  "ManufacturersModelName": "Prisma",
  "Modality": "MR",
  "MultibandAccelerationFactor": 8,
  "PartialFourier": 1,
  "PatientPosition": "HFS",
  "PercentPhaseFOV": 100,
  "PercentSampling": 100,
  "PhaseEncodingDirection": "j-",
  "PhaseEncodingSteps": 82,
  "PhaseResolution": 1,
  "PixelBandwidth": 3050,
  "ProcedureStepDescription": "Wager_Wager^1076_spacetop",
  "ProtocolName": "func_run-02_task-social_acq-ap-mb8",
  "PulseSequenceDetails": "%CustomerSeq%\\cmrr_mbep2d_bold",
  "ReceiveCoilActiveElements": "HEA;HEP",
  "ReceiveCoilName": "Head_32",
  "ReconMatrixPE": 82,
  "RepetitionTime": 0.46,
  "SAR": 0.112119,
  "ScanOptions": "FS",
  "ScanningSequence": "EP",
  "SequenceName": "epfid2d1_82",
  "SequenceVariant": "SK\\SS",
  "SeriesDescription": "func_run-02_task-social_acq-ap-mb8",
  "SeriesNumber": 14,
  "ShimSetting": [4219, -7746, -7286, 185, -165, -137, -46, 58],
  "SliceThickness": 2.7,
  "SliceTiming": [0, 0.25, 0.0625, 0.3125, 0.125, 0.375, 0.1875, 0, 0.25, 0.0625, 0.3125, 0.125, 0.375, 0.1875, 0, 0.25, 0.0625, 0.3125, 0.125, 0.375, 0.1875, 0, 0.25, 0.0625, 0.3125, 0.125, 0.375, 0.1875, 0, 0.25, 0.0625, 0.3125, 0.125, 0.375, 0.1875, 0, 0.25, 0.0625, 0.3125, 0.125, 0.375, 0.1875, 0, 0.25, 0.0625, 0.3125, 0.125, 0.375, 0.1875, 0, 0.25, 0.0625, 0.3125, 0.125, 0.375, 0.1875],
  "SoftwareVersions": "syngo MR E11",
  "SpacingBetweenSlices": 2.7,
  "StationName": "AWP66112",
  "TaskName": "social",
  "TotalReadoutTime": 0.03969,
  "TxRefAmp": 274.565,
  "WipMemBlock": "234e9da4-d5e4-4618-a9a9-97b29d5f2a75||Sequence: R016 ve11e/master r/434b28f1; Aug  7 2019 18:53:46 by eja",
  "dcmmeta_affine": [
    [-2.682610273361206, -0.026688650250434875, 0.031619396060705185, 113.3382797241211],
    [-0.029461262747645378, 2.671442985534668, -0.24777965247631073, -90.05152893066406],
    [0.02883574552834034, 0.24652880430221558, 2.688420534133911, -93.166015625],
    [0.0, 0.0, 0.0, 1.0]
],
  "dcmmeta_reorient_transform": [
    [0.0, -1.0, 0.0, 81.0],
    [1.0, 0.0, 0.0, 0.0],
    [0.0, 0.0, 1.0, 0.0],
    [0.0, 0.0, 0.0, 1.0]
],
  "dcmmeta_shape": [82, 82, 56, 872],
  "dcmmeta_slice_dim": 2,
  "dcmmeta_version": 0.6,
  "global": {
    "const": {
      "AccessionNumber": "A004513",
      "AcquisitionMatrix": [82, 0, 0, 82],
      "AngioFlag": "N",
      "BitsAllocated": 16,
      "BitsStored": 16,
      "BodyPartExamined": "BRAIN",
      "Columns": 656,
      "EchoNumbers": 1,
      "EchoTime": 27.2,
      "EchoTrainLength": 82,
      "FlipAngle": 44.0,
      "HighBit": 15,
      "ImageOrientationPatient": [0.99988194333277, 0.010981016199, 0.01074786864121, -0.0099475878423, 0.99571965905723, -0.0918880082659],
      "ImagePositionPatient": [-873.4259717104, -901.49489816093, -10.719272168615],
      "ImageType": [
        "ORIGINAL",
        "PRIMARY",
        "M",
        "MB",
        "ND",
        "NORM",
        "MOSAIC"
],
      "ImagedNucleus": "1H",
      "ImagingFrequency": 123.259086,
      "InPlanePhaseEncodingDirection": "COL",
      "MRAcquisitionType": "2D",
      "MagneticFieldStrength": 3.0,
      "Manufacturer": "SIEMENS",
      "ManufacturerModelName": "Prisma",
      "Modality": "MR",
      "NumberOfAverages": 1.0,
      "NumberOfPhaseEncodingSteps": 82,
      "PercentPhaseFieldOfView": 100.0,
      "PercentSampling": 100.0,
      "PerformedProcedureStepStartTime": "182726.033000",
      "PhotometricInterpretation": "MONOCHROME2",
      "PixelBandwidth": 3050.0,
      "PixelRepresentation": 0,
      "PixelSpacing": [2.6829268932343, 2.6829268932343],
      "ProtocolName": "func_run-02_task-social_acq-ap-mb8",
      "RepetitionTime": 460.0,
      "Rows": 656,
      "SAR": 0.11211906805126,
      "SamplesPerPixel": 1,
      "ScanOptions": "FS",
      "ScanningSequence": "EP",
      "SequenceName": "epfid2d1_82",
      "SequenceVariant": [
        "SK",
        "SS"
],
      "SeriesDescription": "func_run-02_task-social_acq-ap-mb8",
      "SeriesNumber": 14,
      "SeriesTime": "191025.891000",
      "SliceLocation": -83.175114904231,
      "SliceThickness": 2.7000000476837,
      "SmallestImagePixelValue": 0,
      "SoftwareVersions": "syngo MR E11",
      "SpacingBetweenSlices": 2.699999897279,
      "SpecificCharacterSet": "ISO_IR 100",
      "StudyID": "1",
      "StudyTime": "182725.983000",
      "TransmitCoilName": "Body",
      "VariableFlipAngleFlag": "N",
      "WindowCenterWidthExplanation": "Algo1"
    },
    "slices": {}
  },
  "time": {
    "samples": {
      "AcquisitionNumber": [1, 2, 3, 4, 5, 6, 7, 8, 9, 10, 11, 12, 13, 14, 15, 16, 17, 18, 19, 20, 21, 22, 23, 24, 25, 26, 27, 28, 29, 30, 31, 32, 33, 34, 35, 36, 37, 38, 39, 40, 41, 42, 43, 44, 45, 46, 47, 48, 49, 50, 51, 52, 53, 54, 55, 56, 57, 58, 59, 60, 61, 62, 63, 64, 65, 66, 67, 68, 69, 70, 71, 72, 73, 74, 75, 76, 77, 78, 79, 80, 81, 82, 83, 84, 85, 86, 87, 88, 89, 90, 91, 92, 93, 94, 95, 96, 97, 98, 99, 100, 101, 102, 103, 104, 105, 106, 107, 108, 109, 110, 111, 112, 113, 114, 115, 116, 117, 118, 119, 120, 121, 122, 123, 124, 125, 126, 127, 128, 129, 130, 131, 132, 133, 134, 135, 136, 137, 138, 139, 140, 141, 142, 143, 144, 145, 146, 147, 148, 149, 150, 151, 152, 153, 154, 155, 156, 157, 158, 159, 160, 161, 162, 163, 164, 165, 166, 167, 168, 169, 170, 171, 172, 173, 174, 175, 176, 177, 178, 179, 180, 181, 182, 183, 184, 185, 186, 187, 188, 189, 190, 191, 192, 193, 194, 195, 196, 197, 198, 199, 200, 201, 202, 203, 204, 205, 206, 207, 208, 209, 210, 211, 212, 213, 214, 215, 216, 217, 218, 219, 220, 221, 222, 223, 224, 225, 226, 227, 228, 229, 230, 231, 232, 233, 234, 235, 236, 237, 238, 239, 240, 241, 242, 243, 244, 245, 246, 247, 248, 249, 250, 251, 252, 253, 254, 255, 256, 257, 258, 259, 260, 261, 262, 263, 264, 265, 266, 267, 268, 269, 270, 271, 272, 273, 274, 275, 276, 277, 278, 279, 280, 281, 282, 283, 284, 285, 286, 287, 288, 289, 290, 291, 292, 293, 294, 295, 296, 297, 298, 299, 300, 301, 302, 303, 304, 305, 306, 307, 308, 309, 310, 311, 312, 313, 314, 315, 316, 317, 318, 319, 320, 321, 322, 323, 324, 325, 326, 327, 328, 329, 330, 331, 332, 333, 334, 335, 336, 337, 338, 339, 340, 341, 342, 343, 344, 345, 346, 347, 348, 349, 350, 351, 352, 353, 354, 355, 356, 357, 358, 359, 360, 361, 362, 363, 364, 365, 366, 367, 368, 369, 370, 371, 372, 373, 374, 375, 376, 377, 378, 379, 380, 381, 382, 383, 384, 385, 386, 387, 388, 389, 390, 391, 392, 393, 394, 395, 396, 397, 398, 399, 400, 401, 402, 403, 404, 405, 406, 407, 408, 409, 410, 411, 412, 413, 414, 415, 416, 417, 418, 419, 420, 421, 422, 423, 424, 425, 426, 427, 428, 429, 430, 431, 432, 433, 434, 435, 436, 437, 438, 439, 440, 441, 442, 443, 444, 445, 446, 447, 448, 449, 450, 451, 452, 453, 454, 455, 456, 457, 458, 459, 460, 461, 462, 463, 464, 465, 466, 467, 468, 469, 470, 471, 472, 473, 474, 475, 476, 477, 478, 479, 480, 481, 482, 483, 484, 485, 486, 487, 488, 489, 490, 491, 492, 493, 494, 495, 496, 497, 498, 499, 500, 501, 502, 503, 504, 505, 506, 507, 508, 509, 510, 511, 512, 513, 514, 515, 516, 517, 518, 519, 520, 521, 522, 523, 524, 525, 526, 527, 528, 529, 530, 531, 532, 533, 534, 535, 536, 537, 538, 539, 540, 541, 542, 543, 544, 545, 546, 547, 548, 549, 550, 551, 552, 553, 554, 555, 556, 557, 558, 559, 560, 561, 562, 563, 564, 565, 566, 567, 568, 569, 570, 571, 572, 573, 574, 575, 576, 577, 578, 579, 580, 581, 582, 583, 584, 585, 586, 587, 588, 589, 590, 591, 592, 593, 594, 595, 596, 597, 598, 599, 600, 601, 602, 603, 604, 605, 606, 607, 608, 609, 610, 611, 612, 613, 614, 615, 616, 617, 618, 619, 620, 621, 622, 623, 624, 625, 626, 627, 628, 629, 630, 631, 632, 633, 634, 635, 636, 637, 638, 639, 640, 641, 642, 643, 644, 645, 646, 647, 648, 649, 650, 651, 652, 653, 654, 655, 656, 657, 658, 659, 660, 661, 662, 663, 664, 665, 666, 667, 668, 669, 670, 671, 672, 673, 674, 675, 676, 677, 678, 679, 680, 681, 682, 683, 684, 685, 686, 687, 688, 689, 690, 691, 692, 693, 694, 695, 696, 697, 698, 699, 700, 701, 702, 703, 704, 705, 706, 707, 708, 709, 710, 711, 712, 713, 714, 715, 716, 717, 718, 719, 720, 721, 722, 723, 724, 725, 726, 727, 728, 729, 730, 731, 732, 733, 734, 735, 736, 737, 738, 739, 740, 741, 742, 743, 744, 745, 746, 747, 748, 749, 750, 751, 752, 753, 754, 755, 756, 757, 758, 759, 760, 761, 762, 763, 764, 765, 766, 767, 768, 769, 770, 771, 772, 773, 774, 775, 776, 777, 778, 779, 780, 781, 782, 783, 784, 785, 786, 787, 788, 789, 790, 791, 792, 793, 794, 795, 796, 797, 798, 799, 800, 801, 802, 803, 804, 805, 806, 807, 808, 809, 810, 811, 812, 813, 814, 815, 816, 817, 818, 819, 820, 821, 822, 823, 824, 825, 826, 827, 828, 829, 830, 831, 832, 833, 834, 835, 836, 837, 838, 839, 840, 841, 842, 843, 844, 845, 846, 847, 848, 849, 850, 851, 852, 853, 854, 855, 856, 857, 858, 859, 860, 861, 862, 863, 864, 865, 866, 867, 868, 869, 870, 871, 872],
      "AcquisitionTime": ["191008.615000", "191009.075000", "191009.535000", "191009.995000", "191010.455000", "191010.915000", "191011.375000", "191011.835000", "191012.295000", "191012.755000", "191013.215000", "191013.675000", "191014.135000", "191014.595000", "191015.055000", "191015.515000", "191015.975000", "191016.435000", "191016.895000", "191017.355000", "191017.815000", "191018.275000", "191018.735000", "191019.195000", "191019.655000", "191020.115000", "191020.575000", "191021.035000", "191021.495000", "191021.955000", "191022.415000", "191022.875000", "191023.335000", "191023.795000", "191024.255000", "191024.715000", "191025.175000", "191025.635000", "191026.095000", "191026.555000", "191027.015000", "191027.475000", "191027.935000", "191028.395000", "191028.855000", "191029.315000", "191029.775000", "191030.235000", "191030.695000", "191031.155000", "191031.615000", "191032.075000", "191032.535000", "191032.995000", "191033.455000", "191033.915000", "191034.375000", "191034.835000", "191035.295000", "191035.755000", "191036.215000", "191036.675000", "191037.135000", "191037.595000", "191038.055000", "191038.515000", "191038.975000", "191039.435000", "191039.895000", "191040.355000", "191040.815000", "191041.275000", "191041.735000", "191042.195000", "191042.655000", "191043.115000", "191043.575000", "191044.035000", "191044.495000", "191044.955000", "191045.415000", "191045.875000", "191046.335000", "191046.795000", "191047.255000", "191047.715000", "191048.175000", "191048.635000", "191049.095000", "191049.555000", "191050.015000", "191050.475000", "191050.935000", "191051.395000", "191051.855000", "191052.315000", "191052.775000", "191053.235000", "191053.695000", "191054.155000", "191054.615000", "191055.075000", "191055.535000", "191055.995000", "191056.455000", "191056.915000", "191057.375000", "191057.835000", "191058.295000", "191058.755000", "191059.215000", "191059.675000", "191100.135000", "191100.595000", "191101.055000", "191101.515000", "191101.975000", "191102.435000", "191102.895000", "191103.355000", "191103.815000", "191104.275000", "191104.735000", "191105.195000", "191105.655000", "191106.115000", "191106.575000", "191107.035000", "191107.495000", "191107.955000", "191108.415000", "191108.875000", "191109.335000", "191109.795000", "191110.255000", "191110.715000", "191111.175000", "191111.635000", "191112.095000", "191112.555000", "191113.015000", "191113.475000", "191113.935000", "191114.395000", "191114.855000", "191115.315000", "191115.775000", "191116.235000", "191116.695000", "191117.155000", "191117.615000", "191118.075000", "191118.535000", "191118.995000", "191119.455000", "191119.915000", "191120.375000", "191120.835000", "191121.295000", "191121.755000", "191122.215000", "191122.675000", "191123.135000", "191123.595000", "191124.055000", "191124.515000", "191124.975000", "191125.435000", "191125.895000", "191126.355000", "191126.815000", "191127.275000", "191127.735000", "191128.195000", "191128.655000", "191129.115000", "191129.575000", "191130.035000", "191130.495000", "191130.955000", "191131.415000", "191131.875000", "191132.335000", "191132.795000", "191133.255000", "191133.715000", "191134.175000", "191134.635000", "191135.095000", "191135.555000", "191136.015000", "191136.475000", "191136.935000", "191137.395000", "191137.855000", "191138.315000", "191138.775000", "191139.235000", "191139.695000", "191140.155000", "191140.615000", "191141.075000", "191141.535000", "191141.995000", "191142.455000", "191142.915000", "191143.375000", "191143.835000", "191144.295000", "191144.755000", "191145.215000", "191145.675000", "191146.135000", "191146.595000", "191147.055000", "191147.515000", "191147.975000", "191148.435000", "191148.895000", "191149.355000", "191149.815000", "191150.275000", "191150.735000", "191151.195000", "191151.655000", "191152.115000", "191152.575000", "191153.035000", "191153.495000", "191153.955000", "191154.415000", "191154.875000", "191155.335000", "191155.795000", "191156.255000", "191156.715000", "191157.175000", "191157.635000", "191158.095000", "191158.555000", "191159.015000", "191159.475000", "191159.935000", "191200.395000", "191200.855000", "191201.315000", "191201.775000", "191202.235000", "191202.695000", "191203.155000", "191203.615000", "191204.075000", "191204.535000", "191204.995000", "191205.455000", "191205.915000", "191206.375000", "191206.835000", "191207.295000", "191207.755000", "191208.215000", "191208.675000", "191209.135000", "191209.595000", "191210.055000", "191210.515000", "191210.975000", "191211.435000", "191211.895000", "191212.355000", "191212.815000", "191213.275000", "191213.735000", "191214.195000", "191214.655000", "191215.115000", "191215.575000", "191216.035000", "191216.495000", "191216.955000", "191217.415000", "191217.875000", "191218.335000", "191218.795000", "191219.255000", "191219.715000", "191220.175000", "191220.635000", "191221.095000", "191221.555000", "191222.015000", "191222.475000", "191222.935000", "191223.395000", "191223.855000", "191224.315000", "191224.775000", "191225.235000", "191225.695000", "191226.155000", "191226.615000", "191227.075000", "191227.535000", "191227.995000", "191228.455000", "191228.915000", "191229.375000", "191229.835000", "191230.295000", "191230.755000", "191231.215000", "191231.675000", "191232.135000", "191232.595000", "191233.055000", "191233.515000", "191233.975000", "191234.435000", "191234.895000", "191235.355000", "191235.815000", "191236.275000", "191236.735000", "191237.195000", "191237.655000", "191238.115000", "191238.575000", "191239.035000", "191239.495000", "191239.955000", "191240.415000", "191240.875000", "191241.335000", "191241.795000", "191242.255000", "191242.715000", "191243.175000", "191243.635000", "191244.095000", "191244.555000", "191245.015000", "191245.475000", "191245.935000", "191246.395000", "191246.855000", "191247.315000", "191247.775000", "191248.235000", "191248.695000", "191249.155000", "191249.615000", "191250.075000", "191250.535000", "191250.995000", "191251.455000", "191251.915000", "191252.375000", "191252.835000", "191253.295000", "191253.755000", "191254.215000", "191254.675000", "191255.135000", "191255.595000", "191256.055000", "191256.515000", "191256.975000", "191257.435000", "191257.895000", "191258.355000", "191258.815000", "191259.275000", "191259.735000", "191300.195000", "191300.655000", "191301.115000", "191301.575000", "191302.035000", "191302.495000", "191302.955000", "191303.415000", "191303.875000", "191304.335000", "191304.795000", "191305.255000", "191305.715000", "191306.175000", "191306.635000", "191307.095000", "191307.555000", "191308.015000", "191308.475000", "191308.935000", "191309.395000", "191309.855000", "191310.315000", "191310.775000", "191311.235000", "191311.695000", "191312.155000", "191312.615000", "191313.075000", "191313.535000", "191313.995000", "191314.455000", "191314.915000", "191315.375000", "191315.835000", "191316.295000", "191316.755000", "191317.215000", "191317.675000", "191318.135000", "191318.595000", "191319.055000", "191319.515000", "191319.975000", "191320.435000", "191320.895000", "191321.355000", "191321.815000", "191322.275000", "191322.735000", "191323.195000", "191323.655000", "191324.115000", "191324.575000", "191325.035000", "191325.495000", "191325.955000", "191326.415000", "191326.875000", "191327.335000", "191327.795000", "191328.255000", "191328.715000", "191329.175000", "191329.635000", "191330.095000", "191330.555000", "191331.015000", "191331.475000", "191331.935000", "191332.395000", "191332.855000", "191333.315000", "191333.775000", "191334.235000", "191334.695000", "191335.155000", "191335.615000", "191336.075000", "191336.535000", "191336.995000", "191337.455000", "191337.915000", "191338.375000", "191338.835000", "191339.295000", "191339.755000", "191340.215000", "191340.675000", "191341.135000", "191341.595000", "191342.055000", "191342.515000", "191342.975000", "191343.435000", "191343.895000", "191344.355000", "191344.815000", "191345.275000", "191345.735000", "191346.195000", "191346.655000", "191347.115000", "191347.575000", "191348.035000", "191348.495000", "191348.955000", "191349.415000", "191349.875000", "191350.335000", "191350.795000", "191351.255000", "191351.715000", "191352.175000", "191352.635000", "191353.095000", "191353.555000", "191354.015000", "191354.475000", "191354.935000", "191355.395000", "191355.855000", "191356.315000", "191356.775000", "191357.235000", "191357.695000", "191358.155000", "191358.615000", "191359.075000", "191359.535000", "191359.995000", "191400.455000", "191400.915000", "191401.375000", "191401.835000", "191402.295000", "191402.755000", "191403.215000", "191403.675000", "191404.135000", "191404.595000", "191405.055000", "191405.515000", "191405.975000", "191406.435000", "191406.895000", "191407.355000", "191407.815000", "191408.275000", "191408.735000", "191409.195000", "191409.655000", "191410.115000", "191410.575000", "191411.035000", "191411.495000", "191411.955000", "191412.415000", "191412.875000", "191413.335000", "191413.795000", "191414.255000", "191414.715000", "191415.175000", "191415.635000", "191416.095000", "191416.555000", "191417.015000", "191417.475000", "191417.935000", "191418.395000", "191418.855000", "191419.315000", "191419.775000", "191420.235000", "191420.695000", "191421.155000", "191421.615000", "191422.075000", "191422.535000", "191422.995000", "191423.455000", "191423.915000", "191424.375000", "191424.835000", "191425.295000", "191425.755000", "191426.215000", "191426.675000", "191427.135000", "191427.595000", "191428.055000", "191428.515000", "191428.975000", "191429.435000", "191429.895000", "191430.355000", "191430.815000", "191431.275000", "191431.735000", "191432.195000", "191432.655000", "191433.115000", "191433.575000", "191434.035000", "191434.495000", "191434.955000", "191435.415000", "191435.875000", "191436.335000", "191436.795000", "191437.255000", "191437.715000", "191438.175000", "191438.635000", "191439.095000", "191439.555000", "191440.015000", "191440.475000", "191440.935000", "191441.395000", "191441.855000", "191442.315000", "191442.775000", "191443.235000", "191443.695000", "191444.155000", "191444.615000", "191445.075000", "191445.535000", "191445.995000", "191446.455000", "191446.915000", "191447.375000", "191447.835000", "191448.295000", "191448.755000", "191449.215000", "191449.675000", "191450.135000", "191450.595000", "191451.055000", "191451.515000", "191451.975000", "191452.435000", "191452.895000", "191453.355000", "191453.815000", "191454.275000", "191454.735000", "191455.195000", "191455.655000", "191456.115000", "191456.575000", "191457.035000", "191457.495000", "191457.955000", "191458.415000", "191458.875000", "191459.335000", "191459.795000", "191500.255000", "191500.715000", "191501.175000", "191501.635000", "191502.095000", "191502.555000", "191503.015000", "191503.475000", "191503.935000", "191504.395000", "191504.855000", "191505.315000", "191505.775000", "191506.235000", "191506.695000", "191507.155000", "191507.615000", "191508.075000", "191508.535000", "191508.995000", "191509.455000", "191509.915000", "191510.375000", "191510.835000", "191511.295000", "191511.755000", "191512.215000", "191512.675000", "191513.135000", "191513.595000", "191514.055000", "191514.515000", "191514.975000", "191515.435000", "191515.895000", "191516.355000", "191516.815000", "191517.275000", "191517.735000", "191518.195000", "191518.655000", "191519.115000", "191519.575000", "191520.035000", "191520.495000", "191520.955000", "191521.415000", "191521.875000", "191522.335000", "191522.795000", "191523.255000", "191523.715000", "191524.175000", "191524.635000", "191525.095000", "191525.555000", "191526.015000", "191526.475000", "191526.935000", "191527.395000", "191527.855000", "191528.315000", "191528.775000", "191529.235000", "191529.695000", "191530.155000", "191530.615000", "191531.075000", "191531.535000", "191531.995000", "191532.455000", "191532.915000", "191533.375000", "191533.835000", "191534.295000", "191534.755000", "191535.215000", "191535.675000", "191536.135000", "191536.595000", "191537.055000", "191537.515000", "191537.975000", "191538.435000", "191538.895000", "191539.355000", "191539.815000", "191540.275000", "191540.735000", "191541.195000", "191541.655000", "191542.115000", "191542.575000", "191543.035000", "191543.495000", "191543.955000", "191544.415000", "191544.875000", "191545.335000", "191545.795000", "191546.255000", "191546.715000", "191547.175000", "191547.635000", "191548.095000", "191548.555000", "191549.015000", "191549.475000", "191549.935000", "191550.395000", "191550.855000", "191551.315000", "191551.775000", "191552.235000", "191552.695000", "191553.155000", "191553.615000", "191554.075000", "191554.535000", "191554.995000", "191555.455000", "191555.915000", "191556.375000", "191556.835000", "191557.295000", "191557.755000", "191558.215000", "191558.675000", "191559.135000", "191559.595000", "191600.055000", "191600.515000", "191600.975000", "191601.435000", "191601.895000", "191602.355000", "191602.815000", "191603.275000", "191603.735000", "191604.195000", "191604.655000", "191605.115000", "191605.575000", "191606.035000", "191606.495000", "191606.955000", "191607.415000", "191607.875000", "191608.335000", "191608.795000", "191609.255000", "191609.715000", "191610.175000", "191610.635000", "191611.095000", "191611.555000", "191612.015000", "191612.475000", "191612.935000", "191613.395000", "191613.855000", "191614.315000", "191614.775000", "191615.235000", "191615.695000", "191616.155000", "191616.615000", "191617.075000", "191617.535000", "191617.995000", "191618.455000", "191618.915000", "191619.375000", "191619.835000", "191620.295000", "191620.755000", "191621.215000", "191621.675000", "191622.135000", "191622.595000", "191623.055000", "191623.515000", "191623.975000", "191624.435000", "191624.895000", "191625.355000", "191625.815000", "191626.275000", "191626.735000", "191627.195000", "191627.655000", "191628.115000", "191628.575000", "191629.035000", "191629.495000", "191629.955000", "191630.415000", "191630.875000", "191631.335000", "191631.795000", "191632.255000", "191632.715000", "191633.175000", "191633.635000", "191634.095000", "191634.555000", "191635.015000", "191635.475000", "191635.935000", "191636.395000", "191636.855000", "191637.315000", "191637.775000", "191638.235000", "191638.695000", "191639.155000", "191639.615000", "191640.075000", "191640.535000", "191640.995000", "191641.455000", "191641.915000", "191642.375000", "191642.835000", "191643.295000", "191643.755000", "191644.215000", "191644.675000", "191645.135000", "191645.595000", "191646.055000", "191646.515000", "191646.975000", "191647.435000", "191647.895000", "191648.355000", "191648.815000", "191649.275000"],
