{
  "AcquisitionMatrixPE": 82,
  "AcquisitionNumber": 1,
  "AcquisitionTime": "19:03:11.887500",
  "BandwidthPerPixelPhaseEncode": 24.888,
  "BaseResolution": 82,
  "BodyPartExamined": "BRAIN",
  "ConsistencyInfo": "N4_VE11E_LATEST_20181129",
  "ConversionSoftware": "dcm2niix",
  "ConversionSoftwareVersion": "v1.0.20201102",
  "DerivedVendorReportedEchoSpacing": 0.00049,
  "DeviceSerialNumber": "66112",
  "DwellTime": 2e-06,
  "EchoTime": 0.0272,
  "EchoTrainLength": 82,
  "EffectiveEchoSpacing": 0.00049,
  "FlipAngle": 44,
  "ImageComments": "Unaliased MB8/PE3",
  "ImageOrientationPatientDICOM": [0.999882, 0.010981, 0.0107479, -0.00994759, 0.99572, -0.091888],
  "ImageType": [
    "ORIGINAL",
    "PRIMARY",
    "M",
    "MB",
    "ND",
    "NORM",
    "MOSAIC"
],
  "ImagingFrequency": 123.259,
  "InPlanePhaseEncodingDirectionDICOM": "COL",
  "InstitutionAddress": "Maynard 3,Hanover,NH,US,03755",
  "InstitutionName": "Dartmouth College - PBS",
  "InstitutionalDepartmentName": "Department",
  "MRAcquisitionType": "2D",
  "MagneticFieldStrength": 3,
  "Manufacturer": "Siemens",
  "ManufacturersModelName": "Prisma",
  "Modality": "MR",
  "MultibandAccelerationFactor": 8,
  "PartialFourier": 1,
  "PatientPosition": "HFS",
  "PercentPhaseFOV": 100,
  "PercentSampling": 100,
  "PhaseEncodingDirection": "j-",
  "PhaseEncodingSteps": 82,
  "PhaseResolution": 1,
  "PixelBandwidth": 3050,
  "ProcedureStepDescription": "Wager_Wager^1076_spacetop",
  "ProtocolName": "func_run-01_task-social_acq-ap-mb8",
  "PulseSequenceDetails": "%CustomerSeq%\\cmrr_mbep2d_bold",
  "ReceiveCoilActiveElements": "HEA;HEP",
  "ReceiveCoilName": "Head_32",
  "ReconMatrixPE": 82,
  "RepetitionTime": 0.46,
  "SAR": 0.112119,
  "ScanOptions": "FS",
  "ScanningSequence": "EP",
  "SequenceName": "epfid2d1_82",
  "SequenceVariant": "SK\\SS",
  "SeriesDescription": "func_run-01_task-social_acq-ap-mb8",
  "SeriesNumber": 12,
  "ShimSetting": [4219, -7746, -7286, 185, -165, -137, -46, 58],
  "SliceThickness": 2.7,
  "SliceTiming": [0, 0.25, 0.0625, 0.3125, 0.125, 0.3775, 0.1875, 0, 0.25, 0.0625, 0.3125, 0.125, 0.3775, 0.1875, 0, 0.25, 0.0625, 0.3125, 0.125, 0.3775, 0.1875, 0, 0.25, 0.0625, 0.3125, 0.125, 0.3775, 0.1875, 0, 0.25, 0.0625, 0.3125, 0.125, 0.3775, 0.1875, 0, 0.25, 0.0625, 0.3125, 0.125, 0.3775, 0.1875, 0, 0.25, 0.0625, 0.3125, 0.125, 0.3775, 0.1875, 0, 0.25, 0.0625, 0.3125, 0.125, 0.3775, 0.1875],
  "SoftwareVersions": "syngo MR E11",
  "SpacingBetweenSlices": 2.7,
  "StationName": "AWP66112",
  "TaskName": "social",
  "TotalReadoutTime": 0.03969,
  "TxRefAmp": 274.565,
  "WipMemBlock": "7b5d88d6-52cc-4824-b57f-90e36c5fbdb3||Sequence: R016 ve11e/master r/434b28f1; Aug  7 2019 18:53:46 by eja",
  "dcmmeta_affine": [
    [-2.682610273361206, -0.026688650250434875, 0.031619396060705185, 113.3382797241211],
    [-0.029461262747645378, 2.671442985534668, -0.24777965247631073, -90.05152893066406],
    [0.02883574552834034, 0.24652880430221558, 2.688420534133911, -93.166015625],
    [0.0, 0.0, 0.0, 1.0]
],
  "dcmmeta_reorient_transform": [
    [0.0, -1.0, 0.0, 81.0],
    [1.0, 0.0, 0.0, 0.0],
    [0.0, 0.0, 1.0, 0.0],
    [0.0, 0.0, 0.0, 1.0]
],
  "dcmmeta_shape": [82, 82, 56, 872],
  "dcmmeta_slice_dim": 2,
  "dcmmeta_version": 0.6,
  "global": {
    "const": {
      "AccessionNumber": "A004513",
      "AcquisitionMatrix": [82, 0, 0, 82],
      "AngioFlag": "N",
      "BitsAllocated": 16,
      "BitsStored": 16,
      "BodyPartExamined": "BRAIN",
      "Columns": 656,
      "EchoNumbers": 1,
      "EchoTime": 27.2,
      "EchoTrainLength": 82,
      "FlipAngle": 44.0,
      "HighBit": 15,
      "ImageOrientationPatient": [0.99988194333277, 0.010981016199, 0.01074786864121, -0.0099475878423, 0.99571965905723, -0.0918880082659],
      "ImagePositionPatient": [-873.4259717104, -901.49489816093, -10.719272168615],
      "ImageType": [
        "ORIGINAL",
        "PRIMARY",
        "M",
        "MB",
        "ND",
        "NORM",
        "MOSAIC"
],
      "ImagedNucleus": "1H",
      "ImagingFrequency": 123.259082,
      "InPlanePhaseEncodingDirection": "COL",
      "MRAcquisitionType": "2D",
      "MagneticFieldStrength": 3.0,
      "Manufacturer": "SIEMENS",
      "ManufacturerModelName": "Prisma",
      "Modality": "MR",
      "NumberOfAverages": 1.0,
      "NumberOfPhaseEncodingSteps": 82,
      "PercentPhaseFieldOfView": 100.0,
      "PercentSampling": 100.0,
      "PerformedProcedureStepStartTime": "182726.033000",
      "PhotometricInterpretation": "MONOCHROME2",
      "PixelBandwidth": 3050.0,
      "PixelRepresentation": 0,
      "PixelSpacing": [2.6829268932343, 2.6829268932343],
      "ProtocolName": "func_run-01_task-social_acq-ap-mb8",
      "RepetitionTime": 460.0,
      "Rows": 656,
      "SAR": 0.11211906805126,
      "SamplesPerPixel": 1,
      "ScanOptions": "FS",
      "ScanningSequence": "EP",
      "SequenceName": "epfid2d1_82",
      "SequenceVariant": [
        "SK",
        "SS"
],
      "SeriesDescription": "func_run-01_task-social_acq-ap-mb8",
      "SeriesNumber": 12,
      "SeriesTime": "190326.095000",
      "SliceLocation": -83.175114904231,
      "SliceThickness": 2.7000000476837,
      "SmallestImagePixelValue": 0,
      "SoftwareVersions": "syngo MR E11",
      "SpacingBetweenSlices": 2.699999897279,
      "SpecificCharacterSet": "ISO_IR 100",
      "StudyID": "1",
      "StudyTime": "182725.983000",
      "TransmitCoilName": "Body",
      "VariableFlipAngleFlag": "N",
      "WindowCenterWidthExplanation": "Algo1"
    },
    "slices": {}
  },
  "time": {
    "samples": {
      "AcquisitionNumber": [1, 2, 3, 4, 5, 6, 7, 8, 9, 10, 11, 12, 13, 14, 15, 16, 17, 18, 19, 20, 21, 22, 23, 24, 25, 26, 27, 28, 29, 30, 31, 32, 33, 34, 35, 36, 37, 38, 39, 40, 41, 42, 43, 44, 45, 46, 47, 48, 49, 50, 51, 52, 53, 54, 55, 56, 57, 58, 59, 60, 61, 62, 63, 64, 65, 66, 67, 68, 69, 70, 71, 72, 73, 74, 75, 76, 77, 78, 79, 80, 81, 82, 83, 84, 85, 86, 87, 88, 89, 90, 91, 92, 93, 94, 95, 96, 97, 98, 99, 100, 101, 102, 103, 104, 105, 106, 107, 108, 109, 110, 111, 112, 113, 114, 115, 116, 117, 118, 119, 120, 121, 122, 123, 124, 125, 126, 127, 128, 129, 130, 131, 132, 133, 134, 135, 136, 137, 138, 139, 140, 141, 142, 143, 144, 145, 146, 147, 148, 149, 150, 151, 152, 153, 154, 155, 156, 157, 158, 159, 160, 161, 162, 163, 164, 165, 166, 167, 168, 169, 170, 171, 172, 173, 174, 175, 176, 177, 178, 179, 180, 181, 182, 183, 184, 185, 186, 187, 188, 189, 190, 191, 192, 193, 194, 195, 196, 197, 198, 199, 200, 201, 202, 203, 204, 205, 206, 207, 208, 209, 210, 211, 212, 213, 214, 215, 216, 217, 218, 219, 220, 221, 222, 223, 224, 225, 226, 227, 228, 229, 230, 231, 232, 233, 234, 235, 236, 237, 238, 239, 240, 241, 242, 243, 244, 245, 246, 247, 248, 249, 250, 251, 252, 253, 254, 255, 256, 257, 258, 259, 260, 261, 262, 263, 264, 265, 266, 267, 268, 269, 270, 271, 272, 273, 274, 275, 276, 277, 278, 279, 280, 281, 282, 283, 284, 285, 286, 287, 288, 289, 290, 291, 292, 293, 294, 295, 296, 297, 298, 299, 300, 301, 302, 303, 304, 305, 306, 307, 308, 309, 310, 311, 312, 313, 314, 315, 316, 317, 318, 319, 320, 321, 322, 323, 324, 325, 326, 327, 328, 329, 330, 331, 332, 333, 334, 335, 336, 337, 338, 339, 340, 341, 342, 343, 344, 345, 346, 347, 348, 349, 350, 351, 352, 353, 354, 355, 356, 357, 358, 359, 360, 361, 362, 363, 364, 365, 366, 367, 368, 369, 370, 371, 372, 373, 374, 375, 376, 377, 378, 379, 380, 381, 382, 383, 384, 385, 386, 387, 388, 389, 390, 391, 392, 393, 394, 395, 396, 397, 398, 399, 400, 401, 402, 403, 404, 405, 406, 407, 408, 409, 410, 411, 412, 413, 414, 415, 416, 417, 418, 419, 420, 421, 422, 423, 424, 425, 426, 427, 428, 429, 430, 431, 432, 433, 434, 435, 436, 437, 438, 439, 440, 441, 442, 443, 444, 445, 446, 447, 448, 449, 450, 451, 452, 453, 454, 455, 456, 457, 458, 459, 460, 461, 462, 463, 464, 465, 466, 467, 468, 469, 470, 471, 472, 473, 474, 475, 476, 477, 478, 479, 480, 481, 482, 483, 484, 485, 486, 487, 488, 489, 490, 491, 492, 493, 494, 495, 496, 497, 498, 499, 500, 501, 502, 503, 504, 505, 506, 507, 508, 509, 510, 511, 512, 513, 514, 515, 516, 517, 518, 519, 520, 521, 522, 523, 524, 525, 526, 527, 528, 529, 530, 531, 532, 533, 534, 535, 536, 537, 538, 539, 540, 541, 542, 543, 544, 545, 546, 547, 548, 549, 550, 551, 552, 553, 554, 555, 556, 557, 558, 559, 560, 561, 562, 563, 564, 565, 566, 567, 568, 569, 570, 571, 572, 573, 574, 575, 576, 577, 578, 579, 580, 581, 582, 583, 584, 585, 586, 587, 588, 589, 590, 591, 592, 593, 594, 595, 596, 597, 598, 599, 600, 601, 602, 603, 604, 605, 606, 607, 608, 609, 610, 611, 612, 613, 614, 615, 616, 617, 618, 619, 620, 621, 622, 623, 624, 625, 626, 627, 628, 629, 630, 631, 632, 633, 634, 635, 636, 637, 638, 639, 640, 641, 642, 643, 644, 645, 646, 647, 648, 649, 650, 651, 652, 653, 654, 655, 656, 657, 658, 659, 660, 661, 662, 663, 664, 665, 666, 667, 668, 669, 670, 671, 672, 673, 674, 675, 676, 677, 678, 679, 680, 681, 682, 683, 684, 685, 686, 687, 688, 689, 690, 691, 692, 693, 694, 695, 696, 697, 698, 699, 700, 701, 702, 703, 704, 705, 706, 707, 708, 709, 710, 711, 712, 713, 714, 715, 716, 717, 718, 719, 720, 721, 722, 723, 724, 725, 726, 727, 728, 729, 730, 731, 732, 733, 734, 735, 736, 737, 738, 739, 740, 741, 742, 743, 744, 745, 746, 747, 748, 749, 750, 751, 752, 753, 754, 755, 756, 757, 758, 759, 760, 761, 762, 763, 764, 765, 766, 767, 768, 769, 770, 771, 772, 773, 774, 775, 776, 777, 778, 779, 780, 781, 782, 783, 784, 785, 786, 787, 788, 789, 790, 791, 792, 793, 794, 795, 796, 797, 798, 799, 800, 801, 802, 803, 804, 805, 806, 807, 808, 809, 810, 811, 812, 813, 814, 815, 816, 817, 818, 819, 820, 821, 822, 823, 824, 825, 826, 827, 828, 829, 830, 831, 832, 833, 834, 835, 836, 837, 838, 839, 840, 841, 842, 843, 844, 845, 846, 847, 848, 849, 850, 851, 852, 853, 854, 855, 856, 857, 858, 859, 860, 861, 862, 863, 864, 865, 866, 867, 868, 869, 870, 871, 872],
      "AcquisitionTime": ["190311.887500", "190312.347500", "190312.807500", "190313.267500", "190313.727500", "190314.187500", "190314.647500", "190315.107500", "190315.567500", "190316.027500", "190316.487500", "190316.947500", "190317.407500", "190317.867500", "190318.327500", "190318.787500", "190319.247500", "190319.707500", "190320.167500", "190320.627500", "190321.087500", "190321.547500", "190322.007500", "190322.467500", "190322.927500", "190323.387500", "190323.847500", "190324.307500", "190324.767500", "190325.227500", "190325.687500", "190326.147500", "190326.607500", "190327.067500", "190327.527500", "190327.987500", "190328.447500", "190328.907500", "190329.367500", "190329.827500", "190330.287500", "190330.747500", "190331.207500", "190331.667500", "190332.127500", "190332.587500", "190333.047500", "190333.507500", "190333.967500", "190334.427500", "190334.887500", "190335.347500", "190335.807500", "190336.267500", "190336.727500", "190337.187500", "190337.647500", "190338.107500", "190338.567500", "190339.027500", "190339.487500", "190339.947500", "190340.407500", "190340.867500", "190341.327500", "190341.787500", "190342.247500", "190342.707500", "190343.167500", "190343.627500", "190344.087500", "190344.547500", "190345.007500", "190345.467500", "190345.927500", "190346.387500", "190346.847500", "190347.307500", "190347.767500", "190348.227500", "190348.687500", "190349.147500", "190349.607500", "190350.067500", "190350.527500", "190350.987500", "190351.447500", "190351.907500", "190352.367500", "190352.827500", "190353.287500", "190353.747500", "190354.207500", "190354.667500", "190355.127500", "190355.587500", "190356.047500", "190356.507500", "190356.967500", "190357.427500", "190357.887500", "190358.347500", "190358.807500", "190359.267500", "190359.727500", "190400.187500", "190400.647500", "190401.107500", "190401.567500", "190402.027500", "190402.487500", "190402.947500", "190403.407500", "190403.867500", "190404.327500", "190404.787500", "190405.247500", "190405.707500", "190406.167500", "190406.627500", "190407.087500", "190407.547500", "190408.007500", "190408.467500", "190408.927500", "190409.387500", "190409.847500", "190410.307500", "190410.767500", "190411.227500", "190411.687500", "190412.147500", "190412.607500", "190413.067500", "190413.527500", "190413.987500", "190414.447500", "190414.907500", "190415.367500", "190415.827500", "190416.287500", "190416.747500", "190417.207500", "190417.667500", "190418.127500", "190418.587500", "190419.047500", "190419.507500", "190419.967500", "190420.427500", "190420.887500", "190421.347500", "190421.807500", "190422.267500", "190422.727500", "190423.187500", "190423.647500", "190424.107500", "190424.567500", "190425.027500", "190425.487500", "190425.947500", "190426.407500", "190426.867500", "190427.327500", "190427.787500", "190428.247500", "190428.707500", "190429.167500", "190429.627500", "190430.087500", "190430.547500", "190431.007500", "190431.467500", "190431.927500", "190432.387500", "190432.847500", "190433.307500", "190433.767500", "190434.227500", "190434.687500", "190435.147500", "190435.607500", "190436.067500", "190436.527500", "190436.987500", "190437.447500", "190437.907500", "190438.367500", "190438.827500", "190439.287500", "190439.747500", "190440.207500", "190440.667500", "190441.127500", "190441.587500", "190442.047500", "190442.507500", "190442.967500", "190443.427500", "190443.887500", "190444.347500", "190444.807500", "190445.267500", "190445.727500", "190446.187500", "190446.647500", "190447.107500", "190447.567500", "190448.027500", "190448.487500", "190448.947500", "190449.407500", "190449.867500", "190450.327500", "190450.787500", "190451.247500", "190451.707500", "190452.167500", "190452.627500", "190453.087500", "190453.547500", "190454.007500", "190454.467500", "190454.927500", "190455.387500", "190455.847500", "190456.307500", "190456.767500", "190457.227500", "190457.687500", "190458.147500", "190458.607500", "190459.067500", "190459.527500", "190459.987500", "190500.447500", "190500.907500", "190501.367500", "190501.827500", "190502.287500", "190502.747500", "190503.207500", "190503.667500", "190504.127500", "190504.587500", "190505.047500", "190505.507500", "190505.967500", "190506.427500", "190506.887500", "190507.347500", "190507.807500", "190508.267500", "190508.727500", "190509.187500", "190509.647500", "190510.107500", "190510.567500", "190511.027500", "190511.487500", "190511.947500", "190512.407500", "190512.867500", "190513.327500", "190513.787500", "190514.247500", "190514.707500", "190515.167500", "190515.627500", "190516.087500", "190516.547500", "190517.007500", "190517.467500", "190517.927500", "190518.387500", "190518.847500", "190519.307500", "190519.767500", "190520.227500", "190520.687500", "190521.147500", "190521.607500", "190522.067500", "190522.527500", "190522.987500", "190523.447500", "190523.907500", "190524.367500", "190524.827500", "190525.287500", "190525.747500", "190526.207500", "190526.667500", "190527.127500", "190527.587500", "190528.047500", "190528.507500", "190528.967500", "190529.427500", "190529.887500", "190530.347500", "190530.807500", "190531.267500", "190531.727500", "190532.187500", "190532.647500", "190533.107500", "190533.567500", "190534.027500", "190534.487500", "190534.947500", "190535.407500", "190535.867500", "190536.327500", "190536.787500", "190537.247500", "190537.707500", "190538.167500", "190538.627500", "190539.087500", "190539.547500", "190540.007500", "190540.467500", "190540.927500", "190541.387500", "190541.847500", "190542.307500", "190542.767500", "190543.227500", "190543.687500", "190544.147500", "190544.607500", "190545.067500", "190545.527500", "190545.987500", "190546.447500", "190546.907500", "190547.367500", "190547.827500", "190548.287500", "190548.747500", "190549.207500", "190549.667500", "190550.127500", "190550.587500", "190551.047500", "190551.507500", "190551.967500", "190552.427500", "190552.887500", "190553.347500", "190553.807500", "190554.267500", "190554.727500", "190555.187500", "190555.647500", "190556.107500", "190556.567500", "190557.027500", "190557.487500", "190557.947500", "190558.407500", "190558.867500", "190559.327500", "190559.787500", "190600.247500", "190600.707500", "190601.167500", "190601.627500", "190602.087500", "190602.547500", "190603.007500", "190603.467500", "190603.927500", "190604.387500", "190604.847500", "190605.307500", "190605.767500", "190606.227500", "190606.687500", "190607.147500", "190607.607500", "190608.067500", "190608.527500", "190608.987500", "190609.447500", "190609.907500", "190610.367500", "190610.827500", "190611.287500", "190611.747500", "190612.207500", "190612.667500", "190613.127500", "190613.587500", "190614.047500", "190614.507500", "190614.967500", "190615.427500", "190615.887500", "190616.347500", "190616.807500", "190617.267500", "190617.727500", "190618.187500", "190618.647500", "190619.107500", "190619.567500", "190620.027500", "190620.487500", "190620.947500", "190621.407500", "190621.867500", "190622.327500", "190622.787500", "190623.247500", "190623.707500", "190624.167500", "190624.627500", "190625.087500", "190625.547500", "190626.007500", "190626.467500", "190626.927500", "190627.387500", "190627.847500", "190628.307500", "190628.767500", "190629.227500", "190629.687500", "190630.147500", "190630.607500", "190631.067500", "190631.527500", "190631.987500", "190632.447500", "190632.907500", "190633.367500", "190633.827500", "190634.287500", "190634.747500", "190635.207500", "190635.667500", "190636.127500", "190636.587500", "190637.047500", "190637.507500", "190637.967500", "190638.427500", "190638.887500", "190639.347500", "190639.807500", "190640.267500", "190640.727500", "190641.187500", "190641.647500", "190642.107500", "190642.567500", "190643.027500", "190643.487500", "190643.947500", "190644.407500", "190644.867500", "190645.327500", "190645.787500", "190646.247500", "190646.707500", "190647.167500", "190647.627500", "190648.087500", "190648.547500", "190649.007500", "190649.467500", "190649.927500", "190650.387500", "190650.847500", "190651.307500", "190651.767500", "190652.227500", "190652.687500", "190653.147500", "190653.607500", "190654.067500", "190654.527500", "190654.987500", "190655.447500", "190655.907500", "190656.367500", "190656.827500", "190657.287500", "190657.747500", "190658.207500", "190658.667500", "190659.127500", "190659.587500", "190700.047500", "190700.507500", "190700.967500", "190701.427500", "190701.887500", "190702.347500", "190702.807500", "190703.267500", "190703.727500", "190704.187500", "190704.647500", "190705.107500", "190705.567500", "190706.027500", "190706.487500", "190706.947500", "190707.407500", "190707.867500", "190708.327500", "190708.787500", "190709.247500", "190709.707500", "190710.167500", "190710.627500", "190711.087500", "190711.547500", "190712.007500", "190712.467500", "190712.927500", "190713.387500", "190713.847500", "190714.307500", "190714.767500", "190715.227500", "190715.687500", "190716.147500", "190716.607500", "190717.067500", "190717.527500", "190717.987500", "190718.447500", "190718.907500", "190719.367500", "190719.827500", "190720.287500", "190720.747500", "190721.207500", "190721.667500", "190722.127500", "190722.587500", "190723.047500", "190723.507500", "190723.967500", "190724.427500", "190724.887500", "190725.347500", "190725.807500", "190726.267500", "190726.727500", "190727.187500", "190727.647500", "190728.107500", "190728.567500", "190729.027500", "190729.487500", "190729.947500", "190730.407500", "190730.867500", "190731.327500", "190731.787500", "190732.247500", "190732.707500", "190733.167500", "190733.627500", "190734.087500", "190734.547500", "190735.007500", "190735.467500", "190735.927500", "190736.387500", "190736.847500", "190737.307500", "190737.767500", "190738.227500", "190738.687500", "190739.147500", "190739.607500", "190740.067500", "190740.527500", "190740.987500", "190741.447500", "190741.907500", "190742.367500", "190742.827500", "190743.287500", "190743.747500", "190744.207500", "190744.667500", "190745.127500", "190745.587500", "190746.047500", "190746.507500", "190746.967500", "190747.427500", "190747.887500", "190748.347500", "190748.807500", "190749.267500", "190749.727500", "190750.187500", "190750.647500", "190751.107500", "190751.567500", "190752.027500", "190752.487500", "190752.947500", "190753.407500", "190753.867500", "190754.327500", "190754.787500", "190755.247500", "190755.707500", "190756.167500", "190756.627500", "190757.087500", "190757.547500", "190758.007500", "190758.467500", "190758.927500", "190759.387500", "190759.847500", "190800.307500", "190800.767500", "190801.227500", "190801.687500", "190802.147500", "190802.607500", "190803.067500", "190803.527500", "190803.987500", "190804.447500", "190804.907500", "190805.367500", "190805.827500", "190806.287500", "190806.747500", "190807.207500", "190807.667500", "190808.127500", "190808.587500", "190809.047500", "190809.507500", "190809.967500", "190810.427500", "190810.887500", "190811.347500", "190811.807500", "190812.267500", "190812.727500", "190813.187500", "190813.647500", "190814.107500", "190814.567500", "190815.027500", "190815.487500", "190815.947500", "190816.407500", "190816.867500", "190817.327500", "190817.787500", "190818.247500", "190818.707500", "190819.167500", "190819.627500", "190820.087500", "190820.547500", "190821.007500", "190821.467500", "190821.927500", "190822.387500", "190822.847500", "190823.307500", "190823.767500", "190824.227500", "190824.687500", "190825.147500", "190825.607500", "190826.067500", "190826.527500", "190826.987500", "190827.447500", "190827.907500", "190828.367500", "190828.827500", "190829.287500", "190829.747500", "190830.207500", "190830.667500", "190831.127500", "190831.587500", "190832.047500", "190832.507500", "190832.967500", "190833.427500", "190833.887500", "190834.347500", "190834.807500", "190835.267500", "190835.727500", "190836.187500", "190836.647500", "190837.107500", "190837.567500", "190838.027500", "190838.487500", "190838.947500", "190839.407500", "190839.867500", "190840.327500", "190840.787500", "190841.247500", "190841.707500", "190842.167500", "190842.627500", "190843.087500", "190843.547500", "190844.007500", "190844.467500", "190844.927500", "190845.387500", "190845.847500", "190846.307500", "190846.767500", "190847.227500", "190847.687500", "190848.147500", "190848.607500", "190849.067500", "190849.527500", "190849.987500", "190850.447500", "190850.907500", "190851.367500", "190851.827500", "190852.287500", "190852.747500", "190853.207500", "190853.667500", "190854.127500", "190854.587500", "190855.047500", "190855.507500", "190855.967500", "190856.427500", "190856.887500", "190857.347500", "190857.807500", "190858.267500", "190858.727500", "190859.187500", "190859.647500", "190900.107500", "190900.567500", "190901.027500", "190901.487500", "190901.947500", "190902.407500", "190902.867500", "190903.327500", "190903.787500", "190904.247500", "190904.707500", "190905.167500", "190905.627500", "190906.087500", "190906.547500", "190907.007500", "190907.467500", "190907.927500", "190908.387500", "190908.847500", "190909.307500", "190909.767500", "190910.227500", "190910.687500", "190911.147500", "190911.607500", "190912.067500", "190912.527500", "190912.987500", "190913.447500", "190913.907500", "190914.367500", "190914.827500", "190915.287500", "190915.747500", "190916.207500", "190916.667500", "190917.127500", "190917.587500", "190918.047500", "190918.507500", "190918.967500", "190919.427500", "190919.887500", "190920.347500", "190920.807500", "190921.267500", "190921.727500", "190922.187500", "190922.647500", "190923.107500", "190923.567500", "190924.027500", "190924.487500", "190924.947500", "190925.407500", "190925.867500", "190926.327500", "190926.787500", "190927.247500", "190927.707500", "190928.167500", "190928.627500", "190929.087500", "190929.547500", "190930.007500", "190930.467500", "190930.927500", "190931.387500", "190931.847500", "190932.307500", "190932.767500", "190933.227500", "190933.687500", "190934.147500", "190934.607500", "190935.067500", "190935.527500", "190935.987500", "190936.447500", "190936.907500", "190937.367500", "190937.827500", "190938.287500", "190938.747500", "190939.207500", "190939.667500", "190940.127500", "190940.587500", "190941.047500", "190941.507500", "190941.967500", "190942.427500", "190942.887500", "190943.347500", "190943.807500", "190944.267500", "190944.727500", "190945.187500", "190945.647500", "190946.107500", "190946.567500", "190947.027500", "190947.487500", "190947.947500", "190948.407500", "190948.867500", "190949.327500", "190949.787500", "190950.247500", "190950.707500", "190951.167500", "190951.627500", "190952.087500", "190952.547500"],
