{
  "AcquisitionMatrixPE": 82,
  "AcquisitionNumber": 1,
  "AcquisitionTime": "19:25:36.760000",
  "BandwidthPerPixelPhaseEncode": 24.888,
  "BaseResolution": 82,
  "BodyPartExamined": "BRAIN",
  "ConsistencyInfo": "N4_VE11E_LATEST_20181129",
  "ConversionSoftware": "dcm2niix",
  "ConversionSoftwareVersion": "v1.0.20201102",
  "DerivedVendorReportedEchoSpacing": 0.00049,
  "DeviceSerialNumber": "66112",
  "DwellTime": 2e-06,
  "EchoTime": 0.0272,
  "EchoTrainLength": 82,
  "EffectiveEchoSpacing": 0.00049,
  "FlipAngle": 44,
  "ImageComments": "Unaliased MB8/PE3",
  "ImageOrientationPatientDICOM": [0.999882, 0.010981, 0.0107479, -0.00994759, 0.99572, -0.091888],
  "ImageType": [
    "ORIGINAL",
    "PRIMARY",
    "M",
    "MB",
    "ND",
    "NORM",
    "MOSAIC"
],
  "ImagingFrequency": 123.259,
  "InPlanePhaseEncodingDirectionDICOM": "COL",
  "InstitutionAddress": "Maynard 3,Hanover,NH,US,03755",
  "InstitutionName": "Dartmouth College - PBS",
  "InstitutionalDepartmentName": "Department",
  "MRAcquisitionType": "2D",
  "MagneticFieldStrength": 3,
  "Manufacturer": "Siemens",
  "ManufacturersModelName": "Prisma",
  "Modality": "MR",
  "MultibandAccelerationFactor": 8,
  "PartialFourier": 1,
  "PatientPosition": "HFS",
  "PercentPhaseFOV": 100,
  "PercentSampling": 100,
  "PhaseEncodingDirection": "j-",
  "PhaseEncodingSteps": 82,
  "PhaseResolution": 1,
  "PixelBandwidth": 3050,
  "ProcedureStepDescription": "Wager_Wager^1076_spacetop",
  "ProtocolName": "func_run-04_task-social_acq-ap-mb8",
  "PulseSequenceDetails": "%CustomerSeq%\\cmrr_mbep2d_bold",
  "ReceiveCoilActiveElements": "HEA;HEP",
  "ReceiveCoilName": "Head_32",
  "ReconMatrixPE": 82,
  "RepetitionTime": 0.46,
  "SAR": 0.112119,
  "ScanOptions": "FS",
  "ScanningSequence": "EP",
  "SequenceName": "epfid2d1_82",
  "SequenceVariant": "SK\\SS",
  "SeriesDescription": "func_run-04_task-social_acq-ap-mb8",
  "SeriesNumber": 18,
  "ShimSetting": [4219, -7746, -7286, 185, -165, -137, -46, 58],
  "SliceThickness": 2.7,
  "SliceTiming": [0, 0.2525, 0.065, 0.315, 0.1275, 0.3775, 0.19, 0, 0.2525, 0.065, 0.315, 0.1275, 0.3775, 0.19, 0, 0.2525, 0.065, 0.315, 0.1275, 0.3775, 0.19, 0, 0.2525, 0.065, 0.315, 0.1275, 0.3775, 0.19, 0, 0.2525, 0.065, 0.315, 0.1275, 0.3775, 0.19, 0, 0.2525, 0.065, 0.315, 0.1275, 0.3775, 0.19, 0, 0.2525, 0.065, 0.315, 0.1275, 0.3775, 0.19, 0, 0.2525, 0.065, 0.315, 0.1275, 0.3775, 0.19],
  "SoftwareVersions": "syngo MR E11",
  "SpacingBetweenSlices": 2.7,
  "StationName": "AWP66112",
  "TaskName": "social",
  "TotalReadoutTime": 0.03969,
  "TxRefAmp": 274.565,
  "WipMemBlock": "4b40a56c-24cf-48e5-b419-e18897ab844a||Sequence: R016 ve11e/master r/434b28f1; Aug  7 2019 18:53:46 by eja",
  "dcmmeta_affine": [
    [-2.682610273361206, -0.026688650250434875, 0.031619396060705185, 113.3382797241211],
    [-0.029461262747645378, 2.671442985534668, -0.24777965247631073, -90.05152893066406],
    [0.02883574552834034, 0.24652880430221558, 2.688420534133911, -93.166015625],
    [0.0, 0.0, 0.0, 1.0]
],
  "dcmmeta_reorient_transform": [
    [0.0, -1.0, 0.0, 81.0],
    [1.0, 0.0, 0.0, 0.0],
    [0.0, 0.0, 1.0, 0.0],
    [0.0, 0.0, 0.0, 1.0]
],
  "dcmmeta_shape": [82, 82, 56, 872],
  "dcmmeta_slice_dim": 2,
  "dcmmeta_version": 0.6,
  "global": {
    "const": {
      "AccessionNumber": "A004513",
      "AcquisitionMatrix": [82, 0, 0, 82],
      "AngioFlag": "N",
      "BitsAllocated": 16,
      "BitsStored": 16,
      "BodyPartExamined": "BRAIN",
      "Columns": 656,
      "EchoNumbers": 1,
      "EchoTime": 27.2,
      "EchoTrainLength": 82,
      "FlipAngle": 44.0,
      "HighBit": 15,
      "ImageOrientationPatient": [0.99988194333277, 0.010981016199, 0.01074786864121, -0.0099475878423, 0.99571965905723, -0.0918880082659],
      "ImagePositionPatient": [-873.4259717104, -901.49489816093, -10.719272168615],
      "ImageType": [
        "ORIGINAL",
        "PRIMARY",
        "M",
        "MB",
        "ND",
        "NORM",
        "MOSAIC"
],
      "ImagedNucleus": "1H",
      "ImagingFrequency": 123.259093,
      "InPlanePhaseEncodingDirection": "COL",
      "MRAcquisitionType": "2D",
      "MagneticFieldStrength": 3.0,
      "Manufacturer": "SIEMENS",
      "ManufacturerModelName": "Prisma",
      "Modality": "MR",
      "NumberOfAverages": 1.0,
      "NumberOfPhaseEncodingSteps": 82,
      "PercentPhaseFieldOfView": 100.0,
      "PercentSampling": 100.0,
      "PerformedProcedureStepStartTime": "182726.033000",
      "PhotometricInterpretation": "MONOCHROME2",
      "PixelBandwidth": 3050.0,
      "PixelRepresentation": 0,
      "PixelSpacing": [2.6829268932343, 2.6829268932343],
      "ProtocolName": "func_run-04_task-social_acq-ap-mb8",
      "RepetitionTime": 460.0,
      "Rows": 656,
      "SAR": 0.11211906805126,
      "SamplesPerPixel": 1,
      "ScanOptions": "FS",
      "ScanningSequence": "EP",
      "SequenceName": "epfid2d1_82",
      "SequenceVariant": [
        "SK",
        "SS"
],
      "SeriesDescription": "func_run-04_task-social_acq-ap-mb8",
      "SeriesNumber": 18,
      "SeriesTime": "192606.089000",
      "SliceLocation": -83.175114904231,
      "SliceThickness": 2.7000000476837,
      "SmallestImagePixelValue": 0,
      "SoftwareVersions": "syngo MR E11",
      "SpacingBetweenSlices": 2.699999897279,
      "SpecificCharacterSet": "ISO_IR 100",
      "StudyID": "1",
      "StudyTime": "182725.983000",
      "TransmitCoilName": "Body",
      "VariableFlipAngleFlag": "N",
      "WindowCenterWidthExplanation": "Algo1"
    },
    "slices": {}
  },
  "time": {
    "samples": {
      "AcquisitionNumber": [1, 2, 3, 4, 5, 6, 7, 8, 9, 10, 11, 12, 13, 14, 15, 16, 17, 18, 19, 20, 21, 22, 23, 24, 25, 26, 27, 28, 29, 30, 31, 32, 33, 34, 35, 36, 37, 38, 39, 40, 41, 42, 43, 44, 45, 46, 47, 48, 49, 50, 51, 52, 53, 54, 55, 56, 57, 58, 59, 60, 61, 62, 63, 64, 65, 66, 67, 68, 69, 70, 71, 72, 73, 74, 75, 76, 77, 78, 79, 80, 81, 82, 83, 84, 85, 86, 87, 88, 89, 90, 91, 92, 93, 94, 95, 96, 97, 98, 99, 100, 101, 102, 103, 104, 105, 106, 107, 108, 109, 110, 111, 112, 113, 114, 115, 116, 117, 118, 119, 120, 121, 122, 123, 124, 125, 126, 127, 128, 129, 130, 131, 132, 133, 134, 135, 136, 137, 138, 139, 140, 141, 142, 143, 144, 145, 146, 147, 148, 149, 150, 151, 152, 153, 154, 155, 156, 157, 158, 159, 160, 161, 162, 163, 164, 165, 166, 167, 168, 169, 170, 171, 172, 173, 174, 175, 176, 177, 178, 179, 180, 181, 182, 183, 184, 185, 186, 187, 188, 189, 190, 191, 192, 193, 194, 195, 196, 197, 198, 199, 200, 201, 202, 203, 204, 205, 206, 207, 208, 209, 210, 211, 212, 213, 214, 215, 216, 217, 218, 219, 220, 221, 222, 223, 224, 225, 226, 227, 228, 229, 230, 231, 232, 233, 234, 235, 236, 237, 238, 239, 240, 241, 242, 243, 244, 245, 246, 247, 248, 249, 250, 251, 252, 253, 254, 255, 256, 257, 258, 259, 260, 261, 262, 263, 264, 265, 266, 267, 268, 269, 270, 271, 272, 273, 274, 275, 276, 277, 278, 279, 280, 281, 282, 283, 284, 285, 286, 287, 288, 289, 290, 291, 292, 293, 294, 295, 296, 297, 298, 299, 300, 301, 302, 303, 304, 305, 306, 307, 308, 309, 310, 311, 312, 313, 314, 315, 316, 317, 318, 319, 320, 321, 322, 323, 324, 325, 326, 327, 328, 329, 330, 331, 332, 333, 334, 335, 336, 337, 338, 339, 340, 341, 342, 343, 344, 345, 346, 347, 348, 349, 350, 351, 352, 353, 354, 355, 356, 357, 358, 359, 360, 361, 362, 363, 364, 365, 366, 367, 368, 369, 370, 371, 372, 373, 374, 375, 376, 377, 378, 379, 380, 381, 382, 383, 384, 385, 386, 387, 388, 389, 390, 391, 392, 393, 394, 395, 396, 397, 398, 399, 400, 401, 402, 403, 404, 405, 406, 407, 408, 409, 410, 411, 412, 413, 414, 415, 416, 417, 418, 419, 420, 421, 422, 423, 424, 425, 426, 427, 428, 429, 430, 431, 432, 433, 434, 435, 436, 437, 438, 439, 440, 441, 442, 443, 444, 445, 446, 447, 448, 449, 450, 451, 452, 453, 454, 455, 456, 457, 458, 459, 460, 461, 462, 463, 464, 465, 466, 467, 468, 469, 470, 471, 472, 473, 474, 475, 476, 477, 478, 479, 480, 481, 482, 483, 484, 485, 486, 487, 488, 489, 490, 491, 492, 493, 494, 495, 496, 497, 498, 499, 500, 501, 502, 503, 504, 505, 506, 507, 508, 509, 510, 511, 512, 513, 514, 515, 516, 517, 518, 519, 520, 521, 522, 523, 524, 525, 526, 527, 528, 529, 530, 531, 532, 533, 534, 535, 536, 537, 538, 539, 540, 541, 542, 543, 544, 545, 546, 547, 548, 549, 550, 551, 552, 553, 554, 555, 556, 557, 558, 559, 560, 561, 562, 563, 564, 565, 566, 567, 568, 569, 570, 571, 572, 573, 574, 575, 576, 577, 578, 579, 580, 581, 582, 583, 584, 585, 586, 587, 588, 589, 590, 591, 592, 593, 594, 595, 596, 597, 598, 599, 600, 601, 602, 603, 604, 605, 606, 607, 608, 609, 610, 611, 612, 613, 614, 615, 616, 617, 618, 619, 620, 621, 622, 623, 624, 625, 626, 627, 628, 629, 630, 631, 632, 633, 634, 635, 636, 637, 638, 639, 640, 641, 642, 643, 644, 645, 646, 647, 648, 649, 650, 651, 652, 653, 654, 655, 656, 657, 658, 659, 660, 661, 662, 663, 664, 665, 666, 667, 668, 669, 670, 671, 672, 673, 674, 675, 676, 677, 678, 679, 680, 681, 682, 683, 684, 685, 686, 687, 688, 689, 690, 691, 692, 693, 694, 695, 696, 697, 698, 699, 700, 701, 702, 703, 704, 705, 706, 707, 708, 709, 710, 711, 712, 713, 714, 715, 716, 717, 718, 719, 720, 721, 722, 723, 724, 725, 726, 727, 728, 729, 730, 731, 732, 733, 734, 735, 736, 737, 738, 739, 740, 741, 742, 743, 744, 745, 746, 747, 748, 749, 750, 751, 752, 753, 754, 755, 756, 757, 758, 759, 760, 761, 762, 763, 764, 765, 766, 767, 768, 769, 770, 771, 772, 773, 774, 775, 776, 777, 778, 779, 780, 781, 782, 783, 784, 785, 786, 787, 788, 789, 790, 791, 792, 793, 794, 795, 796, 797, 798, 799, 800, 801, 802, 803, 804, 805, 806, 807, 808, 809, 810, 811, 812, 813, 814, 815, 816, 817, 818, 819, 820, 821, 822, 823, 824, 825, 826, 827, 828, 829, 830, 831, 832, 833, 834, 835, 836, 837, 838, 839, 840, 841, 842, 843, 844, 845, 846, 847, 848, 849, 850, 851, 852, 853, 854, 855, 856, 857, 858, 859, 860, 861, 862, 863, 864, 865, 866, 867, 868, 869, 870, 871, 872],
      "AcquisitionTime": ["192536.760000", "192537.220000", "192537.680000", "192538.140000", "192538.600000", "192539.060000", "192539.520000", "192539.980000", "192540.440000", "192540.900000", "192541.360000", "192541.820000", "192542.280000", "192542.740000", "192543.200000", "192543.660000", "192544.120000", "192544.580000", "192545.040000", "192545.500000", "192545.960000", "192546.420000", "192546.880000", "192547.340000", "192547.800000", "192548.260000", "192548.720000", "192549.180000", "192549.640000", "192550.100000", "192550.560000", "192551.020000", "192551.480000", "192551.940000", "192552.400000", "192552.860000", "192553.320000", "192553.780000", "192554.240000", "192554.700000", "192555.160000", "192555.620000", "192556.080000", "192556.540000", "192557.000000", "192557.460000", "192557.920000", "192558.380000", "192558.840000", "192559.300000", "192559.760000", "192600.220000", "192600.680000", "192601.140000", "192601.600000", "192602.060000", "192602.520000", "192602.980000", "192603.440000", "192603.900000", "192604.360000", "192604.820000", "192605.280000", "192605.740000", "192606.200000", "192606.660000", "192607.120000", "192607.580000", "192608.040000", "192608.500000", "192608.960000", "192609.420000", "192609.880000", "192610.340000", "192610.800000", "192611.260000", "192611.720000", "192612.180000", "192612.640000", "192613.100000", "192613.560000", "192614.020000", "192614.480000", "192614.940000", "192615.400000", "192615.860000", "192616.320000", "192616.780000", "192617.240000", "192617.700000", "192618.160000", "192618.620000", "192619.080000", "192619.540000", "192620.000000", "192620.460000", "192620.920000", "192621.380000", "192621.840000", "192622.300000", "192622.760000", "192623.220000", "192623.680000", "192624.140000", "192624.600000", "192625.060000", "192625.520000", "192625.980000", "192626.440000", "192626.900000", "192627.360000", "192627.820000", "192628.280000", "192628.740000", "192629.200000", "192629.660000", "192630.120000", "192630.580000", "192631.040000", "192631.500000", "192631.960000", "192632.420000", "192632.880000", "192633.340000", "192633.800000", "192634.260000", "192634.720000", "192635.180000", "192635.640000", "192636.100000", "192636.560000", "192637.020000", "192637.480000", "192637.940000", "192638.400000", "192638.860000", "192639.320000", "192639.780000", "192640.240000", "192640.700000", "192641.160000", "192641.620000", "192642.080000", "192642.540000", "192643.000000", "192643.460000", "192643.920000", "192644.380000", "192644.840000", "192645.300000", "192645.760000", "192646.220000", "192646.680000", "192647.140000", "192647.600000", "192648.060000", "192648.520000", "192648.980000", "192649.440000", "192649.900000", "192650.360000", "192650.820000", "192651.280000", "192651.740000", "192652.200000", "192652.660000", "192653.120000", "192653.580000", "192654.040000", "192654.500000", "192654.960000", "192655.420000", "192655.880000", "192656.340000", "192656.800000", "192657.260000", "192657.720000", "192658.180000", "192658.640000", "192659.100000", "192659.560000", "192700.020000", "192700.480000", "192700.940000", "192701.400000", "192701.860000", "192702.320000", "192702.780000", "192703.240000", "192703.700000", "192704.160000", "192704.620000", "192705.080000", "192705.540000", "192706.000000", "192706.460000", "192706.920000", "192707.380000", "192707.840000", "192708.300000", "192708.760000", "192709.220000", "192709.680000", "192710.140000", "192710.600000", "192711.060000", "192711.520000", "192711.980000", "192712.440000", "192712.900000", "192713.360000", "192713.820000", "192714.280000", "192714.740000", "192715.200000", "192715.660000", "192716.120000", "192716.580000", "192717.040000", "192717.500000", "192717.960000", "192718.420000", "192718.880000", "192719.340000", "192719.800000", "192720.260000", "192720.720000", "192721.180000", "192721.640000", "192722.100000", "192722.560000", "192723.020000", "192723.480000", "192723.940000", "192724.400000", "192724.860000", "192725.320000", "192725.780000", "192726.240000", "192726.700000", "192727.160000", "192727.620000", "192728.080000", "192728.540000", "192729.000000", "192729.460000", "192729.920000", "192730.380000", "192730.840000", "192731.300000", "192731.760000", "192732.220000", "192732.680000", "192733.140000", "192733.600000", "192734.060000", "192734.520000", "192734.980000", "192735.440000", "192735.900000", "192736.360000", "192736.820000", "192737.280000", "192737.740000", "192738.200000", "192738.660000", "192739.120000", "192739.580000", "192740.040000", "192740.500000", "192740.960000", "192741.420000", "192741.880000", "192742.340000", "192742.800000", "192743.260000", "192743.720000", "192744.180000", "192744.640000", "192745.100000", "192745.560000", "192746.020000", "192746.480000", "192746.940000", "192747.400000", "192747.860000", "192748.320000", "192748.780000", "192749.240000", "192749.700000", "192750.160000", "192750.620000", "192751.080000", "192751.540000", "192752.000000", "192752.460000", "192752.920000", "192753.380000", "192753.840000", "192754.300000", "192754.760000", "192755.220000", "192755.680000", "192756.140000", "192756.600000", "192757.060000", "192757.520000", "192757.980000", "192758.440000", "192758.900000", "192759.360000", "192759.820000", "192800.280000", "192800.740000", "192801.200000", "192801.660000", "192802.120000", "192802.580000", "192803.040000", "192803.500000", "192803.960000", "192804.420000", "192804.880000", "192805.340000", "192805.800000", "192806.260000", "192806.720000", "192807.180000", "192807.640000", "192808.100000", "192808.560000", "192809.020000", "192809.480000", "192809.940000", "192810.400000", "192810.860000", "192811.320000", "192811.780000", "192812.240000", "192812.700000", "192813.160000", "192813.620000", "192814.080000", "192814.540000", "192815.000000", "192815.460000", "192815.920000", "192816.380000", "192816.840000", "192817.300000", "192817.760000", "192818.220000", "192818.680000", "192819.140000", "192819.600000", "192820.060000", "192820.520000", "192820.980000", "192821.440000", "192821.900000", "192822.360000", "192822.820000", "192823.280000", "192823.740000", "192824.200000", "192824.660000", "192825.120000", "192825.580000", "192826.040000", "192826.500000", "192826.960000", "192827.420000", "192827.880000", "192828.340000", "192828.800000", "192829.260000", "192829.720000", "192830.180000", "192830.640000", "192831.100000", "192831.560000", "192832.020000", "192832.480000", "192832.940000", "192833.400000", "192833.860000", "192834.320000", "192834.780000", "192835.240000", "192835.700000", "192836.160000", "192836.620000", "192837.080000", "192837.540000", "192838.000000", "192838.460000", "192838.920000", "192839.380000", "192839.840000", "192840.300000", "192840.760000", "192841.220000", "192841.680000", "192842.140000", "192842.600000", "192843.060000", "192843.520000", "192843.980000", "192844.440000", "192844.900000", "192845.360000", "192845.820000", "192846.280000", "192846.740000", "192847.200000", "192847.660000", "192848.120000", "192848.580000", "192849.040000", "192849.500000", "192849.960000", "192850.420000", "192850.880000", "192851.340000", "192851.800000", "192852.260000", "192852.720000", "192853.180000", "192853.640000", "192854.100000", "192854.560000", "192855.020000", "192855.480000", "192855.940000", "192856.400000", "192856.860000", "192857.320000", "192857.780000", "192858.240000", "192858.700000", "192859.160000", "192859.620000", "192900.080000", "192900.540000", "192901.000000", "192901.460000", "192901.920000", "192902.380000", "192902.840000", "192903.300000", "192903.760000", "192904.220000", "192904.680000", "192905.140000", "192905.600000", "192906.060000", "192906.520000", "192906.980000", "192907.440000", "192907.900000", "192908.360000", "192908.820000", "192909.280000", "192909.740000", "192910.200000", "192910.660000", "192911.120000", "192911.580000", "192912.040000", "192912.500000", "192912.960000", "192913.420000", "192913.880000", "192914.340000", "192914.800000", "192915.260000", "192915.720000", "192916.180000", "192916.640000", "192917.100000", "192917.560000", "192918.020000", "192918.480000", "192918.940000", "192919.400000", "192919.860000", "192920.320000", "192920.780000", "192921.240000", "192921.700000", "192922.160000", "192922.620000", "192923.080000", "192923.540000", "192924.000000", "192924.460000", "192924.920000", "192925.380000", "192925.840000", "192926.300000", "192926.760000", "192927.220000", "192927.680000", "192928.140000", "192928.600000", "192929.060000", "192929.520000", "192929.980000", "192930.440000", "192930.900000", "192931.360000", "192931.820000", "192932.280000", "192932.740000", "192933.200000", "192933.660000", "192934.120000", "192934.580000", "192935.040000", "192935.500000", "192935.960000", "192936.420000", "192936.880000", "192937.340000", "192937.800000", "192938.260000", "192938.720000", "192939.180000", "192939.640000", "192940.100000", "192940.560000", "192941.020000", "192941.480000", "192941.940000", "192942.400000", "192942.860000", "192943.320000", "192943.780000", "192944.240000", "192944.700000", "192945.160000", "192945.620000", "192946.080000", "192946.540000", "192947.000000", "192947.460000", "192947.920000", "192948.380000", "192948.840000", "192949.300000", "192949.760000", "192950.220000", "192950.680000", "192951.140000", "192951.600000", "192952.060000", "192952.520000", "192952.980000", "192953.440000", "192953.900000", "192954.360000", "192954.820000", "192955.280000", "192955.740000", "192956.200000", "192956.660000", "192957.120000", "192957.580000", "192958.040000", "192958.500000", "192958.960000", "192959.420000", "192959.880000", "193000.340000", "193000.800000", "193001.260000", "193001.720000", "193002.180000", "193002.640000", "193003.100000", "193003.560000", "193004.020000", "193004.480000", "193004.940000", "193005.400000", "193005.860000", "193006.320000", "193006.780000", "193007.240000", "193007.700000", "193008.160000", "193008.620000", "193009.080000", "193009.540000", "193010.000000", "193010.460000", "193010.920000", "193011.380000", "193011.840000", "193012.300000", "193012.760000", "193013.220000", "193013.680000", "193014.140000", "193014.600000", "193015.060000", "193015.520000", "193015.980000", "193016.440000", "193016.900000", "193017.360000", "193017.820000", "193018.280000", "193018.740000", "193019.200000", "193019.660000", "193020.120000", "193020.580000", "193021.040000", "193021.500000", "193021.960000", "193022.420000", "193022.880000", "193023.340000", "193023.800000", "193024.260000", "193024.720000", "193025.180000", "193025.640000", "193026.100000", "193026.560000", "193027.020000", "193027.480000", "193027.940000", "193028.400000", "193028.860000", "193029.320000", "193029.780000", "193030.240000", "193030.700000", "193031.160000", "193031.620000", "193032.080000", "193032.540000", "193033.000000", "193033.460000", "193033.920000", "193034.380000", "193034.840000", "193035.300000", "193035.760000", "193036.220000", "193036.680000", "193037.140000", "193037.600000", "193038.060000", "193038.520000", "193038.980000", "193039.440000", "193039.900000", "193040.360000", "193040.820000", "193041.280000", "193041.740000", "193042.200000", "193042.660000", "193043.120000", "193043.580000", "193044.040000", "193044.500000", "193044.960000", "193045.420000", "193045.880000", "193046.340000", "193046.800000", "193047.260000", "193047.720000", "193048.180000", "193048.640000", "193049.100000", "193049.560000", "193050.020000", "193050.480000", "193050.940000", "193051.400000", "193051.860000", "193052.320000", "193052.780000", "193053.240000", "193053.700000", "193054.160000", "193054.620000", "193055.080000", "193055.540000", "193056.000000", "193056.460000", "193056.920000", "193057.380000", "193057.840000", "193058.300000", "193058.760000", "193059.220000", "193059.680000", "193100.140000", "193100.600000", "193101.060000", "193101.520000", "193101.980000", "193102.440000", "193102.900000", "193103.360000", "193103.820000", "193104.280000", "193104.740000", "193105.200000", "193105.660000", "193106.120000", "193106.580000", "193107.040000", "193107.500000", "193107.960000", "193108.420000", "193108.880000", "193109.340000", "193109.800000", "193110.260000", "193110.720000", "193111.180000", "193111.640000", "193112.100000", "193112.560000", "193113.020000", "193113.480000", "193113.940000", "193114.400000", "193114.860000", "193115.320000", "193115.780000", "193116.240000", "193116.700000", "193117.160000", "193117.620000", "193118.080000", "193118.540000", "193119.000000", "193119.460000", "193119.920000", "193120.380000", "193120.840000", "193121.300000", "193121.760000", "193122.220000", "193122.680000", "193123.140000", "193123.600000", "193124.060000", "193124.520000", "193124.980000", "193125.440000", "193125.900000", "193126.360000", "193126.820000", "193127.280000", "193127.740000", "193128.200000", "193128.660000", "193129.120000", "193129.580000", "193130.040000", "193130.500000", "193130.960000", "193131.420000", "193131.880000", "193132.340000", "193132.800000", "193133.260000", "193133.720000", "193134.180000", "193134.640000", "193135.100000", "193135.560000", "193136.020000", "193136.480000", "193136.940000", "193137.400000", "193137.860000", "193138.320000", "193138.780000", "193139.240000", "193139.700000", "193140.160000", "193140.620000", "193141.080000", "193141.540000", "193142.000000", "193142.460000", "193142.920000", "193143.380000", "193143.840000", "193144.300000", "193144.760000", "193145.220000", "193145.680000", "193146.140000", "193146.600000", "193147.060000", "193147.520000", "193147.980000", "193148.440000", "193148.900000", "193149.360000", "193149.820000", "193150.280000", "193150.740000", "193151.200000", "193151.660000", "193152.120000", "193152.580000", "193153.040000", "193153.500000", "193153.960000", "193154.420000", "193154.880000", "193155.340000", "193155.800000", "193156.260000", "193156.720000", "193157.180000", "193157.640000", "193158.100000", "193158.560000", "193159.020000", "193159.480000", "193159.940000", "193200.400000", "193200.860000", "193201.320000", "193201.780000", "193202.240000", "193202.700000", "193203.160000", "193203.620000", "193204.080000", "193204.540000", "193205.000000", "193205.460000", "193205.920000", "193206.380000", "193206.840000", "193207.300000", "193207.760000", "193208.220000", "193208.680000", "193209.140000", "193209.600000", "193210.060000", "193210.520000", "193210.980000", "193211.440000", "193211.900000", "193212.360000", "193212.820000", "193213.280000", "193213.740000", "193214.200000", "193214.660000", "193215.120000", "193215.580000", "193216.040000", "193216.500000", "193216.960000", "193217.420000"],
