{
  "AcquisitionMatrixPE": 82,
  "AcquisitionNumber": 1,
  "AcquisitionTime": "19:18:40.820000",
  "BandwidthPerPixelPhaseEncode": 24.888,
  "BaseResolution": 82,
  "BodyPartExamined": "BRAIN",
  "ConsistencyInfo": "N4_VE11E_LATEST_20181129",
  "ConversionSoftware": "dcm2niix",
  "ConversionSoftwareVersion": "v1.0.20201102",
  "DerivedVendorReportedEchoSpacing": 0.00049,
  "DeviceSerialNumber": "66112",
  "DwellTime": 2e-06,
  "EchoTime": 0.0272,
  "EchoTrainLength": 82,
  "EffectiveEchoSpacing": 0.00049,
  "FlipAngle": 44,
  "ImageComments": "Unaliased MB8/PE3",
  "ImageOrientationPatientDICOM": [0.999882, 0.010981, 0.0107479, -0.00994759, 0.99572, -0.091888],
  "ImageType": [
    "ORIGINAL",
    "PRIMARY",
    "M",
    "MB",
    "ND",
    "NORM",
    "MOSAIC"
],
  "ImagingFrequency": 123.259,
  "InPlanePhaseEncodingDirectionDICOM": "COL",
  "InstitutionAddress": "Maynard 3,Hanover,NH,US,03755",
  "InstitutionName": "Dartmouth College - PBS",
  "InstitutionalDepartmentName": "Department",
  "MRAcquisitionType": "2D",
  "MagneticFieldStrength": 3,
  "Manufacturer": "Siemens",
  "ManufacturersModelName": "Prisma",
  "Modality": "MR",
  "MultibandAccelerationFactor": 8,
  "PartialFourier": 1,
  "PatientPosition": "HFS",
  "PercentPhaseFOV": 100,
  "PercentSampling": 100,
  "PhaseEncodingDirection": "j-",
  "PhaseEncodingSteps": 82,
  "PhaseResolution": 1,
  "PixelBandwidth": 3050,
  "ProcedureStepDescription": "Wager_Wager^1076_spacetop",
  "ProtocolName": "func_run-03_task-social_acq-ap-mb8",
  "PulseSequenceDetails": "%CustomerSeq%\\cmrr_mbep2d_bold",
  "ReceiveCoilActiveElements": "HEA;HEP",
  "ReceiveCoilName": "Head_32",
  "ReconMatrixPE": 82,
  "RepetitionTime": 0.46,
  "SAR": 0.112119,
  "ScanOptions": "FS",
  "ScanningSequence": "EP",
  "SequenceName": "epfid2d1_82",
  "SequenceVariant": "SK\\SS",
  "SeriesDescription": "func_run-03_task-social_acq-ap-mb8",
  "SeriesNumber": 16,
  "ShimSetting": [4219, -7746, -7286, 185, -165, -137, -46, 58],
  "SliceThickness": 2.7,
  "SliceTiming": [0, 0.25, 0.0625, 0.315, 0.125, 0.3775, 0.1875, 0, 0.25, 0.0625, 0.315, 0.125, 0.3775, 0.1875, 0, 0.25, 0.0625, 0.315, 0.125, 0.3775, 0.1875, 0, 0.25, 0.0625, 0.315, 0.125, 0.3775, 0.1875, 0, 0.25, 0.0625, 0.315, 0.125, 0.3775, 0.1875, 0, 0.25, 0.0625, 0.315, 0.125, 0.3775, 0.1875, 0, 0.25, 0.0625, 0.315, 0.125, 0.3775, 0.1875, 0, 0.25, 0.0625, 0.315, 0.125, 0.3775, 0.1875],
  "SoftwareVersions": "syngo MR E11",
  "SpacingBetweenSlices": 2.7,
  "StationName": "AWP66112",
  "TaskName": "social",
  "TotalReadoutTime": 0.03969,
  "TxRefAmp": 274.565,
  "WipMemBlock": "1777cfbc-eb46-43a2-993a-ba2b8a1be453||Sequence: R016 ve11e/master r/434b28f1; Aug  7 2019 18:53:46 by eja",
  "dcmmeta_affine": [
    [-2.682610273361206, -0.026688650250434875, 0.031619396060705185, 113.3382797241211],
    [-0.029461262747645378, 2.671442985534668, -0.24777965247631073, -90.05152893066406],
    [0.02883574552834034, 0.24652880430221558, 2.688420534133911, -93.166015625],
    [0.0, 0.0, 0.0, 1.0]
],
  "dcmmeta_reorient_transform": [
    [0.0, -1.0, 0.0, 81.0],
    [1.0, 0.0, 0.0, 0.0],
    [0.0, 0.0, 1.0, 0.0],
    [0.0, 0.0, 0.0, 1.0]
],
  "dcmmeta_shape": [82, 82, 56, 872],
  "dcmmeta_slice_dim": 2,
  "dcmmeta_version": 0.6,
  "global": {
    "const": {
      "AccessionNumber": "A004513",
      "AcquisitionMatrix": [82, 0, 0, 82],
      "AngioFlag": "N",
      "BitsAllocated": 16,
      "BitsStored": 16,
      "BodyPartExamined": "BRAIN",
      "Columns": 656,
      "EchoNumbers": 1,
      "EchoTime": 27.2,
      "EchoTrainLength": 82,
      "FlipAngle": 44.0,
      "HighBit": 15,
      "ImageOrientationPatient": [0.99988194333277, 0.010981016199, 0.01074786864121, -0.0099475878423, 0.99571965905723, -0.0918880082659],
      "ImagePositionPatient": [-873.4259717104, -901.49489816093, -10.719272168615],
      "ImageType": [
        "ORIGINAL",
        "PRIMARY",
        "M",
        "MB",
        "ND",
        "NORM",
        "MOSAIC"
],
      "ImagedNucleus": "1H",
      "ImagingFrequency": 123.259091,
      "InPlanePhaseEncodingDirection": "COL",
      "MRAcquisitionType": "2D",
      "MagneticFieldStrength": 3.0,
      "Manufacturer": "SIEMENS",
      "ManufacturerModelName": "Prisma",
      "Modality": "MR",
      "NumberOfAverages": 1.0,
      "NumberOfPhaseEncodingSteps": 82,
      "PercentPhaseFieldOfView": 100.0,
      "PercentSampling": 100.0,
      "PerformedProcedureStepStartTime": "182726.033000",
      "PhotometricInterpretation": "MONOCHROME2",
      "PixelBandwidth": 3050.0,
      "PixelRepresentation": 0,
      "PixelSpacing": [2.6829268932343, 2.6829268932343],
      "ProtocolName": "func_run-03_task-social_acq-ap-mb8",
      "RepetitionTime": 460.0,
      "Rows": 656,
      "SAR": 0.11211906805126,
      "SamplesPerPixel": 1,
      "ScanOptions": "FS",
      "ScanningSequence": "EP",
      "SequenceName": "epfid2d1_82",
      "SequenceVariant": [
        "SK",
        "SS"
],
      "SeriesDescription": "func_run-03_task-social_acq-ap-mb8",
      "SeriesNumber": 16,
      "SeriesTime": "191906.002000",
      "SliceLocation": -83.175114904231,
      "SliceThickness": 2.7000000476837,
      "SmallestImagePixelValue": 0,
      "SoftwareVersions": "syngo MR E11",
      "SpacingBetweenSlices": 2.699999897279,
      "SpecificCharacterSet": "ISO_IR 100",
      "StudyID": "1",
      "StudyTime": "182725.983000",
      "TransmitCoilName": "Body",
      "VariableFlipAngleFlag": "N",
      "WindowCenterWidthExplanation": "Algo1"
    },
    "slices": {}
  },
  "time": {
    "samples": {
      "AcquisitionNumber": [1, 2, 3, 4, 5, 6, 7, 8, 9, 10, 11, 12, 13, 14, 15, 16, 17, 18, 19, 20, 21, 22, 23, 24, 25, 26, 27, 28, 29, 30, 31, 32, 33, 34, 35, 36, 37, 38, 39, 40, 41, 42, 43, 44, 45, 46, 47, 48, 49, 50, 51, 52, 53, 54, 55, 56, 57, 58, 59, 60, 61, 62, 63, 64, 65, 66, 67, 68, 69, 70, 71, 72, 73, 74, 75, 76, 77, 78, 79, 80, 81, 82, 83, 84, 85, 86, 87, 88, 89, 90, 91, 92, 93, 94, 95, 96, 97, 98, 99, 100, 101, 102, 103, 104, 105, 106, 107, 108, 109, 110, 111, 112, 113, 114, 115, 116, 117, 118, 119, 120, 121, 122, 123, 124, 125, 126, 127, 128, 129, 130, 131, 132, 133, 134, 135, 136, 137, 138, 139, 140, 141, 142, 143, 144, 145, 146, 147, 148, 149, 150, 151, 152, 153, 154, 155, 156, 157, 158, 159, 160, 161, 162, 163, 164, 165, 166, 167, 168, 169, 170, 171, 172, 173, 174, 175, 176, 177, 178, 179, 180, 181, 182, 183, 184, 185, 186, 187, 188, 189, 190, 191, 192, 193, 194, 195, 196, 197, 198, 199, 200, 201, 202, 203, 204, 205, 206, 207, 208, 209, 210, 211, 212, 213, 214, 215, 216, 217, 218, 219, 220, 221, 222, 223, 224, 225, 226, 227, 228, 229, 230, 231, 232, 233, 234, 235, 236, 237, 238, 239, 240, 241, 242, 243, 244, 245, 246, 247, 248, 249, 250, 251, 252, 253, 254, 255, 256, 257, 258, 259, 260, 261, 262, 263, 264, 265, 266, 267, 268, 269, 270, 271, 272, 273, 274, 275, 276, 277, 278, 279, 280, 281, 282, 283, 284, 285, 286, 287, 288, 289, 290, 291, 292, 293, 294, 295, 296, 297, 298, 299, 300, 301, 302, 303, 304, 305, 306, 307, 308, 309, 310, 311, 312, 313, 314, 315, 316, 317, 318, 319, 320, 321, 322, 323, 324, 325, 326, 327, 328, 329, 330, 331, 332, 333, 334, 335, 336, 337, 338, 339, 340, 341, 342, 343, 344, 345, 346, 347, 348, 349, 350, 351, 352, 353, 354, 355, 356, 357, 358, 359, 360, 361, 362, 363, 364, 365, 366, 367, 368, 369, 370, 371, 372, 373, 374, 375, 376, 377, 378, 379, 380, 381, 382, 383, 384, 385, 386, 387, 388, 389, 390, 391, 392, 393, 394, 395, 396, 397, 398, 399, 400, 401, 402, 403, 404, 405, 406, 407, 408, 409, 410, 411, 412, 413, 414, 415, 416, 417, 418, 419, 420, 421, 422, 423, 424, 425, 426, 427, 428, 429, 430, 431, 432, 433, 434, 435, 436, 437, 438, 439, 440, 441, 442, 443, 444, 445, 446, 447, 448, 449, 450, 451, 452, 453, 454, 455, 456, 457, 458, 459, 460, 461, 462, 463, 464, 465, 466, 467, 468, 469, 470, 471, 472, 473, 474, 475, 476, 477, 478, 479, 480, 481, 482, 483, 484, 485, 486, 487, 488, 489, 490, 491, 492, 493, 494, 495, 496, 497, 498, 499, 500, 501, 502, 503, 504, 505, 506, 507, 508, 509, 510, 511, 512, 513, 514, 515, 516, 517, 518, 519, 520, 521, 522, 523, 524, 525, 526, 527, 528, 529, 530, 531, 532, 533, 534, 535, 536, 537, 538, 539, 540, 541, 542, 543, 544, 545, 546, 547, 548, 549, 550, 551, 552, 553, 554, 555, 556, 557, 558, 559, 560, 561, 562, 563, 564, 565, 566, 567, 568, 569, 570, 571, 572, 573, 574, 575, 576, 577, 578, 579, 580, 581, 582, 583, 584, 585, 586, 587, 588, 589, 590, 591, 592, 593, 594, 595, 596, 597, 598, 599, 600, 601, 602, 603, 604, 605, 606, 607, 608, 609, 610, 611, 612, 613, 614, 615, 616, 617, 618, 619, 620, 621, 622, 623, 624, 625, 626, 627, 628, 629, 630, 631, 632, 633, 634, 635, 636, 637, 638, 639, 640, 641, 642, 643, 644, 645, 646, 647, 648, 649, 650, 651, 652, 653, 654, 655, 656, 657, 658, 659, 660, 661, 662, 663, 664, 665, 666, 667, 668, 669, 670, 671, 672, 673, 674, 675, 676, 677, 678, 679, 680, 681, 682, 683, 684, 685, 686, 687, 688, 689, 690, 691, 692, 693, 694, 695, 696, 697, 698, 699, 700, 701, 702, 703, 704, 705, 706, 707, 708, 709, 710, 711, 712, 713, 714, 715, 716, 717, 718, 719, 720, 721, 722, 723, 724, 725, 726, 727, 728, 729, 730, 731, 732, 733, 734, 735, 736, 737, 738, 739, 740, 741, 742, 743, 744, 745, 746, 747, 748, 749, 750, 751, 752, 753, 754, 755, 756, 757, 758, 759, 760, 761, 762, 763, 764, 765, 766, 767, 768, 769, 770, 771, 772, 773, 774, 775, 776, 777, 778, 779, 780, 781, 782, 783, 784, 785, 786, 787, 788, 789, 790, 791, 792, 793, 794, 795, 796, 797, 798, 799, 800, 801, 802, 803, 804, 805, 806, 807, 808, 809, 810, 811, 812, 813, 814, 815, 816, 817, 818, 819, 820, 821, 822, 823, 824, 825, 826, 827, 828, 829, 830, 831, 832, 833, 834, 835, 836, 837, 838, 839, 840, 841, 842, 843, 844, 845, 846, 847, 848, 849, 850, 851, 852, 853, 854, 855, 856, 857, 858, 859, 860, 861, 862, 863, 864, 865, 866, 867, 868, 869, 870, 871, 872],
      "AcquisitionTime": ["191840.820000", "191841.280000", "191841.740000", "191842.200000", "191842.660000", "191843.120000", "191843.580000", "191844.040000", "191844.500000", "191844.960000", "191845.420000", "191845.880000", "191846.340000", "191846.800000", "191847.260000", "191847.720000", "191848.180000", "191848.640000", "191849.100000", "191849.560000", "191850.020000", "191850.480000", "191850.940000", "191851.400000", "191851.860000", "191852.320000", "191852.780000", "191853.240000", "191853.700000", "191854.160000", "191854.620000", "191855.080000", "191855.540000", "191856.000000", "191856.460000", "191856.920000", "191857.380000", "191857.840000", "191858.300000", "191858.760000", "191859.220000", "191859.680000", "191900.140000", "191900.600000", "191901.060000", "191901.520000", "191901.980000", "191902.440000", "191902.900000", "191903.360000", "191903.820000", "191904.280000", "191904.740000", "191905.200000", "191905.660000", "191906.120000", "191906.580000", "191907.040000", "191907.500000", "191907.960000", "191908.420000", "191908.880000", "191909.340000", "191909.800000", "191910.260000", "191910.720000", "191911.180000", "191911.640000", "191912.100000", "191912.560000", "191913.020000", "191913.480000", "191913.940000", "191914.400000", "191914.860000", "191915.320000", "191915.780000", "191916.240000", "191916.700000", "191917.160000", "191917.620000", "191918.080000", "191918.540000", "191919.000000", "191919.460000", "191919.920000", "191920.380000", "191920.840000", "191921.300000", "191921.760000", "191922.220000", "191922.680000", "191923.140000", "191923.600000", "191924.060000", "191924.520000", "191924.980000", "191925.440000", "191925.900000", "191926.360000", "191926.820000", "191927.280000", "191927.740000", "191928.200000", "191928.660000", "191929.120000", "191929.580000", "191930.040000", "191930.500000", "191930.960000", "191931.420000", "191931.880000", "191932.340000", "191932.800000", "191933.260000", "191933.720000", "191934.180000", "191934.640000", "191935.100000", "191935.560000", "191936.020000", "191936.480000", "191936.940000", "191937.400000", "191937.860000", "191938.320000", "191938.780000", "191939.240000", "191939.700000", "191940.160000", "191940.620000", "191941.080000", "191941.540000", "191942.000000", "191942.460000", "191942.920000", "191943.380000", "191943.840000", "191944.300000", "191944.760000", "191945.220000", "191945.680000", "191946.140000", "191946.600000", "191947.060000", "191947.520000", "191947.980000", "191948.440000", "191948.900000", "191949.360000", "191949.820000", "191950.280000", "191950.740000", "191951.200000", "191951.660000", "191952.120000", "191952.580000", "191953.040000", "191953.500000", "191953.960000", "191954.420000", "191954.880000", "191955.340000", "191955.800000", "191956.260000", "191956.720000", "191957.180000", "191957.640000", "191958.100000", "191958.560000", "191959.020000", "191959.480000", "191959.940000", "192000.400000", "192000.860000", "192001.320000", "192001.780000", "192002.240000", "192002.700000", "192003.160000", "192003.620000", "192004.080000", "192004.540000", "192005.000000", "192005.460000", "192005.920000", "192006.380000", "192006.840000", "192007.300000", "192007.760000", "192008.220000", "192008.680000", "192009.140000", "192009.600000", "192010.060000", "192010.520000", "192010.980000", "192011.440000", "192011.900000", "192012.360000", "192012.820000", "192013.280000", "192013.740000", "192014.200000", "192014.660000", "192015.120000", "192015.580000", "192016.040000", "192016.500000", "192016.960000", "192017.420000", "192017.880000", "192018.340000", "192018.800000", "192019.260000", "192019.720000", "192020.180000", "192020.640000", "192021.100000", "192021.560000", "192022.020000", "192022.480000", "192022.940000", "192023.400000", "192023.860000", "192024.320000", "192024.780000", "192025.240000", "192025.700000", "192026.160000", "192026.620000", "192027.080000", "192027.540000", "192028.000000", "192028.460000", "192028.920000", "192029.380000", "192029.840000", "192030.300000", "192030.760000", "192031.220000", "192031.680000", "192032.140000", "192032.600000", "192033.060000", "192033.520000", "192033.980000", "192034.440000", "192034.900000", "192035.360000", "192035.820000", "192036.280000", "192036.740000", "192037.200000", "192037.660000", "192038.120000", "192038.580000", "192039.040000", "192039.500000", "192039.960000", "192040.420000", "192040.880000", "192041.340000", "192041.800000", "192042.260000", "192042.720000", "192043.180000", "192043.640000", "192044.100000", "192044.560000", "192045.020000", "192045.480000", "192045.940000", "192046.400000", "192046.860000", "192047.320000", "192047.780000", "192048.240000", "192048.700000", "192049.160000", "192049.620000", "192050.080000", "192050.540000", "192051.000000", "192051.460000", "192051.920000", "192052.380000", "192052.840000", "192053.300000", "192053.760000", "192054.220000", "192054.680000", "192055.140000", "192055.600000", "192056.060000", "192056.520000", "192056.980000", "192057.440000", "192057.900000", "192058.360000", "192058.820000", "192059.280000", "192059.740000", "192100.200000", "192100.660000", "192101.120000", "192101.580000", "192102.040000", "192102.500000", "192102.960000", "192103.420000", "192103.880000", "192104.340000", "192104.800000", "192105.260000", "192105.720000", "192106.180000", "192106.640000", "192107.100000", "192107.560000", "192108.020000", "192108.480000", "192108.940000", "192109.400000", "192109.860000", "192110.320000", "192110.780000", "192111.240000", "192111.700000", "192112.160000", "192112.620000", "192113.080000", "192113.540000", "192114.000000", "192114.460000", "192114.920000", "192115.380000", "192115.840000", "192116.300000", "192116.760000", "192117.220000", "192117.680000", "192118.140000", "192118.600000", "192119.060000", "192119.520000", "192119.980000", "192120.440000", "192120.900000", "192121.360000", "192121.820000", "192122.280000", "192122.740000", "192123.200000", "192123.660000", "192124.120000", "192124.580000", "192125.040000", "192125.500000", "192125.960000", "192126.420000", "192126.880000", "192127.340000", "192127.800000", "192128.260000", "192128.720000", "192129.180000", "192129.640000", "192130.100000", "192130.560000", "192131.020000", "192131.480000", "192131.940000", "192132.400000", "192132.860000", "192133.320000", "192133.780000", "192134.240000", "192134.700000", "192135.160000", "192135.620000", "192136.080000", "192136.540000", "192137.000000", "192137.460000", "192137.920000", "192138.380000", "192138.840000", "192139.300000", "192139.760000", "192140.220000", "192140.680000", "192141.140000", "192141.600000", "192142.060000", "192142.520000", "192142.980000", "192143.440000", "192143.900000", "192144.360000", "192144.820000", "192145.280000", "192145.740000", "192146.200000", "192146.660000", "192147.120000", "192147.580000", "192148.040000", "192148.500000", "192148.960000", "192149.420000", "192149.880000", "192150.340000", "192150.800000", "192151.260000", "192151.720000", "192152.180000", "192152.640000", "192153.100000", "192153.560000", "192154.020000", "192154.480000", "192154.940000", "192155.400000", "192155.860000", "192156.320000", "192156.780000", "192157.240000", "192157.700000", "192158.160000", "192158.620000", "192159.080000", "192159.540000", "192200.000000", "192200.460000", "192200.920000", "192201.380000", "192201.840000", "192202.300000", "192202.760000", "192203.220000", "192203.680000", "192204.140000", "192204.600000", "192205.060000", "192205.520000", "192205.980000", "192206.440000", "192206.900000", "192207.360000", "192207.820000", "192208.280000", "192208.740000", "192209.200000", "192209.660000", "192210.120000", "192210.580000", "192211.040000", "192211.500000", "192211.960000", "192212.420000", "192212.880000", "192213.340000", "192213.800000", "192214.260000", "192214.720000", "192215.180000", "192215.640000", "192216.100000", "192216.560000", "192217.020000", "192217.480000", "192217.940000", "192218.400000", "192218.860000", "192219.320000", "192219.780000", "192220.240000", "192220.700000", "192221.160000", "192221.620000", "192222.080000", "192222.540000", "192223.000000", "192223.460000", "192223.920000", "192224.380000", "192224.840000", "192225.300000", "192225.760000", "192226.220000", "192226.680000", "192227.140000", "192227.600000", "192228.060000", "192228.520000", "192228.980000", "192229.440000", "192229.900000", "192230.360000", "192230.820000", "192231.280000", "192231.740000", "192232.200000", "192232.660000", "192233.120000", "192233.580000", "192234.040000", "192234.500000", "192234.960000", "192235.420000", "192235.880000", "192236.340000", "192236.800000", "192237.260000", "192237.720000", "192238.180000", "192238.640000", "192239.100000", "192239.560000", "192240.020000", "192240.480000", "192240.940000", "192241.400000", "192241.860000", "192242.320000", "192242.780000", "192243.240000", "192243.700000", "192244.160000", "192244.620000", "192245.080000", "192245.540000", "192246.000000", "192246.460000", "192246.920000", "192247.380000", "192247.840000", "192248.300000", "192248.760000", "192249.220000", "192249.680000", "192250.140000", "192250.600000", "192251.060000", "192251.520000", "192251.980000", "192252.440000", "192252.900000", "192253.360000", "192253.820000", "192254.280000", "192254.740000", "192255.200000", "192255.660000", "192256.120000", "192256.580000", "192257.040000", "192257.500000", "192257.960000", "192258.420000", "192258.880000", "192259.340000", "192259.800000", "192300.260000", "192300.720000", "192301.180000", "192301.640000", "192302.100000", "192302.560000", "192303.020000", "192303.480000", "192303.940000", "192304.400000", "192304.860000", "192305.320000", "192305.780000", "192306.240000", "192306.700000", "192307.160000", "192307.620000", "192308.080000", "192308.540000", "192309.000000", "192309.460000", "192309.920000", "192310.380000", "192310.840000", "192311.300000", "192311.760000", "192312.220000", "192312.680000", "192313.140000", "192313.600000", "192314.060000", "192314.520000", "192314.980000", "192315.440000", "192315.900000", "192316.360000", "192316.820000", "192317.280000", "192317.740000", "192318.200000", "192318.660000", "192319.120000", "192319.580000", "192320.040000", "192320.500000", "192320.960000", "192321.420000", "192321.880000", "192322.340000", "192322.800000", "192323.260000", "192323.720000", "192324.180000", "192324.640000", "192325.100000", "192325.560000", "192326.020000", "192326.480000", "192326.940000", "192327.400000", "192327.860000", "192328.320000", "192328.780000", "192329.240000", "192329.700000", "192330.160000", "192330.620000", "192331.080000", "192331.540000", "192332.000000", "192332.460000", "192332.920000", "192333.380000", "192333.840000", "192334.300000", "192334.760000", "192335.220000", "192335.680000", "192336.140000", "192336.600000", "192337.060000", "192337.520000", "192337.980000", "192338.440000", "192338.900000", "192339.360000", "192339.820000", "192340.280000", "192340.740000", "192341.200000", "192341.660000", "192342.120000", "192342.580000", "192343.040000", "192343.500000", "192343.960000", "192344.420000", "192344.880000", "192345.340000", "192345.800000", "192346.260000", "192346.720000", "192347.180000", "192347.640000", "192348.100000", "192348.560000", "192349.020000", "192349.480000", "192349.940000", "192350.400000", "192350.860000", "192351.320000", "192351.780000", "192352.240000", "192352.700000", "192353.160000", "192353.620000", "192354.080000", "192354.540000", "192355.000000", "192355.460000", "192355.920000", "192356.380000", "192356.840000", "192357.300000", "192357.760000", "192358.220000", "192358.680000", "192359.140000", "192359.600000", "192400.060000", "192400.520000", "192400.980000", "192401.440000", "192401.900000", "192402.360000", "192402.820000", "192403.280000", "192403.740000", "192404.200000", "192404.660000", "192405.120000", "192405.580000", "192406.040000", "192406.500000", "192406.960000", "192407.420000", "192407.880000", "192408.340000", "192408.800000", "192409.260000", "192409.720000", "192410.180000", "192410.640000", "192411.100000", "192411.560000", "192412.020000", "192412.480000", "192412.940000", "192413.400000", "192413.860000", "192414.320000", "192414.780000", "192415.240000", "192415.700000", "192416.160000", "192416.620000", "192417.080000", "192417.540000", "192418.000000", "192418.460000", "192418.920000", "192419.380000", "192419.840000", "192420.300000", "192420.760000", "192421.220000", "192421.680000", "192422.140000", "192422.600000", "192423.060000", "192423.520000", "192423.980000", "192424.440000", "192424.900000", "192425.360000", "192425.820000", "192426.280000", "192426.740000", "192427.200000", "192427.660000", "192428.120000", "192428.580000", "192429.040000", "192429.500000", "192429.960000", "192430.420000", "192430.880000", "192431.340000", "192431.800000", "192432.260000", "192432.720000", "192433.180000", "192433.640000", "192434.100000", "192434.560000", "192435.020000", "192435.480000", "192435.940000", "192436.400000", "192436.860000", "192437.320000", "192437.780000", "192438.240000", "192438.700000", "192439.160000", "192439.620000", "192440.080000", "192440.540000", "192441.000000", "192441.460000", "192441.920000", "192442.380000", "192442.840000", "192443.300000", "192443.760000", "192444.220000", "192444.680000", "192445.140000", "192445.600000", "192446.060000", "192446.520000", "192446.980000", "192447.440000", "192447.900000", "192448.360000", "192448.820000", "192449.280000", "192449.740000", "192450.200000", "192450.660000", "192451.120000", "192451.580000", "192452.040000", "192452.500000", "192452.960000", "192453.420000", "192453.880000", "192454.340000", "192454.800000", "192455.260000", "192455.720000", "192456.180000", "192456.640000", "192457.100000", "192457.560000", "192458.020000", "192458.480000", "192458.940000", "192459.400000", "192459.860000", "192500.320000", "192500.780000", "192501.240000", "192501.700000", "192502.160000", "192502.620000", "192503.080000", "192503.540000", "192504.000000", "192504.460000", "192504.920000", "192505.380000", "192505.840000", "192506.300000", "192506.760000", "192507.220000", "192507.680000", "192508.140000", "192508.600000", "192509.060000", "192509.520000", "192509.980000", "192510.440000", "192510.900000", "192511.360000", "192511.820000", "192512.280000", "192512.740000", "192513.200000", "192513.660000", "192514.120000", "192514.580000", "192515.040000", "192515.500000", "192515.960000", "192516.420000", "192516.880000", "192517.340000", "192517.800000", "192518.260000", "192518.720000", "192519.180000", "192519.640000", "192520.100000", "192520.560000", "192521.020000", "192521.480000"],
