{
  "AcquisitionMatrixPE": 140,
  "AcquisitionNumber": 1,
  "AcquisitionTime": "10:47:58.055000",
  "BandwidthPerPixelPhaseEncode": 10.352,
  "BaseResolution": 140,
  "BodyPartExamined": "BRAIN",
  "ConsistencyInfo": "N4_VE11E_LATEST_20181129",
  "ConversionSoftware": "dcm2niix",
  "ConversionSoftwareVersion": "v1.0.20201102",
  "DerivedVendorReportedEchoSpacing": 0.000689998,
  "DeviceSerialNumber": "66112",
  "DiffusionScheme": "Monopolar",
  "DwellTime": 2.1e-06,
  "EchoTime": 0.0884,
  "EchoTrainLength": 105,
  "EffectiveEchoSpacing": 0.000689998,
  "FlipAngle": 90,
  "ImageComments": "Unaliased MB3/PE3 SENSE1",
  "ImageOrientationPatientDICOM": [0.999523, -0.0154605, -0.026733, 0.0242532, 0.928869, 0.369613],
  "ImageType": [
    "ORIGINAL",
    "PRIMARY",
    "DIFFUSION",
    "NONE",
    "MB",
    "ND",
    "MOSAIC"
],
  "ImagingFrequency": 123.259,
  "InPlanePhaseEncodingDirectionDICOM": "COL",
  "InstitutionAddress": "Maynard 3,Hanover,NH,US,03755",
  "InstitutionName": "Dartmouth College - PBS",
  "InstitutionalDepartmentName": "Department",
  "MRAcquisitionType": "2D",
  "MagneticFieldStrength": 3,
  "Manufacturer": "Siemens",
  "ManufacturersModelName": "Prisma",
  "Modality": "MR",
  "MultibandAccelerationFactor": 3,
  "PartialFourier": 0.75,
  "PatientPosition": "HFS",
  "PercentPhaseFOV": 100,
  "PercentSampling": 100,
  "PhaseEncodingDirection": "j-",
  "PhaseEncodingSteps": 105,
  "PhaseResolution": 1,
  "PixelBandwidth": 1700,
  "ProcedureStepDescription": "Wager_Wager^1076_spacetop",
  "ProtocolName": "dwi_acq-96dir-6b0-mb",
  "PulseSequenceDetails": "%CustomerSeq%\\cmrr_mbep2d_diff",
  "ReceiveCoilActiveElements": "HEA;HEP",
  "ReceiveCoilName": "Head_32",
  "ReconMatrixPE": 140,
  "RepetitionTime": 4.11,
  "SAR": 0.367408,
  "ScanOptions": "PFP\\FS",
  "ScanningSequence": "EP",
  "SequenceName": "ep_b5#1",
  "SequenceVariant": "SK\\SS",
  "SeriesDescription": "dwi_acq-96dir-6b0-mb",
  "SeriesNumber": 8,
  "ShimSetting": [4238, -7802, -7230, 258, -61, 3, 58, 79],
  "SliceThickness": 1.7,
  "SliceTiming": [0, 2.12, 0.15, 2.2725, 0.3025, 2.4225, 0.4525, 2.575, 0.605, 2.725, 0.7575, 2.8775, 0.9075, 3.03, 1.06, 3.18, 1.21, 3.3325, 1.3625, 3.4825, 1.515, 3.635, 1.665, 3.7875, 1.8175, 3.9375, 1.9675, 0, 2.12, 0.15, 2.2725, 0.3025, 2.4225, 0.4525, 2.575, 0.605, 2.725, 0.7575, 2.8775, 0.9075, 3.03, 1.06, 3.18, 1.21, 3.3325, 1.3625, 3.4825, 1.515, 3.635, 1.665, 3.7875, 1.8175, 3.9375, 1.9675, 0, 2.12, 0.15, 2.2725, 0.3025, 2.4225, 0.4525, 2.575, 0.605, 2.725, 0.7575, 2.8775, 0.9075, 3.03, 1.06, 3.18, 1.21, 3.3325, 1.3625, 3.4825, 1.515, 3.635, 1.665, 3.7875, 1.8175, 3.9375, 1.9675],
  "SoftwareVersions": "syngo MR E11",
  "SpacingBetweenSlices": 1.7,
  "StationName": "AWP66112",
  "TotalReadoutTime": 0.0959097,
  "TxRefAmp": 302.649,
  "WipMemBlock": "a77ee81f-dfe3-4155-8728-e795cb346cf5||Sequence: R016 ve11e/master r/434b28f1; Aug  7 2019 19:06:17 by eja",
  "dcmmeta_affine": [
    [-1.713468074798584, 0.041576992720365524, -0.03249902278184891, 121.36900329589844],
    [0.02650376223027706, 1.5923473834991455, 0.6291443109512329, -113.33213806152344],
    [-0.04582803696393967, -0.6336219906806946, 1.5789620876312256, 0.7134316563606262],
    [0.0, 0.0, 0.0, 1.0]
],
  "dcmmeta_reorient_transform": [
    [0.0, -1.0, 0.0, 139.0],
    [1.0, 0.0, 0.0, 0.0],
    [0.0, 0.0, 1.0, 0.0],
    [0.0, 0.0, 0.0, 1.0]
],
  "dcmmeta_shape": [140, 140, 81, 103],
  "dcmmeta_slice_dim": 2,
  "dcmmeta_version": 0.6,
  "global": {
    "const": {
      "AccessionNumber": "A004540",
      "AcquisitionMatrix": [140, 0, 0, 140],
      "AngioFlag": "N",
      "BitsAllocated": 16,
      "BitsStored": 16,
      "BodyPartExamined": "BRAIN",
      "Columns": 1260,
      "EchoNumbers": 1,
      "EchoTime": 88.4,
      "EchoTrainLength": 105,
      "FlipAngle": 90.0,
      "HighBit": 15,
      "ImageOrientationPatient": [0.99952304509319, -0.0154605283438, -0.0267330206106, 0.0242532445874, 0.92886928446082, 0.36961281432363],
      "ImagePositionPatient": [-1109.9734506453, -984.87656008559, -416.52462791022],
      "ImageType": [
        "ORIGINAL",
        "PRIMARY",
        "DIFFUSION",
        "NONE",
        "MB",
        "ND",
        "MOSAIC"
],
      "ImagedNucleus": "1H",
      "ImagingFrequency": 123.258994,
      "InPlanePhaseEncodingDirection": "COL",
      "MRAcquisitionType": "2D",
      "MagneticFieldStrength": 3.0,
      "Manufacturer": "SIEMENS",
      "ManufacturerModelName": "Prisma",
      "Modality": "MR",
      "NumberOfAverages": 1.0,
      "NumberOfPhaseEncodingSteps": 105,
      "PercentPhaseFieldOfView": 100.0,
      "PercentSampling": 100.0,
      "PerformedProcedureStepStartTime": "103655.341000",
      "PhotometricInterpretation": "MONOCHROME2",
      "PixelBandwidth": 1700.0,
      "PixelRepresentation": 0,
      "PixelSpacing": [1.7142857313156, 1.7142857313156],
      "ProtocolName": "dwi_acq-96dir-6b0-mb",
      "RepetitionTime": 4110.0,
      "Rows": 1260,
      "SAR": 0.36740817054326,
      "SamplesPerPixel": 1,
      "ScanOptions": [
        "PFP",
        "FS"
],
      "ScanningSequence": "EP",
      "SequenceVariant": [
        "SK",
        "SS"
],
      "SeriesDescription": "dwi_acq-96dir-6b0-mb",
      "SeriesNumber": 8,
      "SeriesTime": "104831.800000",
      "SliceLocation": -43.600095241574,
      "SliceThickness": 1.7000000476837,
      "SmallestImagePixelValue": 0,
      "SoftwareVersions": "syngo MR E11",
      "SpacingBetweenSlices": 1.7000000528157,
      "SpecificCharacterSet": "ISO_IR 100",
      "StudyID": "1",
      "StudyTime": "103655.278000",
      "TransmitCoilName": "Body",
      "VariableFlipAngleFlag": "N",
      "WindowCenterWidthExplanation": "Algo1"
    },
    "slices": {}
  },
  "time": {
    "samples": {
      "AcquisitionNumber": [1, 2, 3, 4, 5, 6, 7, 8, 9, 10, 11, 12, 13, 14, 15, 16, 17, 18, 19, 20, 21, 22, 23, 24, 25, 26, 27, 28, 29, 30, 31, 32, 33, 34, 35, 36, 37, 38, 39, 40, 41, 42, 43, 44, 45, 46, 47, 48, 49, 50, 51, 52, 53, 54, 55, 56, 57, 58, 59, 60, 61, 62, 63, 64, 65, 66, 67, 68, 69, 70, 71, 72, 73, 74, 75, 76, 77, 78, 79, 80, 81, 82, 83, 84, 85, 86, 87, 88, 89, 90, 91, 92, 93, 94, 95, 96, 97, 98, 99, 100, 101, 102, 103],
      "AcquisitionTime": ["104758.055000", "104802.165000", "104806.275000", "104810.385000", "104814.495000", "104818.605000", "104822.715000", "104826.825000", "104830.935000", "104835.045000", "104839.155000", "104843.265000", "104847.375000", "104851.485000", "104855.595000", "104859.705000", "104903.815000", "104907.925000", "104912.035000", "104916.145000", "104920.255000", "104924.365000", "104928.475000", "104932.585000", "104936.695000", "104940.805000", "104944.915000", "104949.025000", "104953.135000", "104957.245000", "105001.355000", "105005.465000", "105009.575000", "105013.685000", "105017.795000", "105021.905000", "105026.015000", "105030.125000", "105034.235000", "105038.345000", "105042.455000", "105046.565000", "105050.675000", "105054.785000", "105058.895000", "105103.005000", "105107.115000", "105111.225000", "105115.335000", "105119.445000", "105123.555000", "105127.665000", "105131.775000", "105135.885000", "105139.995000", "105144.105000", "105148.215000", "105152.325000", "105156.435000", "105200.545000", "105204.655000", "105208.765000", "105212.875000", "105216.985000", "105221.095000", "105225.205000", "105229.315000", "105233.425000", "105237.535000", "105241.645000", "105245.755000", "105249.865000", "105253.975000", "105258.085000", "105302.195000", "105306.305000", "105310.415000", "105314.525000", "105318.635000", "105322.745000", "105326.855000", "105330.965000", "105335.075000", "105339.185000", "105343.295000", "105347.405000", "105351.515000", "105355.625000", "105359.735000", "105403.845000", "105407.955000", "105412.065000", "105416.175000", "105420.285000", "105424.395000", "105428.505000", "105432.615000", "105436.725000", "105440.835000", "105444.945000", "105449.055000", "105453.165000", "105457.275000"],
      "ContentTime": ["104831.804000", "104831.808000", "104831.811000", "104831.814000", "104831.817000", "104831.830000", "104831.833000", "104831.836000", "105011.798000", "105011.801000", "105011.805000", "105011.808000", "105011.811000", "105011.814000", "105011.817000", "105011.820000", "105011.822000", "105011.825000", "105011.828000", "105011.831000", "105011.834000", "105011.838000", "105011.848000", "105011.851000", "105011.854000", "105011.857000", "105011.860000", "105011.863000", "105011.866000", "105011.869000", "105011.872000", "105011.886000", "105151.799000", "105151.802000", "105151.805000", "105151.808000", "105151.811000", "105151.814000", "105151.817000", "105151.820000", "105151.823000", "105151.826000", "105151.829000", "105151.832000", "105151.835000", "105151.838000", "105151.841000", "105151.844000", "105151.848000", "105151.851000", "105151.853000", "105151.856000", "105151.860000", "105151.863000", "105151.865000", "105151.868000", "105311.799000", "105311.802000", "105311.806000", "105311.809000", "105311.812000", "105311.815000", "105311.818000", "105311.821000", "105311.824000", "105311.827000", "105311.830000", "105311.833000", "105311.836000", "105311.839000", "105311.842000", "105311.845000", "105311.848000", "105311.851000", "105311.854000", "105311.857000", "105451.798000", "105451.802000", "105451.805000", "105451.808000", "105451.811000", "105451.814000", "105451.816000", "105451.819000", "105451.823000", "105451.839000", "105451.842000", "105451.845000", "105451.848000", "105451.851000", "105451.854000", "105451.857000", "105451.860000", "105451.863000", "105451.866000", "105451.869000", "105451.872000", "105451.875000", "105451.878000", "105451.881000", "105502.189000", "105502.192000", "105502.195000"],
      "InstanceCreationTime": ["104831.804000", "104831.808000", "104831.811000", "104831.814000", "104831.817000", "104831.830000", "104831.833000", "104831.836000", "105011.798000", "105011.801000", "105011.805000", "105011.808000", "105011.811000", "105011.814000", "105011.817000", "105011.820000", "105011.822000", "105011.825000", "105011.828000", "105011.831000", "105011.834000", "105011.838000", "105011.848000", "105011.851000", "105011.854000", "105011.857000", "105011.860000", "105011.863000", "105011.866000", "105011.869000", "105011.872000", "105011.886000", "105151.799000", "105151.802000", "105151.805000", "105151.808000", "105151.811000", "105151.814000", "105151.817000", "105151.820000", "105151.823000", "105151.826000", "105151.829000", "105151.832000", "105151.835000", "105151.838000", "105151.841000", "105151.844000", "105151.848000", "105151.851000", "105151.853000", "105151.856000", "105151.860000", "105151.863000", "105151.865000", "105151.868000", "105311.799000", "105311.802000", "105311.806000", "105311.809000", "105311.812000", "105311.815000", "105311.818000", "105311.821000", "105311.824000", "105311.827000", "105311.830000", "105311.833000", "105311.836000", "105311.839000", "105311.842000", "105311.845000", "105311.848000", "105311.851000", "105311.854000", "105311.857000", "105451.798000", "105451.802000", "105451.805000", "105451.808000", "105451.811000", "105451.814000", "105451.816000", "105451.819000", "105451.823000", "105451.839000", "105451.842000", "105451.845000", "105451.848000", "105451.851000", "105451.854000", "105451.857000", "105451.860000", "105451.863000", "105451.866000", "105451.869000", "105451.872000", "105451.875000", "105451.878000", "105451.881000", "105502.189000", "105502.192000", "105502.195000"],
      "InstanceNumber": [1, 2, 3, 4, 5, 6, 7, 8, 9, 10, 11, 12, 13, 14, 15, 16, 17, 18, 19, 20, 21, 22, 23, 24, 25, 26, 27, 28, 29, 30, 31, 32, 33, 34, 35, 36, 37, 38, 39, 40, 41, 42, 43, 44, 45, 46, 47, 48, 49, 50, 51, 52, 53, 54, 55, 56, 57, 58, 59, 60, 61, 62, 63, 64, 65, 66, 67, 68, 69, 70, 71, 72, 73, 74, 75, 76, 77, 78, 79, 80, 81, 82, 83, 84, 85, 86, 87, 88, 89, 90, 91, 92, 93, 94, 95, 96, 97, 98, 99, 100, 101, 102, 103],
      "LargestImagePixelValue": [65535, 65535, 61919, 59554, 60554, 65535, 63374, 61801, 65535, 42754, 46665, 42816, 45124, 43520, 43999, 49489, 47521, 43529, 41082, 41176, 42164, 40961, 41338, 41169, 65535, 21174, 20820, 24192, 20860, 22724, 26878, 22419, 22731, 23896, 21303, 22949, 22564, 21883, 23820, 20675, 65535, 11207, 13589, 12803, 15131, 12684, 11926, 14535, 12393, 13108, 13911, 14567, 13026, 11702, 12923, 12591, 11930, 14669, 13506, 12869, 13392, 13271, 12878, 11982, 12779, 12909, 11758, 12791, 16624, 12983, 14645, 12670, 14766, 65535, 18074, 13412, 13568, 10436, 14372, 13795, 13051, 14818, 12108, 13739, 12034, 13302, 13798, 16532, 16439, 17170, 14852, 12923, 15467, 14621, 14973, 13489, 12544, 12868, 20117, 13304, 13195, 11787, 65535],
      "SequenceName": [
 "ep_b5#1",
 "ep_b5#1",
 "ep_b500#2",
 "ep_b500#3",
 "ep_b500#4",
 "ep_b505#5",
 "ep_b495#6",
 "ep_b500#7",
 "ep_b5#8",
 "ep_b1000#9",
 "ep_b1005#10",
 "ep_b1000#11",
 "ep_b1000#12",
 "ep_b995#13",
 "ep_b995#14",
 "ep_b1005#15",
 "ep_b995#16",
 "ep_b1000#17",
 "ep_b995#18",
 "ep_b1000#19",
 "ep_b995#20",
 "ep_b1000#21",
 "ep_b1005#22",
 "ep_b1005#23",
 "ep_b5#24",
 "ep_b2000#25",
 "ep_b2000#26",
 "ep_b1995#27",
 "ep_b1995#28",
 "ep_b2005#29",
 "ep_b2010#30",
 "ep_b2005#31",
 "ep_b2005#32",
 "ep_b1995#33",
 "ep_b1990#34",
 "ep_b1995#35",
 "ep_b2000#36",
 "ep_b2000#37",
 "ep_b2010#38",
 "ep_b2000#39",
 "ep_b5#40",
 "ep_b3000#41",
 "ep_b3005#42",
 "ep_b3010#43",
 "ep_b3010#44",
 "ep_b2995#45",
 "ep_b2995#46",
 "ep_b2990#47",
 "ep_b3000#48",
 "ep_b3000#49",
 "ep_b2990#50",
 "ep_b2990#51",
 "ep_b2995#52",
 "ep_b2995#53",
 "ep_b3010#54",
 "ep_b3000#55",
 "ep_b2995#56",
 "ep_b3000#57",
 "ep_b2990#58",
 "ep_b2990#59",
 "ep_b3005#60",
 "ep_b2990#61",
 "ep_b2990#62",
 "ep_b2995#63",
 "ep_b3005#64",
 "ep_b3010#65",
 "ep_b3000#66",
 "ep_b3005#67",
 "ep_b3010#68",
 "ep_b3005#69",
 "ep_b3005#70",
 "ep_b3010#71",
 "ep_b2990#72",
 "ep_b5#73",
 "ep_b3010#74",
 "ep_b3000#75",
 "ep_b3005#76",
 "ep_b3005#77",
 "ep_b2995#78",
 "ep_b3000#79",
 "ep_b3000#80",
 "ep_b3010#81",
 "ep_b3010#82",
 "ep_b3005#83",
 "ep_b3000#84",
 "ep_b3005#85",
 "ep_b3005#86",
 "ep_b3005#87",
 "ep_b2990#88",
 "ep_b3010#89",
 "ep_b2995#90",
 "ep_b3000#91",
 "ep_b2995#92",
 "ep_b2995#93",
 "ep_b3005#94",
 "ep_b3005#95",
 "ep_b2990#96",
 "ep_b3000#97",
 "ep_b2990#98",
 "ep_b3000#99",
 "ep_b3000#100",
 "ep_b2990#101",
 "ep_b5#102"
],
      "WindowCenter": [10858.0, 10857.0, 7706.0, 7683.0, 7664.0, 7703.0, 7765.0, 7738.0, 10861.0, 5825.0, 5806.0, 5785.0, 5819.0, 5777.0, 5810.0, 5835.0, 5893.0, 5821.0, 5818.0, 5767.0, 5846.0, 5766.0, 5765.0, 5769.0, 10848.0, 3728.0, 3662.0, 3686.0, 3746.0, 3711.0, 3733.0, 3701.0, 3672.0, 3775.0, 3710.0, 3713.0, 3694.0, 3653.0, 3706.0, 3645.0, 10871.0, 2590.0, 2576.0, 2626.0, 2644.0, 2602.0, 2599.0, 2660.0, 2566.0, 2603.0, 2567.0, 2607.0, 2602.0, 2596.0, 2596.0, 2573.0, 2589.0, 2595.0, 2611.0, 2573.0, 2584.0, 2571.0, 2639.0, 2587.0, 2605.0, 2598.0, 2538.0, 2583.0, 2681.0, 2606.0, 2653.0, 2606.0, 2647.0, 10823.0, 2675.0, 2615.0, 2567.0, 2500.0, 2575.0, 2576.0, 2571.0, 2592.0, 2586.0, 2609.0, 2597.0, 2615.0, 2566.0, 2637.0, 2668.0, 2662.0, 2679.0, 2538.0, 2587.0, 2663.0, 2618.0, 2628.0, 2638.0, 2553.0, 2737.0, 2561.0, 2581.0, 2576.0, 10817.0],
      "WindowWidth": [24821.0, 24815.0, 16299.0, 16267.0, 16207.0, 16304.0, 16423.0, 16359.0, 24831.0, 12442.0, 12421.0, 12382.0, 12433.0, 12378.0, 12422.0, 12434.0, 12527.0, 12445.0, 12428.0, 12327.0, 12481.0, 12327.0, 12347.0, 12306.0, 24785.0, 8386.0, 8260.0, 8296.0, 8388.0, 8342.0, 8379.0, 8308.0, 8291.0, 8448.0, 8335.0, 8343.0, 8305.0, 8227.0, 8321.0, 8221.0, 24842.0, 6209.0, 6121.0, 6232.0, 6239.0, 6206.0, 6191.0, 6275.0, 6110.0, 6200.0, 6097.0, 6173.0, 6196.0, 6204.0, 6173.0, 6138.0, 6203.0, 6135.0, 6189.0, 6123.0, 6125.0, 6116.0, 6250.0, 6168.0, 6182.0, 6175.0, 6082.0, 6156.0, 6313.0, 6220.0, 6289.0, 6183.0, 6245.0, 24688.0, 6277.0, 6196.0, 6109.0, 6013.0, 6107.0, 6122.0, 6123.0, 6149.0, 6162.0, 6194.0, 6214.0, 6224.0, 6107.0, 6217.0, 6278.0, 6254.0, 6330.0, 6047.0, 6124.0, 6305.0, 6205.0, 6243.0, 6258.0, 6084.0, 6379.0, 6084.0, 6168.0, 6148.0, 24664.0]
    },
    "slices": {}
  }
}