{
  "AcquisitionMatrixPE": 82,
  "AcquisitionNumber": 1,
  "AcquisitionTime": "14:04:14.547500",
  "BandwidthPerPixelPhaseEncode": 24.888,
  "BaseResolution": 82,
  "BodyPartExamined": "BRAIN",
  "ConsistencyInfo": "N4_VE11E_LATEST_20181129",
  "ConversionSoftware": "dcm2niix",
  "ConversionSoftwareVersion": "v1.0.20201102",
  "DerivedVendorReportedEchoSpacing": 0.00049,
  "DeviceSerialNumber": "66112",
  "DwellTime": 2e-06,
  "EchoTime": 0.0272,
  "EchoTrainLength": 82,
  "EffectiveEchoSpacing": 0.00049,
  "FlipAngle": 44,
  "ImageComments": "Unaliased MB8/PE3",
  "ImageOrientationPatientDICOM": [0.997015, 0.074352, -0.0207856, -0.0732162, 0.996016, 0.0509041],
  "ImageType": [
    "ORIGINAL",
    "PRIMARY",
    "M",
    "MB",
    "ND",
    "NORM",
    "MOSAIC"
],
  "ImagingFrequency": 123.259,
  "InPlanePhaseEncodingDirectionDICOM": "COL",
  "InstitutionAddress": "Maynard 3,Hanover,NH,US,03755",
  "InstitutionName": "Dartmouth College - PBS",
  "InstitutionalDepartmentName": "Department",
  "MRAcquisitionType": "2D",
  "MagneticFieldStrength": 3,
  "Manufacturer": "Siemens",
  "ManufacturersModelName": "Prisma",
  "Modality": "MR",
  "MultibandAccelerationFactor": 8,
  "PartialFourier": 1,
  "PatientPosition": "HFS",
  "PercentPhaseFOV": 100,
  "PercentSampling": 100,
  "PhaseEncodingDirection": "j-",
  "PhaseEncodingSteps": 82,
  "PhaseResolution": 1,
  "PixelBandwidth": 3050,
  "ProcedureStepDescription": "Wager_Wager^1076_spacetop",
  "ProtocolName": "func_run-01_task-faces_acq-ap-mb8",
  "PulseSequenceDetails": "%CustomerSeq%\\cmrr_mbep2d_bold",
  "ReceiveCoilActiveElements": "HEA;HEP",
  "ReceiveCoilName": "Head_32",
  "ReconMatrixPE": 82,
  "RepetitionTime": 0.46,
  "SAR": 0.0820768,
  "ScanOptions": "FS",
  "ScanningSequence": "EP",
  "SequenceName": "epfid2d1_82",
  "SequenceVariant": "SK\\SS",
  "SeriesDescription": "func_run-01_task-faces_acq-ap-mb8",
  "SeriesNumber": 16,
  "ShimSetting": [4234, -7721, -7197, 309, -49, 174, 144, 63],
  "SliceThickness": 2.7,
  "SliceTiming": [0, 0.2525, 0.0625, 0.315, 0.125, 0.3775, 0.19, 0, 0.2525, 0.0625, 0.315, 0.125, 0.3775, 0.19, 0, 0.2525, 0.0625, 0.315, 0.125, 0.3775, 0.19, 0, 0.2525, 0.0625, 0.315, 0.125, 0.3775, 0.19, 0, 0.2525, 0.0625, 0.315, 0.125, 0.3775, 0.19, 0, 0.2525, 0.0625, 0.315, 0.125, 0.3775, 0.19, 0, 0.2525, 0.0625, 0.315, 0.125, 0.3775, 0.19, 0, 0.2525, 0.0625, 0.315, 0.125, 0.3775, 0.19],
  "SoftwareVersions": "syngo MR E11",
  "SpacingBetweenSlices": 2.7,
  "StationName": "AWP66112",
  "TaskName": "faces",
  "TotalReadoutTime": 0.03969,
  "TxRefAmp": 222.337,
  "WipMemBlock": "b0b7c874-2cfc-4f8a-8484-c2ea9063f2e0||Sequence: R016 ve11e/master r/434b28f1; Aug  7 2019 18:53:46 by eja",
  "dcmmeta_affine": [
    [-2.674919366836548, -0.19643373787403107, -0.06611664593219757, 122.91509246826172],
    [-0.19948090612888336, 2.67223858833313, 0.13292181491851807, -97.3626937866211],
    [-0.05576633661985397, -0.13657191395759583, 2.695915460586548, -38.50493621826172],
    [0.0, 0.0, 0.0, 1.0]
],
  "dcmmeta_reorient_transform": [
    [0.0, -1.0, 0.0, 81.0],
    [1.0, 0.0, 0.0, 0.0],
    [0.0, 0.0, 1.0, 0.0],
    [0.0, 0.0, 0.0, 1.0]
],
  "dcmmeta_shape": [82, 82, 56, 914],
  "dcmmeta_slice_dim": 2,
  "dcmmeta_version": 0.6,
  "global": {
    "const": {
      "AccessionNumber": "A004481",
      "AcquisitionMatrix": [82, 0, 0, 82],
      "AngioFlag": "N",
      "BitsAllocated": 16,
      "BitsStored": 16,
      "BodyPartExamined": "BRAIN",
      "Columns": 656,
      "EchoNumbers": 1,
      "EchoTime": 27.2,
      "EchoTrainLength": 82,
      "FlipAngle": 44.0,
      "HighBit": 15,
      "ImageOrientationPatient": [0.99701541706162, 0.07435197079609, -0.0207856339856, -0.0732162097315, 0.99601614534483, 0.050904074935],
      "ImagePositionPatient": [-818.32936585799, -943.27209095346, -72.758462981324],
      "ImageType": [
        "ORIGINAL",
        "PRIMARY",
        "M",
        "MB",
        "ND",
        "NORM",
        "MOSAIC"
],
      "ImagedNucleus": "1H",
      "ImagingFrequency": 123.259071,
      "InPlanePhaseEncodingDirection": "COL",
      "MRAcquisitionType": "2D",
      "MagneticFieldStrength": 3.0,
      "Manufacturer": "SIEMENS",
      "ManufacturerModelName": "Prisma",
      "Modality": "MR",
      "NumberOfAverages": 1.0,
      "NumberOfPhaseEncodingSteps": 82,
      "PercentPhaseFieldOfView": 100.0,
      "PercentSampling": 100.0,
      "PerformedProcedureStepStartTime": "131005.993000",
      "PhotometricInterpretation": "MONOCHROME2",
      "PixelBandwidth": 3050.0,
      "PixelRepresentation": 0,
      "PixelSpacing": [2.6829268932343, 2.6829268932343],
      "ProtocolName": "func_run-01_task-faces_acq-ap-mb8",
      "RepetitionTime": 460.0,
      "Rows": 656,
      "SAR": 0.08207683817002,
      "SamplesPerPixel": 1,
      "ScanOptions": "FS",
      "ScanningSequence": "EP",
      "SequenceName": "epfid2d1_82",
      "SequenceVariant": [
        "SK",
        "SS"
],
      "SeriesDescription": "func_run-01_task-faces_acq-ap-mb8",
      "SeriesNumber": 16,
      "SeriesTime": "140438.810000",
      "SliceLocation": -46.249784798809,
      "SliceThickness": 2.7000000476837,
      "SmallestImagePixelValue": 0,
      "SoftwareVersions": "syngo MR E11",
      "SpacingBetweenSlices": 2.699999999797,
      "SpecificCharacterSet": "ISO_IR 100",
      "StudyID": "2",
      "StudyTime": "131005.784000",
      "TransmitCoilName": "Body",
      "VariableFlipAngleFlag": "N",
      "WindowCenterWidthExplanation": "Algo1"
    },
    "slices": {}
  },
  "time": {
    "samples": {
      "AcquisitionNumber": [1, 2, 3, 4, 5, 6, 7, 8, 9, 10, 11, 12, 13, 14, 15, 16, 17, 18, 19, 20, 21, 22, 23, 24, 25, 26, 27, 28, 29, 30, 31, 32, 33, 34, 35, 36, 37, 38, 39, 40, 41, 42, 43, 44, 45, 46, 47, 48, 49, 50, 51, 52, 53, 54, 55, 56, 57, 58, 59, 60, 61, 62, 63, 64, 65, 66, 67, 68, 69, 70, 71, 72, 73, 74, 75, 76, 77, 78, 79, 80, 81, 82, 83, 84, 85, 86, 87, 88, 89, 90, 91, 92, 93, 94, 95, 96, 97, 98, 99, 100, 101, 102, 103, 104, 105, 106, 107, 108, 109, 110, 111, 112, 113, 114, 115, 116, 117, 118, 119, 120, 121, 122, 123, 124, 125, 126, 127, 128, 129, 130, 131, 132, 133, 134, 135, 136, 137, 138, 139, 140, 141, 142, 143, 144, 145, 146, 147, 148, 149, 150, 151, 152, 153, 154, 155, 156, 157, 158, 159, 160, 161, 162, 163, 164, 165, 166, 167, 168, 169, 170, 171, 172, 173, 174, 175, 176, 177, 178, 179, 180, 181, 182, 183, 184, 185, 186, 187, 188, 189, 190, 191, 192, 193, 194, 195, 196, 197, 198, 199, 200, 201, 202, 203, 204, 205, 206, 207, 208, 209, 210, 211, 212, 213, 214, 215, 216, 217, 218, 219, 220, 221, 222, 223, 224, 225, 226, 227, 228, 229, 230, 231, 232, 233, 234, 235, 236, 237, 238, 239, 240, 241, 242, 243, 244, 245, 246, 247, 248, 249, 250, 251, 252, 253, 254, 255, 256, 257, 258, 259, 260, 261, 262, 263, 264, 265, 266, 267, 268, 269, 270, 271, 272, 273, 274, 275, 276, 277, 278, 279, 280, 281, 282, 283, 284, 285, 286, 287, 288, 289, 290, 291, 292, 293, 294, 295, 296, 297, 298, 299, 300, 301, 302, 303, 304, 305, 306, 307, 308, 309, 310, 311, 312, 313, 314, 315, 316, 317, 318, 319, 320, 321, 322, 323, 324, 325, 326, 327, 328, 329, 330, 331, 332, 333, 334, 335, 336, 337, 338, 339, 340, 341, 342, 343, 344, 345, 346, 347, 348, 349, 350, 351, 352, 353, 354, 355, 356, 357, 358, 359, 360, 361, 362, 363, 364, 365, 366, 367, 368, 369, 370, 371, 372, 373, 374, 375, 376, 377, 378, 379, 380, 381, 382, 383, 384, 385, 386, 387, 388, 389, 390, 391, 392, 393, 394, 395, 396, 397, 398, 399, 400, 401, 402, 403, 404, 405, 406, 407, 408, 409, 410, 411, 412, 413, 414, 415, 416, 417, 418, 419, 420, 421, 422, 423, 424, 425, 426, 427, 428, 429, 430, 431, 432, 433, 434, 435, 436, 437, 438, 439, 440, 441, 442, 443, 444, 445, 446, 447, 448, 449, 450, 451, 452, 453, 454, 455, 456, 457, 458, 459, 460, 461, 462, 463, 464, 465, 466, 467, 468, 469, 470, 471, 472, 473, 474, 475, 476, 477, 478, 479, 480, 481, 482, 483, 484, 485, 486, 487, 488, 489, 490, 491, 492, 493, 494, 495, 496, 497, 498, 499, 500, 501, 502, 503, 504, 505, 506, 507, 508, 509, 510, 511, 512, 513, 514, 515, 516, 517, 518, 519, 520, 521, 522, 523, 524, 525, 526, 527, 528, 529, 530, 531, 532, 533, 534, 535, 536, 537, 538, 539, 540, 541, 542, 543, 544, 545, 546, 547, 548, 549, 550, 551, 552, 553, 554, 555, 556, 557, 558, 559, 560, 561, 562, 563, 564, 565, 566, 567, 568, 569, 570, 571, 572, 573, 574, 575, 576, 577, 578, 579, 580, 581, 582, 583, 584, 585, 586, 587, 588, 589, 590, 591, 592, 593, 594, 595, 596, 597, 598, 599, 600, 601, 602, 603, 604, 605, 606, 607, 608, 609, 610, 611, 612, 613, 614, 615, 616, 617, 618, 619, 620, 621, 622, 623, 624, 625, 626, 627, 628, 629, 630, 631, 632, 633, 634, 635, 636, 637, 638, 639, 640, 641, 642, 643, 644, 645, 646, 647, 648, 649, 650, 651, 652, 653, 654, 655, 656, 657, 658, 659, 660, 661, 662, 663, 664, 665, 666, 667, 668, 669, 670, 671, 672, 673, 674, 675, 676, 677, 678, 679, 680, 681, 682, 683, 684, 685, 686, 687, 688, 689, 690, 691, 692, 693, 694, 695, 696, 697, 698, 699, 700, 701, 702, 703, 704, 705, 706, 707, 708, 709, 710, 711, 712, 713, 714, 715, 716, 717, 718, 719, 720, 721, 722, 723, 724, 725, 726, 727, 728, 729, 730, 731, 732, 733, 734, 735, 736, 737, 738, 739, 740, 741, 742, 743, 744, 745, 746, 747, 748, 749, 750, 751, 752, 753, 754, 755, 756, 757, 758, 759, 760, 761, 762, 763, 764, 765, 766, 767, 768, 769, 770, 771, 772, 773, 774, 775, 776, 777, 778, 779, 780, 781, 782, 783, 784, 785, 786, 787, 788, 789, 790, 791, 792, 793, 794, 795, 796, 797, 798, 799, 800, 801, 802, 803, 804, 805, 806, 807, 808, 809, 810, 811, 812, 813, 814, 815, 816, 817, 818, 819, 820, 821, 822, 823, 824, 825, 826, 827, 828, 829, 830, 831, 832, 833, 834, 835, 836, 837, 838, 839, 840, 841, 842, 843, 844, 845, 846, 847, 848, 849, 850, 851, 852, 853, 854, 855, 856, 857, 858, 859, 860, 861, 862, 863, 864, 865, 866, 867, 868, 869, 870, 871, 872, 873, 874, 875, 876, 877, 878, 879, 880, 881, 882, 883, 884, 885, 886, 887, 888, 889, 890, 891, 892, 893, 894, 895, 896, 897, 898, 899, 900, 901, 902, 903, 904, 905, 906, 907, 908, 909, 910, 911, 912, 913, 914],
      "AcquisitionTime": ["140414.547500", "140415.007500", "140415.467500", "140415.927500", "140416.387500", "140416.847500", "140417.307500", "140417.767500", "140418.227500", "140418.687500", "140419.147500", "140419.607500", "140420.067500", "140420.527500", "140420.987500", "140421.447500", "140421.907500", "140422.367500", "140422.827500", "140423.287500", "140423.747500", "140424.207500", "140424.667500", "140425.127500", "140425.587500", "140426.047500", "140426.507500", "140426.967500", "140427.427500", "140427.887500", "140428.347500", "140428.807500", "140429.267500", "140429.727500", "140430.187500", "140430.647500", "140431.107500", "140431.567500", "140432.027500", "140432.487500", "140432.947500", "140433.407500", "140433.867500", "140434.327500", "140434.787500", "140435.247500", "140435.707500", "140436.167500", "140436.627500", "140437.087500", "140437.547500", "140438.007500", "140438.467500", "140438.927500", "140439.387500", "140439.847500", "140440.307500", "140440.767500", "140441.227500", "140441.687500", "140442.147500", "140442.607500", "140443.067500", "140443.527500", "140443.987500", "140444.447500", "140444.907500", "140445.367500", "140445.827500", "140446.287500", "140446.747500", "140447.207500", "140447.667500", "140448.127500", "140448.587500", "140449.047500", "140449.507500", "140449.967500", "140450.427500", "140450.887500", "140451.347500", "140451.807500", "140452.267500", "140452.727500", "140453.187500", "140453.647500", "140454.107500", "140454.567500", "140455.027500", "140455.487500", "140455.947500", "140456.407500", "140456.867500", "140457.327500", "140457.787500", "140458.247500", "140458.707500", "140459.167500", "140459.627500", "140500.087500", "140500.547500", "140501.007500", "140501.467500", "140501.927500", "140502.387500", "140502.847500", "140503.307500", "140503.767500", "140504.227500", "140504.687500", "140505.147500", "140505.607500", "140506.067500", "140506.527500", "140506.987500", "140507.447500", "140507.907500", "140508.367500", "140508.827500", "140509.287500", "140509.747500", "140510.207500", "140510.667500", "140511.127500", "140511.587500", "140512.047500", "140512.507500", "140512.967500", "140513.427500", "140513.887500", "140514.347500", "140514.807500", "140515.267500", "140515.727500", "140516.187500", "140516.647500", "140517.107500", "140517.567500", "140518.027500", "140518.487500", "140518.947500", "140519.407500", "140519.867500", "140520.327500", "140520.787500", "140521.247500", "140521.707500", "140522.167500", "140522.627500", "140523.087500", "140523.547500", "140524.007500", "140524.467500", "140524.927500", "140525.387500", "140525.847500", "140526.307500", "140526.767500", "140527.227500", "140527.687500", "140528.147500", "140528.607500", "140529.067500", "140529.527500", "140529.987500", "140530.447500", "140530.907500", "140531.367500", "140531.827500", "140532.287500", "140532.747500", "140533.207500", "140533.667500", "140534.127500", "140534.587500", "140535.047500", "140535.507500", "140535.967500", "140536.427500", "140536.887500", "140537.347500", "140537.807500", "140538.267500", "140538.727500", "140539.187500", "140539.647500", "140540.107500", "140540.567500", "140541.027500", "140541.487500", "140541.947500", "140542.407500", "140542.867500", "140543.327500", "140543.787500", "140544.247500", "140544.707500", "140545.167500", "140545.627500", "140546.087500", "140546.547500", "140547.007500", "140547.467500", "140547.927500", "140548.387500", "140548.847500", "140549.307500", "140549.767500", "140550.227500", "140550.687500", "140551.147500", "140551.607500", "140552.067500", "140552.527500", "140552.987500", "140553.447500", "140553.907500", "140554.367500", "140554.827500", "140555.287500", "140555.747500", "140556.207500", "140556.667500", "140557.127500", "140557.587500", "140558.047500", "140558.507500", "140558.967500", "140559.427500", "140559.887500", "140600.347500", "140600.807500", "140601.267500", "140601.727500", "140602.187500", "140602.647500", "140603.107500", "140603.567500", "140604.027500", "140604.487500", "140604.947500", "140605.407500", "140605.867500", "140606.327500", "140606.787500", "140607.247500", "140607.707500", "140608.167500", "140608.627500", "140609.087500", "140609.547500", "140610.007500", "140610.467500", "140610.927500", "140611.387500", "140611.847500", "140612.307500", "140612.767500", "140613.227500", "140613.687500", "140614.147500", "140614.607500", "140615.067500", "140615.527500", "140615.987500", "140616.447500", "140616.907500", "140617.367500", "140617.827500", "140618.287500", "140618.747500", "140619.207500", "140619.667500", "140620.127500", "140620.587500", "140621.047500", "140621.507500", "140621.967500", "140622.427500", "140622.887500", "140623.347500", "140623.807500", "140624.267500", "140624.727500", "140625.187500", "140625.647500", "140626.107500", "140626.567500", "140627.027500", "140627.487500", "140627.947500", "140628.407500", "140628.867500", "140629.327500", "140629.787500", "140630.247500", "140630.707500", "140631.167500", "140631.627500", "140632.087500", "140632.547500", "140633.007500", "140633.467500", "140633.927500", "140634.387500", "140634.847500", "140635.307500", "140635.767500", "140636.227500", "140636.687500", "140637.147500", "140637.607500", "140638.067500", "140638.527500", "140638.987500", "140639.447500", "140639.907500", "140640.367500", "140640.827500", "140641.287500", "140641.747500", "140642.207500", "140642.667500", "140643.127500", "140643.587500", "140644.047500", "140644.507500", "140644.967500", "140645.427500", "140645.887500", "140646.347500", "140646.807500", "140647.267500", "140647.727500", "140648.187500", "140648.647500", "140649.107500", "140649.567500", "140650.027500", "140650.487500", "140650.947500", "140651.407500", "140651.867500", "140652.327500", "140652.787500", "140653.247500", "140653.707500", "140654.167500", "140654.627500", "140655.087500", "140655.547500", "140656.007500", "140656.467500", "140656.927500", "140657.387500", "140657.847500", "140658.307500", "140658.767500", "140659.227500", "140659.687500", "140700.147500", "140700.607500", "140701.067500", "140701.527500", "140701.987500", "140702.447500", "140702.907500", "140703.367500", "140703.827500", "140704.287500", "140704.747500", "140705.207500", "140705.667500", "140706.127500", "140706.587500", "140707.047500", "140707.507500", "140707.967500", "140708.427500", "140708.887500", "140709.347500", "140709.807500", "140710.267500", "140710.727500", "140711.187500", "140711.647500", "140712.107500", "140712.567500", "140713.027500", "140713.487500", "140713.947500", "140714.407500", "140714.867500", "140715.327500", "140715.787500", "140716.247500", "140716.707500", "140717.167500", "140717.627500", "140718.087500", "140718.547500", "140719.007500", "140719.467500", "140719.927500", "140720.387500", "140720.847500", "140721.307500", "140721.767500", "140722.227500", "140722.687500", "140723.147500", "140723.607500", "140724.067500", "140724.527500", "140724.987500", "140725.447500", "140725.907500", "140726.367500", "140726.827500", "140727.287500", "140727.747500", "140728.207500", "140728.667500", "140729.127500", "140729.587500", "140730.047500", "140730.507500", "140730.967500", "140731.427500", "140731.887500", "140732.347500", "140732.807500", "140733.267500", "140733.727500", "140734.187500", "140734.647500", "140735.107500", "140735.567500", "140736.027500", "140736.487500", "140736.947500", "140737.407500", "140737.867500", "140738.327500", "140738.787500", "140739.247500", "140739.707500", "140740.167500", "140740.627500", "140741.087500", "140741.547500", "140742.007500", "140742.467500", "140742.927500", "140743.387500", "140743.847500", "140744.307500", "140744.767500", "140745.227500", "140745.687500", "140746.147500", "140746.607500", "140747.067500", "140747.527500", "140747.987500", "140748.447500", "140748.907500", "140749.367500", "140749.827500", "140750.287500", "140750.747500", "140751.207500", "140751.667500", "140752.127500", "140752.587500", "140753.047500", "140753.507500", "140753.967500", "140754.427500", "140754.887500", "140755.347500", "140755.807500", "140756.267500", "140756.727500", "140757.187500", "140757.647500", "140758.107500", "140758.567500", "140759.027500", "140759.487500", "140759.947500", "140800.407500", "140800.867500", "140801.327500", "140801.787500", "140802.247500", "140802.707500", "140803.167500", "140803.627500", "140804.087500", "140804.547500", "140805.007500", "140805.467500", "140805.927500", "140806.387500", "140806.847500", "140807.307500", "140807.767500", "140808.227500", "140808.687500", "140809.147500", "140809.607500", "140810.067500", "140810.527500", "140810.987500", "140811.447500", "140811.907500", "140812.367500", "140812.827500", "140813.287500", "140813.747500", "140814.207500", "140814.667500", "140815.127500", "140815.587500", "140816.047500", "140816.507500", "140816.967500", "140817.427500", "140817.887500", "140818.347500", "140818.807500", "140819.267500", "140819.727500", "140820.187500", "140820.647500", "140821.107500", "140821.567500", "140822.027500", "140822.487500", "140822.947500", "140823.407500", "140823.867500", "140824.327500", "140824.787500", "140825.247500", "140825.707500", "140826.167500", "140826.627500", "140827.087500", "140827.547500", "140828.007500", "140828.467500", "140828.927500", "140829.387500", "140829.847500", "140830.307500", "140830.767500", "140831.227500", "140831.687500", "140832.147500", "140832.607500", "140833.067500", "140833.527500", "140833.987500", "140834.447500", "140834.907500", "140835.367500", "140835.827500", "140836.287500", "140836.747500", "140837.207500", "140837.667500", "140838.127500", "140838.587500", "140839.047500", "140839.507500", "140839.967500", "140840.427500", "140840.887500", "140841.347500", "140841.807500", "140842.267500", "140842.727500", "140843.187500", "140843.647500", "140844.107500", "140844.567500", "140845.027500", "140845.487500", "140845.947500", "140846.407500", "140846.867500", "140847.327500", "140847.787500", "140848.247500", "140848.707500", "140849.167500", "140849.627500", "140850.087500", "140850.547500", "140851.007500", "140851.467500", "140851.927500", "140852.387500", "140852.847500", "140853.307500", "140853.767500", "140854.227500", "140854.687500", "140855.147500", "140855.607500", "140856.067500", "140856.527500", "140856.987500", "140857.447500", "140857.907500", "140858.367500", "140858.827500", "140859.287500", "140859.747500", "140900.207500", "140900.667500", "140901.127500", "140901.587500", "140902.047500", "140902.507500", "140902.967500", "140903.427500", "140903.887500", "140904.347500", "140904.807500", "140905.267500", "140905.727500", "140906.187500", "140906.647500", "140907.107500", "140907.567500", "140908.027500", "140908.487500", "140908.947500", "140909.407500", "140909.867500", "140910.327500", "140910.787500", "140911.247500", "140911.707500", "140912.167500", "140912.627500", "140913.087500", "140913.547500", "140914.007500", "140914.467500", "140914.927500", "140915.387500", "140915.847500", "140916.307500", "140916.767500", "140917.227500", "140917.687500", "140918.147500", "140918.607500", "140919.067500", "140919.527500", "140919.987500", "140920.447500", "140920.907500", "140921.367500", "140921.827500", "140922.287500", "140922.747500", "140923.207500", "140923.667500", "140924.127500", "140924.587500", "140925.047500", "140925.507500", "140925.967500", "140926.427500", "140926.887500", "140927.347500", "140927.807500", "140928.267500", "140928.727500", "140929.187500", "140929.647500", "140930.107500", "140930.567500", "140931.027500", "140931.487500", "140931.947500", "140932.407500", "140932.867500", "140933.327500", "140933.787500", "140934.247500", "140934.707500", "140935.167500", "140935.627500", "140936.087500", "140936.547500", "140937.007500", "140937.467500", "140937.927500", "140938.387500", "140938.847500", "140939.307500", "140939.767500", "140940.227500", "140940.687500", "140941.147500", "140941.607500", "140942.067500", "140942.527500", "140942.987500", "140943.447500", "140943.907500", "140944.367500", "140944.827500", "140945.287500", "140945.747500", "140946.207500", "140946.667500", "140947.127500", "140947.587500", "140948.047500", "140948.507500", "140948.967500", "140949.427500", "140949.887500", "140950.347500", "140950.807500", "140951.267500", "140951.727500", "140952.187500", "140952.647500", "140953.107500", "140953.567500", "140954.027500", "140954.487500", "140954.947500", "140955.407500", "140955.867500", "140956.327500", "140956.787500", "140957.247500", "140957.707500", "140958.167500", "140958.627500", "140959.087500", "140959.547500", "141000.007500", "141000.467500", "141000.927500", "141001.387500", "141001.847500", "141002.307500", "141002.767500", "141003.227500", "141003.687500", "141004.147500", "141004.607500", "141005.067500", "141005.527500", "141005.987500", "141006.447500", "141006.907500", "141007.367500", "141007.827500", "141008.287500", "141008.747500", "141009.207500", "141009.667500", "141010.127500", "141010.587500", "141011.047500", "141011.507500", "141011.967500", "141012.427500", "141012.887500", "141013.347500", "141013.807500", "141014.267500", "141014.727500", "141015.187500", "141015.647500", "141016.107500", "141016.567500", "141017.027500", "141017.487500", "141017.947500", "141018.407500", "141018.867500", "141019.327500", "141019.787500", "141020.247500", "141020.707500", "141021.167500", "141021.627500", "141022.087500", "141022.547500", "141023.007500", "141023.467500", "141023.927500", "141024.387500", "141024.847500", "141025.307500", "141025.767500", "141026.227500", "141026.687500", "141027.147500", "141027.607500", "141028.067500", "141028.527500", "141028.987500", "141029.447500", "141029.907500", "141030.367500", "141030.827500", "141031.287500", "141031.747500", "141032.207500", "141032.667500", "141033.127500", "141033.587500", "141034.047500", "141034.507500", "141034.967500", "141035.427500", "141035.887500", "141036.347500", "141036.807500", "141037.267500", "141037.727500", "141038.187500", "141038.647500", "141039.107500", "141039.567500", "141040.027500", "141040.487500", "141040.947500", "141041.407500", "141041.867500", "141042.327500", "141042.787500", "141043.247500", "141043.707500", "141044.167500", "141044.627500", "141045.087500", "141045.547500", "141046.007500", "141046.467500", "141046.927500", "141047.387500", "141047.847500", "141048.307500", "141048.767500", "141049.227500", "141049.687500", "141050.147500", "141050.607500", "141051.067500", "141051.527500", "141051.987500", "141052.447500", "141052.907500", "141053.367500", "141053.827500", "141054.287500", "141054.747500", "141055.207500", "141055.667500", "141056.127500", "141056.587500", "141057.047500", "141057.507500", "141057.967500", "141058.427500", "141058.887500", "141059.347500", "141059.807500", "141100.267500", "141100.727500", "141101.187500", "141101.647500", "141102.107500", "141102.567500", "141103.027500", "141103.487500", "141103.947500", "141104.407500", "141104.867500", "141105.327500", "141105.787500", "141106.247500", "141106.707500", "141107.167500", "141107.627500", "141108.087500", "141108.547500", "141109.007500", "141109.467500", "141109.927500", "141110.387500", "141110.847500", "141111.307500", "141111.767500", "141112.227500", "141112.687500", "141113.147500", "141113.607500", "141114.067500", "141114.527500"],
