{
  "AcquisitionMatrixPE": 82,
  "AcquisitionNumber": 1,
  "AcquisitionTime": "14:11:41.780000",
  "BandwidthPerPixelPhaseEncode": 24.888,
  "BaseResolution": 82,
  "BodyPartExamined": "BRAIN",
  "ConsistencyInfo": "N4_VE11E_LATEST_20181129",
  "ConversionSoftware": "dcm2niix",
  "ConversionSoftwareVersion": "v1.0.20201102",
  "DerivedVendorReportedEchoSpacing": 0.00049,
  "DeviceSerialNumber": "66112",
  "DwellTime": 2e-06,
  "EchoTime": 0.0272,
  "EchoTrainLength": 82,
  "EffectiveEchoSpacing": 0.00049,
  "FlipAngle": 44,
  "ImageComments": "Unaliased MB8/PE3",
  "ImageOrientationPatientDICOM": [0.997015, 0.074352, -0.0207856, -0.0732162, 0.996016, 0.0509041],
  "ImageType": [
    "ORIGINAL",
    "PRIMARY",
    "M",
    "MB",
    "ND",
    "NORM",
    "MOSAIC"
],
  "ImagingFrequency": 123.259,
  "InPlanePhaseEncodingDirectionDICOM": "COL",
  "InstitutionAddress": "Maynard 3,Hanover,NH,US,03755",
  "InstitutionName": "Dartmouth College - PBS",
  "InstitutionalDepartmentName": "Department",
  "MRAcquisitionType": "2D",
  "MagneticFieldStrength": 3,
  "Manufacturer": "Siemens",
  "ManufacturersModelName": "Prisma",
  "Modality": "MR",
  "MultibandAccelerationFactor": 8,
  "PartialFourier": 1,
  "PatientPosition": "HFS",
  "PercentPhaseFOV": 100,
  "PercentSampling": 100,
  "PhaseEncodingDirection": "j-",
  "PhaseEncodingSteps": 82,
  "PhaseResolution": 1,
  "PixelBandwidth": 3050,
  "ProcedureStepDescription": "Wager_Wager^1076_spacetop",
  "ProtocolName": "func_run-02_task-faces_acq-ap-mb8",
  "PulseSequenceDetails": "%CustomerSeq%\\cmrr_mbep2d_bold",
  "ReceiveCoilActiveElements": "HEA;HEP",
  "ReceiveCoilName": "Head_32",
  "ReconMatrixPE": 82,
  "RepetitionTime": 0.46,
  "SAR": 0.0820768,
  "ScanOptions": "FS",
  "ScanningSequence": "EP",
  "SequenceName": "epfid2d1_82",
  "SequenceVariant": "SK\\SS",
  "SeriesDescription": "func_run-02_task-faces_acq-ap-mb8",
  "SeriesNumber": 18,
  "ShimSetting": [4234, -7721, -7197, 309, -49, 174, 144, 63],
  "SliceThickness": 2.7,
  "SliceTiming": [0, 0.25, 0.0625, 0.315, 0.125, 0.3775, 0.1875, 0, 0.25, 0.0625, 0.315, 0.125, 0.3775, 0.1875, 0, 0.25, 0.0625, 0.315, 0.125, 0.3775, 0.1875, 0, 0.25, 0.0625, 0.315, 0.125, 0.3775, 0.1875, 0, 0.25, 0.0625, 0.315, 0.125, 0.3775, 0.1875, 0, 0.25, 0.0625, 0.315, 0.125, 0.3775, 0.1875, 0, 0.25, 0.0625, 0.315, 0.125, 0.3775, 0.1875, 0, 0.25, 0.0625, 0.315, 0.125, 0.3775, 0.1875],
  "SoftwareVersions": "syngo MR E11",
  "SpacingBetweenSlices": 2.7,
  "StationName": "AWP66112",
  "TaskName": "faces",
  "TotalReadoutTime": 0.03969,
  "TxRefAmp": 222.337,
  "WipMemBlock": "6d9472db-8a55-4a78-9583-c1d7899087aa||Sequence: R016 ve11e/master r/434b28f1; Aug  7 2019 18:53:46 by eja",
  "dcmmeta_affine": [
    [-2.674919366836548, -0.19643373787403107, -0.06611664593219757, 122.91509246826172],
    [-0.19948090612888336, 2.67223858833313, 0.13292181491851807, -97.3626937866211],
    [-0.05576633661985397, -0.13657191395759583, 2.695915460586548, -38.50493621826172],
    [0.0, 0.0, 0.0, 1.0]
],
  "dcmmeta_reorient_transform": [
    [0.0, -1.0, 0.0, 81.0],
    [1.0, 0.0, 0.0, 0.0],
    [0.0, 0.0, 1.0, 0.0],
    [0.0, 0.0, 0.0, 1.0]
],
  "dcmmeta_shape": [82, 82, 56, 914],
  "dcmmeta_slice_dim": 2,
  "dcmmeta_version": 0.6,
  "global": {
    "const": {
      "AccessionNumber": "A004481",
      "AcquisitionMatrix": [82, 0, 0, 82],
      "AngioFlag": "N",
      "BitsAllocated": 16,
      "BitsStored": 16,
      "BodyPartExamined": "BRAIN",
      "Columns": 656,
      "EchoNumbers": 1,
      "EchoTime": 27.2,
      "EchoTrainLength": 82,
      "FlipAngle": 44.0,
      "HighBit": 15,
      "ImageOrientationPatient": [0.99701541706162, 0.07435197079609, -0.0207856339856, -0.0732162097315, 0.99601614534483, 0.050904074935],
      "ImagePositionPatient": [-818.32936585799, -943.27209095346, -72.758462981324],
      "ImageType": [
        "ORIGINAL",
        "PRIMARY",
        "M",
        "MB",
        "ND",
        "NORM",
        "MOSAIC"
],
      "ImagedNucleus": "1H",
      "ImagingFrequency": 123.259077,
      "InPlanePhaseEncodingDirection": "COL",
      "MRAcquisitionType": "2D",
      "MagneticFieldStrength": 3.0,
      "Manufacturer": "SIEMENS",
      "ManufacturerModelName": "Prisma",
      "Modality": "MR",
      "NumberOfAverages": 1.0,
      "NumberOfPhaseEncodingSteps": 82,
      "PercentPhaseFieldOfView": 100.0,
      "PercentSampling": 100.0,
      "PerformedProcedureStepStartTime": "131005.993000",
      "PhotometricInterpretation": "MONOCHROME2",
      "PixelBandwidth": 3050.0,
      "PixelRepresentation": 0,
      "PixelSpacing": [2.6829268932343, 2.6829268932343],
      "ProtocolName": "func_run-02_task-faces_acq-ap-mb8",
      "RepetitionTime": 460.0,
      "Rows": 656,
      "SAR": 0.08207683817002,
      "SamplesPerPixel": 1,
      "ScanOptions": "FS",
      "ScanningSequence": "EP",
      "SequenceName": "epfid2d1_82",
      "SequenceVariant": [
        "SK",
        "SS"
],
      "SeriesDescription": "func_run-02_task-faces_acq-ap-mb8",
      "SeriesNumber": 18,
      "SeriesTime": "141158.905000",
      "SliceLocation": -46.249784798809,
      "SliceThickness": 2.7000000476837,
      "SmallestImagePixelValue": 0,
      "SoftwareVersions": "syngo MR E11",
      "SpacingBetweenSlices": 2.699999999797,
      "SpecificCharacterSet": "ISO_IR 100",
      "StudyID": "2",
      "StudyTime": "131005.784000",
      "TransmitCoilName": "Body",
      "VariableFlipAngleFlag": "N",
      "WindowCenterWidthExplanation": "Algo1"
    },
    "slices": {}
  },
  "time": {
    "samples": {
      "AcquisitionNumber": [1, 2, 3, 4, 5, 6, 7, 8, 9, 10, 11, 12, 13, 14, 15, 16, 17, 18, 19, 20, 21, 22, 23, 24, 25, 26, 27, 28, 29, 30, 31, 32, 33, 34, 35, 36, 37, 38, 39, 40, 41, 42, 43, 44, 45, 46, 47, 48, 49, 50, 51, 52, 53, 54, 55, 56, 57, 58, 59, 60, 61, 62, 63, 64, 65, 66, 67, 68, 69, 70, 71, 72, 73, 74, 75, 76, 77, 78, 79, 80, 81, 82, 83, 84, 85, 86, 87, 88, 89, 90, 91, 92, 93, 94, 95, 96, 97, 98, 99, 100, 101, 102, 103, 104, 105, 106, 107, 108, 109, 110, 111, 112, 113, 114, 115, 116, 117, 118, 119, 120, 121, 122, 123, 124, 125, 126, 127, 128, 129, 130, 131, 132, 133, 134, 135, 136, 137, 138, 139, 140, 141, 142, 143, 144, 145, 146, 147, 148, 149, 150, 151, 152, 153, 154, 155, 156, 157, 158, 159, 160, 161, 162, 163, 164, 165, 166, 167, 168, 169, 170, 171, 172, 173, 174, 175, 176, 177, 178, 179, 180, 181, 182, 183, 184, 185, 186, 187, 188, 189, 190, 191, 192, 193, 194, 195, 196, 197, 198, 199, 200, 201, 202, 203, 204, 205, 206, 207, 208, 209, 210, 211, 212, 213, 214, 215, 216, 217, 218, 219, 220, 221, 222, 223, 224, 225, 226, 227, 228, 229, 230, 231, 232, 233, 234, 235, 236, 237, 238, 239, 240, 241, 242, 243, 244, 245, 246, 247, 248, 249, 250, 251, 252, 253, 254, 255, 256, 257, 258, 259, 260, 261, 262, 263, 264, 265, 266, 267, 268, 269, 270, 271, 272, 273, 274, 275, 276, 277, 278, 279, 280, 281, 282, 283, 284, 285, 286, 287, 288, 289, 290, 291, 292, 293, 294, 295, 296, 297, 298, 299, 300, 301, 302, 303, 304, 305, 306, 307, 308, 309, 310, 311, 312, 313, 314, 315, 316, 317, 318, 319, 320, 321, 322, 323, 324, 325, 326, 327, 328, 329, 330, 331, 332, 333, 334, 335, 336, 337, 338, 339, 340, 341, 342, 343, 344, 345, 346, 347, 348, 349, 350, 351, 352, 353, 354, 355, 356, 357, 358, 359, 360, 361, 362, 363, 364, 365, 366, 367, 368, 369, 370, 371, 372, 373, 374, 375, 376, 377, 378, 379, 380, 381, 382, 383, 384, 385, 386, 387, 388, 389, 390, 391, 392, 393, 394, 395, 396, 397, 398, 399, 400, 401, 402, 403, 404, 405, 406, 407, 408, 409, 410, 411, 412, 413, 414, 415, 416, 417, 418, 419, 420, 421, 422, 423, 424, 425, 426, 427, 428, 429, 430, 431, 432, 433, 434, 435, 436, 437, 438, 439, 440, 441, 442, 443, 444, 445, 446, 447, 448, 449, 450, 451, 452, 453, 454, 455, 456, 457, 458, 459, 460, 461, 462, 463, 464, 465, 466, 467, 468, 469, 470, 471, 472, 473, 474, 475, 476, 477, 478, 479, 480, 481, 482, 483, 484, 485, 486, 487, 488, 489, 490, 491, 492, 493, 494, 495, 496, 497, 498, 499, 500, 501, 502, 503, 504, 505, 506, 507, 508, 509, 510, 511, 512, 513, 514, 515, 516, 517, 518, 519, 520, 521, 522, 523, 524, 525, 526, 527, 528, 529, 530, 531, 532, 533, 534, 535, 536, 537, 538, 539, 540, 541, 542, 543, 544, 545, 546, 547, 548, 549, 550, 551, 552, 553, 554, 555, 556, 557, 558, 559, 560, 561, 562, 563, 564, 565, 566, 567, 568, 569, 570, 571, 572, 573, 574, 575, 576, 577, 578, 579, 580, 581, 582, 583, 584, 585, 586, 587, 588, 589, 590, 591, 592, 593, 594, 595, 596, 597, 598, 599, 600, 601, 602, 603, 604, 605, 606, 607, 608, 609, 610, 611, 612, 613, 614, 615, 616, 617, 618, 619, 620, 621, 622, 623, 624, 625, 626, 627, 628, 629, 630, 631, 632, 633, 634, 635, 636, 637, 638, 639, 640, 641, 642, 643, 644, 645, 646, 647, 648, 649, 650, 651, 652, 653, 654, 655, 656, 657, 658, 659, 660, 661, 662, 663, 664, 665, 666, 667, 668, 669, 670, 671, 672, 673, 674, 675, 676, 677, 678, 679, 680, 681, 682, 683, 684, 685, 686, 687, 688, 689, 690, 691, 692, 693, 694, 695, 696, 697, 698, 699, 700, 701, 702, 703, 704, 705, 706, 707, 708, 709, 710, 711, 712, 713, 714, 715, 716, 717, 718, 719, 720, 721, 722, 723, 724, 725, 726, 727, 728, 729, 730, 731, 732, 733, 734, 735, 736, 737, 738, 739, 740, 741, 742, 743, 744, 745, 746, 747, 748, 749, 750, 751, 752, 753, 754, 755, 756, 757, 758, 759, 760, 761, 762, 763, 764, 765, 766, 767, 768, 769, 770, 771, 772, 773, 774, 775, 776, 777, 778, 779, 780, 781, 782, 783, 784, 785, 786, 787, 788, 789, 790, 791, 792, 793, 794, 795, 796, 797, 798, 799, 800, 801, 802, 803, 804, 805, 806, 807, 808, 809, 810, 811, 812, 813, 814, 815, 816, 817, 818, 819, 820, 821, 822, 823, 824, 825, 826, 827, 828, 829, 830, 831, 832, 833, 834, 835, 836, 837, 838, 839, 840, 841, 842, 843, 844, 845, 846, 847, 848, 849, 850, 851, 852, 853, 854, 855, 856, 857, 858, 859, 860, 861, 862, 863, 864, 865, 866, 867, 868, 869, 870, 871, 872, 873, 874, 875, 876, 877, 878, 879, 880, 881, 882, 883, 884, 885, 886, 887, 888, 889, 890, 891, 892, 893, 894, 895, 896, 897, 898, 899, 900, 901, 902, 903, 904, 905, 906, 907, 908, 909, 910, 911, 912, 913, 914],
      "AcquisitionTime": ["141141.780000", "141142.240000", "141142.700000", "141143.160000", "141143.620000", "141144.080000", "141144.540000", "141145.000000", "141145.460000", "141145.920000", "141146.380000", "141146.840000", "141147.300000", "141147.760000", "141148.220000", "141148.680000", "141149.140000", "141149.600000", "141150.060000", "141150.520000", "141150.980000", "141151.440000", "141151.900000", "141152.360000", "141152.820000", "141153.280000", "141153.740000", "141154.200000", "141154.660000", "141155.120000", "141155.580000", "141156.040000", "141156.500000", "141156.960000", "141157.420000", "141157.880000", "141158.340000", "141158.800000", "141159.260000", "141159.720000", "141200.180000", "141200.640000", "141201.100000", "141201.560000", "141202.020000", "141202.480000", "141202.940000", "141203.400000", "141203.860000", "141204.320000", "141204.780000", "141205.240000", "141205.700000", "141206.160000", "141206.620000", "141207.080000", "141207.540000", "141208.000000", "141208.460000", "141208.920000", "141209.380000", "141209.840000", "141210.300000", "141210.760000", "141211.220000", "141211.680000", "141212.140000", "141212.600000", "141213.060000", "141213.520000", "141213.980000", "141214.440000", "141214.900000", "141215.360000", "141215.820000", "141216.280000", "141216.740000", "141217.200000", "141217.660000", "141218.120000", "141218.580000", "141219.040000", "141219.500000", "141219.960000", "141220.420000", "141220.880000", "141221.340000", "141221.800000", "141222.260000", "141222.720000", "141223.180000", "141223.640000", "141224.100000", "141224.560000", "141225.020000", "141225.480000", "141225.940000", "141226.400000", "141226.860000", "141227.320000", "141227.780000", "141228.240000", "141228.700000", "141229.160000", "141229.620000", "141230.080000", "141230.540000", "141231.000000", "141231.460000", "141231.920000", "141232.380000", "141232.840000", "141233.300000", "141233.760000", "141234.220000", "141234.680000", "141235.140000", "141235.600000", "141236.060000", "141236.520000", "141236.980000", "141237.440000", "141237.900000", "141238.360000", "141238.820000", "141239.280000", "141239.740000", "141240.200000", "141240.660000", "141241.120000", "141241.580000", "141242.040000", "141242.500000", "141242.960000", "141243.420000", "141243.880000", "141244.340000", "141244.800000", "141245.260000", "141245.720000", "141246.180000", "141246.640000", "141247.100000", "141247.560000", "141248.020000", "141248.480000", "141248.940000", "141249.400000", "141249.860000", "141250.320000", "141250.780000", "141251.240000", "141251.700000", "141252.160000", "141252.620000", "141253.080000", "141253.540000", "141254.000000", "141254.460000", "141254.920000", "141255.380000", "141255.840000", "141256.300000", "141256.760000", "141257.220000", "141257.680000", "141258.140000", "141258.600000", "141259.060000", "141259.520000", "141259.980000", "141300.440000", "141300.900000", "141301.360000", "141301.820000", "141302.280000", "141302.740000", "141303.200000", "141303.660000", "141304.120000", "141304.580000", "141305.040000", "141305.500000", "141305.960000", "141306.420000", "141306.880000", "141307.340000", "141307.800000", "141308.260000", "141308.720000", "141309.180000", "141309.640000", "141310.100000", "141310.560000", "141311.020000", "141311.480000", "141311.940000", "141312.400000", "141312.860000", "141313.320000", "141313.780000", "141314.240000", "141314.700000", "141315.160000", "141315.620000", "141316.080000", "141316.540000", "141317.000000", "141317.460000", "141317.920000", "141318.380000", "141318.840000", "141319.300000", "141319.760000", "141320.220000", "141320.680000", "141321.140000", "141321.600000", "141322.060000", "141322.520000", "141322.980000", "141323.440000", "141323.900000", "141324.360000", "141324.820000", "141325.280000", "141325.740000", "141326.200000", "141326.660000", "141327.120000", "141327.580000", "141328.040000", "141328.500000", "141328.960000", "141329.420000", "141329.880000", "141330.340000", "141330.800000", "141331.260000", "141331.720000", "141332.180000", "141332.640000", "141333.100000", "141333.560000", "141334.020000", "141334.480000", "141334.940000", "141335.400000", "141335.860000", "141336.320000", "141336.780000", "141337.240000", "141337.700000", "141338.160000", "141338.620000", "141339.080000", "141339.540000", "141340.000000", "141340.460000", "141340.920000", "141341.380000", "141341.840000", "141342.300000", "141342.760000", "141343.220000", "141343.680000", "141344.140000", "141344.600000", "141345.060000", "141345.520000", "141345.980000", "141346.440000", "141346.900000", "141347.360000", "141347.820000", "141348.280000", "141348.740000", "141349.200000", "141349.660000", "141350.120000", "141350.580000", "141351.040000", "141351.500000", "141351.960000", "141352.420000", "141352.880000", "141353.340000", "141353.800000", "141354.260000", "141354.720000", "141355.180000", "141355.640000", "141356.100000", "141356.560000", "141357.020000", "141357.480000", "141357.940000", "141358.400000", "141358.860000", "141359.320000", "141359.780000", "141400.240000", "141400.700000", "141401.160000", "141401.620000", "141402.080000", "141402.540000", "141403.000000", "141403.460000", "141403.920000", "141404.380000", "141404.840000", "141405.300000", "141405.760000", "141406.220000", "141406.680000", "141407.140000", "141407.600000", "141408.060000", "141408.520000", "141408.980000", "141409.440000", "141409.900000", "141410.360000", "141410.820000", "141411.280000", "141411.740000", "141412.200000", "141412.660000", "141413.120000", "141413.580000", "141414.040000", "141414.500000", "141414.960000", "141415.420000", "141415.880000", "141416.340000", "141416.800000", "141417.260000", "141417.720000", "141418.180000", "141418.640000", "141419.100000", "141419.560000", "141420.020000", "141420.480000", "141420.940000", "141421.400000", "141421.860000", "141422.320000", "141422.780000", "141423.240000", "141423.700000", "141424.160000", "141424.620000", "141425.080000", "141425.540000", "141426.000000", "141426.460000", "141426.920000", "141427.380000", "141427.840000", "141428.300000", "141428.760000", "141429.220000", "141429.680000", "141430.140000", "141430.600000", "141431.060000", "141431.520000", "141431.980000", "141432.440000", "141432.900000", "141433.360000", "141433.820000", "141434.280000", "141434.740000", "141435.200000", "141435.660000", "141436.120000", "141436.580000", "141437.040000", "141437.500000", "141437.960000", "141438.420000", "141438.880000", "141439.340000", "141439.800000", "141440.260000", "141440.720000", "141441.180000", "141441.640000", "141442.100000", "141442.560000", "141443.020000", "141443.480000", "141443.940000", "141444.400000", "141444.860000", "141445.320000", "141445.780000", "141446.240000", "141446.700000", "141447.160000", "141447.620000", "141448.080000", "141448.540000", "141449.000000", "141449.460000", "141449.920000", "141450.380000", "141450.840000", "141451.300000", "141451.760000", "141452.220000", "141452.680000", "141453.140000", "141453.600000", "141454.060000", "141454.520000", "141454.980000", "141455.440000", "141455.900000", "141456.360000", "141456.820000", "141457.280000", "141457.740000", "141458.200000", "141458.660000", "141459.120000", "141459.580000", "141500.040000", "141500.500000", "141500.960000", "141501.420000", "141501.880000", "141502.340000", "141502.800000", "141503.260000", "141503.720000", "141504.180000", "141504.640000", "141505.100000", "141505.560000", "141506.020000", "141506.480000", "141506.940000", "141507.400000", "141507.860000", "141508.320000", "141508.780000", "141509.240000", "141509.700000", "141510.160000", "141510.620000", "141511.080000", "141511.540000", "141512.000000", "141512.460000", "141512.920000", "141513.380000", "141513.840000", "141514.300000", "141514.760000", "141515.220000", "141515.680000", "141516.140000", "141516.600000", "141517.060000", "141517.520000", "141517.980000", "141518.440000", "141518.900000", "141519.360000", "141519.820000", "141520.280000", "141520.740000", "141521.200000", "141521.660000", "141522.120000", "141522.580000", "141523.040000", "141523.500000", "141523.960000", "141524.420000", "141524.880000", "141525.340000", "141525.800000", "141526.260000", "141526.720000", "141527.180000", "141527.640000", "141528.100000", "141528.560000", "141529.020000", "141529.480000", "141529.940000", "141530.400000", "141530.860000", "141531.320000", "141531.780000", "141532.240000", "141532.700000", "141533.160000", "141533.620000", "141534.080000", "141534.540000", "141535.000000", "141535.460000", "141535.920000", "141536.380000", "141536.840000", "141537.300000", "141537.760000", "141538.220000", "141538.680000", "141539.140000", "141539.600000", "141540.060000", "141540.520000", "141540.980000", "141541.440000", "141541.900000", "141542.360000", "141542.820000", "141543.280000", "141543.740000", "141544.200000", "141544.660000", "141545.120000", "141545.580000", "141546.040000", "141546.500000", "141546.960000", "141547.420000", "141547.880000", "141548.340000", "141548.800000", "141549.260000", "141549.720000", "141550.180000", "141550.640000", "141551.100000", "141551.560000", "141552.020000", "141552.480000", "141552.940000", "141553.400000", "141553.860000", "141554.320000", "141554.780000", "141555.240000", "141555.700000", "141556.160000", "141556.620000", "141557.080000", "141557.540000", "141558.000000", "141558.460000", "141558.920000", "141559.380000", "141559.840000", "141600.300000", "141600.760000", "141601.220000", "141601.680000", "141602.140000", "141602.600000", "141603.060000", "141603.520000", "141603.980000", "141604.440000", "141604.900000", "141605.360000", "141605.820000", "141606.280000", "141606.740000", "141607.200000", "141607.660000", "141608.120000", "141608.580000", "141609.040000", "141609.500000", "141609.960000", "141610.420000", "141610.880000", "141611.340000", "141611.800000", "141612.260000", "141612.720000", "141613.180000", "141613.640000", "141614.100000", "141614.560000", "141615.020000", "141615.480000", "141615.940000", "141616.400000", "141616.860000", "141617.320000", "141617.780000", "141618.240000", "141618.700000", "141619.160000", "141619.620000", "141620.080000", "141620.540000", "141621.000000", "141621.460000", "141621.920000", "141622.380000", "141622.840000", "141623.300000", "141623.760000", "141624.220000", "141624.680000", "141625.140000", "141625.600000", "141626.060000", "141626.520000", "141626.980000", "141627.440000", "141627.900000", "141628.360000", "141628.820000", "141629.280000", "141629.740000", "141630.200000", "141630.660000", "141631.120000", "141631.580000", "141632.040000", "141632.500000", "141632.960000", "141633.420000", "141633.880000", "141634.340000", "141634.800000", "141635.260000", "141635.720000", "141636.180000", "141636.640000", "141637.100000", "141637.560000", "141638.020000", "141638.480000", "141638.940000", "141639.400000", "141639.860000", "141640.320000", "141640.780000", "141641.240000", "141641.700000", "141642.160000", "141642.620000", "141643.080000", "141643.540000", "141644.000000", "141644.460000", "141644.920000", "141645.380000", "141645.840000", "141646.300000", "141646.760000", "141647.220000", "141647.680000", "141648.140000", "141648.600000", "141649.060000", "141649.520000", "141649.980000", "141650.440000", "141650.900000", "141651.360000", "141651.820000", "141652.280000", "141652.740000", "141653.200000", "141653.660000", "141654.120000", "141654.580000", "141655.040000", "141655.500000", "141655.960000", "141656.420000", "141656.880000", "141657.340000", "141657.800000", "141658.260000", "141658.720000", "141659.180000", "141659.640000", "141700.100000", "141700.560000", "141701.020000", "141701.480000", "141701.940000", "141702.400000", "141702.860000", "141703.320000", "141703.780000", "141704.240000", "141704.700000", "141705.160000", "141705.620000", "141706.080000", "141706.540000", "141707.000000", "141707.460000", "141707.920000", "141708.380000", "141708.840000", "141709.300000", "141709.760000", "141710.220000", "141710.680000", "141711.140000", "141711.600000", "141712.060000", "141712.520000", "141712.980000", "141713.440000", "141713.900000", "141714.360000", "141714.820000", "141715.280000", "141715.740000", "141716.200000", "141716.660000", "141717.120000", "141717.580000", "141718.040000", "141718.500000", "141718.960000", "141719.420000", "141719.880000", "141720.340000", "141720.800000", "141721.260000", "141721.720000", "141722.180000", "141722.640000", "141723.100000", "141723.560000", "141724.020000", "141724.480000", "141724.940000", "141725.400000", "141725.860000", "141726.320000", "141726.780000", "141727.240000", "141727.700000", "141728.160000", "141728.620000", "141729.080000", "141729.540000", "141730.000000", "141730.460000", "141730.920000", "141731.380000", "141731.840000", "141732.300000", "141732.760000", "141733.220000", "141733.680000", "141734.140000", "141734.600000", "141735.060000", "141735.520000", "141735.980000", "141736.440000", "141736.900000", "141737.360000", "141737.820000", "141738.280000", "141738.740000", "141739.200000", "141739.660000", "141740.120000", "141740.580000", "141741.040000", "141741.500000", "141741.960000", "141742.420000", "141742.880000", "141743.340000", "141743.800000", "141744.260000", "141744.720000", "141745.180000", "141745.640000", "141746.100000", "141746.560000", "141747.020000", "141747.480000", "141747.940000", "141748.400000", "141748.860000", "141749.320000", "141749.780000", "141750.240000", "141750.700000", "141751.160000", "141751.620000", "141752.080000", "141752.540000", "141753.000000", "141753.460000", "141753.920000", "141754.380000", "141754.840000", "141755.300000", "141755.760000", "141756.220000", "141756.680000", "141757.140000", "141757.600000", "141758.060000", "141758.520000", "141758.980000", "141759.440000", "141759.900000", "141800.360000", "141800.820000", "141801.280000", "141801.740000", "141802.200000", "141802.660000", "141803.120000", "141803.580000", "141804.040000", "141804.500000", "141804.960000", "141805.420000", "141805.880000", "141806.340000", "141806.800000", "141807.260000", "141807.720000", "141808.180000", "141808.640000", "141809.100000", "141809.560000", "141810.020000", "141810.480000", "141810.940000", "141811.400000", "141811.860000", "141812.320000", "141812.780000", "141813.240000", "141813.700000", "141814.160000", "141814.620000", "141815.080000", "141815.540000", "141816.000000", "141816.460000", "141816.920000", "141817.380000", "141817.840000", "141818.300000", "141818.760000", "141819.220000", "141819.680000", "141820.140000", "141820.600000", "141821.060000", "141821.520000", "141821.980000", "141822.440000", "141822.900000", "141823.360000", "141823.820000", "141824.280000", "141824.740000", "141825.200000", "141825.660000", "141826.120000", "141826.580000", "141827.040000", "141827.500000", "141827.960000", "141828.420000", "141828.880000", "141829.340000", "141829.800000", "141830.260000", "141830.720000", "141831.180000", "141831.640000", "141832.100000", "141832.560000", "141833.020000", "141833.480000", "141833.940000", "141834.400000", "141834.860000", "141835.320000", "141835.780000", "141836.240000", "141836.700000", "141837.160000", "141837.620000", "141838.080000", "141838.540000", "141839.000000", "141839.460000", "141839.920000", "141840.380000", "141840.840000", "141841.300000", "141841.760000"],
